{
  "AcquisitionMatrixPE": 80,
  "AcquisitionNumber": 1,
  "AcquisitionTime": "08:49:43.760000",
  "BandwidthPerPixelPhaseEncode": 48.077,
  "BaseResolution": 80,
  "BodyPartExamined": "BRAIN",
  "CoilCombinationMethod": "Sum of Squares",
  "ConsistencyInfo": "N4_VE11E_LATEST_20181129",
  "ConversionSoftware": "dcm2niix",
  "ConversionSoftwareVersion": "v1.0.20220720",
  "DerivedVendorReportedEchoSpacing": 0.000519999,
  "DeviceSerialNumber": "66112",
  "DwellTime": 2.7e-06,
  "EchoTime": 0.035,
  "EchoTrainLength": 39,
  "EffectiveEchoSpacing": 0.00026,
  "FlipAngle": 90,
  "HeudiconvVersion": "0.13.1",
  "ImageOrientationPatientDICOM": [0.97648, -0.215567, -0.00430385, 0.207023, 0.931824, 0.298069],
  "ImageOrientationText": "Tra>Cor(17.0)>Sag(3.5)",
  "ImageType": [
    "ORIGINAL",
    "PRIMARY",
    "M",
    "ND",
    "NORM",
    "MOSAIC"
],
  "ImagingFrequency": 123.259,
  "InPlanePhaseEncodingDirectionDICOM": "COL",
  "InstitutionAddress": "Maynard 3,Hanover,NH,US,03755",
  "InstitutionName": "Dartmouth College - PBS",
  "InstitutionalDepartmentName": "Department",
  "MRAcquisitionType": "2D",
  "MagneticFieldStrength": 3,
  "Manufacturer": "Siemens",
  "ManufacturersModelName": "Prisma",
  "MatrixCoilMode": "GRAPPA",
  "Modality": "MR",
  "NonlinearGradientCorrection": false,
  "ParallelReductionFactorInPlane": 2,
  "PartialFourier": 1,
  "PatientPosition": "HFS",
  "PercentPhaseFOV": 100,
  "PercentSampling": 100,
  "PhaseEncodingDirection": "j-",
  "PhaseEncodingSteps": 79,
  "PhaseResolution": 1,
  "PixelBandwidth": 2315,
  "ProcedureStepDescription": "dbic^QA",
  "ProtocolName": "func-bold_task-rest_acq-p2",
  "PulseSequenceDetails": "%SiemensSeq%\\ep2d_bold",
  "ReceiveCoilActiveElements": "HC1-7;NC1,2",
  "ReceiveCoilName": "HeadNeck_64",
  "ReconMatrixPE": 80,
  "RefLinesPE": 24,
  "RepetitionTime": 2,
  "SAR": 0.0447699,
  "ScanOptions": "FS",
  "ScanningSequence": "EP",
  "SequenceName": "*epfid2d1_80",
  "SequenceVariant": "SK",
  "SeriesDescription": "func-bold_task-rest_acq-p2",
  "SeriesNumber": 5,
  "ShimSetting": [4217, -7743, -7483, -175, -156, -105, -66, 88],
  "SliceThickness": 3.5,
  "SliceTiming": [0.99, 0, 1.0575, 0.0675, 1.1225, 0.1325, 1.19, 0.2, 1.255, 0.265, 1.32, 0.33, 1.3875, 0.3975, 1.4525, 0.4625, 1.52, 0.53, 1.585, 0.595, 1.65, 0.66, 1.7175, 0.7275, 1.7825, 0.7925, 1.85, 0.86, 1.915, 0.925],
  "SoftwareVersions": "syngo MR E11",
  "SpacingBetweenSlices": 3.99,
  "StationName": "AWP66112",
  "TaskName": "rest",
  "TotalReadoutTime": 0.02054,
  "TxRefAmp": 212.993,
  "dcmmeta_affine": [
    [-2.929438591003418, 0.6210682392120361, 0.24037086963653564, 89.98637390136719],
    [0.6467011570930481, 2.795473098754883, 1.164875864982605, -130.3944854736328],
    [-0.012911558151245117, -0.8942056894302368, 3.80859375, -20.87419891357422],
    [0.0, 0.0, 0.0, 1.0]
],
  "dcmmeta_reorient_transform": [
    [0.0, -1.0, 0.0, 79.0],
    [1.0, 0.0, 0.0, 0.0],
    [0.0, 0.0, 1.0, 0.0],
    [0.0, 0.0, 0.0, 1.0]
],
  "dcmmeta_shape": [80, 80, 30, 200],
  "dcmmeta_slice_dim": 2,
  "dcmmeta_version": 0.6,
  "global": {
    "const": {
      "AccessionNumber": "qa64",
      "AcquisitionMatrix": [80, 0, 0, 80],
      "AngioFlag": "N",
      "BitsAllocated": 16,
      "BitsStored": 12,
      "BodyPartExamined": "BRAIN",
      "Columns": 480,
      "EchoNumbers": 1,
      "EchoTime": 35.0,
      "EchoTrainLength": 39,
      "FlipAngle": 90.0,
      "HighBit": 11,
      "ImageOrientationPatient": [0.97647955562186, -0.2155670529184, -0.0043038527631, 0.2070227505751, 0.93182440262641, 0.29806855489007],
      "ImagePositionPatient": [-849.15214990654, -520.20231251118, -267.77526830123],
      "ImageType": [
        "ORIGINAL",
        "PRIMARY",
        "M",
        "ND",
        "NORM",
        "MOSAIC"
],
      "ImagedNucleus": "1H",
      "ImagingFrequency": 123.259284,
      "InPlanePhaseEncodingDirection": "COL",
      "MRAcquisitionType": "2D",
      "MagneticFieldStrength": 3.0,
      "Manufacturer": "SIEMENS",
      "ManufacturerModelName": "Prisma",
      "Modality": "MR",
      "NumberOfAverages": 1.0,
      "NumberOfPhaseEncodingSteps": 79,
      "PercentPhaseFieldOfView": 100.0,
      "PercentSampling": 100.0,
      "PerformedProcedureStepStartTime": "084345.853000",
      "PhotometricInterpretation": "MONOCHROME2",
      "PixelBandwidth": 2315.0,
      "PixelRepresentation": 0,
      "PixelSpacing": [3.0, 3.0],
      "ProtocolName": "func-bold_task-rest_acq-p2",
      "RepetitionTime": 2000.0,
      "Rows": 480,
      "SAR": 0.04476991976862,
      "SamplesPerPixel": 1,
      "ScanOptions": "FS",
      "ScanningSequence": "EP",
      "SequenceName": "*epfid2d1_80",
      "SequenceVariant": "SK",
      "SeriesDescription": "func-bold_task-rest_acq-p2",
      "SeriesNumber": 5,
      "SeriesTime": "085029.832000",
      "SliceLocation": -52.57258880453,
      "SliceThickness": 3.5,
      "SmallestImagePixelValue": 0,
      "SoftwareVersions": "syngo MR E11",
      "SpacingBetweenSlices": 3.9900000236731,
      "SpecificCharacterSet": "ISO_IR 100",
      "StudyID": "9",
      "StudyTime": "084345.741000",
      "TransmitCoilName": "Body",
      "VariableFlipAngleFlag": "N",
      "WindowCenterWidthExplanation": "Algo1"
    },
    "slices": {}
  },
  "time": {
    "samples": {
      "AcquisitionNumber": [1, 2, 3, 4, 5, 6, 7, 8, 9, 10, 11, 12, 13, 14, 15, 16, 17, 18, 19, 20, 21, 22, 23, 24, 25, 26, 27, 28, 29, 30, 31, 32, 33, 34, 35, 36, 37, 38, 39, 40, 41, 42, 43, 44, 45, 46, 47, 48, 49, 50, 51, 52, 53, 54, 55, 56, 57, 58, 59, 60, 61, 62, 63, 64, 65, 66, 67, 68, 69, 70, 71, 72, 73, 74, 75, 76, 77, 78, 79, 80, 81, 82, 83, 84, 85, 86, 87, 88, 89, 90, 91, 92, 93, 94, 95, 96, 97, 98, 99, 100, 101, 102, 103, 104, 105, 106, 107, 108, 109, 110, 111, 112, 113, 114, 115, 116, 117, 118, 119, 120, 121, 122, 123, 124, 125, 126, 127, 128, 129, 130, 131, 132, 133, 134, 135, 136, 137, 138, 139, 140, 141, 142, 143, 144, 145, 146, 147, 148, 149, 150, 151, 152, 153, 154, 155, 156, 157, 158, 159, 160, 161, 162, 163, 164, 165, 166, 167, 168, 169, 170, 171, 172, 173, 174, 175, 176, 177, 178, 179, 180, 181, 182, 183, 184, 185, 186, 187, 188, 189, 190, 191, 192, 193, 194, 195, 196, 197, 198, 199, 200],
      "AcquisitionTime": ["084943.760000", "084945.760000", "084947.760000", "084949.760000", "084951.760000", "084953.760000", "084955.760000", "084957.760000", "084959.760000", "085001.760000", "085003.760000", "085005.760000", "085007.760000", "085009.760000", "085011.760000", "085013.760000", "085015.760000", "085017.760000", "085019.760000", "085021.760000", "085023.760000", "085025.760000", "085027.760000", "085029.760000", "085031.760000", "085033.760000", "085035.760000", "085037.760000", "085039.760000", "085041.760000", "085043.760000", "085045.760000", "085047.760000", "085049.760000", "085051.760000", "085053.760000", "085055.760000", "085057.760000", "085059.760000", "085101.760000", "085103.760000", "085105.760000", "085107.760000", "085109.760000", "085111.760000", "085113.760000", "085115.760000", "085117.760000", "085119.760000", "085121.760000", "085123.760000", "085125.760000", "085127.760000", "085129.760000", "085131.760000", "085133.760000", "085135.760000", "085137.760000", "085139.760000", "085141.760000", "085143.760000", "085145.760000", "085147.760000", "085149.760000", "085151.760000", "085153.760000", "085155.760000", "085157.760000", "085159.760000", "085201.760000", "085203.760000", "085205.760000", "085207.760000", "085209.760000", "085211.760000", "085213.760000", "085215.760000", "085217.760000", "085219.760000", "085221.760000", "085223.760000", "085225.760000", "085227.760000", "085229.760000", "085231.760000", "085233.760000", "085235.760000", "085237.760000", "085239.760000", "085241.760000", "085243.760000", "085245.760000", "085247.760000", "085249.760000", "085251.760000", "085253.760000", "085255.760000", "085257.760000", "085259.760000", "085301.760000", "085303.760000", "085305.760000", "085307.760000", "085309.760000", "085311.760000", "085313.760000", "085315.760000", "085317.760000", "085319.760000", "085321.760000", "085323.760000", "085325.760000", "085327.760000", "085329.760000", "085331.760000", "085333.760000", "085335.760000", "085337.760000", "085339.760000", "085341.760000", "085343.760000", "085345.760000", "085347.760000", "085349.760000", "085351.760000", "085353.760000", "085355.760000", "085357.760000", "085359.760000", "085401.760000", "085403.760000", "085405.760000", "085407.760000", "085409.760000", "085411.760000", "085413.760000", "085415.760000", "085417.760000", "085419.760000", "085421.760000", "085423.760000", "085425.760000", "085427.760000", "085429.760000", "085431.760000", "085433.760000", "085435.760000", "085437.760000", "085439.760000", "085441.760000", "085443.760000", "085445.760000", "085447.760000", "085449.760000", "085451.760000", "085453.760000", "085455.760000", "085457.760000", "085459.760000", "085501.760000", "085503.760000", "085505.760000", "085507.760000", "085509.760000", "085511.760000", "085513.760000", "085515.760000", "085517.760000", "085519.760000", "085521.760000", "085523.760000", "085525.760000", "085527.760000", "085529.760000", "085531.760000", "085533.760000", "085535.760000", "085537.760000", "085539.760000", "085541.760000", "085543.760000", "085545.760000", "085547.760000", "085549.760000", "085551.760000", "085553.760000", "085555.760000", "085557.760000", "085559.760000", "085601.760000", "085603.760000", "085605.760000", "085607.760000", "085609.760000", "085611.760000", "085613.760000", "085615.760000", "085617.760000", "085619.760000", "085621.760000"],
      "ContentTime": ["085029.836000", "085029.839000", "085029.841000", "085029.844000", "085029.846000", "085029.848000", "085029.851000", "085029.853000", "085029.856000", "085029.858000", "085029.860000", "085029.863000", "085029.865000", "085029.868000", "085029.870000", "085029.872000", "085029.875000", "085029.877000", "085029.880000", "085029.889000", "085029.892000", "085029.894000", "085029.896000", "085049.831000", "085049.834000", "085049.836000", "085049.839000", "085049.841000", "085049.844000", "085049.846000", "085049.849000", "085049.851000", "085049.853000", "085129.830000", "085129.833000", "085129.835000", "085129.837000", "085129.840000", "085129.843000", "085129.845000", "085129.847000", "085129.850000", "085129.852000", "085129.855000", "085129.857000", "085129.859000", "085129.862000", "085129.864000", "085129.867000", "085129.869000", "085129.871000", "085129.874000", "085129.876000", "085209.830000", "085209.833000", "085209.835000", "085209.837000", "085209.840000", "085209.842000", "085209.845000", "085209.847000", "085209.850000", "085209.852000", "085209.854000", "085209.857000", "085209.859000", "085209.861000", "085209.864000", "085209.866000", "085209.869000", "085209.871000", "085209.873000", "085209.876000", "085249.830000", "085249.833000", "085249.835000", "085249.837000", "085249.840000", "085249.843000", "085249.845000", "085249.847000", "085249.850000", "085249.852000", "085249.855000", "085249.866000", "085249.868000", "085249.871000", "085249.873000", "085249.876000", "085249.878000", "085249.880000", "085249.883000", "085249.885000", "085329.831000", "085329.834000", "085329.836000", "085329.838000", "085329.841000", "085329.905000", "085329.907000", "085329.910000", "085329.912000", "085329.914000", "085329.917000", "085329.919000", "085329.922000", "085329.924000", "085329.927000", "085329.929000", "085329.931000", "085329.934000", "085329.936000", "085329.938000", "085409.830000", "085409.833000", "085409.835000", "085409.837000", "085409.840000", "085409.842000", "085409.845000", "085409.847000", "085409.850000", "085409.852000", "085409.854000", "085409.857000", "085409.859000", "085409.862000", "085409.864000", "085409.866000", "085409.869000", "085409.871000", "085409.874000", "085409.876000", "085449.830000", "085449.833000", "085449.835000", "085449.837000", "085449.840000", "085449.842000", "085449.845000", "085449.847000", "085449.850000", "085449.852000", "085449.854000", "085449.857000", "085449.859000", "085449.862000", "085449.864000", "085449.866000", "085449.869000", "085449.871000", "085449.874000", "085449.876000", "085529.831000", "085529.834000", "085529.836000", "085529.839000", "085529.841000", "085529.844000", "085529.846000", "085529.848000", "085529.851000", "085529.853000", "085529.856000", "085529.858000", "085529.860000", "085529.863000", "085529.865000", "085529.868000", "085529.870000", "085529.872000", "085529.875000", "085529.877000", "085609.830000", "085609.833000", "085609.835000", "085609.838000", "085609.841000", "085609.843000", "085609.845000", "085609.848000", "085609.850000", "085609.853000", "085609.855000", "085609.858000", "085609.860000", "085609.862000", "085609.865000", "085609.867000", "085609.870000", "085609.872000", "085609.874000", "085609.877000", "085623.620000", "085623.624000", "085623.627000", "085623.629000", "085623.635000", "085623.640000", "085623.642000"],
      "InstanceCreationTime": ["085029.836000", "085029.839000", "085029.841000", "085029.844000", "085029.846000", "085029.848000", "085029.851000", "085029.853000", "085029.856000", "085029.858000", "085029.860000", "085029.863000", "085029.865000", "085029.868000", "085029.870000", "085029.872000", "085029.875000", "085029.877000", "085029.880000", "085029.889000", "085029.892000", "085029.894000", "085029.896000", "085049.831000", "085049.834000", "085049.836000", "085049.839000", "085049.841000", "085049.844000", "085049.846000", "085049.849000", "085049.851000", "085049.853000", "085129.830000", "085129.833000", "085129.835000", "085129.837000", "085129.840000", "085129.843000", "085129.845000", "085129.847000", "085129.850000", "085129.852000", "085129.855000", "085129.857000", "085129.859000", "085129.862000", "085129.864000", "085129.867000", "085129.869000", "085129.871000", "085129.874000", "085129.876000", "085209.830000", "085209.833000", "085209.835000", "085209.837000", "085209.840000", "085209.842000", "085209.845000", "085209.847000", "085209.850000", "085209.852000", "085209.854000", "085209.857000", "085209.859000", "085209.861000", "085209.864000", "085209.866000", "085209.869000", "085209.871000", "085209.873000", "085209.876000", "085249.830000", "085249.833000", "085249.835000", "085249.837000", "085249.840000", "085249.843000", "085249.845000", "085249.847000", "085249.850000", "085249.852000", "085249.855000", "085249.866000", "085249.868000", "085249.871000", "085249.873000", "085249.876000", "085249.878000", "085249.880000", "085249.883000", "085249.885000", "085329.831000", "085329.834000", "085329.836000", "085329.838000", "085329.841000", "085329.905000", "085329.907000", "085329.910000", "085329.912000", "085329.914000", "085329.917000", "085329.919000", "085329.922000", "085329.924000", "085329.927000", "085329.929000", "085329.931000", "085329.934000", "085329.936000", "085329.938000", "085409.830000", "085409.833000", "085409.835000", "085409.837000", "085409.840000", "085409.842000", "085409.845000", "085409.847000", "085409.850000", "085409.852000", "085409.854000", "085409.857000", "085409.859000", "085409.862000", "085409.864000", "085409.866000", "085409.869000", "085409.871000", "085409.874000", "085409.876000", "085449.830000", "085449.833000", "085449.835000", "085449.837000", "085449.840000", "085449.842000", "085449.845000", "085449.847000", "085449.850000", "085449.852000", "085449.854000", "085449.857000", "085449.859000", "085449.862000", "085449.864000", "085449.866000", "085449.869000", "085449.871000", "085449.874000", "085449.876000", "085529.831000", "085529.834000", "085529.836000", "085529.839000", "085529.841000", "085529.844000", "085529.846000", "085529.848000", "085529.851000", "085529.853000", "085529.856000", "085529.858000", "085529.860000", "085529.863000", "085529.865000", "085529.868000", "085529.870000", "085529.872000", "085529.875000", "085529.877000", "085609.830000", "085609.833000", "085609.835000", "085609.838000", "085609.841000", "085609.843000", "085609.845000", "085609.848000", "085609.850000", "085609.853000", "085609.855000", "085609.858000", "085609.860000", "085609.862000", "085609.865000", "085609.867000", "085609.870000", "085609.872000", "085609.874000", "085609.877000", "085623.620000", "085623.624000", "085623.627000", "085623.629000", "085623.635000", "085623.640000", "085623.642000"],
      "InstanceNumber": [1, 2, 3, 4, 5, 6, 7, 8, 9, 10, 11, 12, 13, 14, 15, 16, 17, 18, 19, 20, 21, 22, 23, 24, 25, 26, 27, 28, 29, 30, 31, 32, 33, 34, 35, 36, 37, 38, 39, 40, 41, 42, 43, 44, 45, 46, 47, 48, 49, 50, 51, 52, 53, 54, 55, 56, 57, 58, 59, 60, 61, 62, 63, 64, 65, 66, 67, 68, 69, 70, 71, 72, 73, 74, 75, 76, 77, 78, 79, 80, 81, 82, 83, 84, 85, 86, 87, 88, 89, 90, 91, 92, 93, 94, 95, 96, 97, 98, 99, 100, 101, 102, 103, 104, 105, 106, 107, 108, 109, 110, 111, 112, 113, 114, 115, 116, 117, 118, 119, 120, 121, 122, 123, 124, 125, 126, 127, 128, 129, 130, 131, 132, 133, 134, 135, 136, 137, 138, 139, 140, 141, 142, 143, 144, 145, 146, 147, 148, 149, 150, 151, 152, 153, 154, 155, 156, 157, 158, 159, 160, 161, 162, 163, 164, 165, 166, 167, 168, 169, 170, 171, 172, 173, 174, 175, 176, 177, 178, 179, 180, 181, 182, 183, 184, 185, 186, 187, 188, 189, 190, 191, 192, 193, 194, 195, 196, 197, 198, 199, 200],
      "LargestImagePixelValue": [3807, 3808, 3817, 3802, 3818, 3807, 3812, 3806, 3807, 3805, 3802, 3812, 3807, 3810, 3811, 3814, 3805, 3807, 3805, 3806, 3805, 3805, 3813, 3811, 3808, 3816, 3810, 3805, 3802, 3806, 3798, 3814, 3802, 3802, 3803, 3801, 3816, 3804, 3807, 3803, 3813, 3806, 3804, 3811, 3798, 3806, 3803, 3808, 3805, 3810, 3800, 3813, 3807, 3806, 3811, 3810, 3807, 3800, 3810, 3799, 3805, 3800, 3804, 3805, 3810, 3804, 3809, 3805, 3795, 3806, 3800, 3793, 3797, 3807, 3799, 3811, 3798, 3801, 3802, 3813, 3803, 3804, 3801, 3805, 3803, 3797, 3804, 3797, 3796, 3794, 3799, 3795, 3801, 3805, 3799, 3805, 3801, 3800, 3801, 3798, 3802, 3806, 3806, 3800, 3796, 3797, 3797, 3795, 3801, 3807, 3795, 3801, 3804, 3796, 3796, 3798, 3804, 3799, 3803, 3807, 3801, 3791, 3793, 3796, 3796, 3806, 3797, 3809, 3796, 3799, 3801, 3797, 3797, 3793, 3794, 3795, 3797, 3802, 3802, 3802, 3803, 3806, 3801, 3797, 3801, 3795, 3797, 3797, 3791, 3797, 3800, 3799, 3804, 3788, 3799, 3792, 3788, 3799, 3795, 3799, 3801, 3802, 3798, 3797, 3792, 3793, 3791, 3796, 3800, 3797, 3803, 3797, 3795, 3790, 3795, 3790, 3794, 3782, 3790, 3791, 3796, 3795, 3796, 3793, 3792, 3778, 3797, 3799, 3795, 3799, 3793, 3798, 3790, 3791, 3784, 3794, 3793, 3791, 3789, 3793],
      "WindowCenter": [1379.0, 1379.0, 1380.0, 1380.0, 1379.0, 1379.0, 1379.0, 1380.0, 1379.0, 1379.0, 1379.0, 1379.0, 1379.0, 1379.0, 1378.0, 1378.0, 1379.0, 1378.0, 1378.0, 1379.0, 1379.0, 1379.0, 1378.0, 1378.0, 1378.0, 1379.0, 1378.0, 1379.0, 1378.0, 1378.0, 1378.0, 1378.0, 1378.0, 1379.0, 1379.0, 1379.0, 1378.0, 1378.0, 1378.0, 1378.0, 1377.0, 1378.0, 1378.0, 1377.0, 1377.0, 1378.0, 1377.0, 1378.0, 1378.0, 1378.0, 1378.0, 1377.0, 1378.0, 1378.0, 1377.0, 1377.0, 1377.0, 1377.0, 1377.0, 1378.0, 1378.0, 1377.0, 1378.0, 1377.0, 1378.0, 1378.0, 1377.0, 1378.0, 1377.0, 1378.0, 1378.0, 1377.0, 1377.0, 1377.0, 1377.0, 1377.0, 1377.0, 1377.0, 1377.0, 1377.0, 1377.0, 1377.0, 1377.0, 1377.0, 1377.0, 1377.0, 1377.0, 1377.0, 1377.0, 1377.0, 1377.0, 1377.0, 1377.0, 1376.0, 1377.0, 1377.0, 1377.0, 1376.0, 1377.0, 1377.0, 1377.0, 1377.0, 1377.0, 1377.0, 1377.0, 1377.0, 1376.0, 1376.0, 1376.0, 1377.0, 1376.0, 1376.0, 1376.0, 1376.0, 1377.0, 1376.0, 1376.0, 1376.0, 1376.0, 1376.0, 1376.0, 1376.0, 1376.0, 1377.0, 1376.0, 1376.0, 1377.0, 1376.0, 1376.0, 1376.0, 1376.0, 1376.0, 1376.0, 1376.0, 1376.0, 1376.0, 1376.0, 1376.0, 1376.0, 1376.0, 1376.0, 1376.0, 1376.0, 1376.0, 1376.0, 1376.0, 1376.0, 1376.0, 1376.0, 1376.0, 1376.0, 1375.0, 1376.0, 1375.0, 1376.0, 1376.0, 1376.0, 1375.0, 1376.0, 1376.0, 1376.0, 1375.0, 1375.0, 1376.0, 1376.0, 1376.0, 1376.0, 1375.0, 1376.0, 1376.0, 1376.0, 1375.0, 1376.0, 1375.0, 1376.0, 1375.0, 1376.0, 1375.0, 1375.0, 1375.0, 1376.0, 1376.0, 1375.0, 1376.0, 1376.0, 1375.0, 1375.0, 1376.0, 1375.0, 1376.0, 1376.0, 1376.0, 1375.0, 1375.0, 1376.0, 1375.0, 1375.0, 1375.0, 1375.0, 1375.0],
      "WindowWidth": [3223.0, 3222.0, 3222.0, 3222.0, 3223.0, 3223.0, 3223.0, 3222.0, 3223.0, 3222.0, 3223.0, 3223.0, 3222.0, 3222.0, 3222.0, 3222.0, 3222.0, 3222.0, 3222.0, 3222.0, 3222.0, 3222.0, 3222.0, 3222.0, 3222.0, 3223.0, 3222.0, 3221.0, 3222.0, 3222.0, 3222.0, 3221.0, 3222.0, 3221.0, 3221.0, 3221.0, 3222.0, 3221.0, 3221.0, 3222.0, 3221.0, 3221.0, 3221.0, 3221.0, 3221.0, 3221.0, 3221.0, 3221.0, 3221.0, 3221.0, 3221.0, 3221.0, 3221.0, 3221.0, 3221.0, 3221.0, 3221.0, 3221.0, 3221.0, 3221.0, 3221.0, 3221.0, 3220.0, 3221.0, 3220.0, 3220.0, 3221.0, 3220.0, 3220.0, 3220.0, 3220.0, 3220.0, 3220.0, 3221.0, 3220.0, 3220.0, 3220.0, 3221.0, 3220.0, 3220.0, 3220.0, 3220.0, 3220.0, 3220.0, 3220.0, 3220.0, 3220.0, 3220.0, 3220.0, 3220.0, 3219.0, 3220.0, 3220.0, 3220.0, 3219.0, 3219.0, 3219.0, 3220.0, 3219.0, 3219.0, 3219.0, 3219.0, 3219.0, 3219.0, 3219.0, 3219.0, 3219.0, 3219.0, 3219.0, 3219.0, 3219.0, 3219.0, 3219.0, 3219.0, 3219.0, 3219.0, 3219.0, 3219.0, 3219.0, 3219.0, 3219.0, 3219.0, 3219.0, 3219.0, 3219.0, 3219.0, 3219.0, 3218.0, 3218.0, 3219.0, 3219.0, 3218.0, 3219.0, 3218.0, 3218.0, 3218.0, 3218.0, 3218.0, 3218.0, 3218.0, 3218.0, 3218.0, 3218.0, 3218.0, 3218.0, 3218.0, 3218.0, 3218.0, 3218.0, 3218.0, 3218.0, 3218.0, 3218.0, 3218.0, 3218.0, 3218.0, 3218.0, 3218.0, 3218.0, 3218.0, 3218.0, 3218.0, 3218.0, 3218.0, 3218.0, 3218.0, 3218.0, 3218.0, 3218.0, 3218.0, 3218.0, 3218.0, 3218.0, 3217.0, 3218.0, 3217.0, 3217.0, 3217.0, 3217.0, 3217.0, 3217.0, 3217.0, 3217.0, 3217.0, 3217.0, 3217.0, 3217.0, 3217.0, 3217.0, 3217.0, 3217.0, 3217.0, 3217.0, 3217.0, 3217.0, 3217.0, 3217.0, 3217.0, 3217.0, 3217.0]
    },
    "slices": {}
  }
}