{
  "AcquisitionMatrixPE": 80,
  "AcquisitionNumber": 1,
  "AcquisitionTime": "09:03:21.515000",
  "BandwidthPerPixelPhaseEncode": 25,
  "BaseResolution": 80,
  "BodyPartExamined": "BRAIN",
  "CoilCombinationMethod": "Sum of Squares",
  "ConsistencyInfo": "N4_VE11E_LATEST_20181129",
  "ConversionSoftware": "dcm2niix",
  "ConversionSoftwareVersion": "v1.0.20220720",
  "DerivedVendorReportedEchoSpacing": 0.0005,
  "DeviceSerialNumber": "66112",
  "DwellTime": 2.7e-06,
  "EchoTime": 0.03,
  "EchoTrainLength": 80,
  "EffectiveEchoSpacing": 0.0005,
  "FlipAngle": 10,
  "HeudiconvVersion": "0.13.1",
  "ImageOrientationPatientDICOM": [0.97648, -0.215567, -0.00430385, 0.207023, 0.931824, 0.298069],
  "ImageOrientationText": "Tra>Cor(17.0)>Sag(3.5)",
  "ImageType": [
    "ORIGINAL",
    "PRIMARY",
    "M",
    "ND",
    "NORM",
    "MOSAIC"
],
  "ImagingFrequency": 123.259,
  "InPlanePhaseEncodingDirectionDICOM": "COL",
  "InstitutionAddress": "Maynard 3,Hanover,NH,US,03755",
  "InstitutionName": "Dartmouth College - PBS",
  "InstitutionalDepartmentName": "Department",
  "MRAcquisitionType": "2D",
  "MagneticFieldStrength": 3,
  "Manufacturer": "Siemens",
  "ManufacturersModelName": "Prisma",
  "MatrixCoilMode": "SENSE",
  "Modality": "MR",
  "NonlinearGradientCorrection": false,
  "PartialFourier": 1,
  "PatientPosition": "HFS",
  "PercentPhaseFOV": 100,
  "PercentSampling": 100,
  "PhaseEncodingDirection": "j-",
  "PhaseEncodingSteps": 80,
  "PhaseResolution": 1,
  "PixelBandwidth": 2315,
  "ProcedureStepDescription": "dbic^QA",
  "ProtocolName": "func-bold_fa-10",
  "PulseSequenceDetails": "%SiemensSeq%\\ep2d_bold",
  "ReceiveCoilActiveElements": "HC1-7;NC1,2",
  "ReceiveCoilName": "HeadNeck_64",
  "ReconMatrixPE": 80,
  "RepetitionTime": 2,
  "SAR": 0.00943766,
  "ScanOptions": "FS",
  "ScanningSequence": "EP",
  "SequenceName": "*epfid2d1_80",
  "SequenceVariant": "SK",
  "SeriesDescription": "func-bold_fa-10",
  "SeriesNumber": 9,
  "ShimSetting": [4217, -7743, -7483, -174, -156, -105, -66, 88],
  "SliceThickness": 3.5,
  "SliceTiming": [0.99, 0, 1.055, 0.065, 1.1225, 0.1325, 1.1875, 0.1975, 1.2525, 0.265, 1.32, 0.33, 1.385, 0.395, 1.4525, 0.4625, 1.5175, 0.5275, 1.5825, 0.595, 1.65, 0.66, 1.715, 0.725, 1.7825, 0.7925, 1.8475, 0.8575, 1.9125, 0.9225],
  "SoftwareVersions": "syngo MR E11",
  "SpacingBetweenSlices": 3.99,
  "StationName": "AWP66112",
  "TotalReadoutTime": 0.0395,
  "TxRefAmp": 212.993,
  "dcmmeta_affine": [
    [-2.929438591003418, 0.6210682392120361, 0.24037086963653564, 88.05621337890625],
    [0.6467011570930481, 2.795473098754883, 1.164875864982605, -130.20297241210938],
    [-0.012911558151245117, -0.8942056894302368, 3.80859375, -19.47186279296875],
    [0.0, 0.0, 0.0, 1.0]
],
  "dcmmeta_reorient_transform": [
    [0.0, -1.0, 0.0, 79.0],
    [1.0, 0.0, 0.0, 0.0],
    [0.0, 0.0, 1.0, 0.0],
    [0.0, 0.0, 0.0, 1.0]
],
  "dcmmeta_shape": [80, 80, 30, 200],
  "dcmmeta_slice_dim": 2,
  "dcmmeta_version": 0.6,
  "global": {
    "const": {
      "AccessionNumber": "qa64",
      "AcquisitionMatrix": [80, 0, 0, 80],
      "AngioFlag": "N",
      "BitsAllocated": 16,
      "BitsStored": 12,
      "BodyPartExamined": "BRAIN",
      "Columns": 480,
      "EchoNumbers": 1,
      "EchoTime": 30.0,
      "EchoTrainLength": 80,
      "FlipAngle": 10.0,
      "HighBit": 11,
      "ImageOrientationPatient": [0.97647955562186, -0.2155670529184, -0.0043038527631, 0.2070227505751, 0.93182440262641, 0.29806855489007],
      "ImagePositionPatient": [-847.22198890725, -520.39382700322, -266.37293218062],
      "ImageType": [
        "ORIGINAL",
        "PRIMARY",
        "M",
        "ND",
        "NORM",
        "MOSAIC"
],
      "ImagedNucleus": "1H",
      "ImagingFrequency": 123.259285,
      "InPlanePhaseEncodingDirection": "COL",
      "MRAcquisitionType": "2D",
      "MagneticFieldStrength": 3.0,
      "Manufacturer": "SIEMENS",
      "ManufacturerModelName": "Prisma",
      "Modality": "MR",
      "NumberOfAverages": 1.0,
      "NumberOfPhaseEncodingSteps": 80,
      "PercentPhaseFieldOfView": 100.0,
      "PercentSampling": 100.0,
      "PerformedProcedureStepStartTime": "084345.853000",
      "PhotometricInterpretation": "MONOCHROME2",
      "PixelBandwidth": 2315.0,
      "PixelRepresentation": 0,
      "PixelSpacing": [3.0, 3.0],
      "ProtocolName": "func-bold_fa-10",
      "RepetitionTime": 2000.0,
      "Rows": 480,
      "SAR": 0.00943765668968,
      "SamplesPerPixel": 1,
      "ScanOptions": "FS",
      "ScanningSequence": "EP",
      "SequenceName": "*epfid2d1_80",
      "SequenceVariant": "SK",
      "SeriesDescription": "func-bold_fa-10",
      "SeriesNumber": 9,
      "SeriesTime": "090409.746000",
      "SliceLocation": -51.294377109631,
      "SliceThickness": 3.5,
      "SmallestImagePixelValue": 0,
      "SoftwareVersions": "syngo MR E11",
      "SpacingBetweenSlices": 3.9900000481704,
      "SpecificCharacterSet": "ISO_IR 100",
      "StudyID": "9",
      "StudyTime": "084345.741000",
      "TransmitCoilName": "Body",
      "VariableFlipAngleFlag": "N",
      "WindowCenterWidthExplanation": "Algo1"
    },
    "slices": {}
  },
  "time": {
    "samples": {
      "AcquisitionNumber": [1, 2, 3, 4, 5, 6, 7, 8, 9, 10, 11, 12, 13, 14, 15, 16, 17, 18, 19, 20, 21, 22, 23, 24, 25, 26, 27, 28, 29, 30, 31, 32, 33, 34, 35, 36, 37, 38, 39, 40, 41, 42, 43, 44, 45, 46, 47, 48, 49, 50, 51, 52, 53, 54, 55, 56, 57, 58, 59, 60, 61, 62, 63, 64, 65, 66, 67, 68, 69, 70, 71, 72, 73, 74, 75, 76, 77, 78, 79, 80, 81, 82, 83, 84, 85, 86, 87, 88, 89, 90, 91, 92, 93, 94, 95, 96, 97, 98, 99, 100, 101, 102, 103, 104, 105, 106, 107, 108, 109, 110, 111, 112, 113, 114, 115, 116, 117, 118, 119, 120, 121, 122, 123, 124, 125, 126, 127, 128, 129, 130, 131, 132, 133, 134, 135, 136, 137, 138, 139, 140, 141, 142, 143, 144, 145, 146, 147, 148, 149, 150, 151, 152, 153, 154, 155, 156, 157, 158, 159, 160, 161, 162, 163, 164, 165, 166, 167, 168, 169, 170, 171, 172, 173, 174, 175, 176, 177, 178, 179, 180, 181, 182, 183, 184, 185, 186, 187, 188, 189, 190, 191, 192, 193, 194, 195, 196, 197, 198, 199, 200],
      "AcquisitionTime": ["090321.515000", "090323.515000", "090325.515000", "090327.515000", "090329.515000", "090331.515000", "090333.515000", "090335.515000", "090337.515000", "090339.515000", "090341.515000", "090343.515000", "090345.515000", "090347.515000", "090349.515000", "090351.515000", "090353.515000", "090355.515000", "090357.515000", "090359.515000", "090401.515000", "090403.515000", "090405.515000", "090407.515000", "090409.515000", "090411.515000", "090413.515000", "090415.515000", "090417.515000", "090419.515000", "090421.515000", "090423.515000", "090425.515000", "090427.515000", "090429.515000", "090431.515000", "090433.515000", "090435.515000", "090437.515000", "090439.515000", "090441.515000", "090443.515000", "090445.515000", "090447.515000", "090449.515000", "090451.515000", "090453.515000", "090455.515000", "090457.515000", "090459.515000", "090501.515000", "090503.515000", "090505.515000", "090507.515000", "090509.515000", "090511.515000", "090513.515000", "090515.515000", "090517.515000", "090519.515000", "090521.515000", "090523.515000", "090525.515000", "090527.515000", "090529.515000", "090531.515000", "090533.515000", "090535.515000", "090537.515000", "090539.515000", "090541.515000", "090543.515000", "090545.515000", "090547.515000", "090549.515000", "090551.515000", "090553.515000", "090555.515000", "090557.515000", "090559.515000", "090601.515000", "090603.515000", "090605.515000", "090607.515000", "090609.515000", "090611.515000", "090613.515000", "090615.515000", "090617.515000", "090619.515000", "090621.515000", "090623.515000", "090625.515000", "090627.515000", "090629.515000", "090631.515000", "090633.515000", "090635.515000", "090637.515000", "090639.515000", "090641.515000", "090643.515000", "090645.515000", "090647.515000", "090649.515000", "090651.515000", "090653.515000", "090655.515000", "090657.515000", "090659.515000", "090701.515000", "090703.515000", "090705.515000", "090707.515000", "090709.515000", "090711.515000", "090713.515000", "090715.515000", "090717.515000", "090719.515000", "090721.515000", "090723.515000", "090725.515000", "090727.515000", "090729.515000", "090731.515000", "090733.515000", "090735.515000", "090737.515000", "090739.515000", "090741.515000", "090743.515000", "090745.515000", "090747.515000", "090749.515000", "090751.515000", "090753.515000", "090755.515000", "090757.515000", "090759.515000", "090801.515000", "090803.515000", "090805.515000", "090807.515000", "090809.515000", "090811.515000", "090813.515000", "090815.515000", "090817.515000", "090819.515000", "090821.515000", "090823.515000", "090825.515000", "090827.515000", "090829.515000", "090831.515000", "090833.515000", "090835.515000", "090837.515000", "090839.515000", "090841.515000", "090843.515000", "090845.515000", "090847.515000", "090849.515000", "090851.515000", "090853.515000", "090855.515000", "090857.515000", "090859.515000", "090901.515000", "090903.515000", "090905.515000", "090907.515000", "090909.515000", "090911.515000", "090913.515000", "090915.515000", "090917.515000", "090919.515000", "090921.515000", "090923.515000", "090925.515000", "090927.515000", "090929.515000", "090931.515000", "090933.515000", "090935.515000", "090937.515000", "090939.515000", "090941.515000", "090943.515000", "090945.515000", "090947.515000", "090949.515000", "090951.515000", "090953.515000", "090955.515000", "090957.515000", "090959.515000"],
      "ContentTime": ["090409.749000", "090409.752000", "090409.755000", "090409.757000", "090409.759000", "090409.761000", "090409.772000", "090409.774000", "090409.777000", "090409.779000", "090409.781000", "090409.784000", "090409.786000", "090409.788000", "090409.791000", "090409.793000", "090409.795000", "090409.798000", "090409.800000", "090409.802000", "090409.804000", "090409.807000", "090409.809000", "090409.812000", "090449.745000", "090449.748000", "090449.750000", "090449.753000", "090449.755000", "090449.757000", "090449.760000", "090449.762000", "090449.765000", "090449.767000", "090449.769000", "090449.771000", "090449.774000", "090449.776000", "090449.778000", "090449.781000", "090449.783000", "090449.785000", "090449.788000", "090449.790000", "090529.744000", "090529.747000", "090529.749000", "090529.751000", "090529.754000", "090529.756000", "090529.758000", "090529.761000", "090529.763000", "090529.765000", "090529.768000", "090529.770000", "090529.772000", "090529.775000", "090529.777000", "090529.779000", "090529.782000", "090529.784000", "090529.786000", "090529.789000", "090609.744000", "090609.747000", "090609.767000", "090609.769000", "090609.771000", "090609.774000", "090609.776000", "090609.778000", "090609.781000", "090609.783000", "090609.785000", "090609.787000", "090609.790000", "090609.792000", "090609.794000", "090609.797000", "090609.799000", "090609.801000", "090609.803000", "090609.806000", "090649.744000", "090649.747000", "090649.749000", "090649.752000", "090649.754000", "090649.756000", "090649.759000", "090649.761000", "090649.763000", "090649.765000", "090649.768000", "090649.770000", "090649.772000", "090649.775000", "090649.777000", "090649.779000", "090649.781000", "090649.784000", "090649.786000", "090649.788000", "090729.744000", "090729.747000", "090729.749000", "090729.751000", "090729.754000", "090729.756000", "090729.758000", "090729.761000", "090729.763000", "090729.765000", "090729.768000", "090729.770000", "090729.772000", "090729.775000", "090729.777000", "090729.779000", "090729.781000", "090729.784000", "090729.786000", "090729.788000", "090809.745000", "090809.747000", "090809.749000", "090809.752000", "090809.754000", "090809.756000", "090809.759000", "090809.761000", "090809.763000", "090809.766000", "090809.768000", "090809.770000", "090809.773000", "090809.775000", "090809.777000", "090809.780000", "090809.782000", "090809.784000", "090809.787000", "090809.789000", "090849.744000", "090849.747000", "090849.749000", "090849.751000", "090849.754000", "090849.756000", "090849.758000", "090849.761000", "090849.763000", "090849.765000", "090849.768000", "090849.770000", "090849.772000", "090849.775000", "090849.777000", "090849.779000", "090849.782000", "090849.784000", "090849.786000", "090849.789000", "090929.745000", "090929.748000", "090929.750000", "090929.752000", "090929.755000", "090929.757000", "090929.759000", "090929.762000", "090929.764000", "090929.766000", "090929.768000", "090929.771000", "090929.773000", "090929.775000", "090929.778000", "090929.780000", "090929.782000", "090929.785000", "090929.787000", "090929.789000", "091001.604000", "091001.607000", "091001.609000", "091001.612000", "091001.615000", "091001.617000", "091001.619000", "091001.622000", "091001.624000", "091001.626000", "091001.628000", "091001.631000", "091001.633000", "091001.636000", "091001.638000", "091001.640000"],
      "InstanceCreationTime": ["090409.749000", "090409.752000", "090409.755000", "090409.757000", "090409.759000", "090409.761000", "090409.772000", "090409.774000", "090409.777000", "090409.779000", "090409.781000", "090409.784000", "090409.786000", "090409.788000", "090409.791000", "090409.793000", "090409.795000", "090409.798000", "090409.800000", "090409.802000", "090409.804000", "090409.807000", "090409.809000", "090409.812000", "090449.745000", "090449.748000", "090449.750000", "090449.753000", "090449.755000", "090449.757000", "090449.760000", "090449.762000", "090449.765000", "090449.767000", "090449.769000", "090449.771000", "090449.774000", "090449.776000", "090449.778000", "090449.781000", "090449.783000", "090449.785000", "090449.788000", "090449.790000", "090529.744000", "090529.747000", "090529.749000", "090529.751000", "090529.754000", "090529.756000", "090529.758000", "090529.761000", "090529.763000", "090529.765000", "090529.768000", "090529.770000", "090529.772000", "090529.775000", "090529.777000", "090529.779000", "090529.782000", "090529.784000", "090529.786000", "090529.789000", "090609.744000", "090609.747000", "090609.767000", "090609.769000", "090609.771000", "090609.774000", "090609.776000", "090609.778000", "090609.781000", "090609.783000", "090609.785000", "090609.787000", "090609.790000", "090609.792000", "090609.794000", "090609.797000", "090609.799000", "090609.801000", "090609.803000", "090609.806000", "090649.744000", "090649.747000", "090649.749000", "090649.752000", "090649.754000", "090649.756000", "090649.759000", "090649.761000", "090649.763000", "090649.765000", "090649.768000", "090649.770000", "090649.772000", "090649.775000", "090649.777000", "090649.779000", "090649.781000", "090649.784000", "090649.786000", "090649.788000", "090729.744000", "090729.747000", "090729.749000", "090729.751000", "090729.754000", "090729.756000", "090729.758000", "090729.761000", "090729.763000", "090729.765000", "090729.768000", "090729.770000", "090729.772000", "090729.775000", "090729.777000", "090729.779000", "090729.781000", "090729.784000", "090729.786000", "090729.788000", "090809.745000", "090809.747000", "090809.749000", "090809.752000", "090809.754000", "090809.756000", "090809.759000", "090809.761000", "090809.763000", "090809.766000", "090809.768000", "090809.770000", "090809.773000", "090809.775000", "090809.777000", "090809.780000", "090809.782000", "090809.784000", "090809.787000", "090809.789000", "090849.744000", "090849.747000", "090849.749000", "090849.751000", "090849.754000", "090849.756000", "090849.758000", "090849.761000", "090849.763000", "090849.765000", "090849.768000", "090849.770000", "090849.772000", "090849.775000", "090849.777000", "090849.779000", "090849.782000", "090849.784000", "090849.786000", "090849.789000", "090929.745000", "090929.748000", "090929.750000", "090929.752000", "090929.755000", "090929.757000", "090929.759000", "090929.762000", "090929.764000", "090929.766000", "090929.768000", "090929.771000", "090929.773000", "090929.775000", "090929.778000", "090929.780000", "090929.782000", "090929.785000", "090929.787000", "090929.789000", "091001.604000", "091001.607000", "091001.609000", "091001.612000", "091001.615000", "091001.617000", "091001.619000", "091001.622000", "091001.624000", "091001.626000", "091001.628000", "091001.631000", "091001.633000", "091001.636000", "091001.638000", "091001.640000"],
      "InstanceNumber": [1, 2, 3, 4, 5, 6, 7, 8, 9, 10, 11, 12, 13, 14, 15, 16, 17, 18, 19, 20, 21, 22, 23, 24, 25, 26, 27, 28, 29, 30, 31, 32, 33, 34, 35, 36, 37, 38, 39, 40, 41, 42, 43, 44, 45, 46, 47, 48, 49, 50, 51, 52, 53, 54, 55, 56, 57, 58, 59, 60, 61, 62, 63, 64, 65, 66, 67, 68, 69, 70, 71, 72, 73, 74, 75, 76, 77, 78, 79, 80, 81, 82, 83, 84, 85, 86, 87, 88, 89, 90, 91, 92, 93, 94, 95, 96, 97, 98, 99, 100, 101, 102, 103, 104, 105, 106, 107, 108, 109, 110, 111, 112, 113, 114, 115, 116, 117, 118, 119, 120, 121, 122, 123, 124, 125, 126, 127, 128, 129, 130, 131, 132, 133, 134, 135, 136, 137, 138, 139, 140, 141, 142, 143, 144, 145, 146, 147, 148, 149, 150, 151, 152, 153, 154, 155, 156, 157, 158, 159, 160, 161, 162, 163, 164, 165, 166, 167, 168, 169, 170, 171, 172, 173, 174, 175, 176, 177, 178, 179, 180, 181, 182, 183, 184, 185, 186, 187, 188, 189, 190, 191, 192, 193, 194, 195, 196, 197, 198, 199, 200],
      "LargestImagePixelValue": [624, 622, 624, 624, 620, 622, 622, 620, 624, 620, 626, 623, 624, 624, 623, 622, 621, 623, 623, 623, 624, 623, 623, 625, 621, 624, 619, 624, 624, 621, 624, 620, 623, 621, 620, 623, 619, 625, 625, 623, 625, 622, 624, 624, 621, 625, 619, 622, 622, 620, 624, 623, 625, 624, 618, 623, 621, 623, 622, 620, 621, 620, 623, 621, 620, 624, 621, 621, 619, 623, 620, 622, 626, 622, 620, 625, 621, 624, 623, 625, 624, 621, 624, 621, 618, 620, 621, 625, 621, 625, 623, 619, 623, 619, 622, 621, 620, 623, 618, 620, 623, 617, 623, 620, 622, 621, 623, 619, 623, 621, 621, 622, 624, 619, 624, 618, 621, 624, 621, 624, 621, 620, 622, 621, 624, 619, 621, 622, 618, 620, 621, 623, 623, 619, 624, 619, 620, 622, 620, 623, 620, 627, 621, 621, 623, 621, 621, 621, 619, 623, 620, 621, 623, 625, 625, 623, 625, 620, 620, 624, 621, 622, 620, 619, 622, 620, 621, 622, 619, 620, 619, 625, 618, 620, 619, 621, 623, 619, 623, 623, 616, 621, 620, 621, 619, 616, 621, 622, 623, 623, 621, 621, 623, 622, 622, 620, 625, 620, 623, 619],
      "WindowCenter": [435.0, 435.0, 435.0, 435.0, 435.0, 435.0, 435.0, 435.0, 435.0, 435.0, 435.0, 435.0, 434.0, 435.0, 434.0, 435.0, 435.0, 435.0, 435.0, 434.0, 435.0, 435.0, 435.0, 435.0, 434.0, 435.0, 435.0, 435.0, 435.0, 435.0, 435.0, 435.0, 435.0, 435.0, 435.0, 435.0, 435.0, 435.0, 435.0, 434.0, 435.0, 435.0, 435.0, 435.0, 434.0, 435.0, 435.0, 435.0, 435.0, 434.0, 435.0, 434.0, 434.0, 435.0, 434.0, 435.0, 434.0, 435.0, 435.0, 434.0, 435.0, 435.0, 435.0, 434.0, 435.0, 435.0, 434.0, 434.0, 434.0, 434.0, 435.0, 434.0, 435.0, 435.0, 434.0, 435.0, 434.0, 434.0, 434.0, 434.0, 434.0, 434.0, 434.0, 434.0, 434.0, 434.0, 434.0, 434.0, 434.0, 434.0, 434.0, 434.0, 434.0, 434.0, 434.0, 434.0, 434.0, 434.0, 434.0, 434.0, 434.0, 434.0, 434.0, 434.0, 434.0, 434.0, 434.0, 434.0, 434.0, 434.0, 434.0, 434.0, 434.0, 434.0, 434.0, 434.0, 434.0, 434.0, 434.0, 434.0, 434.0, 434.0, 434.0, 434.0, 434.0, 434.0, 434.0, 434.0, 434.0, 434.0, 434.0, 434.0, 434.0, 434.0, 434.0, 434.0, 434.0, 434.0, 434.0, 434.0, 434.0, 434.0, 434.0, 434.0, 434.0, 434.0, 434.0, 434.0, 434.0, 434.0, 434.0, 434.0, 434.0, 434.0, 434.0, 434.0, 434.0, 434.0, 434.0, 434.0, 434.0, 434.0, 434.0, 434.0, 434.0, 434.0, 434.0, 434.0, 434.0, 434.0, 434.0, 434.0, 434.0, 434.0, 434.0, 434.0, 434.0, 434.0, 434.0, 434.0, 434.0, 434.0, 434.0, 434.0, 434.0, 434.0, 434.0, 434.0, 434.0, 434.0, 434.0, 434.0, 434.0, 434.0, 434.0, 434.0, 434.0, 434.0, 434.0, 434.0],
      "WindowWidth": [907.0, 907.0, 907.0, 907.0, 907.0, 907.0, 907.0, 907.0, 907.0, 907.0, 907.0, 907.0, 906.0, 907.0, 906.0, 907.0, 906.0, 907.0, 907.0, 906.0, 907.0, 907.0, 907.0, 907.0, 906.0, 907.0, 907.0, 907.0, 907.0, 907.0, 907.0, 907.0, 907.0, 907.0, 907.0, 907.0, 907.0, 907.0, 907.0, 906.0, 907.0, 907.0, 907.0, 907.0, 906.0, 907.0, 907.0, 907.0, 907.0, 906.0, 907.0, 906.0, 906.0, 907.0, 906.0, 907.0, 906.0, 907.0, 907.0, 906.0, 907.0, 907.0, 907.0, 906.0, 907.0, 907.0, 906.0, 906.0, 906.0, 906.0, 907.0, 906.0, 907.0, 907.0, 906.0, 907.0, 906.0, 906.0, 906.0, 906.0, 906.0, 906.0, 906.0, 906.0, 906.0, 906.0, 906.0, 906.0, 906.0, 906.0, 906.0, 906.0, 906.0, 906.0, 906.0, 906.0, 906.0, 906.0, 906.0, 906.0, 906.0, 906.0, 906.0, 906.0, 906.0, 906.0, 905.0, 906.0, 906.0, 906.0, 906.0, 905.0, 906.0, 905.0, 906.0, 906.0, 905.0, 906.0, 905.0, 906.0, 906.0, 905.0, 906.0, 905.0, 906.0, 906.0, 906.0, 906.0, 905.0, 906.0, 906.0, 906.0, 906.0, 905.0, 906.0, 906.0, 905.0, 906.0, 905.0, 906.0, 905.0, 905.0, 905.0, 905.0, 905.0, 905.0, 905.0, 906.0, 905.0, 906.0, 905.0, 905.0, 905.0, 905.0, 906.0, 905.0, 905.0, 906.0, 905.0, 905.0, 905.0, 905.0, 905.0, 905.0, 905.0, 905.0, 905.0, 905.0, 905.0, 906.0, 905.0, 905.0, 905.0, 905.0, 905.0, 905.0, 905.0, 905.0, 905.0, 905.0, 905.0, 905.0, 905.0, 904.0, 905.0, 905.0, 905.0, 905.0, 905.0, 905.0, 905.0, 905.0, 905.0, 904.0, 905.0, 905.0, 905.0, 905.0, 904.0, 905.0]
    },
    "slices": {}
  }
}