{
  "AcquisitionMatrixPE": 80,
  "AcquisitionNumber": 1,
  "AcquisitionTime": "11:55:2.780000",
  "BandwidthPerPixelPhaseEncode": 48.077,
  "BaseResolution": 80,
  "BodyPartExamined": "BRAIN",
  "CoilCombinationMethod": "Sum of Squares",
  "ConsistencyInfo": "N4_VE11E_LATEST_20181129",
  "ConversionSoftware": "dcm2niix",
  "ConversionSoftwareVersion": "v1.0.20220720",
  "DerivedVendorReportedEchoSpacing": 0.000519999,
  "DeviceSerialNumber": "66112",
  "DwellTime": 2.7e-06,
  "EchoTime": 0.035,
  "EchoTrainLength": 39,
  "EffectiveEchoSpacing": 0.00026,
  "FlipAngle": 90,
  "HeudiconvVersion": "0.13.1",
  "ImageOrientationPatientDICOM": [0.989834, 0.14201, 0.00783778, -0.137703, 0.943113, 0.302615],
  "ImageOrientationText": "Tra>Cor(17.5)>Sag(-2.0)",
  "ImageType": [
    "ORIGINAL",
    "PRIMARY",
    "M",
    "ND",
    "NORM",
    "MOSAIC"
],
  "ImagingFrequency": 123.259,
  "InPlanePhaseEncodingDirectionDICOM": "COL",
  "InstitutionAddress": "Maynard 3,Hanover,NH,US,03755",
  "InstitutionName": "Dartmouth College - PBS",
  "InstitutionalDepartmentName": "Department",
  "MRAcquisitionType": "2D",
  "MagneticFieldStrength": 3,
  "Manufacturer": "Siemens",
  "ManufacturersModelName": "Prisma",
  "MatrixCoilMode": "GRAPPA",
  "Modality": "MR",
  "NonlinearGradientCorrection": false,
  "ParallelReductionFactorInPlane": 2,
  "PartialFourier": 1,
  "PatientPosition": "HFS",
  "PercentPhaseFOV": 100,
  "PercentSampling": 100,
  "PhaseEncodingDirection": "j-",
  "PhaseEncodingSteps": 79,
  "PhaseResolution": 1,
  "PixelBandwidth": 2315,
  "ProcedureStepDescription": "dbic^QA",
  "ProtocolName": "func-bold_task-rest_acq-p2",
  "PulseSequenceDetails": "%SiemensSeq%\\ep2d_bold",
  "ReceiveCoilActiveElements": "HEA;HEP",
  "ReceiveCoilName": "Head_32",
  "ReconMatrixPE": 80,
  "RefLinesPE": 24,
  "RepetitionTime": 2,
  "SAR": 0.0501801,
  "ScanOptions": "FS",
  "ScanningSequence": "EP",
  "SequenceName": "*epfid2d1_80",
  "SequenceVariant": "SK",
  "SeriesDescription": "func-bold_task-rest_acq-p2",
  "SeriesNumber": 5,
  "ShimSetting": [4224, -7740, -7496, -59, -132, -38, 8, 82],
  "SliceThickness": 3.5,
  "SliceTiming": [0.99, 0, 1.055, 0.065, 1.1225, 0.1325, 1.1875, 0.1975, 1.2525, 0.2625, 1.32, 0.33, 1.385, 0.395, 1.4525, 0.4625, 1.5175, 0.5275, 1.5825, 0.5925, 1.65, 0.66, 1.715, 0.725, 1.7825, 0.7925, 1.8475, 0.8575, 1.9125, 0.9225],
  "SoftwareVersions": "syngo MR E11",
  "SpacingBetweenSlices": 3.99,
  "StationName": "AWP66112",
  "TaskName": "rest",
  "TotalReadoutTime": 0.02054,
  "TxRefAmp": 229.927,
  "dcmmeta_affine": [
    [-2.9695026874542236, -0.41310903429985046, -0.14197365939617157, 137.8837127685547],
    [-0.4260295033454895, 2.829339027404785, 1.1994649171829224, -113.52243041992188],
    [0.02351333014667034, -0.9078444242477417, 3.8027920722961426, -23.6507511138916],
    [0.0, 0.0, 0.0, 1.0]
],
  "dcmmeta_reorient_transform": [
    [0.0, -1.0, 0.0, 79.0],
    [1.0, 0.0, 0.0, 0.0],
    [0.0, 0.0, 1.0, 0.0],
    [0.0, 0.0, 0.0, 1.0]
],
  "dcmmeta_shape": [80, 80, 30, 200],
  "dcmmeta_slice_dim": 2,
  "dcmmeta_version": 0.6,
  "global": {
    "const": {
      "AccessionNumber": "qa",
      "AcquisitionMatrix": [80, 0, 0, 80],
      "AngioFlag": "N",
      "BitsAllocated": 16,
      "BitsStored": 12,
      "BodyPartExamined": "BRAIN",
      "Columns": 480,
      "EchoNumbers": 1,
      "EchoTime": 35.0,
      "EchoTrainLength": 39,
      "FlipAngle": 90.0,
      "HighBit": 11,
      "ImageOrientationPatient": [0.98983421585355, 0.14200983904424, 0.00783777648491, -0.1377030137947, 0.94311301506387, 0.30261480599763],
      "ImagePositionPatient": [-616.52682273638, -761.06906981074, -281.64200928978],
      "ImageType": [
        "ORIGINAL",
        "PRIMARY",
        "M",
        "ND",
        "NORM",
        "MOSAIC"
],
      "ImagedNucleus": "1H",
      "ImagingFrequency": 123.259227,
      "InPlanePhaseEncodingDirection": "COL",
      "MRAcquisitionType": "2D",
      "MagneticFieldStrength": 3.0,
      "Manufacturer": "SIEMENS",
      "ManufacturerModelName": "Prisma",
      "Modality": "MR",
      "NumberOfAverages": 1.0,
      "NumberOfPhaseEncodingSteps": 79,
      "PercentPhaseFieldOfView": 100.0,
      "PercentSampling": 100.0,
      "PerformedProcedureStepStartTime": "115128.491000",
      "PhotometricInterpretation": "MONOCHROME2",
      "PixelBandwidth": 2315.0,
      "PixelRepresentation": 0,
      "PixelSpacing": [3.0, 3.0],
      "ProtocolName": "func-bold_task-rest_acq-p2",
      "RepetitionTime": 2000.0,
      "Rows": 480,
      "SAR": 0.0501800557271,
      "SamplesPerPixel": 1,
      "ScanOptions": "FS",
      "ScanningSequence": "EP",
      "SequenceName": "*epfid2d1_80",
      "SequenceVariant": "SK",
      "SeriesDescription": "func-bold_task-rest_acq-p2",
      "SeriesNumber": 5,
      "SeriesTime": "115548.972000",
      "SliceLocation": -61.574163409135,
      "SliceThickness": 3.5,
      "SmallestImagePixelValue": 0,
      "SoftwareVersions": "syngo MR E11",
      "SpacingBetweenSlices": 3.9899999356345,
      "SpecificCharacterSet": "ISO_IR 100",
      "StudyID": "24",
      "StudyTime": "115128.416000",
      "TransmitCoilName": "Body",
      "VariableFlipAngleFlag": "N",
      "WindowCenterWidthExplanation": "Algo1"
    },
    "slices": {}
  },
  "time": {
    "samples": {
      "AcquisitionNumber": [1, 2, 3, 4, 5, 6, 7, 8, 9, 10, 11, 12, 13, 14, 15, 16, 17, 18, 19, 20, 21, 22, 23, 24, 25, 26, 27, 28, 29, 30, 31, 32, 33, 34, 35, 36, 37, 38, 39, 40, 41, 42, 43, 44, 45, 46, 47, 48, 49, 50, 51, 52, 53, 54, 55, 56, 57, 58, 59, 60, 61, 62, 63, 64, 65, 66, 67, 68, 69, 70, 71, 72, 73, 74, 75, 76, 77, 78, 79, 80, 81, 82, 83, 84, 85, 86, 87, 88, 89, 90, 91, 92, 93, 94, 95, 96, 97, 98, 99, 100, 101, 102, 103, 104, 105, 106, 107, 108, 109, 110, 111, 112, 113, 114, 115, 116, 117, 118, 119, 120, 121, 122, 123, 124, 125, 126, 127, 128, 129, 130, 131, 132, 133, 134, 135, 136, 137, 138, 139, 140, 141, 142, 143, 144, 145, 146, 147, 148, 149, 150, 151, 152, 153, 154, 155, 156, 157, 158, 159, 160, 161, 162, 163, 164, 165, 166, 167, 168, 169, 170, 171, 172, 173, 174, 175, 176, 177, 178, 179, 180, 181, 182, 183, 184, 185, 186, 187, 188, 189, 190, 191, 192, 193, 194, 195, 196, 197, 198, 199, 200],
      "AcquisitionTime": ["115502.780000", "115504.780000", "115506.780000", "115508.780000", "115510.780000", "115512.780000", "115514.780000", "115516.780000", "115518.780000", "115520.780000", "115522.780000", "115524.780000", "115526.780000", "115528.780000", "115530.780000", "115532.780000", "115534.780000", "115536.780000", "115538.780000", "115540.780000", "115542.780000", "115544.780000", "115546.780000", "115548.780000", "115550.780000", "115552.780000", "115554.780000", "115556.780000", "115558.780000", "115600.780000", "115602.780000", "115604.780000", "115606.780000", "115608.780000", "115610.780000", "115612.780000", "115614.780000", "115616.780000", "115618.780000", "115620.780000", "115622.780000", "115624.780000", "115626.780000", "115628.780000", "115630.780000", "115632.780000", "115634.780000", "115636.780000", "115638.780000", "115640.780000", "115642.780000", "115644.780000", "115646.780000", "115648.780000", "115650.780000", "115652.780000", "115654.780000", "115656.780000", "115658.780000", "115700.780000", "115702.780000", "115704.780000", "115706.780000", "115708.780000", "115710.780000", "115712.780000", "115714.780000", "115716.780000", "115718.780000", "115720.780000", "115722.780000", "115724.780000", "115726.780000", "115728.780000", "115730.780000", "115732.780000", "115734.780000", "115736.780000", "115738.780000", "115740.780000", "115742.780000", "115744.780000", "115746.780000", "115748.780000", "115750.780000", "115752.780000", "115754.780000", "115756.780000", "115758.780000", "115800.780000", "115802.780000", "115804.780000", "115806.780000", "115808.780000", "115810.780000", "115812.780000", "115814.780000", "115816.780000", "115818.780000", "115820.780000", "115822.780000", "115824.780000", "115826.780000", "115828.780000", "115830.780000", "115832.780000", "115834.780000", "115836.780000", "115838.780000", "115840.780000", "115842.780000", "115844.780000", "115846.780000", "115848.780000", "115850.780000", "115852.780000", "115854.780000", "115856.780000", "115858.780000", "115900.780000", "115902.780000", "115904.780000", "115906.780000", "115908.780000", "115910.780000", "115912.780000", "115914.780000", "115916.780000", "115918.780000", "115920.780000", "115922.780000", "115924.780000", "115926.780000", "115928.780000", "115930.780000", "115932.780000", "115934.780000", "115936.780000", "115938.780000", "115940.780000", "115942.780000", "115944.780000", "115946.780000", "115948.780000", "115950.780000", "115952.780000", "115954.780000", "115956.780000", "115958.780000", "120000.780000", "120002.780000", "120004.780000", "120006.780000", "120008.780000", "120010.780000", "120012.780000", "120014.780000", "120016.780000", "120018.780000", "120020.780000", "120022.780000", "120024.780000", "120026.780000", "120028.780000", "120030.780000", "120032.780000", "120034.780000", "120036.780000", "120038.780000", "120040.780000", "120042.780000", "120044.780000", "120046.780000", "120048.780000", "120050.780000", "120052.780000", "120054.780000", "120056.780000", "120058.780000", "120100.780000", "120102.780000", "120104.780000", "120106.780000", "120108.780000", "120110.780000", "120112.780000", "120114.780000", "120116.780000", "120118.780000", "120120.780000", "120122.780000", "120124.780000", "120126.780000", "120128.780000", "120130.780000", "120132.780000", "120134.780000", "120136.780000", "120138.780000", "120140.780000"],
      "ContentTime": ["115548.975000", "115548.979000", "115548.981000", "115548.983000", "115548.985000", "115548.988000", "115548.990000", "115548.992000", "115549.001000", "115549.003000", "115549.006000", "115549.008000", "115549.010000", "115549.013000", "115549.015000", "115549.017000", "115549.019000", "115549.022000", "115549.024000", "115549.026000", "115549.029000", "115549.031000", "115549.033000", "115628.971000", "115628.974000", "115628.976000", "115628.978000", "115628.981000", "115628.983000", "115628.985000", "115628.988000", "115628.990000", "115628.992000", "115628.995000", "115628.997000", "115629.000000", "115629.003000", "115629.005000", "115629.007000", "115629.010000", "115629.012000", "115629.014000", "115629.016000", "115708.970000", "115708.973000", "115708.975000", "115708.977000", "115708.980000", "115708.982000", "115708.984000", "115708.987000", "115708.989000", "115708.991000", "115708.993000", "115708.996000", "115708.998000", "115709.001000", "115709.004000", "115709.006000", "115709.008000", "115709.011000", "115709.013000", "115709.015000", "115748.970000", "115748.973000", "115748.975000", "115748.977000", "115748.980000", "115748.982000", "115748.984000", "115748.987000", "115748.989000", "115748.991000", "115748.994000", "115748.996000", "115748.998000", "115749.002000", "115749.004000", "115749.006000", "115749.009000", "115749.011000", "115749.013000", "115749.015000", "115828.970000", "115828.973000", "115828.975000", "115828.977000", "115828.980000", "115828.982000", "115828.984000", "115828.987000", "115828.989000", "115828.991000", "115828.994000", "115828.996000", "115828.998000", "115829.002000", "115829.004000", "115829.006000", "115829.009000", "115829.011000", "115829.013000", "115829.015000", "115908.971000", "115908.974000", "115908.976000", "115908.978000", "115908.981000", "115908.983000", "115908.985000", "115908.988000", "115908.990000", "115908.993000", "115908.995000", "115908.998000", "115909.001000", "115909.003000", "115909.006000", "115909.008000", "115909.010000", "115909.013000", "115909.015000", "115909.017000", "115948.970000", "115948.973000", "115948.975000", "115948.977000", "115948.980000", "115948.982000", "115948.984000", "115948.987000", "115948.989000", "115948.991000", "115948.994000", "115948.996000", "115948.998000", "115949.002000", "115949.004000", "115949.006000", "115949.009000", "115949.011000", "115949.013000", "115949.015000", "120028.970000", "120028.973000", "120028.975000", "120028.978000", "120028.980000", "120028.982000", "120028.985000", "120028.987000", "120028.989000", "120028.991000", "120028.994000", "120028.996000", "120028.998000", "120029.002000", "120029.004000", "120029.006000", "120029.009000", "120029.011000", "120029.013000", "120029.016000", "120108.971000", "120108.974000", "120108.976000", "120108.978000", "120108.981000", "120108.983000", "120108.985000", "120108.988000", "120108.990000", "120108.992000", "120108.995000", "120108.997000", "120109.000000", "120109.003000", "120109.005000", "120109.008000", "120109.010000", "120109.012000", "120109.015000", "120109.017000", "120142.304000", "120142.307000", "120142.314000", "120142.318000", "120142.325000", "120142.327000", "120142.330000", "120142.334000", "120142.338000", "120142.340000", "120142.343000", "120142.347000", "120142.349000", "120142.352000", "120142.354000", "120142.357000", "120142.359000"],
      "InstanceCreationTime": ["115548.975000", "115548.979000", "115548.981000", "115548.983000", "115548.985000", "115548.988000", "115548.990000", "115548.992000", "115549.001000", "115549.003000", "115549.006000", "115549.008000", "115549.010000", "115549.013000", "115549.015000", "115549.017000", "115549.019000", "115549.022000", "115549.024000", "115549.026000", "115549.029000", "115549.031000", "115549.033000", "115628.971000", "115628.974000", "115628.976000", "115628.978000", "115628.981000", "115628.983000", "115628.985000", "115628.988000", "115628.990000", "115628.992000", "115628.995000", "115628.997000", "115629.000000", "115629.003000", "115629.005000", "115629.007000", "115629.010000", "115629.012000", "115629.014000", "115629.016000", "115708.970000", "115708.973000", "115708.975000", "115708.977000", "115708.980000", "115708.982000", "115708.984000", "115708.987000", "115708.989000", "115708.991000", "115708.993000", "115708.996000", "115708.998000", "115709.001000", "115709.004000", "115709.006000", "115709.008000", "115709.011000", "115709.013000", "115709.015000", "115748.970000", "115748.973000", "115748.975000", "115748.977000", "115748.980000", "115748.982000", "115748.984000", "115748.987000", "115748.989000", "115748.991000", "115748.994000", "115748.996000", "115748.998000", "115749.002000", "115749.004000", "115749.006000", "115749.009000", "115749.011000", "115749.013000", "115749.015000", "115828.970000", "115828.973000", "115828.975000", "115828.977000", "115828.980000", "115828.982000", "115828.984000", "115828.987000", "115828.989000", "115828.991000", "115828.994000", "115828.996000", "115828.998000", "115829.002000", "115829.004000", "115829.006000", "115829.009000", "115829.011000", "115829.013000", "115829.015000", "115908.971000", "115908.974000", "115908.976000", "115908.978000", "115908.981000", "115908.983000", "115908.985000", "115908.988000", "115908.990000", "115908.993000", "115908.995000", "115908.998000", "115909.001000", "115909.003000", "115909.006000", "115909.008000", "115909.010000", "115909.013000", "115909.015000", "115909.017000", "115948.970000", "115948.973000", "115948.975000", "115948.977000", "115948.980000", "115948.982000", "115948.984000", "115948.987000", "115948.989000", "115948.991000", "115948.994000", "115948.996000", "115948.998000", "115949.002000", "115949.004000", "115949.006000", "115949.009000", "115949.011000", "115949.013000", "115949.015000", "120028.970000", "120028.973000", "120028.975000", "120028.978000", "120028.980000", "120028.982000", "120028.985000", "120028.987000", "120028.989000", "120028.991000", "120028.994000", "120028.996000", "120028.998000", "120029.002000", "120029.004000", "120029.006000", "120029.009000", "120029.011000", "120029.013000", "120029.016000", "120108.971000", "120108.974000", "120108.976000", "120108.978000", "120108.981000", "120108.983000", "120108.985000", "120108.988000", "120108.990000", "120108.992000", "120108.995000", "120108.997000", "120109.000000", "120109.003000", "120109.005000", "120109.008000", "120109.010000", "120109.012000", "120109.015000", "120109.017000", "120142.304000", "120142.307000", "120142.314000", "120142.318000", "120142.325000", "120142.327000", "120142.330000", "120142.334000", "120142.338000", "120142.340000", "120142.343000", "120142.347000", "120142.349000", "120142.352000", "120142.354000", "120142.357000", "120142.359000"],
      "InstanceNumber": [1, 2, 3, 4, 5, 6, 7, 8, 9, 10, 11, 12, 13, 14, 15, 16, 17, 18, 19, 20, 21, 22, 23, 24, 25, 26, 27, 28, 29, 30, 31, 32, 33, 34, 35, 36, 37, 38, 39, 40, 41, 42, 43, 44, 45, 46, 47, 48, 49, 50, 51, 52, 53, 54, 55, 56, 57, 58, 59, 60, 61, 62, 63, 64, 65, 66, 67, 68, 69, 70, 71, 72, 73, 74, 75, 76, 77, 78, 79, 80, 81, 82, 83, 84, 85, 86, 87, 88, 89, 90, 91, 92, 93, 94, 95, 96, 97, 98, 99, 100, 101, 102, 103, 104, 105, 106, 107, 108, 109, 110, 111, 112, 113, 114, 115, 116, 117, 118, 119, 120, 121, 122, 123, 124, 125, 126, 127, 128, 129, 130, 131, 132, 133, 134, 135, 136, 137, 138, 139, 140, 141, 142, 143, 144, 145, 146, 147, 148, 149, 150, 151, 152, 153, 154, 155, 156, 157, 158, 159, 160, 161, 162, 163, 164, 165, 166, 167, 168, 169, 170, 171, 172, 173, 174, 175, 176, 177, 178, 179, 180, 181, 182, 183, 184, 185, 186, 187, 188, 189, 190, 191, 192, 193, 194, 195, 196, 197, 198, 199, 200],
      "LargestImagePixelValue": [2256, 2200, 2255, 2208, 2200, 2240, 2217, 2218, 2205, 2224, 2193, 2206, 2245, 2265, 2249, 2208, 2213, 2248, 2214, 2245, 2215, 2213, 2230, 2209, 2257, 2232, 2223, 2242, 2217, 2204, 2277, 2254, 2229, 2249, 2249, 2238, 2214, 2265, 2228, 2243, 2272, 2217, 2235, 2217, 2247, 2257, 2221, 2246, 2263, 2209, 2249, 2273, 2230, 2202, 2214, 2232, 2228, 2215, 2208, 2259, 2211, 2248, 2206, 2207, 2205, 2203, 2207, 2213, 2276, 2209, 2271, 2200, 2213, 2210, 2202, 2202, 2274, 2202, 2201, 2180, 2192, 2211, 2202, 2205, 2244, 2207, 2202, 2209, 2240, 2214, 2202, 2209, 2206, 2201, 2206, 2208, 2202, 2207, 2197, 2216, 2211, 2196, 2202, 2200, 2206, 2197, 2194, 2204, 2200, 2203, 2208, 2246, 2201, 2217, 2199, 2203, 2201, 2242, 2203, 2218, 2228, 2198, 2246, 2201, 2202, 2211, 2201, 2223, 2211, 2218, 2204, 2206, 2208, 2200, 2243, 2220, 2209, 2221, 2205, 2192, 2197, 2200, 2200, 2202, 2207, 2200, 2196, 2193, 2211, 2204, 2201, 2201, 2223, 2195, 2220, 2227, 2207, 2198, 2216, 2206, 2205, 2208, 2202, 2198, 2200, 2215, 2196, 2194, 2197, 2198, 2192, 2201, 2208, 2203, 2194, 2197, 2195, 2244, 2191, 2200, 2192, 2191, 2273, 2205, 2192, 2198, 2201, 2200, 2189, 2198, 2195, 2214, 2196, 2202, 2214, 2199, 2223, 2221, 2202, 2190],
      "WindowCenter": [1038.0, 1038.0, 1037.0, 1038.0, 1038.0, 1039.0, 1037.0, 1037.0, 1038.0, 1037.0, 1037.0, 1037.0, 1039.0, 1037.0, 1037.0, 1036.0, 1037.0, 1034.0, 1037.0, 1037.0, 1037.0, 1035.0, 1037.0, 1035.0, 1039.0, 1038.0, 1036.0, 1038.0, 1037.0, 1036.0, 1038.0, 1039.0, 1038.0, 1038.0, 1038.0, 1036.0, 1036.0, 1039.0, 1038.0, 1036.0, 1039.0, 1038.0, 1038.0, 1036.0, 1037.0, 1036.0, 1038.0, 1036.0, 1038.0, 1037.0, 1038.0, 1036.0, 1036.0, 1036.0, 1036.0, 1037.0, 1036.0, 1036.0, 1035.0, 1036.0, 1037.0, 1035.0, 1036.0, 1035.0, 1035.0, 1036.0, 1035.0, 1035.0, 1036.0, 1035.0, 1036.0, 1035.0, 1038.0, 1035.0, 1036.0, 1037.0, 1035.0, 1036.0, 1036.0, 1035.0, 1037.0, 1035.0, 1034.0, 1037.0, 1036.0, 1036.0, 1036.0, 1034.0, 1037.0, 1037.0, 1036.0, 1037.0, 1036.0, 1036.0, 1035.0, 1036.0, 1036.0, 1035.0, 1036.0, 1036.0, 1036.0, 1035.0, 1035.0, 1037.0, 1037.0, 1037.0, 1036.0, 1037.0, 1035.0, 1036.0, 1035.0, 1035.0, 1037.0, 1033.0, 1036.0, 1034.0, 1036.0, 1035.0, 1035.0, 1034.0, 1035.0, 1034.0, 1035.0, 1035.0, 1035.0, 1035.0, 1035.0, 1034.0, 1033.0, 1035.0, 1035.0, 1034.0, 1035.0, 1036.0, 1036.0, 1034.0, 1036.0, 1035.0, 1035.0, 1036.0, 1034.0, 1034.0, 1035.0, 1035.0, 1035.0, 1036.0, 1034.0, 1036.0, 1036.0, 1036.0, 1036.0, 1034.0, 1035.0, 1036.0, 1034.0, 1036.0, 1036.0, 1035.0, 1034.0, 1034.0, 1034.0, 1035.0, 1036.0, 1035.0, 1036.0, 1034.0, 1035.0, 1035.0, 1034.0, 1035.0, 1035.0, 1036.0, 1034.0, 1034.0, 1035.0, 1036.0, 1035.0, 1035.0, 1035.0, 1035.0, 1036.0, 1035.0, 1035.0, 1035.0, 1036.0, 1036.0, 1035.0, 1035.0, 1034.0, 1033.0, 1033.0, 1034.0, 1032.0, 1032.0, 1033.0, 1033.0, 1033.0, 1032.0, 1034.0, 1034.0],
      "WindowWidth": [2318.0, 2317.0, 2316.0, 2319.0, 2318.0, 2323.0, 2314.0, 2318.0, 2315.0, 2316.0, 2316.0, 2315.0, 2319.0, 2317.0, 2316.0, 2311.0, 2316.0, 2308.0, 2317.0, 2316.0, 2317.0, 2312.0, 2314.0, 2310.0, 2320.0, 2318.0, 2315.0, 2317.0, 2317.0, 2315.0, 2321.0, 2319.0, 2318.0, 2316.0, 2318.0, 2313.0, 2314.0, 2320.0, 2318.0, 2314.0, 2323.0, 2318.0, 2319.0, 2310.0, 2318.0, 2312.0, 2317.0, 2314.0, 2318.0, 2315.0, 2321.0, 2315.0, 2312.0, 2309.0, 2314.0, 2315.0, 2311.0, 2313.0, 2310.0, 2315.0, 2313.0, 2307.0, 2312.0, 2310.0, 2310.0, 2313.0, 2310.0, 2311.0, 2312.0, 2309.0, 2310.0, 2309.0, 2316.0, 2310.0, 2311.0, 2314.0, 2310.0, 2311.0, 2309.0, 2309.0, 2314.0, 2309.0, 2302.0, 2315.0, 2314.0, 2312.0, 2310.0, 2308.0, 2314.0, 2315.0, 2313.0, 2315.0, 2311.0, 2312.0, 2311.0, 2313.0, 2312.0, 2309.0, 2314.0, 2311.0, 2313.0, 2309.0, 2306.0, 2314.0, 2314.0, 2315.0, 2313.0, 2315.0, 2310.0, 2312.0, 2312.0, 2311.0, 2314.0, 2306.0, 2311.0, 2306.0, 2311.0, 2309.0, 2310.0, 2306.0, 2308.0, 2309.0, 2308.0, 2309.0, 2312.0, 2308.0, 2310.0, 2305.0, 2306.0, 2308.0, 2310.0, 2306.0, 2310.0, 2312.0, 2311.0, 2308.0, 2311.0, 2309.0, 2310.0, 2311.0, 2306.0, 2305.0, 2311.0, 2308.0, 2310.0, 2311.0, 2307.0, 2311.0, 2312.0, 2313.0, 2310.0, 2305.0, 2309.0, 2313.0, 2308.0, 2312.0, 2313.0, 2311.0, 2308.0, 2307.0, 2308.0, 2308.0, 2311.0, 2309.0, 2313.0, 2306.0, 2309.0, 2308.0, 2308.0, 2307.0, 2308.0, 2313.0, 2307.0, 2306.0, 2309.0, 2309.0, 2309.0, 2310.0, 2308.0, 2309.0, 2311.0, 2309.0, 2309.0, 2309.0, 2311.0, 2310.0, 2311.0, 2310.0, 2306.0, 2302.0, 2304.0, 2305.0, 2301.0, 2299.0, 2306.0, 2305.0, 2304.0, 2303.0, 2304.0, 2309.0]
    },
    "slices": {}
  }
}