{
  "AcquisitionMatrixPE": 80,
  "AcquisitionNumber": 1,
  "AcquisitionTime": "09:32:43.127500",
  "BandwidthPerPixelPhaseEncode": 46.296,
  "BaseResolution": 80,
  "BodyPartExamined": "BRAIN",
  "CoilCombinationMethod": "Sum of Squares",
  "ConsistencyInfo": "N4_VE11E_LATEST_20181129",
  "ConversionSoftware": "dcm2niix",
  "ConversionSoftwareVersion": "v1.0.20220720",
  "DerivedVendorReportedEchoSpacing": 0.000540003,
  "DeviceSerialNumber": "66112",
  "DwellTime": 2.7e-06,
  "EchoTime": 0.035,
  "EchoTrainLength": 39,
  "EffectiveEchoSpacing": 0.000270002,
  "FlipAngle": 90,
  "HeudiconvVersion": "0.13.1",
  "ImageOrientationPatientDICOM": [0.99251, -0.122153, 0.0013694, 0.115891, 0.945056, 0.305678],
  "ImageOrientationText": "Tra>Cor(17.7)>Sag(2.2)",
  "ImageType": [
    "ORIGINAL",
    "PRIMARY",
    "M",
    "ND",
    "NORM",
    "MOSAIC"
],
  "ImagingFrequency": 123.252,
  "InPlanePhaseEncodingDirectionDICOM": "COL",
  "InstitutionAddress": "Maynard 3,Hanover,NH,US,03755",
  "InstitutionName": "Dartmouth College - PBS",
  "InstitutionalDepartmentName": "Department",
  "MRAcquisitionType": "2D",
  "MagneticFieldStrength": 3,
  "Manufacturer": "Siemens",
  "ManufacturersModelName": "Prisma",
  "Modality": "MR",
  "MultibandAccelerationFactor": 4,
  "NonlinearGradientCorrection": false,
  "ParallelReductionFactorInPlane": 2,
  "PartialFourier": 1,
  "PatientPosition": "HFS",
  "PercentPhaseFOV": 100,
  "PercentSampling": 100,
  "PhaseEncodingDirection": "j-",
  "PhaseEncodingSteps": 79,
  "PhaseResolution": 1,
  "PixelBandwidth": 2315,
  "ProcedureStepDescription": "dbic^QA",
  "ProtocolName": "func-bold_task-rest_acq-p2-s4-3.5mm",
  "PulseSequenceDetails": "%SiemensSeq%\\ep2d_bold",
  "ReceiveCoilActiveElements": "HEA;HEP",
  "ReceiveCoilName": "Head_32",
  "ReconMatrixPE": 80,
  "RefLinesPE": 24,
  "RepetitionTime": 2,
  "SAR": 0.0206766,
  "ScanOptions": "FS",
  "ScanningSequence": "EP",
  "SequenceName": "*epfid2d1_80",
  "SequenceVariant": "SK",
  "SeriesDescription": "func-bold_task-rest_acq-p2-s4-3.5mm",
  "SeriesNumber": 7,
  "ShimSetting": [4144, -7711, -7522, 232, -77, -37, -11, 76],
  "SliceThickness": 3.5,
  "SliceTiming": [1.485, 0, 0.99, 0.2475, 1.2375, 0.7425, 1.7325, 0.495, 1.485, 0, 0.99, 0.2475, 1.2375, 0.7425, 1.7325, 0.495, 1.485, 0, 0.99, 0.2475, 1.2375, 0.7425, 1.7325, 0.495, 1.485, 0, 0.99, 0.2475, 1.2375, 0.7425, 1.7325, 0.495],
  "SoftwareVersions": "syngo MR E11",
  "SpacingBetweenSlices": 3.99,
  "StationName": "AWP66112",
  "TaskName": "rest",
  "TotalReadoutTime": 0.0213301,
  "TxRefAmp": 225.282,
  "dcmmeta_affine": [
    [-2.9775309562683105, 0.3476722836494446, 0.15414805710315704, 102.38045501708984],
    [0.366458922624588, 2.835167407989502, 1.209885835647583, -135.82485961914062],
    [0.004108208231627941, -0.9170330166816711, 3.7990148067474365, -23.116682052612305],
    [0.0, 0.0, 0.0, 1.0]
],
  "dcmmeta_reorient_transform": [
    [0.0, -1.0, 0.0, 79.0],
    [1.0, 0.0, 0.0, 0.0],
    [0.0, 0.0, 1.0, 0.0],
    [0.0, 0.0, 0.0, 1.0]
],
  "dcmmeta_shape": [80, 80, 32, 200],
  "dcmmeta_slice_dim": 2,
  "dcmmeta_version": 0.6,
  "global": {
    "const": {
      "AccessionNumber": "qa",
      "AcquisitionMatrix": [80, 0, 0, 80],
      "AngioFlag": "N",
      "BitsAllocated": 16,
      "BitsStored": 12,
      "BodyPartExamined": "BRAIN",
      "Columns": 480,
      "EchoNumbers": 1,
      "EchoTime": 35.0,
      "EchoTrainLength": 39,
      "FlipAngle": 90.0,
      "HighBit": 11,
      "ImageOrientationPatient": [0.99251034035252, -0.1221529738874, 0.0013694027138, 0.11589076505449, 0.94505581662274, 0.30567766363051],
      "ImagePositionPatient": [-794.88722701297, -581.895079881, -279.79052824031],
      "ImageType": [
        "ORIGINAL",
        "PRIMARY",
        "M",
        "ND",
        "NORM",
        "MOSAIC"
],
      "ImagedNucleus": "1H",
      "ImagingFrequency": 123.252353,
      "InPlanePhaseEncodingDirection": "COL",
      "MRAcquisitionType": "2D",
      "MagneticFieldStrength": 3.0,
      "Manufacturer": "SIEMENS",
      "ManufacturerModelName": "Prisma",
      "Modality": "MR",
      "NumberOfAverages": 1.0,
      "NumberOfPhaseEncodingSteps": 79,
      "PercentPhaseFieldOfView": 100.0,
      "PercentSampling": 100.0,
      "PerformedProcedureStepStartTime": "092016.610000",
      "PhotometricInterpretation": "MONOCHROME2",
      "PixelBandwidth": 2315.0,
      "PixelRepresentation": 0,
      "PixelSpacing": [3.0, 3.0],
      "ProtocolName": "func-bold_task-rest_acq-p2-s4-3.5mm",
      "RepetitionTime": 2000.0,
      "Rows": 480,
      "SAR": 0.02067661791949,
      "SamplesPerPixel": 1,
      "ScanOptions": "FS",
      "ScanningSequence": "EP",
      "SequenceName": "*epfid2d1_80",
      "SequenceVariant": "SK",
      "SeriesDescription": "func-bold_task-rest_acq-p2-s4-3.5mm",
      "SeriesNumber": 7,
      "SeriesTime": "093337.817000",
      "SliceLocation": -59.240963700648,
      "SliceThickness": 3.5,
      "SmallestImagePixelValue": 0,
      "SoftwareVersions": "syngo MR E11",
      "SpacingBetweenSlices": 3.9899999601684,
      "SpecificCharacterSet": "ISO_IR 100",
      "StudyID": "10",
      "StudyTime": "092016.564000",
      "TransmitCoilName": "Body",
      "VariableFlipAngleFlag": "N",
      "WindowCenterWidthExplanation": "Algo1"
    },
    "slices": {}
  },
  "time": {
    "samples": {
      "AcquisitionNumber": [1, 2, 3, 4, 5, 6, 7, 8, 9, 10, 11, 12, 13, 14, 15, 16, 17, 18, 19, 20, 21, 22, 23, 24, 25, 26, 27, 28, 29, 30, 31, 32, 33, 34, 35, 36, 37, 38, 39, 40, 41, 42, 43, 44, 45, 46, 47, 48, 49, 50, 51, 52, 53, 54, 55, 56, 57, 58, 59, 60, 61, 62, 63, 64, 65, 66, 67, 68, 69, 70, 71, 72, 73, 74, 75, 76, 77, 78, 79, 80, 81, 82, 83, 84, 85, 86, 87, 88, 89, 90, 91, 92, 93, 94, 95, 96, 97, 98, 99, 100, 101, 102, 103, 104, 105, 106, 107, 108, 109, 110, 111, 112, 113, 114, 115, 116, 117, 118, 119, 120, 121, 122, 123, 124, 125, 126, 127, 128, 129, 130, 131, 132, 133, 134, 135, 136, 137, 138, 139, 140, 141, 142, 143, 144, 145, 146, 147, 148, 149, 150, 151, 152, 153, 154, 155, 156, 157, 158, 159, 160, 161, 162, 163, 164, 165, 166, 167, 168, 169, 170, 171, 172, 173, 174, 175, 176, 177, 178, 179, 180, 181, 182, 183, 184, 185, 186, 187, 188, 189, 190, 191, 192, 193, 194, 195, 196, 197, 198, 199, 200],
      "AcquisitionTime": ["093243.127500", "093245.127500", "093247.127500", "093249.127500", "093251.127500", "093253.127500", "093255.127500", "093257.127500", "093259.127500", "093301.127500", "093303.127500", "093305.127500", "093307.127500", "093309.127500", "093311.127500", "093313.127500", "093315.127500", "093317.127500", "093319.127500", "093321.127500", "093323.127500", "093325.127500", "093327.127500", "093329.127500", "093331.127500", "093333.127500", "093335.127500", "093337.127500", "093339.127500", "093341.127500", "093343.127500", "093345.127500", "093347.127500", "093349.127500", "093351.127500", "093353.127500", "093355.127500", "093357.127500", "093359.127500", "093401.127500", "093403.127500", "093405.127500", "093407.127500", "093409.127500", "093411.127500", "093413.127500", "093415.127500", "093417.127500", "093419.127500", "093421.127500", "093423.127500", "093425.127500", "093427.127500", "093429.127500", "093431.127500", "093433.127500", "093435.127500", "093437.127500", "093439.127500", "093441.127500", "093443.127500", "093445.127500", "093447.127500", "093449.127500", "093451.127500", "093453.127500", "093455.127500", "093457.127500", "093459.127500", "093501.127500", "093503.127500", "093505.127500", "093507.127500", "093509.127500", "093511.127500", "093513.127500", "093515.127500", "093517.127500", "093519.127500", "093521.127500", "093523.127500", "093525.127500", "093527.127500", "093529.127500", "093531.127500", "093533.127500", "093535.127500", "093537.127500", "093539.127500", "093541.127500", "093543.127500", "093545.127500", "093547.127500", "093549.127500", "093551.127500", "093553.127500", "093555.127500", "093557.127500", "093559.127500", "093601.127500", "093603.127500", "093605.127500", "093607.127500", "093609.127500", "093611.127500", "093613.127500", "093615.127500", "093617.127500", "093619.127500", "093621.127500", "093623.127500", "093625.127500", "093627.127500", "093629.127500", "093631.127500", "093633.127500", "093635.127500", "093637.127500", "093639.127500", "093641.127500", "093643.127500", "093645.127500", "093647.127500", "093649.127500", "093651.127500", "093653.127500", "093655.127500", "093657.127500", "093659.127500", "093701.127500", "093703.127500", "093705.127500", "093707.127500", "093709.127500", "093711.127500", "093713.127500", "093715.127500", "093717.127500", "093719.127500", "093721.127500", "093723.127500", "093725.127500", "093727.127500", "093729.127500", "093731.127500", "093733.127500", "093735.127500", "093737.127500", "093739.127500", "093741.127500", "093743.127500", "093745.127500", "093747.127500", "093749.127500", "093751.127500", "093753.127500", "093755.127500", "093757.127500", "093759.127500", "093801.127500", "093803.127500", "093805.127500", "093807.127500", "093809.127500", "093811.127500", "093813.127500", "093815.127500", "093817.127500", "093819.127500", "093821.127500", "093823.127500", "093825.127500", "093827.127500", "093829.127500", "093831.127500", "093833.127500", "093835.127500", "093837.127500", "093839.127500", "093841.127500", "093843.127500", "093845.127500", "093847.127500", "093849.127500", "093851.127500", "093853.127500", "093855.127500", "093857.127500", "093859.127500", "093901.127500", "093903.127500", "093905.127500", "093907.127500", "093909.127500", "093911.127500", "093913.127500", "093915.127500", "093917.127500", "093919.127500", "093921.127500"],
      "ContentTime": ["093337.821000", "093337.824000", "093337.833000", "093337.836000", "093337.838000", "093337.840000", "093337.862000", "093337.865000", "093337.873000", "093337.875000", "093337.878000", "093337.880000", "093337.883000", "093337.885000", "093337.887000", "093337.890000", "093337.892000", "093337.894000", "093337.896000", "093337.899000", "093337.901000", "093337.904000", "093337.906000", "093337.909000", "093337.911000", "093337.913000", "093337.916000", "093417.815000", "093417.818000", "093417.820000", "093417.823000", "093417.825000", "093417.827000", "093417.830000", "093417.832000", "093417.835000", "093417.837000", "093417.847000", "093417.849000", "093417.852000", "093417.854000", "093417.856000", "093417.859000", "093417.861000", "093417.864000", "093417.866000", "093417.868000", "093457.815000", "093457.818000", "093457.820000", "093457.823000", "093457.825000", "093457.827000", "093457.830000", "093457.832000", "093457.835000", "093457.846000", "093457.848000", "093457.851000", "093457.853000", "093457.855000", "093457.857000", "093457.860000", "093457.862000", "093457.865000", "093457.867000", "093457.869000", "093537.815000", "093537.818000", "093537.820000", "093537.823000", "093537.825000", "093537.827000", "093537.830000", "093537.832000", "093537.835000", "093537.837000", "093537.839000", "093537.842000", "093537.844000", "093537.847000", "093537.849000", "093537.851000", "093537.854000", "093537.856000", "093537.858000", "093537.861000", "093617.815000", "093617.818000", "093617.820000", "093617.822000", "093617.825000", "093617.827000", "093617.829000", "093617.832000", "093617.834000", "093617.837000", "093617.839000", "093617.841000", "093617.844000", "093617.846000", "093617.848000", "093617.851000", "093617.853000", "093617.855000", "093617.858000", "093617.860000", "093657.815000", "093657.818000", "093657.820000", "093657.823000", "093657.826000", "093657.828000", "093657.830000", "093657.833000", "093657.835000", "093657.837000", "093657.840000", "093657.842000", "093657.845000", "093657.847000", "093657.849000", "093657.852000", "093657.854000", "093657.856000", "093657.859000", "093657.861000", "093717.815000", "093717.818000", "093717.820000", "093717.823000", "093717.825000", "093717.827000", "093717.830000", "093717.832000", "093717.834000", "093717.837000", "093757.815000", "093757.818000", "093757.820000", "093757.823000", "093757.825000", "093757.827000", "093757.830000", "093757.832000", "093757.834000", "093757.837000", "093757.839000", "093757.842000", "093757.844000", "093757.846000", "093757.849000", "093757.851000", "093757.854000", "093757.863000", "093757.866000", "093757.868000", "093837.815000", "093837.818000", "093837.820000", "093837.823000", "093837.825000", "093837.827000", "093837.830000", "093837.832000", "093837.835000", "093837.837000", "093837.839000", "093837.842000", "093837.844000", "093837.847000", "093837.849000", "093837.851000", "093837.854000", "093837.856000", "093837.866000", "093837.868000", "093917.815000", "093917.818000", "093917.820000", "093917.823000", "093917.825000", "093917.828000", "093917.830000", "093917.832000", "093917.834000", "093917.837000", "093917.839000", "093917.841000", "093917.844000", "093917.846000", "093917.849000", "093917.851000", "093917.853000", "093917.856000", "093917.858000", "093917.861000", "093922.662000", "093922.665000", "093922.667000"],
      "InstanceCreationTime": ["093337.821000", "093337.824000", "093337.833000", "093337.836000", "093337.838000", "093337.840000", "093337.862000", "093337.865000", "093337.873000", "093337.875000", "093337.878000", "093337.880000", "093337.883000", "093337.885000", "093337.887000", "093337.890000", "093337.892000", "093337.894000", "093337.896000", "093337.899000", "093337.901000", "093337.904000", "093337.906000", "093337.909000", "093337.911000", "093337.913000", "093337.916000", "093417.815000", "093417.818000", "093417.820000", "093417.823000", "093417.825000", "093417.827000", "093417.830000", "093417.832000", "093417.835000", "093417.837000", "093417.847000", "093417.849000", "093417.852000", "093417.854000", "093417.856000", "093417.859000", "093417.861000", "093417.864000", "093417.866000", "093417.868000", "093457.815000", "093457.818000", "093457.820000", "093457.823000", "093457.825000", "093457.827000", "093457.830000", "093457.832000", "093457.835000", "093457.846000", "093457.848000", "093457.851000", "093457.853000", "093457.855000", "093457.857000", "093457.860000", "093457.862000", "093457.865000", "093457.867000", "093457.869000", "093537.815000", "093537.818000", "093537.820000", "093537.823000", "093537.825000", "093537.827000", "093537.830000", "093537.832000", "093537.835000", "093537.837000", "093537.839000", "093537.842000", "093537.844000", "093537.847000", "093537.849000", "093537.851000", "093537.854000", "093537.856000", "093537.858000", "093537.861000", "093617.815000", "093617.818000", "093617.820000", "093617.822000", "093617.825000", "093617.827000", "093617.829000", "093617.832000", "093617.834000", "093617.837000", "093617.839000", "093617.841000", "093617.844000", "093617.846000", "093617.848000", "093617.851000", "093617.853000", "093617.855000", "093617.858000", "093617.860000", "093657.815000", "093657.818000", "093657.820000", "093657.823000", "093657.826000", "093657.828000", "093657.830000", "093657.833000", "093657.835000", "093657.837000", "093657.840000", "093657.842000", "093657.845000", "093657.847000", "093657.849000", "093657.852000", "093657.854000", "093657.856000", "093657.859000", "093657.861000", "093717.815000", "093717.818000", "093717.820000", "093717.823000", "093717.825000", "093717.827000", "093717.830000", "093717.832000", "093717.834000", "093717.837000", "093757.815000", "093757.818000", "093757.820000", "093757.823000", "093757.825000", "093757.827000", "093757.830000", "093757.832000", "093757.834000", "093757.837000", "093757.839000", "093757.842000", "093757.844000", "093757.846000", "093757.849000", "093757.851000", "093757.854000", "093757.863000", "093757.866000", "093757.868000", "093837.815000", "093837.818000", "093837.820000", "093837.823000", "093837.825000", "093837.827000", "093837.830000", "093837.832000", "093837.835000", "093837.837000", "093837.839000", "093837.842000", "093837.844000", "093837.847000", "093837.849000", "093837.851000", "093837.854000", "093837.856000", "093837.866000", "093837.868000", "093917.815000", "093917.818000", "093917.820000", "093917.823000", "093917.825000", "093917.828000", "093917.830000", "093917.832000", "093917.834000", "093917.837000", "093917.839000", "093917.841000", "093917.844000", "093917.846000", "093917.849000", "093917.851000", "093917.853000", "093917.856000", "093917.858000", "093917.861000", "093922.662000", "093922.665000", "093922.667000"],
      "InstanceNumber": [1, 2, 3, 4, 5, 6, 7, 8, 9, 10, 11, 12, 13, 14, 15, 16, 17, 18, 19, 20, 21, 22, 23, 24, 25, 26, 27, 28, 29, 30, 31, 32, 33, 34, 35, 36, 37, 38, 39, 40, 41, 42, 43, 44, 45, 46, 47, 48, 49, 50, 51, 52, 53, 54, 55, 56, 57, 58, 59, 60, 61, 62, 63, 64, 65, 66, 67, 68, 69, 70, 71, 72, 73, 74, 75, 76, 77, 78, 79, 80, 81, 82, 83, 84, 85, 86, 87, 88, 89, 90, 91, 92, 93, 94, 95, 96, 97, 98, 99, 100, 101, 102, 103, 104, 105, 106, 107, 108, 109, 110, 111, 112, 113, 114, 115, 116, 117, 118, 119, 120, 121, 122, 123, 124, 125, 126, 127, 128, 129, 130, 131, 132, 133, 134, 135, 136, 137, 138, 139, 140, 141, 142, 143, 144, 145, 146, 147, 148, 149, 150, 151, 152, 153, 154, 155, 156, 157, 158, 159, 160, 161, 162, 163, 164, 165, 166, 167, 168, 169, 170, 171, 172, 173, 174, 175, 176, 177, 178, 179, 180, 181, 182, 183, 184, 185, 186, 187, 188, 189, 190, 191, 192, 193, 194, 195, 196, 197, 198, 199, 200],
      "LargestImagePixelValue": [2032, 2033, 2029, 2032, 2034, 2034, 2028, 2033, 2027, 2031, 2034, 2030, 2031, 2035, 2033, 2035, 2032, 2035, 2033, 2031, 2032, 2026, 2040, 2032, 2027, 2033, 2034, 2030, 2032, 2036, 2032, 2028, 2031, 2027, 2030, 2032, 2035, 2035, 2033, 2033, 2032, 2034, 2032, 2034, 2037, 2032, 2034, 2031, 2030, 2030, 2030, 2030, 2030, 2034, 2029, 2032, 2030, 2030, 2028, 2031, 2030, 2031, 2032, 2033, 2032, 2034, 2034, 2029, 2034, 2034, 2035, 2031, 2030, 2031, 2032, 2029, 2034, 2031, 2030, 2028, 2030, 2031, 2033, 2037, 2030, 2031, 2037, 2030, 2032, 2028, 2033, 2034, 2032, 2031, 2034, 2028, 2031, 2036, 2028, 2034, 2034, 2032, 2035, 2028, 2032, 2030, 2031, 2032, 2029, 2031, 2034, 2033, 2030, 2029, 2033, 2029, 2027, 2032, 2032, 2031, 2034, 2032, 2030, 2030, 2031, 2031, 2028, 2029, 2033, 2035, 2030, 2030, 2035, 2030, 2030, 2031, 2032, 2031, 2030, 2028, 2029, 2035, 2030, 2025, 2031, 2032, 2030, 2027, 2032, 2029, 2030, 2034, 2031, 2026, 2034, 2025, 2030, 2030, 2029, 2030, 2031, 2028, 2029, 2025, 2034, 2028, 2033, 2030, 2030, 2031, 2030, 2028, 2030, 2031, 2028, 2035, 2031, 2029, 2033, 2031, 2031, 2029, 2032, 2030, 2028, 2030, 2029, 2030, 2031, 2033, 2032, 2029, 2029, 2031, 2028, 2031, 2022, 2029, 2027, 2030],
      "WindowCenter": [934.0, 933.0, 934.0, 935.0, 936.0, 934.0, 933.0, 934.0, 934.0, 933.0, 934.0, 935.0, 934.0, 934.0, 934.0, 934.0, 934.0, 934.0, 934.0, 934.0, 933.0, 935.0, 933.0, 933.0, 934.0, 934.0, 934.0, 934.0, 935.0, 934.0, 934.0, 934.0, 934.0, 934.0, 935.0, 934.0, 933.0, 935.0, 934.0, 935.0, 934.0, 934.0, 934.0, 935.0, 934.0, 936.0, 936.0, 934.0, 934.0, 934.0, 934.0, 934.0, 934.0, 935.0, 934.0, 934.0, 934.0, 934.0, 934.0, 934.0, 933.0, 934.0, 934.0, 934.0, 933.0, 934.0, 934.0, 935.0, 934.0, 933.0, 933.0, 934.0, 935.0, 934.0, 934.0, 934.0, 934.0, 934.0, 935.0, 934.0, 934.0, 933.0, 934.0, 936.0, 933.0, 935.0, 934.0, 933.0, 935.0, 935.0, 934.0, 934.0, 935.0, 934.0, 934.0, 934.0, 934.0, 933.0, 934.0, 934.0, 934.0, 933.0, 934.0, 934.0, 933.0, 934.0, 934.0, 934.0, 933.0, 935.0, 934.0, 934.0, 936.0, 934.0, 933.0, 933.0, 934.0, 933.0, 934.0, 934.0, 935.0, 933.0, 934.0, 933.0, 934.0, 935.0, 935.0, 933.0, 933.0, 934.0, 934.0, 934.0, 933.0, 934.0, 935.0, 933.0, 935.0, 933.0, 933.0, 934.0, 934.0, 934.0, 933.0, 934.0, 933.0, 933.0, 934.0, 934.0, 934.0, 934.0, 933.0, 933.0, 933.0, 933.0, 935.0, 933.0, 934.0, 933.0, 934.0, 933.0, 933.0, 934.0, 933.0, 933.0, 933.0, 934.0, 933.0, 934.0, 934.0, 934.0, 934.0, 934.0, 935.0, 934.0, 933.0, 933.0, 933.0, 934.0, 935.0, 933.0, 934.0, 934.0, 933.0, 933.0, 935.0, 936.0, 933.0, 933.0, 934.0, 933.0, 933.0, 935.0, 935.0, 933.0, 933.0, 935.0, 933.0, 934.0, 933.0, 933.0],
      "WindowWidth": [2144.0, 2143.0, 2144.0, 2146.0, 2147.0, 2145.0, 2144.0, 2145.0, 2144.0, 2144.0, 2145.0, 2146.0, 2144.0, 2144.0, 2144.0, 2144.0, 2145.0, 2145.0, 2145.0, 2144.0, 2143.0, 2146.0, 2144.0, 2144.0, 2145.0, 2145.0, 2144.0, 2144.0, 2146.0, 2144.0, 2144.0, 2144.0, 2144.0, 2144.0, 2145.0, 2145.0, 2144.0, 2145.0, 2145.0, 2146.0, 2144.0, 2144.0, 2145.0, 2145.0, 2145.0, 2146.0, 2146.0, 2144.0, 2144.0, 2144.0, 2144.0, 2144.0, 2144.0, 2145.0, 2144.0, 2144.0, 2144.0, 2144.0, 2144.0, 2144.0, 2143.0, 2144.0, 2145.0, 2144.0, 2143.0, 2144.0, 2144.0, 2145.0, 2144.0, 2143.0, 2143.0, 2143.0, 2145.0, 2144.0, 2144.0, 2144.0, 2144.0, 2144.0, 2145.0, 2144.0, 2144.0, 2143.0, 2144.0, 2146.0, 2144.0, 2145.0, 2144.0, 2144.0, 2145.0, 2145.0, 2144.0, 2144.0, 2145.0, 2144.0, 2144.0, 2144.0, 2144.0, 2144.0, 2144.0, 2144.0, 2145.0, 2143.0, 2144.0, 2144.0, 2144.0, 2144.0, 2143.0, 2144.0, 2142.0, 2145.0, 2144.0, 2144.0, 2146.0, 2144.0, 2143.0, 2142.0, 2143.0, 2143.0, 2143.0, 2143.0, 2145.0, 2144.0, 2144.0, 2143.0, 2144.0, 2144.0, 2144.0, 2144.0, 2143.0, 2143.0, 2143.0, 2144.0, 2143.0, 2143.0, 2145.0, 2143.0, 2144.0, 2144.0, 2143.0, 2144.0, 2144.0, 2144.0, 2143.0, 2144.0, 2143.0, 2144.0, 2144.0, 2144.0, 2144.0, 2144.0, 2142.0, 2143.0, 2143.0, 2143.0, 2145.0, 2143.0, 2144.0, 2142.0, 2144.0, 2143.0, 2143.0, 2144.0, 2144.0, 2143.0, 2142.0, 2144.0, 2142.0, 2144.0, 2144.0, 2144.0, 2144.0, 2144.0, 2145.0, 2144.0, 2143.0, 2143.0, 2142.0, 2144.0, 2144.0, 2143.0, 2144.0, 2143.0, 2142.0, 2143.0, 2144.0, 2145.0, 2143.0, 2143.0, 2143.0, 2143.0, 2143.0, 2144.0, 2145.0, 2142.0, 2141.0, 2144.0, 2143.0, 2143.0, 2142.0, 2143.0]
    },
    "slices": {}
  }
}