{
  "AcquisitionMatrixPE": 80,
  "AcquisitionNumber": 1,
  "AcquisitionTime": "09:39:32.490000",
  "BandwidthPerPixelPhaseEncode": 25,
  "BaseResolution": 80,
  "BodyPartExamined": "BRAIN",
  "CoilCombinationMethod": "Sum of Squares",
  "ConsistencyInfo": "N4_VE11E_LATEST_20181129",
  "ConversionSoftware": "dcm2niix",
  "ConversionSoftwareVersion": "v1.0.20220720",
  "DerivedVendorReportedEchoSpacing": 0.0005,
  "DeviceSerialNumber": "66112",
  "DwellTime": 2.7e-06,
  "EchoTime": 0.03,
  "EchoTrainLength": 80,
  "EffectiveEchoSpacing": 0.0005,
  "FlipAngle": 77,
  "HeudiconvVersion": "0.13.1",
  "ImageOrientationPatientDICOM": [0.99251, -0.122153, 0.0013694, 0.115891, 0.945056, 0.305678],
  "ImageOrientationText": "Tra>Cor(17.7)>Sag(2.2)",
  "ImageType": [
    "ORIGINAL",
    "PRIMARY",
    "M",
    "ND",
    "NORM",
    "MOSAIC"
],
  "ImagingFrequency": 123.252,
  "InPlanePhaseEncodingDirectionDICOM": "COL",
  "InstitutionAddress": "Maynard 3,Hanover,NH,US,03755",
  "InstitutionName": "Dartmouth College - PBS",
  "InstitutionalDepartmentName": "Department",
  "MRAcquisitionType": "2D",
  "MagneticFieldStrength": 3,
  "Manufacturer": "Siemens",
  "ManufacturersModelName": "Prisma",
  "MatrixCoilMode": "SENSE",
  "Modality": "MR",
  "NonlinearGradientCorrection": false,
  "PartialFourier": 1,
  "PatientPosition": "HFS",
  "PercentPhaseFOV": 100,
  "PercentSampling": 100,
  "PhaseEncodingDirection": "j-",
  "PhaseEncodingSteps": 80,
  "PhaseResolution": 1,
  "PixelBandwidth": 2315,
  "ProcedureStepDescription": "dbic^QA",
  "ProtocolName": "func-bold_fa-77",
  "PulseSequenceDetails": "%SiemensSeq%\\ep2d_bold",
  "ReceiveCoilActiveElements": "HEA;HEP",
  "ReceiveCoilName": "Head_32",
  "ReconMatrixPE": 80,
  "RepetitionTime": 2,
  "SAR": 0.0432085,
  "ScanOptions": "FS",
  "ScanningSequence": "EP",
  "SequenceName": "*epfid2d1_80",
  "SequenceVariant": "SK",
  "SeriesDescription": "func-bold_fa-77",
  "SeriesNumber": 8,
  "ShimSetting": [4144, -7711, -7522, 236, -76, -36, -12, 76],
  "SliceThickness": 3.5,
  "SliceTiming": [0.99, 0, 1.0575, 0.0675, 1.1225, 0.1325, 1.19, 0.2, 1.255, 0.265, 1.32, 0.33, 1.3875, 0.3975, 1.4525, 0.4625, 1.52, 0.53, 1.585, 0.595, 1.65, 0.66, 1.7175, 0.7275, 1.7825, 0.7925, 1.85, 0.86, 1.915, 0.925],
  "SoftwareVersions": "syngo MR E11",
  "SpacingBetweenSlices": 3.99,
  "StationName": "AWP66112",
  "TotalReadoutTime": 0.0395,
  "TxRefAmp": 225.282,
  "dcmmeta_affine": [
    [-2.9775309562683105, 0.3476722836494446, 0.15414805710315704, 102.60867309570312],
    [0.366458922624588, 2.835167407989502, 1.209885835647583, -134.0108642578125],
    [0.004108208231627941, -0.9170330166816711, 3.7990148067474365, -19.506441116333008],
    [0.0, 0.0, 0.0, 1.0]
],
  "dcmmeta_reorient_transform": [
    [0.0, -1.0, 0.0, 79.0],
    [1.0, 0.0, 0.0, 0.0],
    [0.0, 0.0, 1.0, 0.0],
    [0.0, 0.0, 0.0, 1.0]
],
  "dcmmeta_shape": [80, 80, 30, 200],
  "dcmmeta_slice_dim": 2,
  "dcmmeta_version": 0.6,
  "global": {
    "const": {
      "AccessionNumber": "qa",
      "AcquisitionMatrix": [80, 0, 0, 80],
      "AngioFlag": "N",
      "BitsAllocated": 16,
      "BitsStored": 12,
      "BodyPartExamined": "BRAIN",
      "Columns": 480,
      "EchoNumbers": 1,
      "EchoTime": 30.0,
      "EchoTrainLength": 80,
      "FlipAngle": 77.0,
      "HighBit": 11,
      "ImageOrientationPatient": [0.99251034035252, -0.1221529738874, 0.0013694027138, 0.11589076505449, 0.94505581662274, 0.30567766363051],
      "ImagePositionPatient": [-795.1154491447, -583.70906665926, -276.18028730403],
      "ImageType": [
        "ORIGINAL",
        "PRIMARY",
        "M",
        "ND",
        "NORM",
        "MOSAIC"
],
      "ImagedNucleus": "1H",
      "ImagingFrequency": 123.252353,
      "InPlanePhaseEncodingDirection": "COL",
      "MRAcquisitionType": "2D",
      "MagneticFieldStrength": 3.0,
      "Manufacturer": "SIEMENS",
      "ManufacturerModelName": "Prisma",
      "Modality": "MR",
      "NumberOfAverages": 1.0,
      "NumberOfPhaseEncodingSteps": 80,
      "PercentPhaseFieldOfView": 100.0,
      "PercentSampling": 100.0,
      "PerformedProcedureStepStartTime": "092016.610000",
      "PhotometricInterpretation": "MONOCHROME2",
      "PixelBandwidth": 2315.0,
      "PixelRepresentation": 0,
      "PixelSpacing": [3.0, 3.0],
      "ProtocolName": "func-bold_fa-77",
      "RepetitionTime": 2000.0,
      "Rows": 480,
      "SAR": 0.0432085446363,
      "SamplesPerPixel": 1,
      "ScanOptions": "FS",
      "ScanningSequence": "EP",
      "SequenceName": "*epfid2d1_80",
      "SequenceVariant": "SK",
      "SeriesDescription": "func-bold_fa-77",
      "SeriesNumber": 8,
      "SeriesTime": "094017.904000",
      "SliceLocation": -55.244658877912,
      "SliceThickness": 3.5,
      "SmallestImagePixelValue": 0,
      "SoftwareVersions": "syngo MR E11",
      "SpacingBetweenSlices": 3.9899999666093,
      "SpecificCharacterSet": "ISO_IR 100",
      "StudyID": "10",
      "StudyTime": "092016.564000",
      "TransmitCoilName": "Body",
      "VariableFlipAngleFlag": "N",
      "WindowCenterWidthExplanation": "Algo1"
    },
    "slices": {}
  },
  "time": {
    "samples": {
      "AcquisitionNumber": [1, 2, 3, 4, 5, 6, 7, 8, 9, 10, 11, 12, 13, 14, 15, 16, 17, 18, 19, 20, 21, 22, 23, 24, 25, 26, 27, 28, 29, 30, 31, 32, 33, 34, 35, 36, 37, 38, 39, 40, 41, 42, 43, 44, 45, 46, 47, 48, 49, 50, 51, 52, 53, 54, 55, 56, 57, 58, 59, 60, 61, 62, 63, 64, 65, 66, 67, 68, 69, 70, 71, 72, 73, 74, 75, 76, 77, 78, 79, 80, 81, 82, 83, 84, 85, 86, 87, 88, 89, 90, 91, 92, 93, 94, 95, 96, 97, 98, 99, 100, 101, 102, 103, 104, 105, 106, 107, 108, 109, 110, 111, 112, 113, 114, 115, 116, 117, 118, 119, 120, 121, 122, 123, 124, 125, 126, 127, 128, 129, 130, 131, 132, 133, 134, 135, 136, 137, 138, 139, 140, 141, 142, 143, 144, 145, 146, 147, 148, 149, 150, 151, 152, 153, 154, 155, 156, 157, 158, 159, 160, 161, 162, 163, 164, 165, 166, 167, 168, 169, 170, 171, 172, 173, 174, 175, 176, 177, 178, 179, 180, 181, 182, 183, 184, 185, 186, 187, 188, 189, 190, 191, 192, 193, 194, 195, 196, 197, 198, 199, 200],
      "AcquisitionTime": ["093932.490000", "093934.490000", "093936.490000", "093938.490000", "093940.490000", "093942.490000", "093944.490000", "093946.490000", "093948.490000", "093950.490000", "093952.490000", "093954.490000", "093956.490000", "093958.490000", "094000.490000", "094002.490000", "094004.490000", "094006.490000", "094008.490000", "094010.490000", "094012.490000", "094014.490000", "094016.490000", "094018.490000", "094020.490000", "094022.490000", "094024.490000", "094026.490000", "094028.490000", "094030.490000", "094032.490000", "094034.490000", "094036.490000", "094038.490000", "094040.490000", "094042.490000", "094044.490000", "094046.490000", "094048.490000", "094050.490000", "094052.490000", "094054.490000", "094056.490000", "094058.490000", "094100.490000", "094102.490000", "094104.490000", "094106.490000", "094108.490000", "094110.490000", "094112.490000", "094114.490000", "094116.490000", "094118.490000", "094120.490000", "094122.490000", "094124.490000", "094126.490000", "094128.490000", "094130.490000", "094132.490000", "094134.490000", "094136.490000", "094138.490000", "094140.490000", "094142.490000", "094144.490000", "094146.490000", "094148.490000", "094150.490000", "094152.490000", "094154.490000", "094156.490000", "094158.490000", "094200.490000", "094202.490000", "094204.490000", "094206.490000", "094208.490000", "094210.490000", "094212.490000", "094214.490000", "094216.490000", "094218.490000", "094220.490000", "094222.490000", "094224.490000", "094226.490000", "094228.490000", "094230.490000", "094232.490000", "094234.490000", "094236.490000", "094238.490000", "094240.490000", "094242.490000", "094244.490000", "094246.490000", "094248.490000", "094250.490000", "094252.490000", "094254.490000", "094256.490000", "094258.490000", "094300.490000", "094302.490000", "094304.490000", "094306.490000", "094308.490000", "094310.490000", "094312.490000", "094314.490000", "094316.490000", "094318.490000", "094320.490000", "094322.490000", "094324.490000", "094326.490000", "094328.490000", "094330.490000", "094332.490000", "094334.490000", "094336.490000", "094338.490000", "094340.490000", "094342.490000", "094344.490000", "094346.490000", "094348.490000", "094350.490000", "094352.490000", "094354.490000", "094356.490000", "094358.490000", "094400.490000", "094402.490000", "094404.490000", "094406.490000", "094408.490000", "094410.490000", "094412.490000", "094414.490000", "094416.490000", "094418.490000", "094420.490000", "094422.490000", "094424.490000", "094426.490000", "094428.490000", "094430.490000", "094432.490000", "094434.490000", "094436.490000", "094438.490000", "094440.490000", "094442.490000", "094444.490000", "094446.490000", "094448.490000", "094450.490000", "094452.490000", "094454.490000", "094456.490000", "094458.490000", "094500.490000", "094502.490000", "094504.490000", "094506.490000", "094508.490000", "094510.490000", "094512.490000", "094514.490000", "094516.490000", "094518.490000", "094520.490000", "094522.490000", "094524.490000", "094526.490000", "094528.490000", "094530.490000", "094532.490000", "094534.490000", "094536.490000", "094538.490000", "094540.490000", "094542.490000", "094544.490000", "094546.490000", "094548.490000", "094550.490000", "094552.490000", "094554.490000", "094556.490000", "094558.490000", "094600.490000", "094602.490000", "094604.490000", "094606.490000", "094608.490000", "094610.490000"],
      "ContentTime": ["094017.907000", "094017.910000", "094017.912000", "094017.915000", "094017.917000", "094017.919000", "094017.922000", "094017.924000", "094017.927000", "094017.929000", "094017.931000", "094017.934000", "094017.939000", "094017.941000", "094017.944000", "094017.946000", "094017.949000", "094017.951000", "094017.953000", "094017.956000", "094017.958000", "094017.960000", "094057.902000", "094057.905000", "094057.907000", "094057.910000", "094057.912000", "094057.914000", "094057.917000", "094057.919000", "094057.921000", "094057.924000", "094057.926000", "094057.929000", "094057.931000", "094057.934000", "094057.936000", "094057.938000", "094057.941000", "094057.943000", "094057.945000", "094057.948000", "094137.902000", "094137.905000", "094137.907000", "094137.910000", "094137.912000", "094137.914000", "094137.917000", "094137.919000", "094137.921000", "094137.924000", "094137.926000", "094137.929000", "094137.931000", "094137.933000", "094137.936000", "094137.938000", "094137.940000", "094137.943000", "094137.945000", "094137.947000", "094217.902000", "094217.905000", "094217.907000", "094217.910000", "094217.912000", "094217.915000", "094217.917000", "094217.919000", "094217.921000", "094217.924000", "094217.926000", "094217.928000", "094217.931000", "094217.933000", "094217.935000", "094217.938000", "094217.940000", "094217.942000", "094217.945000", "094217.947000", "094257.903000", "094257.906000", "094257.908000", "094257.911000", "094257.913000", "094257.916000", "094257.918000", "094257.920000", "094257.922000", "094257.925000", "094257.927000", "094257.930000", "094257.932000", "094257.934000", "094257.936000", "094257.939000", "094257.941000", "094257.943000", "094257.946000", "094257.948000", "094337.902000", "094337.905000", "094337.907000", "094337.910000", "094337.912000", "094337.914000", "094337.917000", "094337.919000", "094337.921000", "094337.924000", "094337.926000", "094337.928000", "094337.931000", "094337.933000", "094337.935000", "094337.938000", "094337.940000", "094337.943000", "094337.945000", "094337.947000", "094417.902000", "094417.905000", "094417.907000", "094417.910000", "094417.912000", "094417.914000", "094417.917000", "094417.919000", "094417.921000", "094417.924000", "094417.926000", "094417.928000", "094417.931000", "094417.933000", "094417.936000", "094417.938000", "094417.940000", "094417.943000", "094417.945000", "094417.947000", "094457.903000", "094457.906000", "094457.908000", "094457.911000", "094457.913000", "094457.916000", "094457.918000", "094457.920000", "094457.923000", "094457.925000", "094457.928000", "094457.930000", "094457.932000", "094457.935000", "094457.937000", "094457.940000", "094457.942000", "094457.944000", "094457.947000", "094457.949000", "094537.902000", "094537.905000", "094537.907000", "094537.909000", "094537.912000", "094537.914000", "094537.916000", "094537.919000", "094537.921000", "094537.924000", "094537.926000", "094537.928000", "094537.931000", "094537.933000", "094537.935000", "094537.938000", "094537.940000", "094537.942000", "094537.945000", "094537.947000", "094612.270000", "094612.278000", "094612.280000", "094612.283000", "094612.285000", "094612.287000", "094612.290000", "094612.292000", "094612.294000", "094612.297000", "094612.299000", "094612.303000", "094612.307000", "094612.312000", "094612.314000", "094612.324000", "094612.327000", "094612.330000"],
      "InstanceCreationTime": ["094017.907000", "094017.910000", "094017.912000", "094017.915000", "094017.917000", "094017.919000", "094017.922000", "094017.924000", "094017.927000", "094017.929000", "094017.931000", "094017.934000", "094017.939000", "094017.941000", "094017.944000", "094017.946000", "094017.949000", "094017.951000", "094017.953000", "094017.956000", "094017.958000", "094017.960000", "094057.902000", "094057.905000", "094057.907000", "094057.910000", "094057.912000", "094057.914000", "094057.917000", "094057.919000", "094057.921000", "094057.924000", "094057.926000", "094057.929000", "094057.931000", "094057.934000", "094057.936000", "094057.938000", "094057.941000", "094057.943000", "094057.945000", "094057.948000", "094137.902000", "094137.905000", "094137.907000", "094137.910000", "094137.912000", "094137.914000", "094137.917000", "094137.919000", "094137.921000", "094137.924000", "094137.926000", "094137.929000", "094137.931000", "094137.933000", "094137.936000", "094137.938000", "094137.940000", "094137.943000", "094137.945000", "094137.947000", "094217.902000", "094217.905000", "094217.907000", "094217.910000", "094217.912000", "094217.915000", "094217.917000", "094217.919000", "094217.921000", "094217.924000", "094217.926000", "094217.928000", "094217.931000", "094217.933000", "094217.935000", "094217.938000", "094217.940000", "094217.942000", "094217.945000", "094217.947000", "094257.903000", "094257.906000", "094257.908000", "094257.911000", "094257.913000", "094257.916000", "094257.918000", "094257.920000", "094257.922000", "094257.925000", "094257.927000", "094257.930000", "094257.932000", "094257.934000", "094257.936000", "094257.939000", "094257.941000", "094257.943000", "094257.946000", "094257.948000", "094337.902000", "094337.905000", "094337.907000", "094337.910000", "094337.912000", "094337.914000", "094337.917000", "094337.919000", "094337.921000", "094337.924000", "094337.926000", "094337.928000", "094337.931000", "094337.933000", "094337.935000", "094337.938000", "094337.940000", "094337.943000", "094337.945000", "094337.947000", "094417.902000", "094417.905000", "094417.907000", "094417.910000", "094417.912000", "094417.914000", "094417.917000", "094417.919000", "094417.921000", "094417.924000", "094417.926000", "094417.928000", "094417.931000", "094417.933000", "094417.936000", "094417.938000", "094417.940000", "094417.943000", "094417.945000", "094417.947000", "094457.903000", "094457.906000", "094457.908000", "094457.911000", "094457.913000", "094457.916000", "094457.918000", "094457.920000", "094457.923000", "094457.925000", "094457.928000", "094457.930000", "094457.932000", "094457.935000", "094457.937000", "094457.940000", "094457.942000", "094457.944000", "094457.947000", "094457.949000", "094537.902000", "094537.905000", "094537.907000", "094537.909000", "094537.912000", "094537.914000", "094537.916000", "094537.919000", "094537.921000", "094537.924000", "094537.926000", "094537.928000", "094537.931000", "094537.933000", "094537.935000", "094537.938000", "094537.940000", "094537.942000", "094537.945000", "094537.947000", "094612.270000", "094612.278000", "094612.280000", "094612.283000", "094612.285000", "094612.287000", "094612.290000", "094612.292000", "094612.294000", "094612.297000", "094612.299000", "094612.303000", "094612.307000", "094612.312000", "094612.314000", "094612.324000", "094612.327000", "094612.330000"],
      "InstanceNumber": [1, 2, 3, 4, 5, 6, 7, 8, 9, 10, 11, 12, 13, 14, 15, 16, 17, 18, 19, 20, 21, 22, 23, 24, 25, 26, 27, 28, 29, 30, 31, 32, 33, 34, 35, 36, 37, 38, 39, 40, 41, 42, 43, 44, 45, 46, 47, 48, 49, 50, 51, 52, 53, 54, 55, 56, 57, 58, 59, 60, 61, 62, 63, 64, 65, 66, 67, 68, 69, 70, 71, 72, 73, 74, 75, 76, 77, 78, 79, 80, 81, 82, 83, 84, 85, 86, 87, 88, 89, 90, 91, 92, 93, 94, 95, 96, 97, 98, 99, 100, 101, 102, 103, 104, 105, 106, 107, 108, 109, 110, 111, 112, 113, 114, 115, 116, 117, 118, 119, 120, 121, 122, 123, 124, 125, 126, 127, 128, 129, 130, 131, 132, 133, 134, 135, 136, 137, 138, 139, 140, 141, 142, 143, 144, 145, 146, 147, 148, 149, 150, 151, 152, 153, 154, 155, 156, 157, 158, 159, 160, 161, 162, 163, 164, 165, 166, 167, 168, 169, 170, 171, 172, 173, 174, 175, 176, 177, 178, 179, 180, 181, 182, 183, 184, 185, 186, 187, 188, 189, 190, 191, 192, 193, 194, 195, 196, 197, 198, 199, 200],
      "LargestImagePixelValue": [1958, 1953, 1956, 1954, 1951, 1950, 1951, 1950, 1951, 1953, 1955, 1955, 1956, 1953, 1955, 1954, 1954, 1951, 1950, 1951, 1950, 1950, 1952, 1951, 1954, 1954, 1953, 1955, 1952, 1953, 1955, 1958, 1960, 1958, 1957, 1955, 1957, 1957, 1956, 1958, 1957, 1959, 1956, 1953, 1950, 1947, 1950, 1947, 1948, 1948, 1952, 1955, 1954, 1952, 1953, 1953, 1956, 1956, 1955, 1957, 1956, 1958, 1957, 1956, 1952, 1955, 1956, 1956, 1955, 1956, 1957, 1953, 1954, 1953, 1953, 1952, 1952, 1955, 1956, 1956, 1954, 1956, 1954, 1956, 1958, 1957, 1959, 1959, 1959, 1957, 1959, 1959, 1959, 1961, 1962, 1964, 1962, 1961, 1958, 1958, 1958, 1957, 1956, 1959, 1956, 1955, 1956, 1956, 1959, 1959, 1958, 1961, 1961, 1960, 1959, 1959, 1961, 1962, 1960, 1962, 1958, 1959, 1961, 1959, 1957, 1958, 1960, 1959, 1961, 1960, 1962, 1959, 1960, 1960, 1959, 1959, 1959, 1959, 1958, 1956, 1955, 1958, 1957, 1956, 1957, 1958, 1957, 1957, 1958, 1958, 1956, 1954, 1954, 1953, 1955, 1956, 1956, 1957, 1961, 1960, 1959, 1958, 1958, 1959, 1962, 1962, 1958, 1959, 1957, 1958, 1958, 1959, 1956, 1955, 1955, 1954, 1953, 1952, 1956, 1955, 1959, 1961, 1960, 1959, 1961, 1959, 1960, 1959, 1958, 1956, 1960, 1962, 1959, 1956, 1954, 1954, 1957, 1959, 1963, 1965],
      "WindowCenter": [979.0, 980.0, 979.0, 979.0, 979.0, 979.0, 979.0, 979.0, 979.0, 980.0, 979.0, 979.0, 980.0, 978.0, 979.0, 980.0, 979.0, 978.0, 979.0, 979.0, 980.0, 980.0, 980.0, 980.0, 979.0, 979.0, 980.0, 980.0, 980.0, 979.0, 980.0, 979.0, 979.0, 979.0, 980.0, 980.0, 980.0, 979.0, 978.0, 980.0, 979.0, 979.0, 979.0, 979.0, 979.0, 979.0, 980.0, 978.0, 979.0, 979.0, 979.0, 978.0, 979.0, 979.0, 979.0, 979.0, 980.0, 979.0, 979.0, 979.0, 980.0, 979.0, 979.0, 980.0, 980.0, 978.0, 979.0, 979.0, 980.0, 980.0, 979.0, 979.0, 978.0, 980.0, 978.0, 978.0, 979.0, 979.0, 979.0, 979.0, 979.0, 978.0, 980.0, 980.0, 978.0, 979.0, 979.0, 979.0, 979.0, 979.0, 979.0, 979.0, 979.0, 978.0, 979.0, 979.0, 979.0, 979.0, 979.0, 979.0, 979.0, 979.0, 979.0, 979.0, 979.0, 979.0, 978.0, 979.0, 979.0, 979.0, 979.0, 979.0, 978.0, 978.0, 980.0, 978.0, 979.0, 979.0, 979.0, 978.0, 978.0, 978.0, 978.0, 979.0, 978.0, 979.0, 978.0, 978.0, 978.0, 978.0, 978.0, 978.0, 978.0, 978.0, 978.0, 978.0, 979.0, 979.0, 978.0, 978.0, 978.0, 978.0, 979.0, 978.0, 978.0, 978.0, 979.0, 977.0, 978.0, 978.0, 978.0, 979.0, 978.0, 978.0, 978.0, 978.0, 978.0, 979.0, 977.0, 978.0, 979.0, 979.0, 979.0, 978.0, 978.0, 977.0, 978.0, 979.0, 978.0, 977.0, 978.0, 978.0, 979.0, 979.0, 977.0, 979.0, 978.0, 978.0, 979.0, 979.0, 979.0, 978.0, 978.0, 978.0, 978.0, 978.0, 979.0, 977.0, 979.0, 979.0, 978.0, 978.0, 978.0, 977.0, 979.0, 979.0, 979.0, 978.0, 979.0, 978.0],
      "WindowWidth": [2147.0, 2148.0, 2148.0, 2148.0, 2148.0, 2148.0, 2148.0, 2148.0, 2148.0, 2149.0, 2148.0, 2148.0, 2149.0, 2147.0, 2148.0, 2149.0, 2148.0, 2147.0, 2148.0, 2148.0, 2149.0, 2149.0, 2149.0, 2149.0, 2148.0, 2148.0, 2149.0, 2149.0, 2149.0, 2148.0, 2149.0, 2148.0, 2148.0, 2148.0, 2149.0, 2149.0, 2149.0, 2148.0, 2147.0, 2148.0, 2148.0, 2148.0, 2148.0, 2148.0, 2148.0, 2148.0, 2148.0, 2147.0, 2148.0, 2147.0, 2147.0, 2147.0, 2147.0, 2147.0, 2147.0, 2147.0, 2148.0, 2147.0, 2147.0, 2147.0, 2148.0, 2147.0, 2147.0, 2148.0, 2148.0, 2146.0, 2147.0, 2147.0, 2147.0, 2148.0, 2147.0, 2147.0, 2146.0, 2147.0, 2146.0, 2146.0, 2147.0, 2147.0, 2147.0, 2147.0, 2147.0, 2146.0, 2147.0, 2147.0, 2146.0, 2147.0, 2147.0, 2147.0, 2147.0, 2147.0, 2147.0, 2147.0, 2146.0, 2146.0, 2147.0, 2147.0, 2147.0, 2147.0, 2147.0, 2147.0, 2146.0, 2147.0, 2147.0, 2147.0, 2147.0, 2146.0, 2146.0, 2147.0, 2147.0, 2147.0, 2147.0, 2147.0, 2146.0, 2146.0, 2148.0, 2146.0, 2147.0, 2147.0, 2147.0, 2146.0, 2146.0, 2146.0, 2146.0, 2147.0, 2146.0, 2147.0, 2146.0, 2146.0, 2147.0, 2146.0, 2146.0, 2146.0, 2146.0, 2146.0, 2146.0, 2145.0, 2146.0, 2146.0, 2146.0, 2146.0, 2146.0, 2145.0, 2146.0, 2145.0, 2145.0, 2146.0, 2146.0, 2145.0, 2145.0, 2145.0, 2145.0, 2146.0, 2145.0, 2145.0, 2145.0, 2145.0, 2145.0, 2146.0, 2145.0, 2145.0, 2146.0, 2146.0, 2146.0, 2145.0, 2145.0, 2145.0, 2145.0, 2146.0, 2145.0, 2145.0, 2145.0, 2145.0, 2146.0, 2146.0, 2145.0, 2146.0, 2145.0, 2145.0, 2146.0, 2146.0, 2146.0, 2145.0, 2145.0, 2145.0, 2145.0, 2145.0, 2146.0, 2144.0, 2146.0, 2146.0, 2145.0, 2145.0, 2145.0, 2145.0, 2146.0, 2146.0, 2146.0, 2145.0, 2146.0, 2145.0]
    },
    "slices": {}
  }
}