{
  "AcquisitionMatrixPE": 80,
  "AcquisitionNumber": 1,
  "AcquisitionTime": "09:25:50.055000",
  "BandwidthPerPixelPhaseEncode": 48.077,
  "BaseResolution": 80,
  "BodyPartExamined": "BRAIN",
  "CoilCombinationMethod": "Sum of Squares",
  "ConsistencyInfo": "N4_VE11E_LATEST_20181129",
  "ConversionSoftware": "dcm2niix",
  "ConversionSoftwareVersion": "v1.0.20220720",
  "DerivedVendorReportedEchoSpacing": 0.000519999,
  "DeviceSerialNumber": "66112",
  "DwellTime": 2.7e-06,
  "EchoTime": 0.035,
  "EchoTrainLength": 39,
  "EffectiveEchoSpacing": 0.00026,
  "FlipAngle": 90,
  "HeudiconvVersion": "0.13.1",
  "ImageOrientationPatientDICOM": [0.99251, -0.122153, 0.0013694, 0.115891, 0.945056, 0.305678],
  "ImageOrientationText": "Tra>Cor(17.7)>Sag(2.2)",
  "ImageType": [
    "ORIGINAL",
    "PRIMARY",
    "M",
    "ND",
    "NORM",
    "MOSAIC"
],
  "ImagingFrequency": 123.252,
  "InPlanePhaseEncodingDirectionDICOM": "COL",
  "InstitutionAddress": "Maynard 3,Hanover,NH,US,03755",
  "InstitutionName": "Dartmouth College - PBS",
  "InstitutionalDepartmentName": "Department",
  "MRAcquisitionType": "2D",
  "MagneticFieldStrength": 3,
  "Manufacturer": "Siemens",
  "ManufacturersModelName": "Prisma",
  "MatrixCoilMode": "GRAPPA",
  "Modality": "MR",
  "NonlinearGradientCorrection": false,
  "ParallelReductionFactorInPlane": 2,
  "PartialFourier": 1,
  "PatientPosition": "HFS",
  "PercentPhaseFOV": 100,
  "PercentSampling": 100,
  "PhaseEncodingDirection": "j-",
  "PhaseEncodingSteps": 79,
  "PhaseResolution": 1,
  "PixelBandwidth": 2315,
  "ProcedureStepDescription": "dbic^QA",
  "ProtocolName": "func-bold_task-rest_acq-p2",
  "PulseSequenceDetails": "%SiemensSeq%\\ep2d_bold",
  "ReceiveCoilActiveElements": "HEA;HEP",
  "ReceiveCoilName": "Head_32",
  "ReconMatrixPE": 80,
  "RefLinesPE": 24,
  "RepetitionTime": 2,
  "SAR": 0.0549832,
  "ScanOptions": "FS",
  "ScanningSequence": "EP",
  "SequenceName": "*epfid2d1_80",
  "SequenceVariant": "SK",
  "SeriesDescription": "func-bold_task-rest_acq-p2",
  "SeriesNumber": 5,
  "ShimSetting": [4144, -7711, -7522, 236, -76, -36, -12, 76],
  "SliceThickness": 3.5,
  "SliceTiming": [0.99, 0, 1.055, 0.065, 1.1225, 0.1325, 1.1875, 0.1975, 1.2525, 0.2625, 1.32, 0.33, 1.385, 0.395, 1.4525, 0.4625, 1.5175, 0.5275, 1.5825, 0.5925, 1.65, 0.66, 1.715, 0.725, 1.78, 0.7925, 1.8475, 0.8575, 1.9125, 0.9225],
  "SoftwareVersions": "syngo MR E11",
  "SpacingBetweenSlices": 3.99,
  "StationName": "AWP66112",
  "TaskName": "rest",
  "TotalReadoutTime": 0.02054,
  "TxRefAmp": 225.282,
  "dcmmeta_affine": [
    [-2.9775309562683105, 0.3476722836494446, 0.15414805710315704, 102.53459930419922],
    [0.366458922624588, 2.835167407989502, 1.209885835647583, -134.61497497558594],
    [0.004108208231627941, -0.9170330166816711, 3.7990148067474365, -19.31766700744629],
    [0.0, 0.0, 0.0, 1.0]
],
  "dcmmeta_reorient_transform": [
    [0.0, -1.0, 0.0, 79.0],
    [1.0, 0.0, 0.0, 0.0],
    [0.0, 0.0, 1.0, 0.0],
    [0.0, 0.0, 0.0, 1.0]
],
  "dcmmeta_shape": [80, 80, 30, 200],
  "dcmmeta_slice_dim": 2,
  "dcmmeta_version": 0.6,
  "global": {
    "const": {
      "AccessionNumber": "qa",
      "AcquisitionMatrix": [80, 0, 0, 80],
      "AngioFlag": "N",
      "BitsAllocated": 16,
      "BitsStored": 12,
      "BodyPartExamined": "BRAIN",
      "Columns": 480,
      "EchoNumbers": 1,
      "EchoTime": 35.0,
      "EchoTrainLength": 39,
      "FlipAngle": 90.0,
      "HighBit": 11,
      "ImageOrientationPatient": [0.99251034035252, -0.1221529738874, 0.0013694027138, 0.11589076505449, 0.94505581662274, 0.30567766363051],
      "ImagePositionPatient": [-795.04137511477, -583.10496547823, -275.99151319515],
      "ImageType": [
        "ORIGINAL",
        "PRIMARY",
        "M",
        "ND",
        "NORM",
        "MOSAIC"
],
      "ImagedNucleus": "1H",
      "ImagingFrequency": 123.252353,
      "InPlanePhaseEncodingDirection": "COL",
      "MRAcquisitionType": "2D",
      "MagneticFieldStrength": 3.0,
      "Manufacturer": "SIEMENS",
      "ManufacturerModelName": "Prisma",
      "Modality": "MR",
      "NumberOfAverages": 1.0,
      "NumberOfPhaseEncodingSteps": 79,
      "PercentPhaseFieldOfView": 100.0,
      "PercentSampling": 100.0,
      "PerformedProcedureStepStartTime": "092016.610000",
      "PhotometricInterpretation": "MONOCHROME2",
      "PixelBandwidth": 2315.0,
      "PixelRepresentation": 0,
      "PixelSpacing": [3.0, 3.0],
      "ProtocolName": "func-bold_task-rest_acq-p2",
      "RepetitionTime": 2000.0,
      "Rows": 480,
      "SAR": 0.05498320866445,
      "SamplesPerPixel": 1,
      "ScanOptions": "FS",
      "ScanningSequence": "EP",
      "SequenceName": "*epfid2d1_80",
      "SequenceVariant": "SK",
      "SeriesDescription": "func-bold_task-rest_acq-p2",
      "SeriesNumber": 5,
      "SeriesTime": "092637.733000",
      "SliceLocation": -55.250963686981,
      "SliceThickness": 3.5,
      "SmallestImagePixelValue": 0,
      "SoftwareVersions": "syngo MR E11",
      "SpacingBetweenSlices": 3.9899999664505,
      "SpecificCharacterSet": "ISO_IR 100",
      "StudyID": "10",
      "StudyTime": "092016.564000",
      "TransmitCoilName": "Body",
      "VariableFlipAngleFlag": "N",
      "WindowCenterWidthExplanation": "Algo1"
    },
    "slices": {}
  },
  "time": {
    "samples": {
      "AcquisitionNumber": [1, 2, 3, 4, 5, 6, 7, 8, 9, 10, 11, 12, 13, 14, 15, 16, 17, 18, 19, 20, 21, 22, 23, 24, 25, 26, 27, 28, 29, 30, 31, 32, 33, 34, 35, 36, 37, 38, 39, 40, 41, 42, 43, 44, 45, 46, 47, 48, 49, 50, 51, 52, 53, 54, 55, 56, 57, 58, 59, 60, 61, 62, 63, 64, 65, 66, 67, 68, 69, 70, 71, 72, 73, 74, 75, 76, 77, 78, 79, 80, 81, 82, 83, 84, 85, 86, 87, 88, 89, 90, 91, 92, 93, 94, 95, 96, 97, 98, 99, 100, 101, 102, 103, 104, 105, 106, 107, 108, 109, 110, 111, 112, 113, 114, 115, 116, 117, 118, 119, 120, 121, 122, 123, 124, 125, 126, 127, 128, 129, 130, 131, 132, 133, 134, 135, 136, 137, 138, 139, 140, 141, 142, 143, 144, 145, 146, 147, 148, 149, 150, 151, 152, 153, 154, 155, 156, 157, 158, 159, 160, 161, 162, 163, 164, 165, 166, 167, 168, 169, 170, 171, 172, 173, 174, 175, 176, 177, 178, 179, 180, 181, 182, 183, 184, 185, 186, 187, 188, 189, 190, 191, 192, 193, 194, 195, 196, 197, 198, 199, 200],
      "AcquisitionTime": ["092550.055000", "092552.055000", "092554.055000", "092556.055000", "092558.055000", "092600.055000", "092602.055000", "092604.055000", "092606.055000", "092608.055000", "092610.055000", "092612.055000", "092614.055000", "092616.055000", "092618.055000", "092620.055000", "092622.055000", "092624.055000", "092626.055000", "092628.055000", "092630.055000", "092632.055000", "092634.055000", "092636.055000", "092638.055000", "092640.055000", "092642.055000", "092644.055000", "092646.055000", "092648.055000", "092650.055000", "092652.055000", "092654.055000", "092656.055000", "092658.055000", "092700.055000", "092702.055000", "092704.055000", "092706.055000", "092708.055000", "092710.055000", "092712.055000", "092714.055000", "092716.055000", "092718.055000", "092720.055000", "092722.055000", "092724.055000", "092726.055000", "092728.055000", "092730.055000", "092732.055000", "092734.055000", "092736.055000", "092738.055000", "092740.055000", "092742.055000", "092744.055000", "092746.055000", "092748.055000", "092750.055000", "092752.055000", "092754.055000", "092756.055000", "092758.055000", "092800.055000", "092802.055000", "092804.055000", "092806.055000", "092808.055000", "092810.055000", "092812.055000", "092814.055000", "092816.055000", "092818.055000", "092820.055000", "092822.055000", "092824.055000", "092826.055000", "092828.055000", "092830.055000", "092832.055000", "092834.055000", "092836.055000", "092838.055000", "092840.055000", "092842.055000", "092844.055000", "092846.055000", "092848.055000", "092850.055000", "092852.055000", "092854.055000", "092856.055000", "092858.055000", "092900.055000", "092902.055000", "092904.055000", "092906.055000", "092908.055000", "092910.055000", "092912.055000", "092914.055000", "092916.055000", "092918.055000", "092920.055000", "092922.055000", "092924.055000", "092926.055000", "092928.055000", "092930.055000", "092932.055000", "092934.055000", "092936.055000", "092938.055000", "092940.055000", "092942.055000", "092944.055000", "092946.055000", "092948.055000", "092950.055000", "092952.055000", "092954.055000", "092956.055000", "092958.055000", "093000.055000", "093002.055000", "093004.055000", "093006.055000", "093008.055000", "093010.055000", "093012.055000", "093014.055000", "093016.055000", "093018.055000", "093020.055000", "093022.055000", "093024.055000", "093026.055000", "093028.055000", "093030.055000", "093032.055000", "093034.055000", "093036.055000", "093038.055000", "093040.055000", "093042.055000", "093044.055000", "093046.055000", "093048.055000", "093050.055000", "093052.055000", "093054.055000", "093056.055000", "093058.055000", "093100.055000", "093102.055000", "093104.055000", "093106.055000", "093108.055000", "093110.055000", "093112.055000", "093114.055000", "093116.055000", "093118.055000", "093120.055000", "093122.055000", "093124.055000", "093126.055000", "093128.055000", "093130.055000", "093132.055000", "093134.055000", "093136.055000", "093138.055000", "093140.055000", "093142.055000", "093144.055000", "093146.055000", "093148.055000", "093150.055000", "093152.055000", "093154.055000", "093156.055000", "093158.055000", "093200.055000", "093202.055000", "093204.055000", "093206.055000", "093208.055000", "093210.055000", "093212.055000", "093214.055000", "093216.055000", "093218.055000", "093220.055000", "093222.055000", "093224.055000", "093226.055000", "093228.055000"],
      "ContentTime": ["092637.736000", "092637.739000", "092637.741000", "092637.744000", "092637.746000", "092637.748000", "092637.751000", "092637.753000", "092637.760000", "092637.762000", "092637.764000", "092637.767000", "092637.769000", "092637.771000", "092637.774000", "092637.776000", "092637.778000", "092637.781000", "092637.783000", "092637.785000", "092637.788000", "092637.790000", "092637.792000", "092637.795000", "092657.731000", "092657.734000", "092657.736000", "092657.739000", "092657.744000", "092657.747000", "092657.749000", "092657.751000", "092657.754000", "092657.756000", "092737.730000", "092737.733000", "092737.735000", "092737.738000", "092737.740000", "092737.742000", "092737.745000", "092737.747000", "092737.749000", "092737.752000", "092737.754000", "092737.756000", "092737.759000", "092737.761000", "092737.763000", "092737.766000", "092737.768000", "092737.770000", "092737.773000", "092737.775000", "092817.730000", "092817.733000", "092817.735000", "092817.738000", "092817.740000", "092817.742000", "092817.745000", "092817.747000", "092817.749000", "092817.751000", "092817.754000", "092817.756000", "092817.759000", "092817.761000", "092817.763000", "092817.766000", "092817.768000", "092817.770000", "092817.773000", "092817.775000", "092857.738000", "092857.741000", "092857.743000", "092857.746000", "092857.748000", "092857.751000", "092857.753000", "092857.755000", "092857.758000", "092857.760000", "092857.762000", "092857.765000", "092857.767000", "092857.769000", "092857.772000", "092857.774000", "092857.776000", "092857.779000", "092857.781000", "092857.783000", "092937.730000", "092937.733000", "092937.735000", "092937.738000", "092937.740000", "092937.743000", "092937.745000", "092937.747000", "092937.750000", "092937.752000", "092937.754000", "092937.757000", "092937.759000", "092937.761000", "092937.764000", "092937.766000", "092937.769000", "092937.771000", "092937.773000", "092937.776000", "093017.730000", "093017.733000", "093017.735000", "093017.738000", "093017.740000", "093017.742000", "093017.745000", "093017.747000", "093017.749000", "093017.752000", "093017.754000", "093017.757000", "093017.759000", "093017.761000", "093017.763000", "093017.766000", "093017.768000", "093017.770000", "093017.773000", "093017.775000", "093057.730000", "093057.733000", "093057.735000", "093057.738000", "093057.740000", "093057.742000", "093057.745000", "093057.747000", "093057.749000", "093057.752000", "093057.754000", "093057.756000", "093057.759000", "093057.761000", "093057.763000", "093057.766000", "093057.768000", "093057.771000", "093057.773000", "093057.777000", "093137.730000", "093137.733000", "093137.735000", "093137.738000", "093137.740000", "093137.742000", "093137.745000", "093137.747000", "093137.749000", "093137.752000", "093137.754000", "093137.757000", "093137.759000", "093137.761000", "093137.764000", "093137.766000", "093137.768000", "093137.771000", "093137.773000", "093137.775000", "093217.731000", "093217.733000", "093217.736000", "093217.738000", "093217.740000", "093217.743000", "093217.745000", "093217.747000", "093217.750000", "093217.752000", "093217.754000", "093217.757000", "093217.759000", "093217.761000", "093217.764000", "093217.766000", "093217.768000", "093217.771000", "093217.773000", "093217.776000", "093229.129000", "093229.134000", "093229.138000", "093229.141000", "093229.144000", "093229.147000"],
      "InstanceCreationTime": ["092637.736000", "092637.739000", "092637.741000", "092637.744000", "092637.746000", "092637.748000", "092637.751000", "092637.753000", "092637.760000", "092637.762000", "092637.764000", "092637.767000", "092637.769000", "092637.771000", "092637.774000", "092637.776000", "092637.778000", "092637.781000", "092637.783000", "092637.785000", "092637.788000", "092637.790000", "092637.792000", "092637.795000", "092657.731000", "092657.734000", "092657.736000", "092657.739000", "092657.744000", "092657.747000", "092657.749000", "092657.751000", "092657.754000", "092657.756000", "092737.730000", "092737.733000", "092737.735000", "092737.738000", "092737.740000", "092737.742000", "092737.745000", "092737.747000", "092737.749000", "092737.752000", "092737.754000", "092737.756000", "092737.759000", "092737.761000", "092737.763000", "092737.766000", "092737.768000", "092737.770000", "092737.773000", "092737.775000", "092817.730000", "092817.733000", "092817.735000", "092817.738000", "092817.740000", "092817.742000", "092817.745000", "092817.747000", "092817.749000", "092817.751000", "092817.754000", "092817.756000", "092817.759000", "092817.761000", "092817.763000", "092817.766000", "092817.768000", "092817.770000", "092817.773000", "092817.775000", "092857.738000", "092857.741000", "092857.743000", "092857.746000", "092857.748000", "092857.751000", "092857.753000", "092857.755000", "092857.758000", "092857.760000", "092857.762000", "092857.765000", "092857.767000", "092857.769000", "092857.772000", "092857.774000", "092857.776000", "092857.779000", "092857.781000", "092857.783000", "092937.730000", "092937.733000", "092937.735000", "092937.738000", "092937.740000", "092937.743000", "092937.745000", "092937.747000", "092937.750000", "092937.752000", "092937.754000", "092937.757000", "092937.759000", "092937.761000", "092937.764000", "092937.766000", "092937.769000", "092937.771000", "092937.773000", "092937.776000", "093017.730000", "093017.733000", "093017.735000", "093017.738000", "093017.740000", "093017.742000", "093017.745000", "093017.747000", "093017.749000", "093017.752000", "093017.754000", "093017.757000", "093017.759000", "093017.761000", "093017.763000", "093017.766000", "093017.768000", "093017.770000", "093017.773000", "093017.775000", "093057.730000", "093057.733000", "093057.735000", "093057.738000", "093057.740000", "093057.742000", "093057.745000", "093057.747000", "093057.749000", "093057.752000", "093057.754000", "093057.756000", "093057.759000", "093057.761000", "093057.763000", "093057.766000", "093057.768000", "093057.771000", "093057.773000", "093057.777000", "093137.730000", "093137.733000", "093137.735000", "093137.738000", "093137.740000", "093137.742000", "093137.745000", "093137.747000", "093137.749000", "093137.752000", "093137.754000", "093137.757000", "093137.759000", "093137.761000", "093137.764000", "093137.766000", "093137.768000", "093137.771000", "093137.773000", "093137.775000", "093217.731000", "093217.733000", "093217.736000", "093217.738000", "093217.740000", "093217.743000", "093217.745000", "093217.747000", "093217.750000", "093217.752000", "093217.754000", "093217.757000", "093217.759000", "093217.761000", "093217.764000", "093217.766000", "093217.768000", "093217.771000", "093217.773000", "093217.776000", "093229.129000", "093229.134000", "093229.138000", "093229.141000", "093229.144000", "093229.147000"],
      "InstanceNumber": [1, 2, 3, 4, 5, 6, 7, 8, 9, 10, 11, 12, 13, 14, 15, 16, 17, 18, 19, 20, 21, 22, 23, 24, 25, 26, 27, 28, 29, 30, 31, 32, 33, 34, 35, 36, 37, 38, 39, 40, 41, 42, 43, 44, 45, 46, 47, 48, 49, 50, 51, 52, 53, 54, 55, 56, 57, 58, 59, 60, 61, 62, 63, 64, 65, 66, 67, 68, 69, 70, 71, 72, 73, 74, 75, 76, 77, 78, 79, 80, 81, 82, 83, 84, 85, 86, 87, 88, 89, 90, 91, 92, 93, 94, 95, 96, 97, 98, 99, 100, 101, 102, 103, 104, 105, 106, 107, 108, 109, 110, 111, 112, 113, 114, 115, 116, 117, 118, 119, 120, 121, 122, 123, 124, 125, 126, 127, 128, 129, 130, 131, 132, 133, 134, 135, 136, 137, 138, 139, 140, 141, 142, 143, 144, 145, 146, 147, 148, 149, 150, 151, 152, 153, 154, 155, 156, 157, 158, 159, 160, 161, 162, 163, 164, 165, 166, 167, 168, 169, 170, 171, 172, 173, 174, 175, 176, 177, 178, 179, 180, 181, 182, 183, 184, 185, 186, 187, 188, 189, 190, 191, 192, 193, 194, 195, 196, 197, 198, 199, 200],
      "LargestImagePixelValue": [2010, 2009, 2010, 2016, 2013, 2013, 2015, 2004, 2018, 2010, 2009, 2011, 2006, 2012, 2010, 2011, 2013, 2010, 2009, 2009, 2017, 2009, 2014, 2010, 2010, 2007, 2007, 2012, 2008, 2007, 2010, 2007, 2005, 2007, 2010, 2015, 2008, 2012, 2016, 2003, 2010, 2007, 2005, 2013, 2011, 2009, 2008, 2004, 2010, 2005, 2010, 2008, 2008, 2011, 2006, 2003, 2008, 2006, 2003, 2011, 2012, 2011, 2008, 2006, 2006, 2010, 2005, 2011, 2017, 2011, 2012, 2006, 2005, 2011, 2011, 2004, 2007, 2002, 2004, 2004, 2010, 2007, 2005, 2010, 2010, 2014, 2010, 2010, 2003, 2021, 2011, 2014, 2007, 2011, 2008, 2012, 2012, 2016, 2007, 2001, 2009, 2005, 2007, 2009, 2010, 2008, 2012, 2006, 2012, 2000, 2005, 2008, 2005, 2006, 2008, 2008, 2011, 2003, 2013, 2009, 2004, 2012, 2009, 2008, 2008, 2001, 2012, 2010, 2006, 2005, 2011, 2008, 2008, 2010, 2004, 2005, 2005, 2008, 2008, 2004, 2007, 2004, 2003, 2014, 2006, 2002, 2010, 2007, 2003, 2008, 2014, 2009, 2013, 2007, 2001, 2010, 2014, 2013, 2015, 2007, 2012, 2011, 2010, 2009, 2006, 2010, 2008, 2010, 2004, 2007, 2007, 2007, 2011, 2008, 2011, 2005, 2006, 2002, 2001, 2010, 2005, 2008, 2011, 2003, 2010, 2007, 2007, 2011, 2005, 2004, 2004, 2010, 2016, 2014, 2005, 2011, 2009, 2010, 2009, 2007],
      "WindowCenter": [990.0, 989.0, 989.0, 989.0, 991.0, 990.0, 989.0, 989.0, 989.0, 990.0, 989.0, 990.0, 989.0, 989.0, 989.0, 989.0, 989.0, 989.0, 989.0, 989.0, 989.0, 989.0, 990.0, 989.0, 990.0, 989.0, 989.0, 990.0, 990.0, 991.0, 989.0, 990.0, 990.0, 989.0, 990.0, 989.0, 989.0, 989.0, 989.0, 989.0, 989.0, 989.0, 990.0, 989.0, 989.0, 989.0, 991.0, 989.0, 990.0, 989.0, 989.0, 989.0, 989.0, 989.0, 989.0, 989.0, 989.0, 989.0, 990.0, 989.0, 990.0, 990.0, 990.0, 989.0, 989.0, 989.0, 989.0, 989.0, 989.0, 989.0, 990.0, 989.0, 990.0, 990.0, 989.0, 989.0, 989.0, 989.0, 991.0, 990.0, 989.0, 989.0, 989.0, 990.0, 989.0, 990.0, 989.0, 989.0, 989.0, 989.0, 989.0, 989.0, 989.0, 990.0, 989.0, 989.0, 989.0, 989.0, 990.0, 989.0, 989.0, 989.0, 989.0, 989.0, 989.0, 990.0, 989.0, 989.0, 989.0, 989.0, 989.0, 990.0, 989.0, 989.0, 989.0, 989.0, 989.0, 989.0, 989.0, 989.0, 988.0, 989.0, 989.0, 989.0, 989.0, 989.0, 989.0, 989.0, 989.0, 989.0, 989.0, 989.0, 989.0, 989.0, 989.0, 989.0, 989.0, 989.0, 989.0, 989.0, 989.0, 989.0, 989.0, 989.0, 988.0, 989.0, 989.0, 989.0, 989.0, 988.0, 989.0, 989.0, 989.0, 989.0, 988.0, 989.0, 989.0, 988.0, 989.0, 988.0, 988.0, 989.0, 988.0, 988.0, 988.0, 988.0, 988.0, 988.0, 988.0, 988.0, 988.0, 988.0, 989.0, 988.0, 988.0, 989.0, 988.0, 988.0, 988.0, 989.0, 988.0, 989.0, 988.0, 988.0, 988.0, 988.0, 988.0, 988.0, 988.0, 989.0, 988.0, 989.0, 988.0, 988.0, 988.0, 988.0, 988.0, 988.0, 988.0, 988.0],
      "WindowWidth": [2171.0, 2169.0, 2169.0, 2169.0, 2170.0, 2170.0, 2170.0, 2169.0, 2170.0, 2170.0, 2169.0, 2170.0, 2169.0, 2169.0, 2169.0, 2169.0, 2169.0, 2169.0, 2169.0, 2169.0, 2169.0, 2169.0, 2170.0, 2169.0, 2170.0, 2169.0, 2169.0, 2170.0, 2170.0, 2170.0, 2169.0, 2170.0, 2170.0, 2169.0, 2170.0, 2169.0, 2169.0, 2169.0, 2169.0, 2169.0, 2169.0, 2169.0, 2169.0, 2169.0, 2169.0, 2169.0, 2170.0, 2169.0, 2169.0, 2168.0, 2169.0, 2168.0, 2169.0, 2168.0, 2169.0, 2168.0, 2168.0, 2169.0, 2169.0, 2169.0, 2170.0, 2169.0, 2169.0, 2169.0, 2168.0, 2169.0, 2168.0, 2169.0, 2169.0, 2169.0, 2169.0, 2168.0, 2169.0, 2169.0, 2168.0, 2168.0, 2168.0, 2169.0, 2170.0, 2169.0, 2168.0, 2168.0, 2168.0, 2169.0, 2168.0, 2169.0, 2168.0, 2169.0, 2168.0, 2168.0, 2168.0, 2168.0, 2168.0, 2169.0, 2169.0, 2169.0, 2168.0, 2168.0, 2169.0, 2168.0, 2168.0, 2168.0, 2168.0, 2168.0, 2168.0, 2169.0, 2168.0, 2168.0, 2169.0, 2168.0, 2168.0, 2169.0, 2168.0, 2168.0, 2168.0, 2168.0, 2168.0, 2168.0, 2168.0, 2168.0, 2168.0, 2168.0, 2168.0, 2168.0, 2168.0, 2168.0, 2168.0, 2168.0, 2168.0, 2168.0, 2168.0, 2168.0, 2168.0, 2168.0, 2168.0, 2168.0, 2168.0, 2168.0, 2168.0, 2168.0, 2168.0, 2168.0, 2168.0, 2168.0, 2168.0, 2168.0, 2168.0, 2168.0, 2168.0, 2168.0, 2168.0, 2168.0, 2168.0, 2168.0, 2168.0, 2168.0, 2168.0, 2168.0, 2168.0, 2168.0, 2168.0, 2168.0, 2167.0, 2168.0, 2167.0, 2167.0, 2168.0, 2167.0, 2168.0, 2167.0, 2167.0, 2168.0, 2168.0, 2167.0, 2167.0, 2168.0, 2167.0, 2167.0, 2167.0, 2168.0, 2168.0, 2168.0, 2167.0, 2167.0, 2167.0, 2167.0, 2167.0, 2167.0, 2167.0, 2168.0, 2167.0, 2168.0, 2167.0, 2167.0, 2167.0, 2167.0, 2167.0, 2167.0, 2167.0, 2167.0]
    },
    "slices": {}
  }
}