{
  "AcquisitionMatrixPE": 80,
  "AcquisitionNumber": 1,
  "AcquisitionTime": "09:46:19.470000",
  "BandwidthPerPixelPhaseEncode": 25,
  "BaseResolution": 80,
  "BodyPartExamined": "BRAIN",
  "CoilCombinationMethod": "Sum of Squares",
  "ConsistencyInfo": "N4_VE11E_LATEST_20181129",
  "ConversionSoftware": "dcm2niix",
  "ConversionSoftwareVersion": "v1.0.20220720",
  "DerivedVendorReportedEchoSpacing": 0.0005,
  "DeviceSerialNumber": "66112",
  "DwellTime": 2.7e-06,
  "EchoTime": 0.03,
  "EchoTrainLength": 80,
  "EffectiveEchoSpacing": 0.0005,
  "FlipAngle": 10,
  "HeudiconvVersion": "0.13.1",
  "ImageOrientationPatientDICOM": [0.99251, -0.122153, 0.0013694, 0.115891, 0.945056, 0.305678],
  "ImageOrientationText": "Tra>Cor(17.7)>Sag(2.2)",
  "ImageType": [
    "ORIGINAL",
    "PRIMARY",
    "M",
    "ND",
    "NORM",
    "MOSAIC"
],
  "ImagingFrequency": 123.252,
  "InPlanePhaseEncodingDirectionDICOM": "COL",
  "InstitutionAddress": "Maynard 3,Hanover,NH,US,03755",
  "InstitutionName": "Dartmouth College - PBS",
  "InstitutionalDepartmentName": "Department",
  "MRAcquisitionType": "2D",
  "MagneticFieldStrength": 3,
  "Manufacturer": "Siemens",
  "ManufacturersModelName": "Prisma",
  "MatrixCoilMode": "SENSE",
  "Modality": "MR",
  "NonlinearGradientCorrection": false,
  "PartialFourier": 1,
  "PatientPosition": "HFS",
  "PercentPhaseFOV": 100,
  "PercentSampling": 100,
  "PhaseEncodingDirection": "j-",
  "PhaseEncodingSteps": 80,
  "PhaseResolution": 1,
  "PixelBandwidth": 2315,
  "ProcedureStepDescription": "dbic^QA",
  "ProtocolName": "func-bold_fa-10",
  "PulseSequenceDetails": "%SiemensSeq%\\ep2d_bold",
  "ReceiveCoilActiveElements": "HEA;HEP",
  "ReceiveCoilName": "Head_32",
  "ReconMatrixPE": 80,
  "RepetitionTime": 2,
  "SAR": 0.0115907,
  "ScanOptions": "FS",
  "ScanningSequence": "EP",
  "SequenceName": "*epfid2d1_80",
  "SequenceVariant": "SK",
  "SeriesDescription": "func-bold_fa-10",
  "SeriesNumber": 10,
  "ShimSetting": [4144, -7711, -7522, 236, -76, -36, -12, 76],
  "SliceThickness": 3.5,
  "SliceTiming": [0.99, 0, 1.0575, 0.0675, 1.1225, 0.1325, 1.1875, 0.1975, 1.255, 0.265, 1.32, 0.33, 1.3875, 0.3975, 1.4525, 0.4625, 1.5175, 0.5275, 1.585, 0.595, 1.65, 0.66, 1.715, 0.7275, 1.7825, 0.7925, 1.8475, 0.8575, 1.915, 0.925],
  "SoftwareVersions": "syngo MR E11",
  "SpacingBetweenSlices": 3.99,
  "StationName": "AWP66112",
  "TotalReadoutTime": 0.0395,
  "TxRefAmp": 225.282,
  "dcmmeta_affine": [
    [-2.9775309562683105, 0.3476722836494446, 0.15414805710315704, 102.60867309570312],
    [0.366458922624588, 2.835167407989502, 1.209885835647583, -134.0108642578125],
    [0.004108208231627941, -0.9170330166816711, 3.7990148067474365, -19.506441116333008],
    [0.0, 0.0, 0.0, 1.0]
],
  "dcmmeta_reorient_transform": [
    [0.0, -1.0, 0.0, 79.0],
    [1.0, 0.0, 0.0, 0.0],
    [0.0, 0.0, 1.0, 0.0],
    [0.0, 0.0, 0.0, 1.0]
],
  "dcmmeta_shape": [80, 80, 30, 200],
  "dcmmeta_slice_dim": 2,
  "dcmmeta_version": 0.6,
  "global": {
    "const": {
      "AccessionNumber": "qa",
      "AcquisitionMatrix": [80, 0, 0, 80],
      "AngioFlag": "N",
      "BitsAllocated": 16,
      "BitsStored": 12,
      "BodyPartExamined": "BRAIN",
      "Columns": 480,
      "EchoNumbers": 1,
      "EchoTime": 30.0,
      "EchoTrainLength": 80,
      "FlipAngle": 10.0,
      "HighBit": 11,
      "ImageOrientationPatient": [0.99251034035252, -0.1221529738874, 0.0013694027138, 0.11589076505449, 0.94505581662274, 0.30567766363051],
      "ImagePositionPatient": [-795.1154491447, -583.70906665926, -276.18028730403],
      "ImageType": [
        "ORIGINAL",
        "PRIMARY",
        "M",
        "ND",
        "NORM",
        "MOSAIC"
],
      "ImagedNucleus": "1H",
      "ImagingFrequency": 123.252354,
      "InPlanePhaseEncodingDirection": "COL",
      "MRAcquisitionType": "2D",
      "MagneticFieldStrength": 3.0,
      "Manufacturer": "SIEMENS",
      "ManufacturerModelName": "Prisma",
      "Modality": "MR",
      "NumberOfAverages": 1.0,
      "NumberOfPhaseEncodingSteps": 80,
      "PercentPhaseFieldOfView": 100.0,
      "PercentSampling": 100.0,
      "PerformedProcedureStepStartTime": "092016.610000",
      "PhotometricInterpretation": "MONOCHROME2",
      "PixelBandwidth": 2315.0,
      "PixelRepresentation": 0,
      "PixelSpacing": [3.0, 3.0],
      "ProtocolName": "func-bold_fa-10",
      "RepetitionTime": 2000.0,
      "Rows": 480,
      "SAR": 0.0115906547355,
      "SamplesPerPixel": 1,
      "ScanOptions": "FS",
      "ScanningSequence": "EP",
      "SequenceName": "*epfid2d1_80",
      "SequenceVariant": "SK",
      "SeriesDescription": "func-bold_fa-10",
      "SeriesNumber": 10,
      "SeriesTime": "094657.731000",
      "SliceLocation": -55.244658877912,
      "SliceThickness": 3.5,
      "SmallestImagePixelValue": 0,
      "SoftwareVersions": "syngo MR E11",
      "SpacingBetweenSlices": 3.9899999666093,
      "SpecificCharacterSet": "ISO_IR 100",
      "StudyID": "10",
      "StudyTime": "092016.564000",
      "TransmitCoilName": "Body",
      "VariableFlipAngleFlag": "N",
      "WindowCenterWidthExplanation": "Algo1"
    },
    "slices": {}
  },
  "time": {
    "samples": {
      "AcquisitionNumber": [1, 2, 3, 4, 5, 6, 7, 8, 9, 10, 11, 12, 13, 14, 15, 16, 17, 18, 19, 20, 21, 22, 23, 24, 25, 26, 27, 28, 29, 30, 31, 32, 33, 34, 35, 36, 37, 38, 39, 40, 41, 42, 43, 44, 45, 46, 47, 48, 49, 50, 51, 52, 53, 54, 55, 56, 57, 58, 59, 60, 61, 62, 63, 64, 65, 66, 67, 68, 69, 70, 71, 72, 73, 74, 75, 76, 77, 78, 79, 80, 81, 82, 83, 84, 85, 86, 87, 88, 89, 90, 91, 92, 93, 94, 95, 96, 97, 98, 99, 100, 101, 102, 103, 104, 105, 106, 107, 108, 109, 110, 111, 112, 113, 114, 115, 116, 117, 118, 119, 120, 121, 122, 123, 124, 125, 126, 127, 128, 129, 130, 131, 132, 133, 134, 135, 136, 137, 138, 139, 140, 141, 142, 143, 144, 145, 146, 147, 148, 149, 150, 151, 152, 153, 154, 155, 156, 157, 158, 159, 160, 161, 162, 163, 164, 165, 166, 167, 168, 169, 170, 171, 172, 173, 174, 175, 176, 177, 178, 179, 180, 181, 182, 183, 184, 185, 186, 187, 188, 189, 190, 191, 192, 193, 194, 195, 196, 197, 198, 199, 200],
      "AcquisitionTime": ["094619.470000", "094621.470000", "094623.470000", "094625.470000", "094627.470000", "094629.470000", "094631.470000", "094633.470000", "094635.470000", "094637.470000", "094639.470000", "094641.470000", "094643.470000", "094645.470000", "094647.470000", "094649.470000", "094651.470000", "094653.470000", "094655.470000", "094657.470000", "094659.470000", "094701.470000", "094703.470000", "094705.470000", "094707.470000", "094709.470000", "094711.470000", "094713.470000", "094715.470000", "094717.470000", "094719.470000", "094721.470000", "094723.470000", "094725.470000", "094727.470000", "094729.470000", "094731.470000", "094733.470000", "094735.470000", "094737.470000", "094739.470000", "094741.470000", "094743.470000", "094745.470000", "094747.470000", "094749.470000", "094751.470000", "094753.470000", "094755.470000", "094757.470000", "094759.470000", "094801.470000", "094803.470000", "094805.470000", "094807.470000", "094809.470000", "094811.470000", "094813.470000", "094815.470000", "094817.470000", "094819.470000", "094821.470000", "094823.470000", "094825.470000", "094827.470000", "094829.470000", "094831.470000", "094833.470000", "094835.470000", "094837.470000", "094839.470000", "094841.470000", "094843.470000", "094845.470000", "094847.470000", "094849.470000", "094851.470000", "094853.470000", "094855.470000", "094857.470000", "094859.470000", "094901.470000", "094903.470000", "094905.470000", "094907.470000", "094909.470000", "094911.470000", "094913.470000", "094915.470000", "094917.470000", "094919.470000", "094921.470000", "094923.470000", "094925.470000", "094927.470000", "094929.470000", "094931.470000", "094933.470000", "094935.470000", "094937.470000", "094939.470000", "094941.470000", "094943.470000", "094945.470000", "094947.470000", "094949.470000", "094951.470000", "094953.470000", "094955.470000", "094957.470000", "094959.470000", "095001.470000", "095003.470000", "095005.470000", "095007.470000", "095009.470000", "095011.470000", "095013.470000", "095015.470000", "095017.470000", "095019.470000", "095021.470000", "095023.470000", "095025.470000", "095027.470000", "095029.470000", "095031.470000", "095033.470000", "095035.470000", "095037.470000", "095039.470000", "095041.470000", "095043.470000", "095045.470000", "095047.470000", "095049.470000", "095051.470000", "095053.470000", "095055.470000", "095057.470000", "095059.470000", "095101.470000", "095103.470000", "095105.470000", "095107.470000", "095109.470000", "095111.470000", "095113.470000", "095115.470000", "095117.470000", "095119.470000", "095121.470000", "095123.470000", "095125.470000", "095127.470000", "095129.470000", "095131.470000", "095133.470000", "095135.470000", "095137.470000", "095139.470000", "095141.470000", "095143.470000", "095145.470000", "095147.470000", "095149.470000", "095151.470000", "095153.470000", "095155.470000", "095157.470000", "095159.470000", "095201.470000", "095203.470000", "095205.470000", "095207.470000", "095209.470000", "095211.470000", "095213.470000", "095215.470000", "095217.470000", "095219.470000", "095221.470000", "095223.470000", "095225.470000", "095227.470000", "095229.470000", "095231.470000", "095233.470000", "095235.470000", "095237.470000", "095239.470000", "095241.470000", "095243.470000", "095245.470000", "095247.470000", "095249.470000", "095251.470000", "095253.470000", "095255.470000", "095257.470000"],
      "ContentTime": ["094657.735000", "094657.738000", "094657.740000", "094657.742000", "094657.745000", "094657.747000", "094657.749000", "094657.751000", "094657.763000", "094657.765000", "094657.768000", "094657.770000", "094657.772000", "094657.774000", "094657.777000", "094657.779000", "094657.781000", "094657.784000", "094657.786000", "094737.731000", "094737.734000", "094737.736000", "094737.738000", "094737.741000", "094737.743000", "094737.757000", "094737.760000", "094737.762000", "094737.764000", "094737.767000", "094737.769000", "094737.771000", "094737.774000", "094737.785000", "094737.787000", "094737.789000", "094737.792000", "094737.794000", "094737.796000", "094817.730000", "094817.733000", "094817.735000", "094817.737000", "094817.740000", "094817.742000", "094817.744000", "094817.746000", "094817.749000", "094817.751000", "094817.753000", "094817.756000", "094817.758000", "094817.760000", "094817.763000", "094817.765000", "094817.767000", "094817.770000", "094817.772000", "094817.774000", "094857.730000", "094857.733000", "094857.735000", "094857.737000", "094857.740000", "094857.742000", "094857.744000", "094857.746000", "094857.749000", "094857.751000", "094857.753000", "094857.756000", "094857.758000", "094857.760000", "094857.762000", "094857.765000", "094857.767000", "094857.769000", "094857.772000", "094857.774000", "094937.731000", "094937.734000", "094937.736000", "094937.738000", "094937.741000", "094937.743000", "094937.745000", "094937.748000", "094937.750000", "094937.752000", "094937.755000", "094937.757000", "094937.759000", "094937.761000", "094937.764000", "094937.766000", "094937.768000", "094937.771000", "094937.773000", "094937.775000", "095017.730000", "095017.733000", "095017.735000", "095017.737000", "095017.740000", "095017.742000", "095017.744000", "095017.747000", "095017.749000", "095017.751000", "095017.754000", "095017.756000", "095017.758000", "095017.761000", "095017.770000", "095017.773000", "095017.775000", "095017.777000", "095017.780000", "095017.782000", "095057.730000", "095057.733000", "095057.735000", "095057.737000", "095057.740000", "095057.742000", "095057.744000", "095057.747000", "095057.749000", "095057.751000", "095057.754000", "095057.756000", "095057.759000", "095057.761000", "095057.763000", "095057.765000", "095057.777000", "095057.779000", "095057.781000", "095057.784000", "095137.730000", "095137.733000", "095137.735000", "095137.737000", "095137.740000", "095137.742000", "095137.744000", "095137.746000", "095137.749000", "095137.751000", "095137.753000", "095137.756000", "095137.758000", "095137.760000", "095137.763000", "095137.765000", "095137.767000", "095137.770000", "095137.772000", "095137.774000", "095217.731000", "095217.734000", "095217.736000", "095217.738000", "095217.741000", "095217.743000", "095217.746000", "095217.748000", "095217.750000", "095217.753000", "095217.755000", "095217.757000", "095217.760000", "095217.762000", "095217.764000", "095217.767000", "095217.769000", "095217.771000", "095217.774000", "095217.776000", "095257.730000", "095257.733000", "095257.735000", "095257.738000", "095257.740000", "095257.742000", "095257.745000", "095257.747000", "095257.749000", "095257.752000", "095257.754000", "095257.756000", "095257.759000", "095257.761000", "095257.763000", "095257.765000", "095257.768000", "095257.770000", "095257.781000", "095257.784000", "095258.642000"],
      "InstanceCreationTime": ["094657.735000", "094657.738000", "094657.740000", "094657.742000", "094657.745000", "094657.747000", "094657.749000", "094657.751000", "094657.763000", "094657.765000", "094657.768000", "094657.770000", "094657.772000", "094657.774000", "094657.777000", "094657.779000", "094657.781000", "094657.784000", "094657.786000", "094737.731000", "094737.734000", "094737.736000", "094737.738000", "094737.741000", "094737.743000", "094737.757000", "094737.760000", "094737.762000", "094737.764000", "094737.767000", "094737.769000", "094737.771000", "094737.774000", "094737.785000", "094737.787000", "094737.789000", "094737.792000", "094737.794000", "094737.796000", "094817.730000", "094817.733000", "094817.735000", "094817.737000", "094817.740000", "094817.742000", "094817.744000", "094817.746000", "094817.749000", "094817.751000", "094817.753000", "094817.756000", "094817.758000", "094817.760000", "094817.763000", "094817.765000", "094817.767000", "094817.770000", "094817.772000", "094817.774000", "094857.730000", "094857.733000", "094857.735000", "094857.737000", "094857.740000", "094857.742000", "094857.744000", "094857.746000", "094857.749000", "094857.751000", "094857.753000", "094857.756000", "094857.758000", "094857.760000", "094857.762000", "094857.765000", "094857.767000", "094857.769000", "094857.772000", "094857.774000", "094937.731000", "094937.734000", "094937.736000", "094937.738000", "094937.741000", "094937.743000", "094937.745000", "094937.748000", "094937.750000", "094937.752000", "094937.755000", "094937.757000", "094937.759000", "094937.761000", "094937.764000", "094937.766000", "094937.768000", "094937.771000", "094937.773000", "094937.775000", "095017.730000", "095017.733000", "095017.735000", "095017.737000", "095017.740000", "095017.742000", "095017.744000", "095017.747000", "095017.749000", "095017.751000", "095017.754000", "095017.756000", "095017.758000", "095017.761000", "095017.770000", "095017.773000", "095017.775000", "095017.777000", "095017.780000", "095017.782000", "095057.730000", "095057.733000", "095057.735000", "095057.737000", "095057.740000", "095057.742000", "095057.744000", "095057.747000", "095057.749000", "095057.751000", "095057.754000", "095057.756000", "095057.759000", "095057.761000", "095057.763000", "095057.765000", "095057.777000", "095057.779000", "095057.781000", "095057.784000", "095137.730000", "095137.733000", "095137.735000", "095137.737000", "095137.740000", "095137.742000", "095137.744000", "095137.746000", "095137.749000", "095137.751000", "095137.753000", "095137.756000", "095137.758000", "095137.760000", "095137.763000", "095137.765000", "095137.767000", "095137.770000", "095137.772000", "095137.774000", "095217.731000", "095217.734000", "095217.736000", "095217.738000", "095217.741000", "095217.743000", "095217.746000", "095217.748000", "095217.750000", "095217.753000", "095217.755000", "095217.757000", "095217.760000", "095217.762000", "095217.764000", "095217.767000", "095217.769000", "095217.771000", "095217.774000", "095217.776000", "095257.730000", "095257.733000", "095257.735000", "095257.738000", "095257.740000", "095257.742000", "095257.745000", "095257.747000", "095257.749000", "095257.752000", "095257.754000", "095257.756000", "095257.759000", "095257.761000", "095257.763000", "095257.765000", "095257.768000", "095257.770000", "095257.781000", "095257.784000", "095258.642000"],
      "InstanceNumber": [1, 2, 3, 4, 5, 6, 7, 8, 9, 10, 11, 12, 13, 14, 15, 16, 17, 18, 19, 20, 21, 22, 23, 24, 25, 26, 27, 28, 29, 30, 31, 32, 33, 34, 35, 36, 37, 38, 39, 40, 41, 42, 43, 44, 45, 46, 47, 48, 49, 50, 51, 52, 53, 54, 55, 56, 57, 58, 59, 60, 61, 62, 63, 64, 65, 66, 67, 68, 69, 70, 71, 72, 73, 74, 75, 76, 77, 78, 79, 80, 81, 82, 83, 84, 85, 86, 87, 88, 89, 90, 91, 92, 93, 94, 95, 96, 97, 98, 99, 100, 101, 102, 103, 104, 105, 106, 107, 108, 109, 110, 111, 112, 113, 114, 115, 116, 117, 118, 119, 120, 121, 122, 123, 124, 125, 126, 127, 128, 129, 130, 131, 132, 133, 134, 135, 136, 137, 138, 139, 140, 141, 142, 143, 144, 145, 146, 147, 148, 149, 150, 151, 152, 153, 154, 155, 156, 157, 158, 159, 160, 161, 162, 163, 164, 165, 166, 167, 168, 169, 170, 171, 172, 173, 174, 175, 176, 177, 178, 179, 180, 181, 182, 183, 184, 185, 186, 187, 188, 189, 190, 191, 192, 193, 194, 195, 196, 197, 198, 199, 200],
      "LargestImagePixelValue": [334, 335, 334, 338, 334, 333, 333, 334, 335, 334, 334, 334, 335, 337, 334, 334, 336, 336, 333, 334, 334, 338, 334, 335, 335, 335, 334, 337, 333, 337, 334, 335, 333, 335, 335, 334, 333, 333, 336, 334, 333, 336, 335, 334, 332, 336, 339, 337, 336, 335, 335, 335, 335, 333, 333, 333, 335, 333, 331, 335, 335, 337, 335, 335, 334, 338, 340, 334, 333, 336, 336, 333, 334, 337, 339, 332, 334, 334, 334, 333, 335, 333, 334, 336, 337, 336, 335, 332, 336, 337, 337, 332, 335, 333, 332, 332, 334, 333, 333, 338, 333, 334, 335, 336, 334, 338, 335, 334, 338, 334, 333, 332, 334, 334, 334, 332, 336, 334, 332, 336, 336, 334, 336, 334, 333, 337, 334, 336, 333, 332, 334, 337, 333, 334, 334, 333, 336, 340, 338, 334, 334, 333, 334, 334, 336, 334, 334, 332, 334, 332, 332, 334, 334, 334, 333, 334, 333, 333, 334, 334, 334, 337, 335, 333, 335, 335, 331, 333, 332, 333, 334, 334, 332, 336, 333, 332, 335, 332, 334, 335, 336, 334, 334, 334, 331, 336, 332, 337, 333, 336, 333, 335, 333, 332, 334, 338, 337, 333, 335, 333],
      "WindowCenter": [280.0, 280.0, 281.0, 280.0, 280.0, 280.0, 280.0, 280.0, 280.0, 280.0, 280.0, 280.0, 280.0, 280.0, 280.0, 280.0, 280.0, 280.0, 280.0, 280.0, 280.0, 280.0, 280.0, 280.0, 280.0, 280.0, 280.0, 280.0, 280.0, 280.0, 280.0, 280.0, 280.0, 280.0, 280.0, 280.0, 280.0, 280.0, 280.0, 280.0, 280.0, 280.0, 280.0, 280.0, 280.0, 280.0, 280.0, 280.0, 280.0, 280.0, 280.0, 280.0, 280.0, 280.0, 280.0, 280.0, 280.0, 280.0, 280.0, 280.0, 280.0, 280.0, 280.0, 280.0, 280.0, 280.0, 280.0, 280.0, 280.0, 280.0, 280.0, 280.0, 280.0, 279.0, 280.0, 280.0, 280.0, 280.0, 280.0, 280.0, 280.0, 280.0, 280.0, 280.0, 280.0, 280.0, 280.0, 280.0, 280.0, 279.0, 279.0, 280.0, 280.0, 280.0, 280.0, 280.0, 280.0, 280.0, 280.0, 280.0, 280.0, 280.0, 280.0, 280.0, 279.0, 279.0, 279.0, 279.0, 280.0, 279.0, 279.0, 279.0, 280.0, 280.0, 280.0, 280.0, 280.0, 280.0, 280.0, 280.0, 279.0, 280.0, 280.0, 280.0, 280.0, 280.0, 280.0, 279.0, 280.0, 280.0, 279.0, 280.0, 279.0, 280.0, 280.0, 279.0, 279.0, 280.0, 279.0, 280.0, 280.0, 280.0, 280.0, 279.0, 280.0, 279.0, 279.0, 279.0, 279.0, 280.0, 280.0, 280.0, 279.0, 279.0, 280.0, 280.0, 280.0, 280.0, 279.0, 279.0, 279.0, 279.0, 280.0, 279.0, 279.0, 279.0, 279.0, 280.0, 280.0, 280.0, 280.0, 280.0, 279.0, 279.0, 279.0, 280.0, 280.0, 280.0, 280.0, 280.0, 280.0, 280.0, 279.0, 280.0, 280.0, 280.0, 279.0, 279.0, 279.0, 280.0, 280.0, 280.0, 280.0, 280.0, 280.0, 279.0, 279.0, 279.0, 279.0, 279.0],
      "WindowWidth": [613.0, 613.0, 613.0, 613.0, 613.0, 613.0, 613.0, 613.0, 613.0, 613.0, 613.0, 613.0, 613.0, 613.0, 613.0, 613.0, 613.0, 613.0, 613.0, 613.0, 612.0, 613.0, 613.0, 613.0, 613.0, 613.0, 613.0, 613.0, 613.0, 613.0, 613.0, 613.0, 612.0, 613.0, 613.0, 613.0, 613.0, 613.0, 613.0, 613.0, 613.0, 613.0, 613.0, 613.0, 613.0, 613.0, 613.0, 613.0, 612.0, 612.0, 612.0, 612.0, 613.0, 613.0, 613.0, 613.0, 613.0, 613.0, 613.0, 613.0, 613.0, 613.0, 613.0, 613.0, 613.0, 613.0, 613.0, 613.0, 612.0, 613.0, 612.0, 612.0, 613.0, 611.0, 613.0, 612.0, 612.0, 613.0, 613.0, 613.0, 612.0, 613.0, 613.0, 612.0, 612.0, 612.0, 612.0, 613.0, 612.0, 611.0, 612.0, 612.0, 612.0, 613.0, 613.0, 613.0, 612.0, 612.0, 613.0, 613.0, 613.0, 612.0, 613.0, 612.0, 612.0, 611.0, 611.0, 611.0, 612.0, 612.0, 612.0, 612.0, 612.0, 612.0, 613.0, 612.0, 612.0, 612.0, 612.0, 612.0, 612.0, 612.0, 612.0, 612.0, 612.0, 612.0, 612.0, 611.0, 612.0, 612.0, 612.0, 612.0, 612.0, 612.0, 612.0, 612.0, 612.0, 612.0, 612.0, 612.0, 612.0, 612.0, 612.0, 611.0, 612.0, 611.0, 611.0, 611.0, 611.0, 612.0, 612.0, 612.0, 612.0, 611.0, 612.0, 612.0, 612.0, 612.0, 611.0, 611.0, 611.0, 611.0, 611.0, 611.0, 611.0, 611.0, 611.0, 612.0, 612.0, 612.0, 612.0, 612.0, 611.0, 611.0, 611.0, 611.0, 611.0, 612.0, 612.0, 611.0, 611.0, 611.0, 611.0, 611.0, 611.0, 612.0, 611.0, 611.0, 611.0, 612.0, 612.0, 611.0, 611.0, 612.0, 611.0, 611.0, 611.0, 611.0, 611.0, 611.0]
    },
    "slices": {}
  }
}