{
  "AcquisitionMatrixPE": 80,
  "AcquisitionNumber": 1,
  "AcquisitionTime": "08:37:7.732500",
  "BandwidthPerPixelPhaseEncode": 48.077,
  "BaseResolution": 80,
  "BodyPartExamined": "BRAIN",
  "CoilCombinationMethod": "Sum of Squares",
  "ConsistencyInfo": "N4_VE11E_LATEST_20181129",
  "ConversionSoftware": "dcm2niix",
  "ConversionSoftwareVersion": "v1.0.20220720",
  "DerivedVendorReportedEchoSpacing": 0.000519999,
  "DeviceSerialNumber": "66112",
  "DwellTime": 2.7e-06,
  "EchoTime": 0.035,
  "EchoTrainLength": 39,
  "EffectiveEchoSpacing": 0.00026,
  "FlipAngle": 90,
  "HeudiconvVersion": "0.13.1",
  "ImageOrientationPatientDICOM": [0.999953, -0.00378628, 0.00889438, 0.00157074, 0.971514, 0.236977],
  "ImageOrientationText": "Tra>Cor(13.7)>Sag(0.5)",
  "ImageType": [
    "ORIGINAL",
    "PRIMARY",
    "M",
    "ND",
    "NORM",
    "MOSAIC"
],
  "ImagingFrequency": 123.259,
  "InPlanePhaseEncodingDirectionDICOM": "COL",
  "InstitutionAddress": "Maynard 3,Hanover,NH,US,03755",
  "InstitutionName": "Dartmouth College - PBS",
  "InstitutionalDepartmentName": "Department",
  "MRAcquisitionType": "2D",
  "MagneticFieldStrength": 3,
  "Manufacturer": "Siemens",
  "ManufacturersModelName": "Prisma",
  "MatrixCoilMode": "GRAPPA",
  "Modality": "MR",
  "NonlinearGradientCorrection": false,
  "ParallelReductionFactorInPlane": 2,
  "PartialFourier": 1,
  "PatientPosition": "HFS",
  "PercentPhaseFOV": 100,
  "PercentSampling": 100,
  "PhaseEncodingDirection": "j-",
  "PhaseEncodingSteps": 79,
  "PhaseResolution": 1,
  "PixelBandwidth": 2315,
  "ProcedureStepDescription": "dbic^QA",
  "ProtocolName": "func-bold_task-rest_acq-p2",
  "PulseSequenceDetails": "%SiemensSeq%\\ep2d_bold",
  "ReceiveCoilActiveElements": "HC1-7;NC1,2",
  "ReceiveCoilName": "HeadNeck_64",
  "ReconMatrixPE": 80,
  "RefLinesPE": 24,
  "RepetitionTime": 2,
  "SAR": 0.0359377,
  "ScanOptions": "FS",
  "ScanningSequence": "EP",
  "SequenceName": "*epfid2d1_80",
  "SequenceVariant": "SK",
  "SeriesDescription": "func-bold_task-rest_acq-p2",
  "SeriesNumber": 5,
  "ShimSetting": [4216, -7734, -7497, -158, -170, -211, -56, 105],
  "SliceThickness": 3.5,
  "SliceTiming": [0.99, 0, 1.055, 0.065, 1.1225, 0.1325, 1.1875, 0.1975, 1.2525, 0.2625, 1.32, 0.33, 1.385, 0.395, 1.45, 0.4625, 1.5175, 0.5275, 1.5825, 0.5925, 1.65, 0.66, 1.715, 0.725, 1.78, 0.7925, 1.8475, 0.8575, 1.9125, 0.9225],
  "SoftwareVersions": "syngo MR E11",
  "SpacingBetweenSlices": 3.99,
  "StationName": "AWP66112",
  "TaskName": "rest",
  "TotalReadoutTime": 0.02054,
  "TxRefAmp": 214.452,
  "dcmmeta_affine": [
    [-2.9998598098754883, 0.00471220538020134, 0.038057710975408554, 121.55940246582031],
    [0.011358849704265594, 2.914541721343994, 0.9454393982887268, -129.1949462890625],
    [0.026683129370212555, -0.7109318375587463, 3.876183271408081, -46.67086410522461],
    [0.0, 0.0, 0.0, 1.0]
],
  "dcmmeta_reorient_transform": [
    [0.0, -1.0, 0.0, 79.0],
    [1.0, 0.0, 0.0, 0.0],
    [0.0, 0.0, 1.0, 0.0],
    [0.0, 0.0, 0.0, 1.0]
],
  "dcmmeta_shape": [80, 80, 30, 200],
  "dcmmeta_slice_dim": 2,
  "dcmmeta_version": 0.6,
  "global": {
    "const": {
      "AccessionNumber": "qa64",
      "AcquisitionMatrix": [80, 0, 0, 80],
      "AngioFlag": "N",
      "BitsAllocated": 16,
      "BitsStored": 12,
      "BodyPartExamined": "BRAIN",
      "Columns": 480,
      "EchoNumbers": 1,
      "EchoTime": 35.0,
      "EchoTrainLength": 39,
      "FlipAngle": 90.0,
      "HighBit": 11,
      "ImageOrientationPatient": [0.99995327597499, -0.0037862831136, 0.00889437614805, 0.00157073512747, 0.97151392356265, 0.2369772755246],
      "ImagePositionPatient": [-722.84607658897, -681.69043959069, -250.35746896505],
      "ImageType": [
        "ORIGINAL",
        "PRIMARY",
        "M",
        "ND",
        "NORM",
        "MOSAIC"
],
      "ImagedNucleus": "1H",
      "ImagingFrequency": 123.259134,
      "InPlanePhaseEncodingDirection": "COL",
      "MRAcquisitionType": "2D",
      "MagneticFieldStrength": 3.0,
      "Manufacturer": "SIEMENS",
      "ManufacturerModelName": "Prisma",
      "Modality": "MR",
      "NumberOfAverages": 1.0,
      "NumberOfPhaseEncodingSteps": 79,
      "PercentPhaseFieldOfView": 100.0,
      "PercentSampling": 100.0,
      "PerformedProcedureStepStartTime": "083054.347000",
      "PhotometricInterpretation": "MONOCHROME2",
      "PixelBandwidth": 2315.0,
      "PixelRepresentation": 0,
      "PixelSpacing": [3.0, 3.0],
      "ProtocolName": "func-bold_task-rest_acq-p2",
      "RepetitionTime": 2000.0,
      "Rows": 480,
      "SAR": 0.03593772218118,
      "SamplesPerPixel": 1,
      "ScanOptions": "FS",
      "ScanningSequence": "EP",
      "SequenceName": "*epfid2d1_80",
      "SequenceVariant": "SK",
      "SeriesDescription": "func-bold_task-rest_acq-p2",
      "SeriesNumber": 5,
      "SeriesTime": "083753.744000",
      "SliceLocation": -74.793116580256,
      "SliceThickness": 3.5,
      "SmallestImagePixelValue": 0,
      "SoftwareVersions": "syngo MR E11",
      "SpacingBetweenSlices": 3.9900000378802,
      "SpecificCharacterSet": "ISO_IR 100",
      "StudyID": "8",
      "StudyTime": "083054.267000",
      "TransmitCoilName": "Body",
      "VariableFlipAngleFlag": "N",
      "WindowCenterWidthExplanation": "Algo1"
    },
    "slices": {}
  },
  "time": {
    "samples": {
      "AcquisitionNumber": [1, 2, 3, 4, 5, 6, 7, 8, 9, 10, 11, 12, 13, 14, 15, 16, 17, 18, 19, 20, 21, 22, 23, 24, 25, 26, 27, 28, 29, 30, 31, 32, 33, 34, 35, 36, 37, 38, 39, 40, 41, 42, 43, 44, 45, 46, 47, 48, 49, 50, 51, 52, 53, 54, 55, 56, 57, 58, 59, 60, 61, 62, 63, 64, 65, 66, 67, 68, 69, 70, 71, 72, 73, 74, 75, 76, 77, 78, 79, 80, 81, 82, 83, 84, 85, 86, 87, 88, 89, 90, 91, 92, 93, 94, 95, 96, 97, 98, 99, 100, 101, 102, 103, 104, 105, 106, 107, 108, 109, 110, 111, 112, 113, 114, 115, 116, 117, 118, 119, 120, 121, 122, 123, 124, 125, 126, 127, 128, 129, 130, 131, 132, 133, 134, 135, 136, 137, 138, 139, 140, 141, 142, 143, 144, 145, 146, 147, 148, 149, 150, 151, 152, 153, 154, 155, 156, 157, 158, 159, 160, 161, 162, 163, 164, 165, 166, 167, 168, 169, 170, 171, 172, 173, 174, 175, 176, 177, 178, 179, 180, 181, 182, 183, 184, 185, 186, 187, 188, 189, 190, 191, 192, 193, 194, 195, 196, 197, 198, 199, 200],
      "AcquisitionTime": ["083707.732500", "083709.732500", "083711.732500", "083713.732500", "083715.732500", "083717.732500", "083719.732500", "083721.732500", "083723.732500", "083725.732500", "083727.732500", "083729.732500", "083731.732500", "083733.732500", "083735.732500", "083737.732500", "083739.732500", "083741.732500", "083743.732500", "083745.732500", "083747.732500", "083749.732500", "083751.732500", "083753.732500", "083755.732500", "083757.732500", "083759.732500", "083801.732500", "083803.732500", "083805.732500", "083807.732500", "083809.732500", "083811.732500", "083813.732500", "083815.732500", "083817.732500", "083819.732500", "083821.732500", "083823.732500", "083825.732500", "083827.732500", "083829.732500", "083831.732500", "083833.732500", "083835.732500", "083837.732500", "083839.732500", "083841.732500", "083843.732500", "083845.732500", "083847.732500", "083849.732500", "083851.732500", "083853.732500", "083855.732500", "083857.732500", "083859.732500", "083901.732500", "083903.732500", "083905.732500", "083907.732500", "083909.732500", "083911.732500", "083913.732500", "083915.732500", "083917.732500", "083919.732500", "083921.732500", "083923.732500", "083925.732500", "083927.732500", "083929.732500", "083931.732500", "083933.732500", "083935.732500", "083937.732500", "083939.732500", "083941.732500", "083943.732500", "083945.732500", "083947.732500", "083949.732500", "083951.732500", "083953.732500", "083955.732500", "083957.732500", "083959.732500", "084001.732500", "084003.732500", "084005.732500", "084007.732500", "084009.732500", "084011.732500", "084013.732500", "084015.732500", "084017.732500", "084019.732500", "084021.732500", "084023.732500", "084025.732500", "084027.732500", "084029.732500", "084031.732500", "084033.732500", "084035.732500", "084037.732500", "084039.732500", "084041.732500", "084043.732500", "084045.732500", "084047.732500", "084049.732500", "084051.732500", "084053.732500", "084055.732500", "084057.732500", "084059.732500", "084101.732500", "084103.732500", "084105.732500", "084107.732500", "084109.732500", "084111.732500", "084113.732500", "084115.732500", "084117.732500", "084119.732500", "084121.732500", "084123.732500", "084125.732500", "084127.732500", "084129.732500", "084131.732500", "084133.732500", "084135.732500", "084137.732500", "084139.732500", "084141.732500", "084143.732500", "084145.732500", "084147.732500", "084149.732500", "084151.732500", "084153.732500", "084155.732500", "084157.732500", "084159.732500", "084201.732500", "084203.732500", "084205.732500", "084207.732500", "084209.732500", "084211.732500", "084213.732500", "084215.732500", "084217.732500", "084219.732500", "084221.732500", "084223.732500", "084225.732500", "084227.732500", "084229.732500", "084231.732500", "084233.732500", "084235.732500", "084237.732500", "084239.732500", "084241.732500", "084243.732500", "084245.732500", "084247.732500", "084249.732500", "084251.732500", "084253.732500", "084255.732500", "084257.732500", "084259.732500", "084301.732500", "084303.732500", "084305.732500", "084307.732500", "084309.732500", "084311.732500", "084313.732500", "084315.732500", "084317.732500", "084319.732500", "084321.732500", "084323.732500", "084325.732500", "084327.732500", "084329.732500", "084331.732500", "084333.732500", "084335.732500", "084337.732500", "084339.732500", "084341.732500", "084343.732500", "084345.732500"],
      "ContentTime": ["083753.747000", "083753.750000", "083753.753000", "083753.755000", "083753.757000", "083753.760000", "083753.762000", "083753.764000", "083753.767000", "083753.769000", "083753.771000", "083753.774000", "083753.786000", "083753.788000", "083753.791000", "083753.793000", "083753.795000", "083753.798000", "083753.800000", "083753.803000", "083753.805000", "083753.807000", "083753.810000", "083833.742000", "083833.745000", "083833.747000", "083833.749000", "083833.752000", "083833.755000", "083833.757000", "083833.759000", "083833.762000", "083833.764000", "083833.766000", "083833.769000", "083833.771000", "083833.774000", "083833.776000", "083833.778000", "083833.781000", "083833.783000", "083833.785000", "083833.788000", "083913.742000", "083913.745000", "083913.747000", "083913.749000", "083913.752000", "083913.754000", "083913.764000", "083913.766000", "083913.769000", "083913.771000", "083913.773000", "083913.776000", "083913.778000", "083913.781000", "083913.783000", "083913.785000", "083913.788000", "083913.790000", "083913.792000", "083913.795000", "083953.742000", "083953.745000", "083953.747000", "083953.749000", "083953.752000", "083953.755000", "083953.757000", "083953.759000", "083953.762000", "083953.764000", "083953.766000", "083953.769000", "083953.771000", "083953.773000", "083953.776000", "083953.778000", "083953.781000", "083953.783000", "083953.785000", "083953.788000", "084033.742000", "084033.745000", "084033.747000", "084033.750000", "084033.752000", "084033.755000", "084033.757000", "084033.759000", "084033.762000", "084033.764000", "084033.767000", "084033.769000", "084033.771000", "084033.774000", "084033.776000", "084033.778000", "084033.781000", "084033.783000", "084033.785000", "084033.788000", "084113.742000", "084113.745000", "084113.747000", "084113.749000", "084113.752000", "084113.754000", "084113.757000", "084113.759000", "084113.761000", "084113.764000", "084113.766000", "084113.768000", "084113.771000", "084113.773000", "084113.775000", "084113.778000", "084113.780000", "084113.782000", "084113.785000", "084113.787000", "084153.742000", "084153.745000", "084153.747000", "084153.749000", "084153.752000", "084153.754000", "084153.757000", "084153.759000", "084153.761000", "084153.764000", "084153.766000", "084153.768000", "084153.771000", "084153.773000", "084153.775000", "084153.778000", "084153.780000", "084153.782000", "084153.785000", "084153.787000", "084233.742000", "084233.745000", "084233.747000", "084233.749000", "084233.752000", "084233.754000", "084233.757000", "084233.759000", "084233.761000", "084233.764000", "084233.766000", "084233.768000", "084233.771000", "084233.773000", "084233.776000", "084233.778000", "084233.780000", "084233.783000", "084233.785000", "084233.787000", "084313.742000", "084313.745000", "084313.747000", "084313.750000", "084313.752000", "084313.754000", "084313.757000", "084313.776000", "084313.778000", "084313.781000", "084313.783000", "084313.785000", "084313.788000", "084313.790000", "084313.793000", "084313.796000", "084313.799000", "084313.801000", "084313.803000", "084313.806000", "084346.827000", "084346.830000", "084346.832000", "084346.835000", "084346.837000", "084346.839000", "084346.842000", "084346.844000", "084346.847000", "084346.849000", "084346.852000", "084346.854000", "084346.862000", "084346.865000", "084346.868000", "084346.871000", "084346.874000"],
      "InstanceCreationTime": ["083753.747000", "083753.750000", "083753.753000", "083753.755000", "083753.757000", "083753.760000", "083753.762000", "083753.764000", "083753.767000", "083753.769000", "083753.771000", "083753.774000", "083753.786000", "083753.788000", "083753.791000", "083753.793000", "083753.795000", "083753.798000", "083753.800000", "083753.803000", "083753.805000", "083753.807000", "083753.810000", "083833.742000", "083833.745000", "083833.747000", "083833.749000", "083833.752000", "083833.755000", "083833.757000", "083833.759000", "083833.762000", "083833.764000", "083833.766000", "083833.769000", "083833.771000", "083833.774000", "083833.776000", "083833.778000", "083833.781000", "083833.783000", "083833.785000", "083833.788000", "083913.742000", "083913.745000", "083913.747000", "083913.749000", "083913.752000", "083913.754000", "083913.764000", "083913.766000", "083913.769000", "083913.771000", "083913.773000", "083913.776000", "083913.778000", "083913.781000", "083913.783000", "083913.785000", "083913.788000", "083913.790000", "083913.792000", "083913.795000", "083953.742000", "083953.745000", "083953.747000", "083953.749000", "083953.752000", "083953.755000", "083953.757000", "083953.759000", "083953.762000", "083953.764000", "083953.766000", "083953.769000", "083953.771000", "083953.773000", "083953.776000", "083953.778000", "083953.781000", "083953.783000", "083953.785000", "083953.788000", "084033.742000", "084033.745000", "084033.747000", "084033.750000", "084033.752000", "084033.755000", "084033.757000", "084033.759000", "084033.762000", "084033.764000", "084033.767000", "084033.769000", "084033.771000", "084033.774000", "084033.776000", "084033.778000", "084033.781000", "084033.783000", "084033.785000", "084033.788000", "084113.742000", "084113.745000", "084113.747000", "084113.749000", "084113.752000", "084113.754000", "084113.757000", "084113.759000", "084113.761000", "084113.764000", "084113.766000", "084113.768000", "084113.771000", "084113.773000", "084113.775000", "084113.778000", "084113.780000", "084113.782000", "084113.785000", "084113.787000", "084153.742000", "084153.745000", "084153.747000", "084153.749000", "084153.752000", "084153.754000", "084153.757000", "084153.759000", "084153.761000", "084153.764000", "084153.766000", "084153.768000", "084153.771000", "084153.773000", "084153.775000", "084153.778000", "084153.780000", "084153.782000", "084153.785000", "084153.787000", "084233.742000", "084233.745000", "084233.747000", "084233.749000", "084233.752000", "084233.754000", "084233.757000", "084233.759000", "084233.761000", "084233.764000", "084233.766000", "084233.768000", "084233.771000", "084233.773000", "084233.776000", "084233.778000", "084233.780000", "084233.783000", "084233.785000", "084233.787000", "084313.742000", "084313.745000", "084313.747000", "084313.750000", "084313.752000", "084313.754000", "084313.757000", "084313.776000", "084313.778000", "084313.781000", "084313.783000", "084313.785000", "084313.788000", "084313.790000", "084313.793000", "084313.796000", "084313.799000", "084313.801000", "084313.803000", "084313.806000", "084346.827000", "084346.830000", "084346.832000", "084346.835000", "084346.837000", "084346.839000", "084346.842000", "084346.844000", "084346.847000", "084346.849000", "084346.852000", "084346.854000", "084346.862000", "084346.865000", "084346.868000", "084346.871000", "084346.874000"],
      "InstanceNumber": [1, 2, 3, 4, 5, 6, 7, 8, 9, 10, 11, 12, 13, 14, 15, 16, 17, 18, 19, 20, 21, 22, 23, 24, 25, 26, 27, 28, 29, 30, 31, 32, 33, 34, 35, 36, 37, 38, 39, 40, 41, 42, 43, 44, 45, 46, 47, 48, 49, 50, 51, 52, 53, 54, 55, 56, 57, 58, 59, 60, 61, 62, 63, 64, 65, 66, 67, 68, 69, 70, 71, 72, 73, 74, 75, 76, 77, 78, 79, 80, 81, 82, 83, 84, 85, 86, 87, 88, 89, 90, 91, 92, 93, 94, 95, 96, 97, 98, 99, 100, 101, 102, 103, 104, 105, 106, 107, 108, 109, 110, 111, 112, 113, 114, 115, 116, 117, 118, 119, 120, 121, 122, 123, 124, 125, 126, 127, 128, 129, 130, 131, 132, 133, 134, 135, 136, 137, 138, 139, 140, 141, 142, 143, 144, 145, 146, 147, 148, 149, 150, 151, 152, 153, 154, 155, 156, 157, 158, 159, 160, 161, 162, 163, 164, 165, 166, 167, 168, 169, 170, 171, 172, 173, 174, 175, 176, 177, 178, 179, 180, 181, 182, 183, 184, 185, 186, 187, 188, 189, 190, 191, 192, 193, 194, 195, 196, 197, 198, 199, 200],
      "LargestImagePixelValue": [4048, 4054, 4059, 4061, 4054, 4053, 4055, 4059, 4048, 4053, 4066, 4053, 4052, 4050, 4053, 4065, 4054, 4051, 4058, 4046, 4055, 4058, 4046, 4050, 4050, 4055, 4048, 4049, 4050, 4056, 4055, 4062, 4051, 4051, 4049, 4053, 4051, 4056, 4052, 4065, 4057, 4048, 4061, 4056, 4055, 4058, 4052, 4056, 4056, 4053, 4059, 4056, 4059, 4051, 4057, 4053, 4065, 4061, 4056, 4059, 4063, 4059, 4055, 4055, 4058, 4059, 4064, 4059, 4065, 4062, 4056, 4061, 4063, 4062, 4062, 4060, 4056, 4060, 4061, 4060, 4059, 4058, 4053, 4062, 4058, 4060, 4056, 4060, 4060, 4054, 4059, 4052, 4065, 4052, 4055, 4059, 4058, 4055, 4056, 4050, 4067, 4052, 4053, 4058, 4062, 4060, 4064, 4061, 4060, 4055, 4059, 4061, 4066, 4065, 4056, 4059, 4060, 4065, 4063, 4051, 4067, 4060, 4065, 4064, 4058, 4067, 4055, 4057, 4068, 4059, 4061, 4054, 4062, 4066, 4064, 4061, 4060, 4060, 4055, 4062, 4056, 4059, 4062, 4065, 4062, 4063, 4066, 4066, 4066, 4062, 4064, 4063, 4067, 4065, 4077, 4061, 4058, 4060, 4068, 4064, 4062, 4068, 4062, 4061, 4066, 4061, 4066, 4063, 4061, 4065, 4060, 4057, 4066, 4062, 4069, 4065, 4062, 4057, 4064, 4061, 4061, 4060, 4057, 4061, 4060, 4061, 4052, 4055, 4061, 4058, 4057, 4066, 4072, 4060, 4057, 4065, 4058, 4063, 4058, 4065],
      "WindowCenter": [1513.0, 1513.0, 1512.0, 1512.0, 1512.0, 1513.0, 1512.0, 1513.0, 1512.0, 1511.0, 1512.0, 1512.0, 1513.0, 1512.0, 1512.0, 1513.0, 1512.0, 1513.0, 1512.0, 1512.0, 1511.0, 1511.0, 1511.0, 1511.0, 1511.0, 1511.0, 1510.0, 1511.0, 1511.0, 1511.0, 1511.0, 1510.0, 1511.0, 1511.0, 1511.0, 1511.0, 1510.0, 1511.0, 1510.0, 1510.0, 1511.0, 1510.0, 1510.0, 1510.0, 1511.0, 1510.0, 1510.0, 1510.0, 1510.0, 1510.0, 1510.0, 1510.0, 1509.0, 1509.0, 1510.0, 1509.0, 1510.0, 1509.0, 1509.0, 1510.0, 1509.0, 1509.0, 1509.0, 1509.0, 1510.0, 1510.0, 1509.0, 1509.0, 1510.0, 1509.0, 1508.0, 1509.0, 1509.0, 1510.0, 1509.0, 1509.0, 1509.0, 1509.0, 1510.0, 1509.0, 1510.0, 1508.0, 1508.0, 1508.0, 1509.0, 1509.0, 1508.0, 1509.0, 1508.0, 1508.0, 1509.0, 1508.0, 1509.0, 1508.0, 1508.0, 1508.0, 1509.0, 1508.0, 1508.0, 1509.0, 1508.0, 1508.0, 1508.0, 1509.0, 1509.0, 1508.0, 1508.0, 1508.0, 1508.0, 1508.0, 1508.0, 1508.0, 1508.0, 1507.0, 1507.0, 1507.0, 1507.0, 1508.0, 1508.0, 1507.0, 1508.0, 1507.0, 1508.0, 1508.0, 1508.0, 1507.0, 1507.0, 1507.0, 1507.0, 1507.0, 1507.0, 1507.0, 1508.0, 1508.0, 1507.0, 1507.0, 1507.0, 1507.0, 1507.0, 1506.0, 1507.0, 1508.0, 1506.0, 1507.0, 1506.0, 1507.0, 1506.0, 1507.0, 1507.0, 1506.0, 1507.0, 1507.0, 1508.0, 1507.0, 1506.0, 1506.0, 1507.0, 1507.0, 1506.0, 1506.0, 1505.0, 1507.0, 1507.0, 1507.0, 1506.0, 1506.0, 1506.0, 1505.0, 1507.0, 1506.0, 1505.0, 1507.0, 1506.0, 1506.0, 1505.0, 1506.0, 1506.0, 1505.0, 1505.0, 1505.0, 1506.0, 1505.0, 1506.0, 1506.0, 1506.0, 1506.0, 1505.0, 1506.0, 1505.0, 1506.0, 1506.0, 1505.0, 1505.0, 1505.0, 1506.0, 1504.0, 1505.0, 1504.0, 1506.0, 1505.0],
      "WindowWidth": [3412.0, 3411.0, 3411.0, 3411.0, 3411.0, 3411.0, 3411.0, 3411.0, 3410.0, 3411.0, 3410.0, 3411.0, 3410.0, 3410.0, 3410.0, 3410.0, 3410.0, 3410.0, 3410.0, 3410.0, 3411.0, 3410.0, 3410.0, 3410.0, 3410.0, 3410.0, 3410.0, 3410.0, 3410.0, 3410.0, 3410.0, 3410.0, 3410.0, 3410.0, 3410.0, 3409.0, 3410.0, 3410.0, 3410.0, 3410.0, 3409.0, 3410.0, 3410.0, 3410.0, 3409.0, 3410.0, 3409.0, 3409.0, 3409.0, 3409.0, 3409.0, 3409.0, 3410.0, 3410.0, 3409.0, 3410.0, 3409.0, 3410.0, 3409.0, 3409.0, 3409.0, 3409.0, 3409.0, 3409.0, 3409.0, 3409.0, 3409.0, 3409.0, 3409.0, 3409.0, 3409.0, 3409.0, 3409.0, 3409.0, 3408.0, 3408.0, 3408.0, 3408.0, 3408.0, 3408.0, 3408.0, 3408.0, 3408.0, 3408.0, 3408.0, 3408.0, 3408.0, 3408.0, 3408.0, 3408.0, 3407.0, 3408.0, 3407.0, 3408.0, 3408.0, 3407.0, 3407.0, 3407.0, 3407.0, 3407.0, 3407.0, 3407.0, 3407.0, 3407.0, 3407.0, 3407.0, 3407.0, 3407.0, 3406.0, 3407.0, 3407.0, 3407.0, 3407.0, 3407.0, 3407.0, 3407.0, 3407.0, 3406.0, 3406.0, 3407.0, 3406.0, 3407.0, 3406.0, 3406.0, 3406.0, 3406.0, 3406.0, 3406.0, 3406.0, 3406.0, 3406.0, 3406.0, 3406.0, 3406.0, 3406.0, 3406.0, 3406.0, 3406.0, 3406.0, 3406.0, 3406.0, 3405.0, 3406.0, 3406.0, 3406.0, 3406.0, 3406.0, 3406.0, 3405.0, 3406.0, 3405.0, 3405.0, 3405.0, 3405.0, 3406.0, 3405.0, 3405.0, 3405.0, 3405.0, 3406.0, 3406.0, 3405.0, 3405.0, 3405.0, 3405.0, 3406.0, 3405.0, 3406.0, 3405.0, 3405.0, 3406.0, 3405.0, 3405.0, 3405.0, 3405.0, 3405.0, 3405.0, 3406.0, 3405.0, 3405.0, 3405.0, 3405.0, 3405.0, 3405.0, 3405.0, 3405.0, 3405.0, 3405.0, 3405.0, 3405.0, 3405.0, 3405.0, 3404.0, 3404.0, 3405.0, 3405.0, 3404.0, 3405.0, 3404.0, 3404.0]
    },
    "slices": {}
  }
}