{
  "AcquisitionMatrixPE": 80,
  "AcquisitionNumber": 1,
  "AcquisitionTime": "09:05:38.050000",
  "BandwidthPerPixelPhaseEncode": 46.296,
  "BaseResolution": 80,
  "BodyPartExamined": "BRAIN",
  "CoilCombinationMethod": "Sum of Squares",
  "ConsistencyInfo": "N4_VE11E_LATEST_20181129",
  "ConversionSoftware": "dcm2niix",
  "ConversionSoftwareVersion": "v1.0.20220720",
  "DerivedVendorReportedEchoSpacing": 0.000540003,
  "DeviceSerialNumber": "66112",
  "DwellTime": 2.7e-06,
  "EchoTime": 0.035,
  "EchoTrainLength": 39,
  "EffectiveEchoSpacing": 0.000270002,
  "FlipAngle": 90,
  "HeudiconvVersion": "0.13.1",
  "ImageOrientationPatientDICOM": [0.98972, 0.142685, 0.00972821, -0.138744, 0.941424, 0.30736],
  "ImageOrientationText": "Tra>Cor(17.8)>Sag(-2.0)",
  "ImageType": [
    "ORIGINAL",
    "PRIMARY",
    "M",
    "ND",
    "NORM",
    "MOSAIC"
],
  "ImagingFrequency": 123.259,
  "InPlanePhaseEncodingDirectionDICOM": "COL",
  "InstitutionAddress": "Maynard 3,Hanover,NH,US,03755",
  "InstitutionName": "Dartmouth College - PBS",
  "InstitutionalDepartmentName": "Department",
  "MRAcquisitionType": "2D",
  "MagneticFieldStrength": 3,
  "Manufacturer": "Siemens",
  "ManufacturersModelName": "Prisma",
  "Modality": "MR",
  "MultibandAccelerationFactor": 4,
  "NonlinearGradientCorrection": false,
  "ParallelReductionFactorInPlane": 2,
  "PartialFourier": 1,
  "PatientPosition": "HFS",
  "PercentPhaseFOV": 100,
  "PercentSampling": 100,
  "PhaseEncodingDirection": "j-",
  "PhaseEncodingSteps": 79,
  "PhaseResolution": 1,
  "PixelBandwidth": 2315,
  "ProcedureStepDescription": "dbic^QA",
  "ProtocolName": "func-bold_task-rest_acq-p2-s4-3.5mm",
  "PulseSequenceDetails": "%SiemensSeq%\\ep2d_bold",
  "ReceiveCoilActiveElements": "HEA;HEP",
  "ReceiveCoilName": "Head_32",
  "ReconMatrixPE": 80,
  "RefLinesPE": 24,
  "RepetitionTime": 2,
  "SAR": 0.0176658,
  "ScanOptions": "FS",
  "ScanningSequence": "EP",
  "SequenceName": "*epfid2d1_80",
  "SequenceVariant": "SK",
  "SeriesDescription": "func-bold_task-rest_acq-p2-s4-3.5mm",
  "SeriesNumber": 6,
  "ShimSetting": [4220, -7742, -7503, -31, -136, -88, 0, 72],
  "SliceThickness": 3.5,
  "SliceTiming": [1.485, 0, 0.99, 0.2475, 1.2375, 0.7425, 1.7325, 0.495, 1.485, 0, 0.99, 0.2475, 1.2375, 0.7425, 1.7325, 0.495, 1.485, 0, 0.99, 0.2475, 1.2375, 0.7425, 1.7325, 0.495, 1.485, 0, 0.99, 0.2475, 1.2375, 0.7425, 1.7325, 0.495],
  "SoftwareVersions": "syngo MR E11",
  "SpacingBetweenSlices": 3.99,
  "StationName": "AWP66112",
  "TaskName": "rest",
  "TotalReadoutTime": 0.0213301,
  "TxRefAmp": 224.925,
  "dcmmeta_affine": [
    [-2.969160795211792, -0.4162313938140869, -0.13844263553619385, 139.01417541503906],
    [-0.42805609107017517, 2.8242733478546143, 1.2191452980041504, -110.564697265625],
    [0.029184633865952492, -0.9220800995826721, 3.796658992767334, -31.257476806640625],
    [0.0, 0.0, 0.0, 1.0]
],
  "dcmmeta_reorient_transform": [
    [0.0, -1.0, 0.0, 79.0],
    [1.0, 0.0, 0.0, 0.0],
    [0.0, 0.0, 1.0, 0.0],
    [0.0, 0.0, 0.0, 1.0]
],
  "dcmmeta_shape": [80, 80, 32, 200],
  "dcmmeta_slice_dim": 2,
  "dcmmeta_version": 0.6,
  "global": {
    "const": {
      "AccessionNumber": "qa",
      "AcquisitionMatrix": [80, 0, 0, 80],
      "AngioFlag": "N",
      "BitsAllocated": 16,
      "BitsStored": 12,
      "BodyPartExamined": "BRAIN",
      "Columns": 480,
      "EchoNumbers": 1,
      "EchoTime": 35.0,
      "EchoTrainLength": 39,
      "FlipAngle": 90.0,
      "HighBit": 11,
      "ImageOrientationPatient": [0.98972028790534, 0.14268536582115, 0.00972821098944, -0.1387437995844, 0.9414244358533, 0.30736003262489],
      "ImagePositionPatient": [-616.71779346147, -763.01877400248, -294.3547515278],
      "ImageType": [
        "ORIGINAL",
        "PRIMARY",
        "M",
        "ND",
        "NORM",
        "MOSAIC"
],
      "ImagedNucleus": "1H",
      "ImagingFrequency": 123.259145,
      "InPlanePhaseEncodingDirection": "COL",
      "MRAcquisitionType": "2D",
      "MagneticFieldStrength": 3.0,
      "Manufacturer": "SIEMENS",
      "ManufacturerModelName": "Prisma",
      "Modality": "MR",
      "NumberOfAverages": 1.0,
      "NumberOfPhaseEncodingSteps": 79,
      "PercentPhaseFieldOfView": 100.0,
      "PercentSampling": 100.0,
      "PerformedProcedureStepStartTime": "084911.301000",
      "PhotometricInterpretation": "MONOCHROME2",
      "PixelBandwidth": 2315.0,
      "PixelRepresentation": 0,
      "PixelSpacing": [3.0, 3.0],
      "ProtocolName": "func-bold_task-rest_acq-p2-s4-3.5mm",
      "RepetitionTime": 2000.0,
      "Rows": 480,
      "SAR": 0.01766576877108,
      "SamplesPerPixel": 1,
      "ScanOptions": "FS",
      "ScanningSequence": "EP",
      "SequenceName": "*epfid2d1_80",
      "SequenceVariant": "SK",
      "SeriesDescription": "func-bold_task-rest_acq-p2-s4-3.5mm",
      "SeriesNumber": 6,
      "SeriesTime": "090625.596000",
      "SliceLocation": -68.349347495587,
      "SliceThickness": 3.5,
      "SmallestImagePixelValue": 0,
      "SoftwareVersions": "syngo MR E11",
      "SpacingBetweenSlices": 3.990000055715,
      "SpecificCharacterSet": "ISO_IR 100",
      "StudyID": "15",
      "StudyTime": "084911.240000",
      "TransmitCoilName": "Body",
      "VariableFlipAngleFlag": "N",
      "WindowCenterWidthExplanation": "Algo1"
    },
    "slices": {}
  },
  "time": {
    "samples": {
      "AcquisitionNumber": [1, 2, 3, 4, 5, 6, 7, 8, 9, 10, 11, 12, 13, 14, 15, 16, 17, 18, 19, 20, 21, 22, 23, 24, 25, 26, 27, 28, 29, 30, 31, 32, 33, 34, 35, 36, 37, 38, 39, 40, 41, 42, 43, 44, 45, 46, 47, 48, 49, 50, 51, 52, 53, 54, 55, 56, 57, 58, 59, 60, 61, 62, 63, 64, 65, 66, 67, 68, 69, 70, 71, 72, 73, 74, 75, 76, 77, 78, 79, 80, 81, 82, 83, 84, 85, 86, 87, 88, 89, 90, 91, 92, 93, 94, 95, 96, 97, 98, 99, 100, 101, 102, 103, 104, 105, 106, 107, 108, 109, 110, 111, 112, 113, 114, 115, 116, 117, 118, 119, 120, 121, 122, 123, 124, 125, 126, 127, 128, 129, 130, 131, 132, 133, 134, 135, 136, 137, 138, 139, 140, 141, 142, 143, 144, 145, 146, 147, 148, 149, 150, 151, 152, 153, 154, 155, 156, 157, 158, 159, 160, 161, 162, 163, 164, 165, 166, 167, 168, 169, 170, 171, 172, 173, 174, 175, 176, 177, 178, 179, 180, 181, 182, 183, 184, 185, 186, 187, 188, 189, 190, 191, 192, 193, 194, 195, 196, 197, 198, 199, 200],
      "AcquisitionTime": ["090538.050000", "090540.050000", "090542.050000", "090544.050000", "090546.050000", "090548.050000", "090550.050000", "090552.050000", "090554.050000", "090556.050000", "090558.050000", "090600.050000", "090602.050000", "090604.050000", "090606.050000", "090608.050000", "090610.050000", "090612.050000", "090614.050000", "090616.050000", "090618.050000", "090620.050000", "090622.050000", "090624.050000", "090626.050000", "090628.050000", "090630.050000", "090632.050000", "090634.050000", "090636.050000", "090638.050000", "090640.050000", "090642.050000", "090644.050000", "090646.050000", "090648.050000", "090650.050000", "090652.050000", "090654.050000", "090656.050000", "090658.050000", "090700.050000", "090702.050000", "090704.050000", "090706.050000", "090708.050000", "090710.050000", "090712.050000", "090714.050000", "090716.050000", "090718.050000", "090720.050000", "090722.050000", "090724.050000", "090726.050000", "090728.050000", "090730.050000", "090732.050000", "090734.050000", "090736.050000", "090738.050000", "090740.050000", "090742.050000", "090744.050000", "090746.050000", "090748.050000", "090750.050000", "090752.050000", "090754.050000", "090756.050000", "090758.050000", "090800.050000", "090802.050000", "090804.050000", "090806.050000", "090808.050000", "090810.050000", "090812.050000", "090814.050000", "090816.050000", "090818.050000", "090820.050000", "090822.050000", "090824.050000", "090826.050000", "090828.050000", "090830.050000", "090832.050000", "090834.050000", "090836.050000", "090838.050000", "090840.050000", "090842.050000", "090844.050000", "090846.050000", "090848.050000", "090850.050000", "090852.050000", "090854.050000", "090856.050000", "090858.050000", "090900.050000", "090902.050000", "090904.050000", "090906.050000", "090908.050000", "090910.050000", "090912.050000", "090914.050000", "090916.050000", "090918.050000", "090920.050000", "090922.050000", "090924.050000", "090926.050000", "090928.050000", "090930.050000", "090932.050000", "090934.050000", "090936.050000", "090938.050000", "090940.050000", "090942.050000", "090944.050000", "090946.050000", "090948.050000", "090950.050000", "090952.050000", "090954.050000", "090956.050000", "090958.050000", "091000.050000", "091002.050000", "091004.050000", "091006.050000", "091008.050000", "091010.050000", "091012.050000", "091014.050000", "091016.050000", "091018.050000", "091020.050000", "091022.050000", "091024.050000", "091026.050000", "091028.050000", "091030.050000", "091032.050000", "091034.050000", "091036.050000", "091038.050000", "091040.050000", "091042.050000", "091044.050000", "091046.050000", "091048.050000", "091050.050000", "091052.050000", "091054.050000", "091056.050000", "091058.050000", "091100.050000", "091102.050000", "091104.050000", "091106.050000", "091108.050000", "091110.050000", "091112.050000", "091114.050000", "091116.050000", "091118.050000", "091120.050000", "091122.050000", "091124.050000", "091126.050000", "091128.050000", "091130.050000", "091132.050000", "091134.050000", "091136.050000", "091138.050000", "091140.050000", "091142.050000", "091144.050000", "091146.050000", "091148.050000", "091150.050000", "091152.050000", "091154.050000", "091156.050000", "091158.050000", "091200.050000", "091202.050000", "091204.050000", "091206.050000", "091208.050000", "091210.050000", "091212.050000", "091214.050000", "091216.050000"],
      "ContentTime": ["090625.600000", "090625.603000", "090625.606000", "090625.608000", "090625.610000", "090625.612000", "090625.615000", "090625.617000", "090625.619000", "090625.622000", "090625.624000", "090625.626000", "090625.628000", "090625.631000", "090625.633000", "090625.635000", "090625.638000", "090625.640000", "090625.642000", "090625.645000", "090625.647000", "090625.650000", "090625.652000", "090625.654000", "090705.594000", "090705.597000", "090705.599000", "090705.602000", "090705.604000", "090705.606000", "090705.608000", "090705.611000", "090705.613000", "090705.616000", "090705.618000", "090705.620000", "090705.623000", "090705.625000", "090705.627000", "090705.630000", "090705.632000", "090705.634000", "090705.637000", "090705.639000", "090745.594000", "090745.597000", "090745.599000", "090745.601000", "090745.604000", "090745.606000", "090745.608000", "090745.611000", "090745.613000", "090745.615000", "090745.617000", "090745.620000", "090745.622000", "090745.624000", "090745.627000", "090745.629000", "090745.631000", "090745.634000", "090745.636000", "090745.638000", "090825.595000", "090825.598000", "090825.600000", "090825.602000", "090825.605000", "090825.607000", "090825.609000", "090825.612000", "090825.614000", "090825.616000", "090825.619000", "090825.621000", "090825.623000", "090825.625000", "090825.628000", "090825.630000", "090825.632000", "090825.635000", "090825.637000", "090825.639000", "090905.594000", "090905.597000", "090905.599000", "090905.602000", "090905.604000", "090905.606000", "090905.608000", "090905.611000", "090905.613000", "090905.615000", "090905.618000", "090905.620000", "090905.623000", "090905.625000", "090905.627000", "090905.630000", "090905.632000", "090905.634000", "090905.637000", "090905.639000", "090945.594000", "090945.597000", "090945.599000", "090945.602000", "090945.604000", "090945.606000", "090945.608000", "090945.611000", "090945.613000", "090945.615000", "090945.618000", "090945.620000", "090945.622000", "090945.625000", "090945.627000", "090945.629000", "090945.631000", "090945.634000", "090945.636000", "090945.638000", "091025.595000", "091025.598000", "091025.600000", "091025.603000", "091025.605000", "091025.608000", "091025.610000", "091025.612000", "091025.615000", "091025.617000", "091025.619000", "091025.621000", "091025.624000", "091025.626000", "091025.628000", "091025.631000", "091025.633000", "091025.635000", "091025.637000", "091025.640000", "091105.595000", "091105.598000", "091105.600000", "091105.603000", "091105.605000", "091105.607000", "091105.610000", "091105.612000", "091105.614000", "091105.617000", "091105.619000", "091105.621000", "091105.624000", "091105.626000", "091105.628000", "091105.630000", "091105.633000", "091105.635000", "091105.637000", "091105.640000", "091145.594000", "091145.597000", "091145.599000", "091145.601000", "091145.604000", "091145.606000", "091145.608000", "091145.611000", "091145.613000", "091145.615000", "091145.618000", "091145.620000", "091145.622000", "091145.625000", "091145.627000", "091145.629000", "091145.632000", "091145.634000", "091145.636000", "091145.638000", "091217.180000", "091217.183000", "091217.185000", "091217.188000", "091217.190000", "091217.202000", "091217.204000", "091217.207000", "091217.209000", "091217.211000", "091217.214000", "091217.216000", "091217.219000", "091217.221000", "091217.223000", "091217.226000"],
      "InstanceCreationTime": ["090625.600000", "090625.603000", "090625.606000", "090625.608000", "090625.610000", "090625.612000", "090625.615000", "090625.617000", "090625.619000", "090625.622000", "090625.624000", "090625.626000", "090625.628000", "090625.631000", "090625.633000", "090625.635000", "090625.638000", "090625.640000", "090625.642000", "090625.645000", "090625.647000", "090625.650000", "090625.652000", "090625.654000", "090705.594000", "090705.597000", "090705.599000", "090705.602000", "090705.604000", "090705.606000", "090705.608000", "090705.611000", "090705.613000", "090705.616000", "090705.618000", "090705.620000", "090705.623000", "090705.625000", "090705.627000", "090705.630000", "090705.632000", "090705.634000", "090705.637000", "090705.639000", "090745.594000", "090745.597000", "090745.599000", "090745.601000", "090745.604000", "090745.606000", "090745.608000", "090745.611000", "090745.613000", "090745.615000", "090745.617000", "090745.620000", "090745.622000", "090745.624000", "090745.627000", "090745.629000", "090745.631000", "090745.634000", "090745.636000", "090745.638000", "090825.595000", "090825.598000", "090825.600000", "090825.602000", "090825.605000", "090825.607000", "090825.609000", "090825.612000", "090825.614000", "090825.616000", "090825.619000", "090825.621000", "090825.623000", "090825.625000", "090825.628000", "090825.630000", "090825.632000", "090825.635000", "090825.637000", "090825.639000", "090905.594000", "090905.597000", "090905.599000", "090905.602000", "090905.604000", "090905.606000", "090905.608000", "090905.611000", "090905.613000", "090905.615000", "090905.618000", "090905.620000", "090905.623000", "090905.625000", "090905.627000", "090905.630000", "090905.632000", "090905.634000", "090905.637000", "090905.639000", "090945.594000", "090945.597000", "090945.599000", "090945.602000", "090945.604000", "090945.606000", "090945.608000", "090945.611000", "090945.613000", "090945.615000", "090945.618000", "090945.620000", "090945.622000", "090945.625000", "090945.627000", "090945.629000", "090945.631000", "090945.634000", "090945.636000", "090945.638000", "091025.595000", "091025.598000", "091025.600000", "091025.603000", "091025.605000", "091025.608000", "091025.610000", "091025.612000", "091025.615000", "091025.617000", "091025.619000", "091025.621000", "091025.624000", "091025.626000", "091025.628000", "091025.631000", "091025.633000", "091025.635000", "091025.637000", "091025.640000", "091105.595000", "091105.598000", "091105.600000", "091105.603000", "091105.605000", "091105.607000", "091105.610000", "091105.612000", "091105.614000", "091105.617000", "091105.619000", "091105.621000", "091105.624000", "091105.626000", "091105.628000", "091105.630000", "091105.633000", "091105.635000", "091105.637000", "091105.640000", "091145.594000", "091145.597000", "091145.599000", "091145.601000", "091145.604000", "091145.606000", "091145.608000", "091145.611000", "091145.613000", "091145.615000", "091145.618000", "091145.620000", "091145.622000", "091145.625000", "091145.627000", "091145.629000", "091145.632000", "091145.634000", "091145.636000", "091145.638000", "091217.180000", "091217.183000", "091217.185000", "091217.188000", "091217.190000", "091217.202000", "091217.204000", "091217.207000", "091217.209000", "091217.211000", "091217.214000", "091217.216000", "091217.219000", "091217.221000", "091217.223000", "091217.226000"],
      "InstanceNumber": [1, 2, 3, 4, 5, 6, 7, 8, 9, 10, 11, 12, 13, 14, 15, 16, 17, 18, 19, 20, 21, 22, 23, 24, 25, 26, 27, 28, 29, 30, 31, 32, 33, 34, 35, 36, 37, 38, 39, 40, 41, 42, 43, 44, 45, 46, 47, 48, 49, 50, 51, 52, 53, 54, 55, 56, 57, 58, 59, 60, 61, 62, 63, 64, 65, 66, 67, 68, 69, 70, 71, 72, 73, 74, 75, 76, 77, 78, 79, 80, 81, 82, 83, 84, 85, 86, 87, 88, 89, 90, 91, 92, 93, 94, 95, 96, 97, 98, 99, 100, 101, 102, 103, 104, 105, 106, 107, 108, 109, 110, 111, 112, 113, 114, 115, 116, 117, 118, 119, 120, 121, 122, 123, 124, 125, 126, 127, 128, 129, 130, 131, 132, 133, 134, 135, 136, 137, 138, 139, 140, 141, 142, 143, 144, 145, 146, 147, 148, 149, 150, 151, 152, 153, 154, 155, 156, 157, 158, 159, 160, 161, 162, 163, 164, 165, 166, 167, 168, 169, 170, 171, 172, 173, 174, 175, 176, 177, 178, 179, 180, 181, 182, 183, 184, 185, 186, 187, 188, 189, 190, 191, 192, 193, 194, 195, 196, 197, 198, 199, 200],
      "LargestImagePixelValue": [2285, 2282, 2281, 2285, 2280, 2282, 2282, 2283, 2286, 2281, 2283, 2286, 2281, 2282, 2279, 2285, 2281, 2281, 2285, 2285, 2286, 2282, 2283, 2285, 2282, 2280, 2285, 2282, 2287, 2287, 2283, 2284, 2280, 2282, 2280, 2280, 2283, 2287, 2283, 2281, 2280, 2283, 2287, 2281, 2288, 2285, 2280, 2282, 2288, 2284, 2280, 2286, 2284, 2286, 2283, 2285, 2286, 2286, 2282, 2282, 2285, 2285, 2288, 2284, 2283, 2282, 2283, 2282, 2283, 2285, 2283, 2281, 2283, 2285, 2280, 2282, 2291, 2284, 2284, 2284, 2281, 2279, 2286, 2278, 2285, 2282, 2284, 2282, 2286, 2287, 2283, 2284, 2284, 2282, 2283, 2282, 2285, 2283, 2285, 2286, 2285, 2285, 2286, 2288, 2284, 2282, 2286, 2283, 2282, 2287, 2287, 2283, 2286, 2287, 2286, 2286, 2286, 2286, 2285, 2285, 2286, 2281, 2285, 2285, 2289, 2285, 2287, 2283, 2284, 2284, 2282, 2287, 2283, 2286, 2286, 2279, 2282, 2282, 2283, 2283, 2284, 2290, 2286, 2287, 2286, 2278, 2285, 2283, 2276, 2289, 2283, 2286, 2285, 2279, 2286, 2282, 2287, 2281, 2282, 2286, 2285, 2284, 2283, 2281, 2283, 2285, 2283, 2288, 2286, 2283, 2284, 2283, 2288, 2289, 2286, 2283, 2285, 2286, 2284, 2289, 2282, 2285, 2289, 2285, 2286, 2287, 2285, 2289, 2288, 2286, 2285, 2286, 2285, 2289, 2285, 2284, 2286, 2284, 2288, 2288],
      "WindowCenter": [963.0, 963.0, 964.0, 963.0, 965.0, 964.0, 964.0, 963.0, 964.0, 964.0, 964.0, 963.0, 964.0, 965.0, 963.0, 965.0, 964.0, 964.0, 964.0, 964.0, 963.0, 965.0, 964.0, 965.0, 964.0, 964.0, 964.0, 964.0, 965.0, 964.0, 962.0, 964.0, 964.0, 964.0, 963.0, 962.0, 964.0, 963.0, 964.0, 964.0, 964.0, 962.0, 965.0, 962.0, 964.0, 964.0, 964.0, 963.0, 964.0, 963.0, 964.0, 963.0, 962.0, 964.0, 965.0, 963.0, 964.0, 965.0, 964.0, 965.0, 964.0, 964.0, 962.0, 965.0, 963.0, 964.0, 964.0, 964.0, 964.0, 964.0, 964.0, 964.0, 965.0, 963.0, 964.0, 963.0, 965.0, 964.0, 963.0, 965.0, 965.0, 964.0, 964.0, 964.0, 964.0, 964.0, 964.0, 965.0, 962.0, 964.0, 963.0, 965.0, 964.0, 964.0, 964.0, 964.0, 964.0, 964.0, 964.0, 964.0, 964.0, 965.0, 964.0, 964.0, 964.0, 964.0, 963.0, 964.0, 964.0, 963.0, 962.0, 964.0, 964.0, 963.0, 963.0, 964.0, 965.0, 964.0, 964.0, 965.0, 964.0, 963.0, 964.0, 964.0, 964.0, 965.0, 965.0, 964.0, 964.0, 963.0, 964.0, 963.0, 965.0, 963.0, 963.0, 964.0, 964.0, 964.0, 965.0, 964.0, 963.0, 963.0, 962.0, 963.0, 965.0, 964.0, 964.0, 963.0, 963.0, 964.0, 965.0, 964.0, 964.0, 964.0, 964.0, 964.0, 964.0, 964.0, 964.0, 964.0, 965.0, 964.0, 965.0, 964.0, 963.0, 963.0, 964.0, 964.0, 964.0, 964.0, 964.0, 964.0, 964.0, 964.0, 962.0, 964.0, 965.0, 965.0, 965.0, 964.0, 962.0, 964.0, 964.0, 963.0, 964.0, 964.0, 962.0, 964.0, 964.0, 963.0, 964.0, 964.0, 964.0, 964.0, 964.0, 962.0, 964.0, 964.0, 965.0, 964.0],
      "WindowWidth": [2274.0, 2274.0, 2275.0, 2273.0, 2275.0, 2274.0, 2274.0, 2273.0, 2274.0, 2274.0, 2275.0, 2274.0, 2274.0, 2275.0, 2273.0, 2275.0, 2274.0, 2274.0, 2274.0, 2274.0, 2274.0, 2275.0, 2276.0, 2275.0, 2275.0, 2274.0, 2274.0, 2275.0, 2275.0, 2275.0, 2273.0, 2274.0, 2274.0, 2274.0, 2274.0, 2273.0, 2274.0, 2273.0, 2274.0, 2274.0, 2274.0, 2273.0, 2275.0, 2273.0, 2275.0, 2274.0, 2274.0, 2274.0, 2274.0, 2273.0, 2275.0, 2274.0, 2273.0, 2274.0, 2275.0, 2274.0, 2276.0, 2275.0, 2274.0, 2275.0, 2275.0, 2275.0, 2273.0, 2275.0, 2274.0, 2275.0, 2275.0, 2275.0, 2275.0, 2274.0, 2276.0, 2275.0, 2275.0, 2274.0, 2276.0, 2274.0, 2276.0, 2274.0, 2274.0, 2275.0, 2276.0, 2275.0, 2274.0, 2275.0, 2275.0, 2275.0, 2275.0, 2275.0, 2273.0, 2274.0, 2273.0, 2275.0, 2275.0, 2276.0, 2275.0, 2275.0, 2275.0, 2274.0, 2274.0, 2275.0, 2274.0, 2275.0, 2276.0, 2274.0, 2275.0, 2274.0, 2274.0, 2276.0, 2274.0, 2274.0, 2273.0, 2276.0, 2275.0, 2274.0, 2274.0, 2274.0, 2275.0, 2275.0, 2275.0, 2276.0, 2276.0, 2274.0, 2274.0, 2275.0, 2275.0, 2275.0, 2275.0, 2274.0, 2275.0, 2274.0, 2274.0, 2274.0, 2275.0, 2274.0, 2274.0, 2274.0, 2274.0, 2274.0, 2275.0, 2274.0, 2274.0, 2273.0, 2273.0, 2274.0, 2275.0, 2275.0, 2275.0, 2274.0, 2274.0, 2275.0, 2275.0, 2275.0, 2274.0, 2276.0, 2276.0, 2275.0, 2274.0, 2274.0, 2276.0, 2275.0, 2275.0, 2275.0, 2275.0, 2275.0, 2275.0, 2275.0, 2275.0, 2275.0, 2275.0, 2275.0, 2275.0, 2274.0, 2274.0, 2274.0, 2273.0, 2274.0, 2275.0, 2275.0, 2275.0, 2276.0, 2273.0, 2274.0, 2274.0, 2273.0, 2275.0, 2276.0, 2273.0, 2276.0, 2275.0, 2274.0, 2275.0, 2274.0, 2276.0, 2276.0, 2275.0, 2273.0, 2275.0, 2274.0, 2275.0, 2276.0]
    },
    "slices": {}
  }
}