{
  "AcquisitionMatrixPE": 80,
  "AcquisitionNumber": 1,
  "AcquisitionTime": "09:45:1.175000",
  "BandwidthPerPixelPhaseEncode": 44.643,
  "BaseResolution": 80,
  "BodyPartExamined": "BRAIN",
  "CoilCombinationMethod": "Sum of Squares",
  "ConsistencyInfo": "N4_VE11C_LATEST_20160120",
  "ConversionSoftware": "dcm2niix",
  "ConversionSoftwareVersion": "v1.0.20220720",
  "DerivedVendorReportedEchoSpacing": 0.000559998,
  "DeviceSerialNumber": "66112",
  "DwellTime": 2.7e-06,
  "EchoTime": 0.035,
  "EchoTrainLength": 39,
  "EffectiveEchoSpacing": 0.000279999,
  "FlipAngle": 90,
  "HeudiconvVersion": "0.13.1",
  "ImageOrientationPatientDICOM": [0.984959, 0.172453, 0.0107224, -0.167478, 0.937595, 0.304741],
  "ImageOrientationText": "Tra>Cor(17.6)>Sag(-2.4)",
  "ImageType": [
    "ORIGINAL",
    "PRIMARY",
    "M",
    "ND",
    "NORM",
    "MOSAIC"
],
  "ImagingFrequency": 123.252,
  "InPlanePhaseEncodingDirectionDICOM": "COL",
  "InstitutionAddress": "Maynard 3,Hanover,NH,US,03755",
  "InstitutionName": "Dartmouth College - PBS",
  "InstitutionalDepartmentName": "Department",
  "MRAcquisitionType": "2D",
  "MagneticFieldStrength": 3,
  "Manufacturer": "Siemens",
  "ManufacturersModelName": "Prisma",
  "Modality": "MR",
  "MultibandAccelerationFactor": 4,
  "NonlinearGradientCorrection": false,
  "ParallelReductionFactorInPlane": 2,
  "PartialFourier": 1,
  "PatientPosition": "HFS",
  "PercentPhaseFOV": 100,
  "PercentSampling": 100,
  "PhaseEncodingDirection": "j-",
  "PhaseEncodingSteps": 79,
  "PhaseResolution": 1,
  "PixelBandwidth": 2315,
  "ProcedureStepDescription": "dbic^QA",
  "ProtocolName": "func-bold_task-rest_acq-p2-s4-3.5mm",
  "PulseSequenceDetails": "%SiemensSeq%\\ep2d_bold",
  "ReceiveCoilActiveElements": "HEA;HEP",
  "ReceiveCoilName": "Head_32",
  "ReconMatrixPE": 80,
  "RefLinesPE": 24,
  "RepetitionTime": 2,
  "SAR": 0.0209649,
  "ScanOptions": "FS",
  "ScanningSequence": "EP",
  "SequenceName": "*epfid2d1_80",
  "SequenceVariant": "SK",
  "SeriesDescription": "func-bold_task-rest_acq-p2-s4-3.5mm",
  "SeriesNumber": 7,
  "ShimSetting": [4154, -7705, -7517, 268, -43, -118, -3, 69],
  "SliceThickness": 3.5,
  "SliceTiming": [1.4825, 0, 0.99, 0.2475, 1.235, 0.7425, 1.73, 0.495, 1.4825, 0, 0.99, 0.2475, 1.235, 0.7425, 1.73, 0.495, 1.4825, 0, 0.99, 0.2475, 1.235, 0.7425, 1.73, 0.495, 1.4825, 0, 0.99, 0.2475, 1.235, 0.7425, 1.73, 0.495],
  "SoftwareVersions": "syngo MR E11",
  "SpacingBetweenSlices": 3.99,
  "StationName": "AWP66112",
  "TaskName": "rest",
  "TotalReadoutTime": 0.0221199,
  "TxRefAmp": 224.68,
  "dcmmeta_affine": [
    [-2.954878091812134, -0.5024328231811523, -0.16957595944404602, 143.14578247070312],
    [-0.5173590779304504, 2.8127846717834473, 1.2047934532165527, -98.96577453613281],
    [0.03216719254851341, -0.9142229557037354, 3.799975872039795, -11.955719947814941],
    [0.0, 0.0, 0.0, 1.0]
],
  "dcmmeta_reorient_transform": [
    [0.0, -1.0, 0.0, 79.0],
    [1.0, 0.0, 0.0, 0.0],
    [0.0, 0.0, 1.0, 0.0],
    [0.0, 0.0, 0.0, 1.0]
],
  "dcmmeta_shape": [80, 80, 32, 200],
  "dcmmeta_slice_dim": 2,
  "dcmmeta_version": 0.6,
  "global": {
    "const": {
      "AccessionNumber": "qa",
      "AcquisitionMatrix": [80, 0, 0, 80],
      "AngioFlag": "N",
      "BitsAllocated": 16,
      "BitsStored": 12,
      "BodyPartExamined": "BRAIN",
      "Columns": 480,
      "EchoNumbers": 1,
      "EchoTime": 35.0,
      "EchoTrainLength": 39,
      "FlipAngle": 90.0,
      "HighBit": 11,
      "ImageOrientationPatient": [0.9849593811247, 0.17245303045502, 0.01072239811485, -0.1674776019765, 0.93759489564025, 0.30474097936701],
      "ImagePositionPatient": [-593.94265586617, -789.27297038112, -273.45735844099],
      "ImageType": [
        "ORIGINAL",
        "PRIMARY",
        "M",
        "ND",
        "NORM",
        "MOSAIC"
],
      "ImagedNucleus": "1H",
      "ImagingFrequency": 123.252318,
      "InPlanePhaseEncodingDirection": "COL",
      "MRAcquisitionType": "2D",
      "MagneticFieldStrength": 3.0,
      "Manufacturer": "SIEMENS",
      "ManufacturerModelName": "Prisma",
      "Modality": "MR",
      "NumberOfAverages": 1.0,
      "NumberOfPhaseEncodingSteps": 79,
      "PercentPhaseFieldOfView": 100.0,
      "PercentSampling": 100.0,
      "PerformedProcedureStepStartTime": "093645.894000",
      "PhotometricInterpretation": "MONOCHROME2",
      "PixelBandwidth": 2315.0,
      "PixelRepresentation": 0,
      "PixelSpacing": [3.0, 3.0],
      "ProtocolName": "func-bold_task-rest_acq-p2-s4-3.5mm",
      "RepetitionTime": 2000.0,
      "Rows": 480,
      "SAR": 0.02096491114052,
      "SamplesPerPixel": 1,
      "ScanOptions": "FS",
      "ScanningSequence": "EP",
      "SequenceName": "*epfid2d1_80",
      "SequenceVariant": "SK",
      "SeriesDescription": "func-bold_task-rest_acq-p2-s4-3.5mm",
      "SeriesNumber": 7,
      "SeriesTime": "094547.388000",
      "SliceLocation": -47.353094906166,
      "SliceThickness": 3.5,
      "SmallestImagePixelValue": 0,
      "SoftwareVersions": "syngo MR E11",
      "SpacingBetweenSlices": 3.9899999707077,
      "SpecificCharacterSet": "ISO_IR 100",
      "StudyID": "6",
      "StudyTime": "093645.843000",
      "TransmitCoilName": "Body",
      "VariableFlipAngleFlag": "N",
      "WindowCenterWidthExplanation": "Algo1",
      "dBdt": 0.0},
    "slices": {}
  },
  "time": {
    "samples": {
      "AcquisitionNumber": [1, 2, 3, 4, 5, 6, 7, 8, 9, 10, 11, 12, 13, 14, 15, 16, 17, 18, 19, 20, 21, 22, 23, 24, 25, 26, 27, 28, 29, 30, 31, 32, 33, 34, 35, 36, 37, 38, 39, 40, 41, 42, 43, 44, 45, 46, 47, 48, 49, 50, 51, 52, 53, 54, 55, 56, 57, 58, 59, 60, 61, 62, 63, 64, 65, 66, 67, 68, 69, 70, 71, 72, 73, 74, 75, 76, 77, 78, 79, 80, 81, 82, 83, 84, 85, 86, 87, 88, 89, 90, 91, 92, 93, 94, 95, 96, 97, 98, 99, 100, 101, 102, 103, 104, 105, 106, 107, 108, 109, 110, 111, 112, 113, 114, 115, 116, 117, 118, 119, 120, 121, 122, 123, 124, 125, 126, 127, 128, 129, 130, 131, 132, 133, 134, 135, 136, 137, 138, 139, 140, 141, 142, 143, 144, 145, 146, 147, 148, 149, 150, 151, 152, 153, 154, 155, 156, 157, 158, 159, 160, 161, 162, 163, 164, 165, 166, 167, 168, 169, 170, 171, 172, 173, 174, 175, 176, 177, 178, 179, 180, 181, 182, 183, 184, 185, 186, 187, 188, 189, 190, 191, 192, 193, 194, 195, 196, 197, 198, 199, 200],
      "AcquisitionTime": ["094501.175000", "094503.175000", "094505.175000", "094507.175000", "094509.175000", "094511.175000", "094513.175000", "094515.175000", "094517.175000", "094519.175000", "094521.175000", "094523.175000", "094525.175000", "094527.175000", "094529.175000", "094531.175000", "094533.175000", "094535.175000", "094537.175000", "094539.175000", "094541.175000", "094543.175000", "094545.175000", "094547.175000", "094549.175000", "094551.175000", "094553.175000", "094555.175000", "094557.175000", "094559.175000", "094601.175000", "094603.175000", "094605.175000", "094607.175000", "094609.175000", "094611.175000", "094613.175000", "094615.175000", "094617.175000", "094619.175000", "094621.175000", "094623.175000", "094625.175000", "094627.175000", "094629.175000", "094631.175000", "094633.175000", "094635.175000", "094637.175000", "094639.175000", "094641.175000", "094643.175000", "094645.175000", "094647.175000", "094649.175000", "094651.175000", "094653.175000", "094655.175000", "094657.175000", "094659.175000", "094701.175000", "094703.175000", "094705.175000", "094707.175000", "094709.175000", "094711.175000", "094713.175000", "094715.175000", "094717.175000", "094719.175000", "094721.175000", "094723.175000", "094725.175000", "094727.175000", "094729.175000", "094731.175000", "094733.175000", "094735.175000", "094737.175000", "094739.175000", "094741.175000", "094743.175000", "094745.175000", "094747.175000", "094749.175000", "094751.175000", "094753.175000", "094755.175000", "094757.175000", "094759.175000", "094801.175000", "094803.175000", "094805.175000", "094807.175000", "094809.175000", "094811.175000", "094813.175000", "094815.175000", "094817.175000", "094819.175000", "094821.175000", "094823.175000", "094825.175000", "094827.175000", "094829.175000", "094831.175000", "094833.175000", "094835.175000", "094837.175000", "094839.175000", "094841.175000", "094843.175000", "094845.175000", "094847.175000", "094849.175000", "094851.175000", "094853.175000", "094855.175000", "094857.175000", "094859.175000", "094901.175000", "094903.175000", "094905.175000", "094907.175000", "094909.175000", "094911.175000", "094913.175000", "094915.175000", "094917.175000", "094919.175000", "094921.175000", "094923.175000", "094925.175000", "094927.175000", "094929.175000", "094931.175000", "094933.175000", "094935.175000", "094937.175000", "094939.175000", "094941.175000", "094943.175000", "094945.175000", "094947.175000", "094949.175000", "094951.175000", "094953.175000", "094955.175000", "094957.175000", "094959.175000", "095001.175000", "095003.175000", "095005.175000", "095007.175000", "095009.175000", "095011.175000", "095013.175000", "095015.175000", "095017.175000", "095019.175000", "095021.175000", "095023.175000", "095025.175000", "095027.175000", "095029.175000", "095031.175000", "095033.175000", "095035.175000", "095037.175000", "095039.175000", "095041.175000", "095043.175000", "095045.175000", "095047.175000", "095049.175000", "095051.175000", "095053.175000", "095055.175000", "095057.175000", "095059.175000", "095101.175000", "095103.175000", "095105.175000", "095107.175000", "095109.175000", "095111.175000", "095113.175000", "095115.175000", "095117.175000", "095119.175000", "095121.175000", "095123.175000", "095125.175000", "095127.175000", "095129.175000", "095131.175000", "095133.175000", "095135.175000", "095137.175000", "095139.175000"],
      "ContentTime": ["094547.392000", "094547.395000", "094547.398000", "094547.400000", "094547.403000", "094547.414000", "094547.417000", "094547.419000", "094547.422000", "094547.425000", "094547.427000", "094547.430000", "094547.433000", "094547.435000", "094547.440000", "094547.442000", "094547.445000", "094547.452000", "094547.455000", "094547.458000", "094547.460000", "094547.476000", "094547.479000", "094627.388000", "094627.390000", "094627.393000", "094627.396000", "094627.398000", "094627.401000", "094627.403000", "094627.406000", "094627.409000", "094627.411000", "094627.414000", "094627.416000", "094627.419000", "094627.422000", "094627.424000", "094627.427000", "094627.429000", "094627.432000", "094627.435000", "094627.437000", "094707.386000", "094707.389000", "094707.392000", "094707.395000", "094707.397000", "094707.400000", "094707.403000", "094707.405000", "094707.408000", "094707.410000", "094707.413000", "094707.416000", "094707.418000", "094707.421000", "094707.423000", "094707.426000", "094707.429000", "094707.431000", "094707.434000", "094707.436000", "094747.387000", "094747.389000", "094747.392000", "094747.395000", "094747.397000", "094747.400000", "094747.402000", "094747.405000", "094747.408000", "094747.410000", "094747.413000", "094747.415000", "094747.418000", "094747.421000", "094747.423000", "094747.426000", "094747.429000", "094747.431000", "094747.434000", "094747.436000", "094827.388000", "094827.390000", "094827.393000", "094827.396000", "094827.398000", "094827.401000", "094827.404000", "094827.406000", "094827.409000", "094827.411000", "094827.414000", "094827.417000", "094827.419000", "094827.422000", "094827.424000", "094827.427000", "094827.430000", "094827.432000", "094827.435000", "094827.438000", "094907.388000", "094907.390000", "094907.393000", "094907.396000", "094907.398000", "094907.401000", "094907.404000", "094907.406000", "094907.409000", "094907.411000", "094907.414000", "094907.417000", "094907.419000", "094907.422000", "094907.425000", "094907.427000", "094907.430000", "094907.432000", "094907.435000", "094907.438000", "094947.387000", "094947.389000", "094947.392000", "094947.395000", "094947.398000", "094947.400000", "094947.403000", "094947.405000", "094947.408000", "094947.411000", "094947.413000", "094947.416000", "094947.418000", "094947.421000", "094947.424000", "094947.426000", "094947.436000", "094947.439000", "094947.442000", "094947.444000", "095027.387000", "095027.389000", "095027.392000", "095027.395000", "095027.397000", "095027.400000", "095027.403000", "095027.405000", "095027.408000", "095027.411000", "095027.413000", "095027.416000", "095027.419000", "095027.421000", "095027.424000", "095027.427000", "095027.429000", "095027.432000", "095027.434000", "095027.437000", "095107.388000", "095107.390000", "095107.393000", "095107.396000", "095107.398000", "095107.401000", "095107.403000", "095107.406000", "095107.409000", "095107.412000", "095107.414000", "095107.417000", "095107.419000", "095107.422000", "095107.425000", "095107.427000", "095107.430000", "095107.432000", "095107.435000", "095107.438000", "095140.109000", "095140.112000", "095140.115000", "095140.118000", "095140.120000", "095140.123000", "095140.126000", "095140.128000", "095140.131000", "095140.134000", "095140.136000", "095140.140000", "095140.146000", "095140.150000", "095140.155000", "095140.170000", "095140.175000"],
      "InstanceCreationTime": ["094547.392000", "094547.395000", "094547.398000", "094547.400000", "094547.403000", "094547.414000", "094547.417000", "094547.419000", "094547.422000", "094547.425000", "094547.427000", "094547.430000", "094547.433000", "094547.435000", "094547.440000", "094547.442000", "094547.445000", "094547.452000", "094547.455000", "094547.458000", "094547.460000", "094547.476000", "094547.479000", "094627.388000", "094627.390000", "094627.393000", "094627.396000", "094627.398000", "094627.401000", "094627.403000", "094627.406000", "094627.409000", "094627.411000", "094627.414000", "094627.416000", "094627.419000", "094627.422000", "094627.424000", "094627.427000", "094627.429000", "094627.432000", "094627.435000", "094627.437000", "094707.386000", "094707.389000", "094707.392000", "094707.395000", "094707.397000", "094707.400000", "094707.403000", "094707.405000", "094707.408000", "094707.410000", "094707.413000", "094707.416000", "094707.418000", "094707.421000", "094707.423000", "094707.426000", "094707.429000", "094707.431000", "094707.434000", "094707.436000", "094747.387000", "094747.389000", "094747.392000", "094747.395000", "094747.397000", "094747.400000", "094747.402000", "094747.405000", "094747.408000", "094747.410000", "094747.413000", "094747.415000", "094747.418000", "094747.421000", "094747.423000", "094747.426000", "094747.429000", "094747.431000", "094747.434000", "094747.436000", "094827.388000", "094827.390000", "094827.393000", "094827.396000", "094827.398000", "094827.401000", "094827.404000", "094827.406000", "094827.409000", "094827.411000", "094827.414000", "094827.417000", "094827.419000", "094827.422000", "094827.424000", "094827.427000", "094827.430000", "094827.432000", "094827.435000", "094827.438000", "094907.388000", "094907.390000", "094907.393000", "094907.396000", "094907.398000", "094907.401000", "094907.404000", "094907.406000", "094907.409000", "094907.411000", "094907.414000", "094907.417000", "094907.419000", "094907.422000", "094907.425000", "094907.427000", "094907.430000", "094907.432000", "094907.435000", "094907.438000", "094947.387000", "094947.389000", "094947.392000", "094947.395000", "094947.398000", "094947.400000", "094947.403000", "094947.405000", "094947.408000", "094947.411000", "094947.413000", "094947.416000", "094947.418000", "094947.421000", "094947.424000", "094947.426000", "094947.436000", "094947.439000", "094947.442000", "094947.444000", "095027.387000", "095027.389000", "095027.392000", "095027.395000", "095027.397000", "095027.400000", "095027.403000", "095027.405000", "095027.408000", "095027.411000", "095027.413000", "095027.416000", "095027.419000", "095027.421000", "095027.424000", "095027.427000", "095027.429000", "095027.432000", "095027.434000", "095027.437000", "095107.388000", "095107.390000", "095107.393000", "095107.396000", "095107.398000", "095107.401000", "095107.403000", "095107.406000", "095107.409000", "095107.412000", "095107.414000", "095107.417000", "095107.419000", "095107.422000", "095107.425000", "095107.427000", "095107.430000", "095107.432000", "095107.435000", "095107.438000", "095140.109000", "095140.112000", "095140.115000", "095140.118000", "095140.120000", "095140.123000", "095140.126000", "095140.128000", "095140.131000", "095140.134000", "095140.136000", "095140.140000", "095140.146000", "095140.150000", "095140.155000", "095140.170000", "095140.175000"],
      "InstanceNumber": [1, 2, 3, 4, 5, 6, 7, 8, 9, 10, 11, 12, 13, 14, 15, 16, 17, 18, 19, 20, 21, 22, 23, 24, 25, 26, 27, 28, 29, 30, 31, 32, 33, 34, 35, 36, 37, 38, 39, 40, 41, 42, 43, 44, 45, 46, 47, 48, 49, 50, 51, 52, 53, 54, 55, 56, 57, 58, 59, 60, 61, 62, 63, 64, 65, 66, 67, 68, 69, 70, 71, 72, 73, 74, 75, 76, 77, 78, 79, 80, 81, 82, 83, 84, 85, 86, 87, 88, 89, 90, 91, 92, 93, 94, 95, 96, 97, 98, 99, 100, 101, 102, 103, 104, 105, 106, 107, 108, 109, 110, 111, 112, 113, 114, 115, 116, 117, 118, 119, 120, 121, 122, 123, 124, 125, 126, 127, 128, 129, 130, 131, 132, 133, 134, 135, 136, 137, 138, 139, 140, 141, 142, 143, 144, 145, 146, 147, 148, 149, 150, 151, 152, 153, 154, 155, 156, 157, 158, 159, 160, 161, 162, 163, 164, 165, 166, 167, 168, 169, 170, 171, 172, 173, 174, 175, 176, 177, 178, 179, 180, 181, 182, 183, 184, 185, 186, 187, 188, 189, 190, 191, 192, 193, 194, 195, 196, 197, 198, 199, 200],
      "LargestImagePixelValue": [2031, 2038, 2029, 2031, 2032, 2034, 2032, 2038, 2032, 2031, 2036, 2028, 2032, 2033, 2032, 2033, 2035, 2031, 2032, 2037, 2040, 2034, 2039, 2035, 2037, 2044, 2046, 2041, 2042, 2044, 2055, 2049, 2048, 2051, 2053, 2053, 2056, 2055, 2058, 2056, 2059, 2054, 2055, 2060, 2054, 2058, 2056, 2052, 2059, 2061, 2060, 2062, 2065, 2062, 2068, 2061, 2063, 2066, 2061, 2062, 2064, 2066, 2069, 2067, 2062, 2065, 2063, 2068, 2060, 2063, 2067, 2067, 2056, 2062, 2059, 2074, 2069, 2066, 2068, 2061, 2068, 2057, 2063, 2066, 2064, 2063, 2063, 2061, 2058, 2061, 2056, 2057, 2055, 2058, 2059, 2057, 2062, 2064, 2059, 2061, 2065, 2055, 2055, 2061, 2054, 2050, 2048, 2051, 2050, 2053, 2049, 2051, 2051, 2049, 2049, 2048, 2051, 2050, 2056, 2054, 2045, 2044, 2051, 2049, 2046, 2052, 2044, 2059, 2050, 2049, 2056, 2059, 2052, 2051, 2046, 2053, 2057, 2052, 2057, 2053, 2047, 2050, 2050, 2048, 2048, 2049, 2049, 2046, 2046, 2050, 2058, 2051, 2051, 2052, 2054, 2057, 2051, 2054, 2055, 2054, 2059, 2051, 2052, 2053, 2051, 2059, 2057, 2062, 2061, 2068, 2058, 2063, 2068, 2067, 2061, 2058, 2062, 2061, 2062, 2067, 2069, 2064, 2064, 2067, 2062, 2068, 2068, 2067, 2066, 2067, 2068, 2076, 2068, 2069, 2074, 2066, 2069, 2071, 2068, 2065],
      "WindowCenter": [938.0, 938.0, 938.0, 938.0, 938.0, 938.0, 938.0, 938.0, 938.0, 938.0, 938.0, 938.0, 938.0, 938.0, 938.0, 938.0, 938.0, 938.0, 938.0, 938.0, 938.0, 938.0, 938.0, 938.0, 938.0, 938.0, 938.0, 938.0, 938.0, 938.0, 938.0, 938.0, 938.0, 938.0, 938.0, 938.0, 938.0, 938.0, 938.0, 938.0, 938.0, 938.0, 938.0, 938.0, 938.0, 938.0, 938.0, 938.0, 938.0, 938.0, 938.0, 938.0, 938.0, 938.0, 938.0, 938.0, 938.0, 938.0, 938.0, 938.0, 938.0, 938.0, 938.0, 938.0, 938.0, 938.0, 938.0, 938.0, 938.0, 939.0, 938.0, 938.0, 938.0, 938.0, 938.0, 938.0, 938.0, 938.0, 938.0, 938.0, 939.0, 939.0, 938.0, 938.0, 938.0, 938.0, 938.0, 938.0, 938.0, 938.0, 938.0, 938.0, 938.0, 938.0, 938.0, 938.0, 938.0, 938.0, 938.0, 938.0, 938.0, 938.0, 938.0, 938.0, 938.0, 938.0, 938.0, 938.0, 938.0, 938.0, 938.0, 938.0, 938.0, 938.0, 938.0, 938.0, 938.0, 938.0, 938.0, 938.0, 938.0, 938.0, 938.0, 938.0, 938.0, 938.0, 938.0, 938.0, 938.0, 938.0, 938.0, 938.0, 938.0, 938.0, 938.0, 938.0, 938.0, 938.0, 938.0, 938.0, 938.0, 938.0, 938.0, 938.0, 938.0, 938.0, 938.0, 938.0, 938.0, 938.0, 938.0, 938.0, 938.0, 938.0, 938.0, 938.0, 938.0, 938.0, 938.0, 938.0, 938.0, 938.0, 938.0, 938.0, 938.0, 938.0, 938.0, 938.0, 938.0, 938.0, 938.0, 938.0, 938.0, 938.0, 938.0, 938.0, 938.0, 938.0, 938.0, 938.0, 938.0, 938.0, 938.0, 938.0, 938.0, 938.0, 938.0, 938.0, 938.0, 938.0, 938.0, 938.0, 938.0, 938.0, 938.0, 938.0, 938.0, 938.0, 938.0, 938.0],
      "WindowWidth": [2159.0, 2158.0, 2158.0, 2158.0, 2158.0, 2159.0, 2159.0, 2159.0, 2159.0, 2159.0, 2159.0, 2159.0, 2159.0, 2159.0, 2159.0, 2159.0, 2159.0, 2159.0, 2159.0, 2159.0, 2159.0, 2159.0, 2159.0, 2159.0, 2159.0, 2159.0, 2159.0, 2159.0, 2159.0, 2159.0, 2159.0, 2159.0, 2159.0, 2159.0, 2159.0, 2159.0, 2159.0, 2159.0, 2159.0, 2159.0, 2159.0, 2159.0, 2159.0, 2159.0, 2159.0, 2159.0, 2159.0, 2159.0, 2159.0, 2159.0, 2159.0, 2159.0, 2159.0, 2159.0, 2159.0, 2159.0, 2159.0, 2159.0, 2159.0, 2159.0, 2159.0, 2159.0, 2159.0, 2159.0, 2159.0, 2159.0, 2159.0, 2159.0, 2159.0, 2159.0, 2159.0, 2159.0, 2159.0, 2159.0, 2159.0, 2159.0, 2159.0, 2159.0, 2159.0, 2159.0, 2160.0, 2159.0, 2159.0, 2159.0, 2160.0, 2159.0, 2159.0, 2159.0, 2159.0, 2159.0, 2159.0, 2159.0, 2159.0, 2159.0, 2159.0, 2159.0, 2159.0, 2159.0, 2159.0, 2159.0, 2159.0, 2159.0, 2159.0, 2159.0, 2159.0, 2159.0, 2159.0, 2159.0, 2159.0, 2159.0, 2159.0, 2159.0, 2159.0, 2159.0, 2159.0, 2159.0, 2159.0, 2159.0, 2159.0, 2159.0, 2159.0, 2159.0, 2159.0, 2159.0, 2159.0, 2159.0, 2159.0, 2159.0, 2159.0, 2159.0, 2159.0, 2159.0, 2159.0, 2159.0, 2159.0, 2159.0, 2159.0, 2159.0, 2159.0, 2159.0, 2159.0, 2159.0, 2159.0, 2159.0, 2159.0, 2159.0, 2159.0, 2159.0, 2159.0, 2159.0, 2159.0, 2159.0, 2159.0, 2159.0, 2159.0, 2159.0, 2159.0, 2159.0, 2159.0, 2159.0, 2159.0, 2159.0, 2159.0, 2159.0, 2159.0, 2159.0, 2159.0, 2159.0, 2159.0, 2159.0, 2159.0, 2159.0, 2159.0, 2159.0, 2159.0, 2159.0, 2159.0, 2159.0, 2159.0, 2159.0, 2159.0, 2159.0, 2159.0, 2159.0, 2159.0, 2159.0, 2159.0, 2159.0, 2159.0, 2159.0, 2159.0, 2159.0, 2159.0, 2159.0, 2159.0, 2159.0, 2159.0, 2159.0, 2159.0, 2159.0]
    },
    "slices": {}
  }
}