{
  "AcquisitionMatrixPE": 122,
  "AcquisitionNumber": 1,
  "AcquisitionTime": "10:50:12.065000",
  "BandwidthPerPixelPhaseEncode": 28.76,
  "BaseResolution": 122,
  "BodyPartExamined": "BRAIN",
  "CoilCombinationMethod": "Adaptive Combine",
  "ConsistencyInfo": "N4_VE11C_LATEST_20160120",
  "ConversionSoftware": "dcm2niix",
  "ConversionSoftwareVersion": "v1.0.20220720",
  "DerivedVendorReportedEchoSpacing": 0.000570008,
  "DeviceSerialNumber": "66112",
  "DiffusionScheme": "Monopolar",
  "DwellTime": 2e-06,
  "EchoTime": 0.075,
  "EchoTrainLength": 61,
  "EffectiveEchoSpacing": 0.000285004,
  "FlipAngle": 90,
  "HeudiconvVersion": "0.13.1",
  "ImageOrientationPatientDICOM": [0.98795, 0.154668, 0.00567151, -0.148884, 0.939715, 0.307846],
  "ImageOrientationText": "Tra>Cor(17.8)>Sag(-2.4)",
  "ImageType": [
    "ORIGINAL",
    "PRIMARY",
    "DIFFUSION",
    "NONE",
    "ND",
    "NORM"
],
  "ImagingFrequency": 123.252,
  "InPlanePhaseEncodingDirectionDICOM": "COL",
  "InstitutionAddress": "Maynard 3,Hanover,NH,US,03755",
  "InstitutionName": "Dartmouth College - PBS",
  "InstitutionalDepartmentName": "Department",
  "MRAcquisitionType": "2D",
  "MagneticFieldStrength": 3,
  "Manufacturer": "Siemens",
  "ManufacturersModelName": "Prisma",
  "MatrixCoilMode": "GRAPPA",
  "Modality": "MR",
  "NonlinearGradientCorrection": false,
  "ParallelReductionFactorInPlane": 2,
  "PartialFourier": 1,
  "PatientPosition": "HFS",
  "PercentPhaseFOV": 100,
  "PercentSampling": 100,
  "PhaseEncodingDirection": "j-",
  "PhaseEncodingSteps": 122,
  "PhaseResolution": 1,
  "PixelBandwidth": 2050,
  "ProcedureStepDescription": "dbic^QA",
  "ProtocolName": "dwi_acq-DTI-30-p2",
  "PulseSequenceDetails": "%SiemensSeq%\\ep2d_diff",
  "ReceiveCoilActiveElements": "HEA;HEP",
  "ReceiveCoilName": "Head_32",
  "ReconMatrixPE": 122,
  "RefLinesPE": 38,
  "RepetitionTime": 7.7,
  "SAR": 0.102121,
  "ScanOptions": "FS",
  "ScanningSequence": "EP",
  "SequenceName": "*ep_b0",
  "SequenceVariant": "SK\\SP",
  "SeriesDescription": "dwi_acq-DTI-30-p2",
  "SeriesNumber": 12,
  "ShimSetting": [4141, -7693, -7518, 251, -49, -53, -45, 87],
  "SliceThickness": 2,
  "SliceTiming": [3.83594, 0, 3.94531, 0.10938, 4.05469, 0.21875, 4.17188, 0.32812, 4.28125, 0.4375, 4.38281, 0.54688, 4.49219, 0.65625, 4.60938, 0.76562, 4.71875, 0.875, 4.82812, 0.98438, 4.9375, 1.09375, 5.04688, 1.20312, 5.15625, 1.3125, 5.26562, 1.42969, 5.375, 1.53125, 5.48438, 1.64062, 5.59375, 1.75, 5.70312, 1.86719, 5.8125, 1.97656, 5.92188, 2.08594, 6.03125, 2.19531, 6.14062, 2.30469, 6.25, 2.41406, 6.35938, 2.52344, 6.46875, 2.63281, 6.57812, 2.74219, 6.6875, 2.85156, 6.80469, 2.96094, 6.91406, 3.07031, 7.02344, 3.17969, 7.125, 3.28906, 7.24219, 3.39844, 7.35156, 3.50781, 7.46094, 3.61719, 7.57031, 3.72656],
  "SoftwareVersions": "syngo MR E11",
  "SpacingBetweenSlices": 2,
  "SpoilingState": true,
  "StationName": "AWP66112",
  "TotalReadoutTime": 0.0344855,
  "TxRefAmp": 221.679,
  "dcmmeta_affine": [
    [-1.943508505821228, -0.2928871810436249, -0.08456873893737793, 140.50106811523438],
    [-0.30426591634750366, 1.848620057106018, 0.6099605560302734, -117.32708740234375],
    [0.011157075874507427, -0.6055978536605835, 1.9028396606445312, -29.127317428588867],
    [0.0, 0.0, 0.0, 1.0]
],
  "dcmmeta_reorient_transform": [
    [0.0, -1.0, 0.0, 121.0],
    [1.0, 0.0, 0.0, 0.0],
    [0.0, 0.0, -1.0, 69.0],
    [0.0, 0.0, 0.0, 1.0]
],
  "dcmmeta_shape": [122, 122, 70, 31],
  "dcmmeta_slice_dim": 2,
  "dcmmeta_version": 0.6,
  "global": {
    "const": {
      "AccessionNumber": "qa",
      "AcquisitionMatrix": [122, 0, 0, 122],
      "AngioFlag": "N",
      "BitsAllocated": 16,
      "BitsStored": 12,
      "BodyPartExamined": "BRAIN",
      "Columns": 122,
      "EchoNumbers": 1,
      "EchoTime": 75.0,
      "EchoTrainLength": 61,
      "FlipAngle": 90.0,
      "HighBit": 11,
      "ImageOrientationPatient": [0.98795014527021, 0.15466849839629, 0.00567151341412, -0.148884315547, 0.93971514781481, 0.30784558069182],
      "ImageType": [
        "ORIGINAL",
        "PRIMARY",
        "DIFFUSION",
        "NONE",
        "ND",
        "NORM"
],
      "ImagedNucleus": "1H",
      "ImagingFrequency": 123.252356,
      "InPlanePhaseEncodingDirection": "COL",
      "MRAcquisitionType": "2D",
      "MagneticFieldStrength": 3.0,
      "Manufacturer": "SIEMENS",
      "ManufacturerModelName": "Prisma",
      "Modality": "MR",
      "NumberOfAverages": 1.0,
      "NumberOfPhaseEncodingSteps": 122,
      "PercentPhaseFieldOfView": 100.0,
      "PercentSampling": 100.0,
      "PerformedProcedureStepStartTime": "101559.488000",
      "PhotometricInterpretation": "MONOCHROME2",
      "PixelBandwidth": 2050.0,
      "PixelRepresentation": 0,
      "PixelSpacing": [1.9672131538391, 1.9672131538391],
      "ProtocolName": "dwi_acq-DTI-30-p2",
      "RepetitionTime": 7700.0,
      "Rows": 122,
      "SAR": 0.10212094563627,
      "SamplesPerPixel": 1,
      "ScanOptions": "FS",
      "ScanningSequence": "EP",
      "SequenceVariant": [
        "SK",
        "SP"
],
      "SeriesDescription": "dwi_acq-DTI-30-p2",
      "SeriesNumber": 12,
      "SeriesTime": "105027.812000",
      "SliceThickness": 2.0,
      "SmallestImagePixelValue": 0,
      "SoftwareVersions": "syngo MR E11",
      "SpacingBetweenSlices": 2.0,
      "SpecificCharacterSet": "ISO_IR 100",
      "StudyID": "25",
      "StudyTime": "101559.434000",
      "TransmitCoilName": "Body",
      "VariableFlipAngleFlag": "N",
      "WindowCenterWidthExplanation": "Algo1",
      "dBdt": 0.0},
    "slices": {
      "AcquisitionTime": ["105012.065000", "105008.225000", "105012.175000", "105008.335000", "105012.285000", "105008.445000", "105012.395000", "105008.555000", "105012.505000", "105008.665000", "105012.612500", "105008.772500", "105012.722500", "105008.882500", "105012.832500", "105008.992500", "105012.942500", "105009.102500", "105013.052500", "105009.212500", "105013.162500", "105009.322500", "105013.272500", "105009.432500", "105013.382500", "105009.542500", "105013.490000", "105009.652500", "105013.600000", "105009.760000", "105013.710000", "105009.870000", "105013.820000", "105009.980000", "105013.930000", "105010.090000", "105014.040000", "105010.200000", "105014.150000", "105010.310000", "105014.260000", "105010.420000", "105014.370000", "105010.530000", "105014.477500", "105010.637500", "105014.587500", "105010.747500", "105014.697500", "105010.857500", "105014.807500", "105010.967500", "105014.917500", "105011.077500", "105015.027500", "105011.187500", "105015.137500", "105011.297500", "105015.247500", "105011.407500", "105015.355000", "105011.517500", "105015.465000", "105011.625000", "105015.575000", "105011.735000", "105015.685000", "105011.845000", "105015.795000", "105011.955000", "105019.765000", "105015.925000", "105019.875000", "105016.035000", "105019.985000", "105016.145000", "105020.095000", "105016.255000", "105020.205000", "105016.365000", "105020.312500", "105016.472500", "105020.422500", "105016.582500", "105020.532500", "105016.692500", "105020.642500", "105016.802500", "105020.752500", "105016.912500", "105020.862500", "105017.022500", "105020.972500", "105017.132500", "105021.082500", "105017.242500", "105021.190000", "105017.352500", "105021.300000", "105017.460000", "105021.410000", "105017.570000", "105021.520000", "105017.680000", "105021.630000", "105017.790000", "105021.740000", "105017.900000", "105021.850000", "105018.010000", "105021.960000", "105018.120000", "105022.070000", "105018.230000", "105022.177500", "105018.337500", "105022.287500", "105018.447500", "105022.397500", "105018.557500", "105022.507500", "105018.667500", "105022.617500", "105018.777500", "105022.727500", "105018.887500", "105022.837500", "105018.997500", "105022.947500", "105019.107500", "105023.055000", "105019.217500", "105023.165000", "105019.325000", "105023.275000", "105019.435000", "105023.385000", "105019.545000", "105023.495000", "105019.655000", "105027.465000", "105023.625000", "105027.575000", "105023.735000", "105027.685000", "105023.845000", "105027.795000", "105023.955000", "105027.905000", "105024.065000", "105028.012500", "105024.172500", "105028.122500", "105024.282500", "105028.232500", "105024.392500", "105028.342500", "105024.502500", "105028.452500", "105024.612500", "105028.562500", "105024.722500", "105028.672500", "105024.832500", "105028.782500", "105024.942500", "105028.890000", "105025.052500", "105029.000000", "105025.160000", "105029.110000", "105025.270000", "105029.220000", "105025.380000", "105029.330000", "105025.490000", "105029.440000", "105025.600000", "105029.550000", "105025.710000", "105029.660000", "105025.820000", "105029.770000", "105025.930000", "105029.877500", "105026.037500", "105029.987500", "105026.147500", "105030.097500", "105026.257500", "105030.207500", "105026.367500", "105030.317500", "105026.477500", "105030.427500", "105026.587500", "105030.537500", "105026.697500", "105030.647500", "105026.807500", "105030.755000", "105026.917500", "105030.865000", "105027.025000", "105030.975000", "105027.135000", "105031.085000", "105027.245000", "105031.195000", "105027.355000", "105035.165000", "105031.325000", "105035.275000", "105031.435000", "105035.385000", "105031.545000", "105035.495000", "105031.655000", "105035.605000", "105031.765000", "105035.712500", "105031.872500", "105035.822500", "105031.982500", "105035.932500", "105032.092500", "105036.042500", "105032.202500", "105036.152500", "105032.312500", "105036.262500", "105032.422500", "105036.372500", "105032.532500", "105036.482500", "105032.642500", "105036.590000", "105032.752500", "105036.700000", "105032.860000", "105036.810000", "105032.970000", "105036.920000", "105033.080000", "105037.030000", "105033.190000", "105037.140000", "105033.300000", "105037.250000", "105033.410000", "105037.360000", "105033.520000", "105037.470000", "105033.630000", "105037.577500", "105033.737500", "105037.687500", "105033.847500", "105037.797500", "105033.957500", "105037.907500", "105034.067500", "105038.017500", "105034.177500", "105038.127500", "105034.287500", "105038.237500", "105034.397500", "105038.347500", "105034.507500", "105038.455000", "105034.617500", "105038.565000", "105034.725000", "105038.675000", "105034.835000", "105038.785000", "105034.945000", "105038.895000", "105035.055000", "105042.865000", "105039.025000", "105042.975000", "105039.135000", "105043.085000", "105039.245000", "105043.195000", "105039.355000", "105043.305000", "105039.465000", "105043.412500", "105039.572500", "105043.522500", "105039.682500", "105043.632500", "105039.792500", "105043.742500", "105039.902500", "105043.852500", "105040.012500", "105043.962500", "105040.122500", "105044.072500", "105040.232500", "105044.182500", "105040.342500", "105044.290000", "105040.452500", "105044.400000", "105040.560000", "105044.510000", "105040.670000", "105044.620000", "105040.780000", "105044.730000", "105040.890000", "105044.840000", "105041.000000", "105044.950000", "105041.110000", "105045.060000", "105041.220000", "105045.170000", "105041.330000", "105045.277500", "105041.437500", "105045.387500", "105041.547500", "105045.497500", "105041.657500", "105045.607500", "105041.767500", "105045.717500", "105041.877500", "105045.827500", "105041.987500", "105045.937500", "105042.097500", "105046.047500", "105042.207500", "105046.155000", "105042.317500", "105046.265000", "105042.425000", "105046.375000", "105042.535000", "105046.485000", "105042.645000", "105046.595000", "105042.755000", "105050.565000", "105046.725000", "105050.675000", "105046.835000", "105050.785000", "105046.945000", "105050.895000", "105047.055000", "105051.005000", "105047.165000", "105051.112500", "105047.272500", "105051.222500", "105047.382500", "105051.332500", "105047.492500", "105051.442500", "105047.602500", "105051.552500", "105047.712500", "105051.662500", "105047.822500", "105051.772500", "105047.932500", "105051.882500", "105048.042500", "105051.990000", "105048.152500", "105052.100000", "105048.260000", "105052.210000", "105048.370000", "105052.320000", "105048.480000", "105052.430000", "105048.590000", "105052.540000", "105048.700000", "105052.650000", "105048.810000", "105052.760000", "105048.920000", "105052.870000", "105049.030000", "105052.977500", "105049.137500", "105053.087500", "105049.247500", "105053.197500", "105049.357500", "105053.307500", "105049.467500", "105053.417500", "105049.577500", "105053.527500", "105049.687500", "105053.637500", "105049.797500", "105053.747500", "105049.907500", "105053.855000", "105050.017500", "105053.965000", "105050.125000", "105054.075000", "105050.235000", "105054.185000", "105050.345000", "105054.295000", "105050.455000", "105058.265000", "105054.425000", "105058.375000", "105054.535000", "105058.485000", "105054.645000", "105058.595000", "105054.755000", "105058.705000", "105054.865000", "105058.812500", "105054.972500", "105058.922500", "105055.082500", "105059.032500", "105055.192500", "105059.142500", "105055.302500", "105059.252500", "105055.412500", "105059.362500", "105055.522500", "105059.472500", "105055.632500", "105059.582500", "105055.742500", "105059.690000", "105055.852500", "105059.800000", "105055.960000", "105059.910000", "105056.070000", "105100.020000", "105056.180000", "105100.130000", "105056.290000", "105100.240000", "105056.400000", "105100.350000", "105056.510000", "105100.460000", "105056.620000", "105100.570000", "105056.730000", "105100.677500", "105056.837500", "105100.787500", "105056.947500", "105100.897500", "105057.057500", "105101.007500", "105057.167500", "105101.117500", "105057.277500", "105101.227500", "105057.387500", "105101.337500", "105057.497500", "105101.447500", "105057.607500", "105101.555000", "105057.717500", "105101.665000", "105057.825000", "105101.775000", "105057.935000", "105101.885000", "105058.045000", "105101.995000", "105058.155000", "105105.965000", "105102.125000", "105106.075000", "105102.235000", "105106.185000", "105102.345000", "105106.295000", "105102.455000", "105106.405000", "105102.565000", "105106.512500", "105102.672500", "105106.622500", "105102.782500", "105106.732500", "105102.892500", "105106.842500", "105103.002500", "105106.952500", "105103.112500", "105107.062500", "105103.222500", "105107.172500", "105103.332500", "105107.282500", "105103.442500", "105107.390000", "105103.552500", "105107.500000", "105103.660000", "105107.610000", "105103.770000", "105107.720000", "105103.880000", "105107.830000", "105103.990000", "105107.940000", "105104.100000", "105108.050000", "105104.210000", "105108.160000", "105104.320000", "105108.270000", "105104.430000", "105108.377500", "105104.537500", "105108.487500", "105104.647500", "105108.597500", "105104.757500", "105108.707500", "105104.867500", "105108.817500", "105104.977500", "105108.927500", "105105.087500", "105109.037500", "105105.197500", "105109.147500", "105105.307500", "105109.255000", "105105.417500", "105109.365000", "105105.525000", "105109.475000", "105105.635000", "105109.585000", "105105.745000", "105109.695000", "105105.855000", "105113.665000", "105109.825000", "105113.775000", "105109.935000", "105113.885000", "105110.045000", "105113.995000", "105110.155000", "105114.105000", "105110.265000", "105114.212500", "105110.372500", "105114.322500", "105110.482500", "105114.432500", "105110.592500", "105114.542500", "105110.702500", "105114.652500", "105110.812500", "105114.762500", "105110.922500", "105114.872500", "105111.032500", "105114.982500", "105111.142500", "105115.090000", "105111.252500", "105115.200000", "105111.360000", "105115.310000", "105111.470000", "105115.420000", "105111.580000", "105115.530000", "105111.690000", "105115.640000", "105111.800000", "105115.750000", "105111.910000", "105115.860000", "105112.020000", "105115.970000", "105112.130000", "105116.077500", "105112.237500", "105116.187500", "105112.347500", "105116.297500", "105112.457500", "105116.407500", "105112.567500", "105116.517500", "105112.677500", "105116.627500", "105112.787500", "105116.737500", "105112.897500", "105116.847500", "105113.007500", "105116.955000", "105113.117500", "105117.065000", "105113.225000", "105117.175000", "105113.335000", "105117.285000", "105113.445000", "105117.395000", "105113.555000", "105121.365000", "105117.525000", "105121.475000", "105117.635000", "105121.585000", "105117.745000", "105121.695000", "105117.855000", "105121.805000", "105117.965000", "105121.912500", "105118.072500", "105122.022500", "105118.182500", "105122.132500", "105118.292500", "105122.242500", "105118.402500", "105122.352500", "105118.512500", "105122.462500", "105118.622500", "105122.572500", "105118.732500", "105122.682500", "105118.842500", "105122.790000", "105118.952500", "105122.900000", "105119.060000", "105123.010000", "105119.170000", "105123.120000", "105119.280000", "105123.230000", "105119.390000", "105123.340000", "105119.500000", "105123.450000", "105119.610000", "105123.560000", "105119.720000", "105123.670000", "105119.830000", "105123.777500", "105119.937500", "105123.887500", "105120.047500", "105123.997500", "105120.157500", "105124.107500", "105120.267500", "105124.217500", "105120.377500", "105124.327500", "105120.487500", "105124.437500", "105120.597500", "105124.547500", "105120.707500", "105124.655000", "105120.817500", "105124.765000", "105120.925000", "105124.875000", "105121.035000", "105124.985000", "105121.145000", "105125.095000", "105121.255000", "105129.065000", "105125.225000", "105129.175000", "105125.335000", "105129.285000", "105125.445000", "105129.395000", "105125.555000", "105129.505000", "105125.665000", "105129.612500", "105125.772500", "105129.722500", "105125.882500", "105129.832500", "105125.992500", "105129.942500", "105126.102500", "105130.052500", "105126.212500", "105130.162500", "105126.322500", "105130.272500", "105126.432500", "105130.382500", "105126.542500", "105130.490000", "105126.652500", "105130.600000", "105126.760000", "105130.710000", "105126.870000", "105130.820000", "105126.980000", "105130.930000", "105127.090000", "105131.040000", "105127.200000", "105131.150000", "105127.310000", "105131.260000", "105127.420000", "105131.370000", "105127.530000", "105131.477500", "105127.637500", "105131.587500", "105127.747500", "105131.697500", "105127.857500", "105131.807500", "105127.967500", "105131.917500", "105128.077500", "105132.027500", "105128.187500", "105132.137500", "105128.297500", "105132.247500", "105128.407500", "105132.355000", "105128.517500", "105132.465000", "105128.625000", "105132.575000", "105128.735000", "105132.685000", "105128.845000", "105132.795000", "105128.955000", "105136.765000", "105132.925000", "105136.875000", "105133.035000", "105136.985000", "105133.145000", "105137.095000", "105133.255000", "105137.205000", "105133.365000", "105137.312500", "105133.472500", "105137.422500", "105133.582500", "105137.532500", "105133.692500", "105137.642500", "105133.802500", "105137.752500", "105133.912500", "105137.862500", "105134.022500", "105137.972500", "105134.132500", "105138.082500", "105134.242500", "105138.190000", "105134.352500", "105138.300000", "105134.460000", "105138.410000", "105134.570000", "105138.520000", "105134.680000", "105138.630000", "105134.790000", "105138.740000", "105134.900000", "105138.850000", "105135.010000", "105138.960000", "105135.120000", "105139.070000", "105135.230000", "105139.177500", "105135.337500", "105139.287500", "105135.447500", "105139.397500", "105135.557500", "105139.507500", "105135.667500", "105139.617500", "105135.777500", "105139.727500", "105135.887500", "105139.837500", "105135.997500", "105139.947500", "105136.107500", "105140.055000", "105136.217500", "105140.165000", "105136.325000", "105140.275000", "105136.435000", "105140.385000", "105136.545000", "105140.495000", "105136.655000", "105144.465000", "105140.625000", "105144.575000", "105140.735000", "105144.685000", "105140.845000", "105144.795000", "105140.955000", "105144.905000", "105141.065000", "105145.012500", "105141.172500", "105145.122500", "105141.282500", "105145.232500", "105141.392500", "105145.342500", "105141.502500", "105145.452500", "105141.612500", "105145.562500", "105141.722500", "105145.672500", "105141.832500", "105145.782500", "105141.942500", "105145.890000", "105142.052500", "105146.000000", "105142.160000", "105146.110000", "105142.270000", "105146.220000", "105142.380000", "105146.330000", "105142.490000", "105146.440000", "105142.600000", "105146.550000", "105142.710000", "105146.660000", "105142.820000", "105146.770000", "105142.930000", "105146.877500", "105143.037500", "105146.987500", "105143.147500", "105147.097500", "105143.257500", "105147.207500", "105143.367500", "105147.317500", "105143.477500", "105147.427500", "105143.587500", "105147.537500", "105143.697500", "105147.647500", "105143.807500", "105147.755000", "105143.917500", "105147.865000", "105144.025000", "105147.975000", "105144.135000", "105148.085000", "105144.245000", "105148.195000", "105144.355000", "105152.165000", "105148.325000", "105152.275000", "105148.435000", "105152.385000", "105148.545000", "105152.495000", "105148.655000", "105152.605000", "105148.765000", "105152.712500", "105148.872500", "105152.822500", "105148.982500", "105152.932500", "105149.092500", "105153.042500", "105149.202500", "105153.152500", "105149.312500", "105153.262500", "105149.422500", "105153.372500", "105149.532500", "105153.482500", "105149.642500", "105153.590000", "105149.752500", "105153.700000", "105149.860000", "105153.810000", "105149.970000", "105153.920000", "105150.080000", "105154.030000", "105150.190000", "105154.140000", "105150.300000", "105154.250000", "105150.410000", "105154.360000", "105150.520000", "105154.470000", "105150.630000", "105154.577500", "105150.737500", "105154.687500", "105150.847500", "105154.797500", "105150.957500", "105154.907500", "105151.067500", "105155.017500", "105151.177500", "105155.127500", "105151.287500", "105155.237500", "105151.397500", "105155.347500", "105151.507500", "105155.455000", "105151.617500", "105155.565000", "105151.725000", "105155.675000", "105151.835000", "105155.785000", "105151.945000", "105155.895000", "105152.055000", "105159.865000", "105156.025000", "105159.975000", "105156.135000", "105200.085000", "105156.245000", "105200.195000", "105156.355000", "105200.305000", "105156.465000", "105200.412500", "105156.572500", "105200.522500", "105156.682500", "105200.632500", "105156.792500", "105200.742500", "105156.902500", "105200.852500", "105157.012500", "105200.962500", "105157.122500", "105201.072500", "105157.232500", "105201.182500", "105157.342500", "105201.290000", "105157.452500", "105201.400000", "105157.560000", "105201.510000", "105157.670000", "105201.620000", "105157.780000", "105201.730000", "105157.890000", "105201.840000", "105158.000000", "105201.950000", "105158.110000", "105202.060000", "105158.220000", "105202.170000", "105158.330000", "105202.277500", "105158.437500", "105202.387500", "105158.547500", "105202.497500", "105158.657500", "105202.607500", "105158.767500", "105202.717500", "105158.877500", "105202.827500", "105158.987500", "105202.937500", "105159.097500", "105203.047500", "105159.207500", "105203.155000", "105159.317500", "105203.265000", "105159.425000", "105203.375000", "105159.535000", "105203.485000", "105159.645000", "105203.595000", "105159.755000", "105207.565000", "105203.725000", "105207.675000", "105203.835000", "105207.785000", "105203.945000", "105207.895000", "105204.055000", "105208.005000", "105204.165000", "105208.112500", "105204.272500", "105208.222500", "105204.382500", "105208.332500", "105204.492500", "105208.442500", "105204.602500", "105208.552500", "105204.712500", "105208.662500", "105204.822500", "105208.772500", "105204.932500", "105208.882500", "105205.042500", "105208.990000", "105205.152500", "105209.100000", "105205.260000", "105209.210000", "105205.370000", "105209.320000", "105205.480000", "105209.430000", "105205.590000", "105209.540000", "105205.700000", "105209.650000", "105205.810000", "105209.760000", "105205.920000", "105209.870000", "105206.030000", "105209.977500", "105206.137500", "105210.087500", "105206.247500", "105210.197500", "105206.357500", "105210.307500", "105206.467500", "105210.417500", "105206.577500", "105210.527500", "105206.687500", "105210.637500", "105206.797500", "105210.747500", "105206.907500", "105210.855000", "105207.017500", "105210.965000", "105207.125000", "105211.075000", "105207.235000", "105211.185000", "105207.345000", "105211.295000", "105207.455000", "105215.265000", "105211.425000", "105215.375000", "105211.535000", "105215.485000", "105211.645000", "105215.595000", "105211.755000", "105215.705000", "105211.865000", "105215.812500", "105211.972500", "105215.922500", "105212.082500", "105216.032500", "105212.192500", "105216.142500", "105212.302500", "105216.252500", "105212.412500", "105216.362500", "105212.522500", "105216.472500", "105212.632500", "105216.582500", "105212.742500", "105216.690000", "105212.852500", "105216.800000", "105212.960000", "105216.910000", "105213.070000", "105217.020000", "105213.180000", "105217.130000", "105213.290000", "105217.240000", "105213.400000", "105217.350000", "105213.510000", "105217.460000", "105213.620000", "105217.570000", "105213.730000", "105217.677500", "105213.837500", "105217.787500", "105213.947500", "105217.897500", "105214.057500", "105218.007500", "105214.167500", "105218.117500", "105214.277500", "105218.227500", "105214.387500", "105218.337500", "105214.497500", "105218.447500", "105214.607500", "105218.555000", "105214.717500", "105218.665000", "105214.825000", "105218.775000", "105214.935000", "105218.885000", "105215.045000", "105218.995000", "105215.155000", "105222.965000", "105219.125000", "105223.075000", "105219.235000", "105223.185000", "105219.345000", "105223.295000", "105219.455000", "105223.405000", "105219.565000", "105223.512500", "105219.672500", "105223.622500", "105219.782500", "105223.732500", "105219.892500", "105223.842500", "105220.002500", "105223.952500", "105220.112500", "105224.062500", "105220.222500", "105224.172500", "105220.332500", "105224.282500", "105220.442500", "105224.390000", "105220.552500", "105224.500000", "105220.660000", "105224.610000", "105220.770000", "105224.720000", "105220.880000", "105224.830000", "105220.990000", "105224.940000", "105221.100000", "105225.050000", "105221.210000", "105225.160000", "105221.320000", "105225.270000", "105221.430000", "105225.377500", "105221.537500", "105225.487500", "105221.647500", "105225.597500", "105221.757500", "105225.707500", "105221.867500", "105225.817500", "105221.977500", "105225.927500", "105222.087500", "105226.037500", "105222.197500", "105226.147500", "105222.307500", "105226.255000", "105222.417500", "105226.365000", "105222.525000", "105226.475000", "105222.635000", "105226.585000", "105222.745000", "105226.695000", "105222.855000", "105230.665000", "105226.825000", "105230.775000", "105226.935000", "105230.885000", "105227.045000", "105230.995000", "105227.155000", "105231.105000", "105227.265000", "105231.212500", "105227.372500", "105231.322500", "105227.482500", "105231.432500", "105227.592500", "105231.542500", "105227.702500", "105231.652500", "105227.812500", "105231.762500", "105227.922500", "105231.872500", "105228.032500", "105231.982500", "105228.142500", "105232.090000", "105228.252500", "105232.200000", "105228.360000", "105232.310000", "105228.470000", "105232.420000", "105228.580000", "105232.530000", "105228.690000", "105232.640000", "105228.800000", "105232.750000", "105228.910000", "105232.860000", "105229.020000", "105232.970000", "105229.130000", "105233.077500", "105229.237500", "105233.187500", "105229.347500", "105233.297500", "105229.457500", "105233.407500", "105229.567500", "105233.517500", "105229.677500", "105233.627500", "105229.787500", "105233.737500", "105229.897500", "105233.847500", "105230.007500", "105233.955000", "105230.117500", "105234.065000", "105230.225000", "105234.175000", "105230.335000", "105234.285000", "105230.445000", "105234.395000", "105230.555000", "105238.365000", "105234.525000", "105238.475000", "105234.635000", "105238.585000", "105234.745000", "105238.695000", "105234.855000", "105238.805000", "105234.965000", "105238.912500", "105235.072500", "105239.022500", "105235.182500", "105239.132500", "105235.292500", "105239.242500", "105235.402500", "105239.352500", "105235.512500", "105239.462500", "105235.622500", "105239.572500", "105235.732500", "105239.682500", "105235.842500", "105239.790000", "105235.952500", "105239.900000", "105236.060000", "105240.010000", "105236.170000", "105240.120000", "105236.280000", "105240.230000", "105236.390000", "105240.340000", "105236.500000", "105240.450000", "105236.610000", "105240.560000", "105236.720000", "105240.670000", "105236.830000", "105240.777500", "105236.937500", "105240.887500", "105237.047500", "105240.997500", "105237.157500", "105241.107500", "105237.267500", "105241.217500", "105237.377500", "105241.327500", "105237.487500", "105241.437500", "105237.597500", "105241.547500", "105237.707500", "105241.655000", "105237.817500", "105241.765000", "105237.925000", "105241.875000", "105238.035000", "105241.985000", "105238.145000", "105242.095000", "105238.255000", "105246.065000", "105242.225000", "105246.175000", "105242.335000", "105246.285000", "105242.445000", "105246.395000", "105242.555000", "105246.505000", "105242.665000", "105246.612500", "105242.772500", "105246.722500", "105242.882500", "105246.832500", "105242.992500", "105246.942500", "105243.102500", "105247.052500", "105243.212500", "105247.162500", "105243.322500", "105247.272500", "105243.432500", "105247.382500", "105243.542500", "105247.490000", "105243.652500", "105247.600000", "105243.760000", "105247.710000", "105243.870000", "105247.820000", "105243.980000", "105247.930000",