{
  "AcquisitionMatrixPE": 80,
  "AcquisitionNumber": 1,
  "AcquisitionTime": "10:08:24.477500",
  "BandwidthPerPixelPhaseEncode": 25,
  "BaseResolution": 80,
  "BodyPartExamined": "BRAIN",
  "CoilCombinationMethod": "Sum of Squares",
  "ConsistencyInfo": "N4_VE11E_LATEST_20181129",
  "ConversionSoftware": "dcm2niix",
  "ConversionSoftwareVersion": "v1.0.20220720",
  "DerivedVendorReportedEchoSpacing": 0.0005,
  "DeviceSerialNumber": "66112",
  "DwellTime": 2.7e-06,
  "EchoTime": 0.03,
  "EchoTrainLength": 80,
  "EffectiveEchoSpacing": 0.0005,
  "FlipAngle": 10,
  "HeudiconvVersion": "0.13.1",
  "ImageOrientationPatientDICOM": [0.996308, -0.0855116, 0.00763279, 0.079286, 0.95057, 0.300218],
  "ImageOrientationText": "Tra>Cor(17.4)>Sag(1.9)",
  "ImageType": [
    "ORIGINAL",
    "PRIMARY",
    "M",
    "ND",
    "NORM",
    "MOSAIC"
],
  "ImagingFrequency": 123.259,
  "InPlanePhaseEncodingDirectionDICOM": "COL",
  "InstitutionAddress": "Maynard 3,Hanover,NH,US,03755",
  "InstitutionName": "Dartmouth College - PBS",
  "InstitutionalDepartmentName": "Department",
  "MRAcquisitionType": "2D",
  "MagneticFieldStrength": 3,
  "Manufacturer": "Siemens",
  "ManufacturersModelName": "Prisma",
  "MatrixCoilMode": "SENSE",
  "Modality": "MR",
  "NonlinearGradientCorrection": false,
  "PartialFourier": 1,
  "PatientPosition": "HFS",
  "PercentPhaseFOV": 100,
  "PercentSampling": 100,
  "PhaseEncodingDirection": "j-",
  "PhaseEncodingSteps": 80,
  "PhaseResolution": 1,
  "PixelBandwidth": 2315,
  "ProcedureStepDescription": "dbic^QA",
  "ProtocolName": "func-bold_fa-10",
  "PulseSequenceDetails": "%SiemensSeq%\\ep2d_bold",
  "ReceiveCoilActiveElements": "HEA;HEP",
  "ReceiveCoilName": "Head_32",
  "ReconMatrixPE": 80,
  "RepetitionTime": 2,
  "SAR": 0.0116269,
  "ScanOptions": "FS",
  "ScanningSequence": "EP",
  "SequenceName": "*epfid2d1_80",
  "SequenceVariant": "SK",
  "SeriesDescription": "func-bold_fa-10",
  "SeriesNumber": 10,
  "ShimSetting": [4220, -7736, -7479, 26, -144, -51, 2, 61],
  "SliceThickness": 3.5,
  "SliceTiming": [0.99, 0, 1.055, 0.065, 1.12, 0.13, 1.1875, 0.1975, 1.2525, 0.2625, 1.32, 0.33, 1.385, 0.395, 1.45, 0.46, 1.5175, 0.5275, 1.5825, 0.5925, 1.65, 0.66, 1.715, 0.725, 1.78, 0.79, 1.8475, 0.8575, 1.9125, 0.9225],
  "SoftwareVersions": "syngo MR E11",
  "SpacingBetweenSlices": 3.99,
  "StationName": "AWP66112",
  "TotalReadoutTime": 0.0395,
  "TxRefAmp": 231.003,
  "dcmmeta_affine": [
    [-2.9889237880706787, 0.23785792291164398, 0.1313810795545578, 109.83467102050781],
    [0.25653478503227234, 2.8517096042633057, 1.1910312175750732, -139.93682861328125],
    [0.02289835549890995, -0.9006530046463013, 3.8058223724365234, -16.411161422729492],
    [0.0, 0.0, 0.0, 1.0]
],
  "dcmmeta_reorient_transform": [
    [0.0, -1.0, 0.0, 79.0],
    [1.0, 0.0, 0.0, 0.0],
    [0.0, 0.0, 1.0, 0.0],
    [0.0, 0.0, 0.0, 1.0]
],
  "dcmmeta_shape": [80, 80, 30, 200],
  "dcmmeta_slice_dim": 2,
  "dcmmeta_version": 0.6,
  "global": {
    "const": {
      "AccessionNumber": "qa",
      "AcquisitionMatrix": [80, 0, 0, 80],
      "AngioFlag": "N",
      "BitsAllocated": 16,
      "BitsStored": 12,
      "BodyPartExamined": "BRAIN",
      "Columns": 480,
      "EchoNumbers": 1,
      "EchoTime": 30.0,
      "EchoTrainLength": 80,
      "FlipAngle": 10.0,
      "HighBit": 11,
      "ImageOrientationPatient": [0.99630793839787, -0.0855115926261, 0.0076327853325, 0.07928597572793, 0.95056987593907, 0.30021766272164],
      "ImagePositionPatient": [-773.9817990907, -604.38319895544, -272.27301580577],
      "ImageType": [
        "ORIGINAL",
        "PRIMARY",
        "M",
        "ND",
        "NORM",
        "MOSAIC"
],
      "ImagedNucleus": "1H",
      "ImagingFrequency": 123.259264,
      "InPlanePhaseEncodingDirection": "COL",
      "MRAcquisitionType": "2D",
      "MagneticFieldStrength": 3.0,
      "Manufacturer": "SIEMENS",
      "ManufacturerModelName": "Prisma",
      "Modality": "MR",
      "NumberOfAverages": 1.0,
      "NumberOfPhaseEncodingSteps": 80,
      "PercentPhaseFieldOfView": 100.0,
      "PercentSampling": 100.0,
      "PerformedProcedureStepStartTime": "094530.725000",
      "PhotometricInterpretation": "MONOCHROME2",
      "PixelBandwidth": 2315.0,
      "PixelRepresentation": 0,
      "PixelSpacing": [3.0, 3.0],
      "ProtocolName": "func-bold_fa-10",
      "RepetitionTime": 2000.0,
      "Rows": 480,
      "SAR": 0.01162694305346,
      "SamplesPerPixel": 1,
      "ScanOptions": "FS",
      "ScanningSequence": "EP",
      "SequenceName": "*epfid2d1_80",
      "SequenceVariant": "SK",
      "SeriesDescription": "func-bold_fa-10",
      "SeriesNumber": 10,
      "SeriesTime": "100920.689000",
      "SliceLocation": -53.80874748902,
      "SliceThickness": 3.5,
      "SmallestImagePixelValue": 0,
      "SoftwareVersions": "syngo MR E11",
      "SpacingBetweenSlices": 3.9900001019655,
      "SpecificCharacterSet": "ISO_IR 100",
      "StudyID": "1",
      "StudyTime": "094530.665000",
      "TransmitCoilName": "Body",
      "VariableFlipAngleFlag": "N",
      "WindowCenterWidthExplanation": "Algo1"
    },
    "slices": {}
  },
  "time": {
    "samples": {
      "AcquisitionNumber": [1, 2, 3, 4, 5, 6, 7, 8, 9, 10, 11, 12, 13, 14, 15, 16, 17, 18, 19, 20, 21, 22, 23, 24, 25, 26, 27, 28, 29, 30, 31, 32, 33, 34, 35, 36, 37, 38, 39, 40, 41, 42, 43, 44, 45, 46, 47, 48, 49, 50, 51, 52, 53, 54, 55, 56, 57, 58, 59, 60, 61, 62, 63, 64, 65, 66, 67, 68, 69, 70, 71, 72, 73, 74, 75, 76, 77, 78, 79, 80, 81, 82, 83, 84, 85, 86, 87, 88, 89, 90, 91, 92, 93, 94, 95, 96, 97, 98, 99, 100, 101, 102, 103, 104, 105, 106, 107, 108, 109, 110, 111, 112, 113, 114, 115, 116, 117, 118, 119, 120, 121, 122, 123, 124, 125, 126, 127, 128, 129, 130, 131, 132, 133, 134, 135, 136, 137, 138, 139, 140, 141, 142, 143, 144, 145, 146, 147, 148, 149, 150, 151, 152, 153, 154, 155, 156, 157, 158, 159, 160, 161, 162, 163, 164, 165, 166, 167, 168, 169, 170, 171, 172, 173, 174, 175, 176, 177, 178, 179, 180, 181, 182, 183, 184, 185, 186, 187, 188, 189, 190, 191, 192, 193, 194, 195, 196, 197, 198, 199, 200],
      "AcquisitionTime": ["100824.477500", "100826.477500", "100828.477500", "100830.477500", "100832.477500", "100834.477500", "100836.477500", "100838.477500", "100840.477500", "100842.477500", "100844.477500", "100846.477500", "100848.477500", "100850.477500", "100852.477500", "100854.477500", "100856.477500", "100858.477500", "100900.477500", "100902.477500", "100904.477500", "100906.477500", "100908.477500", "100910.477500", "100912.477500", "100914.477500", "100916.477500", "100918.477500", "100920.477500", "100922.477500", "100924.477500", "100926.477500", "100928.477500", "100930.477500", "100932.477500", "100934.477500", "100936.477500", "100938.477500", "100940.477500", "100942.477500", "100944.477500", "100946.477500", "100948.477500", "100950.477500", "100952.477500", "100954.477500", "100956.477500", "100958.477500", "101000.477500", "101002.477500", "101004.477500", "101006.477500", "101008.477500", "101010.477500", "101012.477500", "101014.477500", "101016.477500", "101018.477500", "101020.477500", "101022.477500", "101024.477500", "101026.477500", "101028.477500", "101030.477500", "101032.477500", "101034.477500", "101036.477500", "101038.477500", "101040.477500", "101042.477500", "101044.477500", "101046.477500", "101048.477500", "101050.477500", "101052.477500", "101054.477500", "101056.477500", "101058.477500", "101100.477500", "101102.477500", "101104.477500", "101106.477500", "101108.477500", "101110.477500", "101112.477500", "101114.477500", "101116.477500", "101118.477500", "101120.477500", "101122.477500", "101124.477500", "101126.477500", "101128.477500", "101130.477500", "101132.477500", "101134.477500", "101136.477500", "101138.477500", "101140.477500", "101142.477500", "101144.477500", "101146.477500", "101148.477500", "101150.477500", "101152.477500", "101154.477500", "101156.477500", "101158.477500", "101200.477500", "101202.477500", "101204.477500", "101206.477500", "101208.477500", "101210.477500", "101212.477500", "101214.477500", "101216.477500", "101218.477500", "101220.477500", "101222.477500", "101224.477500", "101226.477500", "101228.477500", "101230.477500", "101232.477500", "101234.477500", "101236.477500", "101238.477500", "101240.477500", "101242.477500", "101244.477500", "101246.477500", "101248.477500", "101250.477500", "101252.477500", "101254.477500", "101256.477500", "101258.477500", "101300.477500", "101302.477500", "101304.477500", "101306.477500", "101308.477500", "101310.477500", "101312.477500", "101314.477500", "101316.477500", "101318.477500", "101320.477500", "101322.477500", "101324.477500", "101326.477500", "101328.477500", "101330.477500", "101332.477500", "101334.477500", "101336.477500", "101338.477500", "101340.477500", "101342.477500", "101344.477500", "101346.477500", "101348.477500", "101350.477500", "101352.477500", "101354.477500", "101356.477500", "101358.477500", "101400.477500", "101402.477500", "101404.477500", "101406.477500", "101408.477500", "101410.477500", "101412.477500", "101414.477500", "101416.477500", "101418.477500", "101420.477500", "101422.477500", "101424.477500", "101426.477500", "101428.477500", "101430.477500", "101432.477500", "101434.477500", "101436.477500", "101438.477500", "101440.477500", "101442.477500", "101444.477500", "101446.477500", "101448.477500", "101450.477500", "101452.477500", "101454.477500", "101456.477500", "101458.477500", "101500.477500", "101502.477500"],
      "ContentTime": ["100920.692000", "100920.696000", "100920.698000", "100920.700000", "100920.702000", "100920.705000", "100920.707000", "100920.709000", "100920.711000", "100920.714000", "100920.716000", "100920.718000", "100920.721000", "100920.723000", "100920.725000", "100920.727000", "100920.730000", "100920.732000", "100920.734000", "100920.737000", "100920.745000", "100920.747000", "100920.749000", "100920.752000", "100920.754000", "100920.756000", "100920.758000", "100920.761000", "101000.686000", "101000.689000", "101000.691000", "101000.693000", "101000.701000", "101000.703000", "101000.706000", "101000.708000", "101000.710000", "101000.713000", "101000.715000", "101000.717000", "101000.720000", "101000.722000", "101000.724000", "101000.726000", "101000.729000", "101000.731000", "101000.734000", "101000.736000", "101040.686000", "101040.689000", "101040.691000", "101040.694000", "101040.696000", "101040.698000", "101040.700000", "101040.703000", "101040.705000", "101040.707000", "101040.709000", "101040.712000", "101040.714000", "101040.716000", "101040.718000", "101040.721000", "101040.723000", "101040.725000", "101040.728000", "101040.730000", "101120.687000", "101120.690000", "101120.692000", "101120.694000", "101120.697000", "101120.699000", "101120.701000", "101120.703000", "101120.706000", "101120.708000", "101120.710000", "101120.712000", "101120.715000", "101120.717000", "101120.719000", "101120.721000", "101120.724000", "101120.726000", "101120.728000", "101120.731000", "101200.686000", "101200.689000", "101200.691000", "101200.693000", "101200.696000", "101200.698000", "101200.700000", "101200.702000", "101200.705000", "101200.707000", "101200.709000", "101200.712000", "101200.714000", "101200.716000", "101200.718000", "101200.721000", "101200.723000", "101200.725000", "101200.727000", "101200.731000", "101240.686000", "101240.689000", "101240.691000", "101240.693000", "101240.696000", "101240.698000", "101240.701000", "101240.703000", "101240.705000", "101240.707000", "101240.710000", "101240.712000", "101240.714000", "101240.716000", "101240.719000", "101240.721000", "101240.723000", "101240.725000", "101240.728000", "101240.731000", "101320.687000", "101320.690000", "101320.692000", "101320.694000", "101320.697000", "101320.699000", "101320.701000", "101320.703000", "101320.706000", "101320.708000", "101320.710000", "101320.713000", "101320.715000", "101320.717000", "101320.719000", "101320.722000", "101320.724000", "101320.726000", "101320.728000", "101320.731000", "101400.686000", "101400.689000", "101400.691000", "101400.693000", "101400.696000", "101400.698000", "101400.700000", "101400.702000", "101400.705000", "101400.707000", "101400.709000", "101400.711000", "101400.714000", "101400.716000", "101400.718000", "101400.721000", "101400.723000", "101400.725000", "101400.727000", "101400.730000", "101440.686000", "101440.689000", "101440.691000", "101440.693000", "101440.696000", "101440.698000", "101440.700000", "101440.702000", "101440.705000", "101440.707000", "101440.709000", "101440.712000", "101440.714000", "101440.716000", "101440.719000", "101440.721000", "101440.723000", "101440.726000", "101440.728000", "101440.731000", "101503.886000", "101503.888000", "101503.891000", "101503.893000", "101503.895000", "101503.898000", "101503.900000", "101503.902000", "101503.905000", "101503.907000", "101503.909000", "101503.912000"],
      "InstanceCreationTime": ["100920.692000", "100920.696000", "100920.698000", "100920.700000", "100920.702000", "100920.705000", "100920.707000", "100920.709000", "100920.711000", "100920.714000", "100920.716000", "100920.718000", "100920.721000", "100920.723000", "100920.725000", "100920.727000", "100920.730000", "100920.732000", "100920.734000", "100920.737000", "100920.745000", "100920.747000", "100920.749000", "100920.752000", "100920.754000", "100920.756000", "100920.758000", "100920.761000", "101000.686000", "101000.689000", "101000.691000", "101000.693000", "101000.701000", "101000.703000", "101000.706000", "101000.708000", "101000.710000", "101000.713000", "101000.715000", "101000.717000", "101000.720000", "101000.722000", "101000.724000", "101000.726000", "101000.729000", "101000.731000", "101000.734000", "101000.736000", "101040.686000", "101040.689000", "101040.691000", "101040.694000", "101040.696000", "101040.698000", "101040.700000", "101040.703000", "101040.705000", "101040.707000", "101040.709000", "101040.712000", "101040.714000", "101040.716000", "101040.718000", "101040.721000", "101040.723000", "101040.725000", "101040.728000", "101040.730000", "101120.687000", "101120.690000", "101120.692000", "101120.694000", "101120.697000", "101120.699000", "101120.701000", "101120.703000", "101120.706000", "101120.708000", "101120.710000", "101120.712000", "101120.715000", "101120.717000", "101120.719000", "101120.721000", "101120.724000", "101120.726000", "101120.728000", "101120.731000", "101200.686000", "101200.689000", "101200.691000", "101200.693000", "101200.696000", "101200.698000", "101200.700000", "101200.702000", "101200.705000", "101200.707000", "101200.709000", "101200.712000", "101200.714000", "101200.716000", "101200.718000", "101200.721000", "101200.723000", "101200.725000", "101200.727000", "101200.731000", "101240.686000", "101240.689000", "101240.691000", "101240.693000", "101240.696000", "101240.698000", "101240.701000", "101240.703000", "101240.705000", "101240.707000", "101240.710000", "101240.712000", "101240.714000", "101240.716000", "101240.719000", "101240.721000", "101240.723000", "101240.725000", "101240.728000", "101240.731000", "101320.687000", "101320.690000", "101320.692000", "101320.694000", "101320.697000", "101320.699000", "101320.701000", "101320.703000", "101320.706000", "101320.708000", "101320.710000", "101320.713000", "101320.715000", "101320.717000", "101320.719000", "101320.722000", "101320.724000", "101320.726000", "101320.728000", "101320.731000", "101400.686000", "101400.689000", "101400.691000", "101400.693000", "101400.696000", "101400.698000", "101400.700000", "101400.702000", "101400.705000", "101400.707000", "101400.709000", "101400.711000", "101400.714000", "101400.716000", "101400.718000", "101400.721000", "101400.723000", "101400.725000", "101400.727000", "101400.730000", "101440.686000", "101440.689000", "101440.691000", "101440.693000", "101440.696000", "101440.698000", "101440.700000", "101440.702000", "101440.705000", "101440.707000", "101440.709000", "101440.712000", "101440.714000", "101440.716000", "101440.719000", "101440.721000", "101440.723000", "101440.726000", "101440.728000", "101440.731000", "101503.886000", "101503.888000", "101503.891000", "101503.893000", "101503.895000", "101503.898000", "101503.900000", "101503.902000", "101503.905000", "101503.907000", "101503.909000", "101503.912000"],
      "InstanceNumber": [1, 2, 3, 4, 5, 6, 7, 8, 9, 10, 11, 12, 13, 14, 15, 16, 17, 18, 19, 20, 21, 22, 23, 24, 25, 26, 27, 28, 29, 30, 31, 32, 33, 34, 35, 36, 37, 38, 39, 40, 41, 42, 43, 44, 45, 46, 47, 48, 49, 50, 51, 52, 53, 54, 55, 56, 57, 58, 59, 60, 61, 62, 63, 64, 65, 66, 67, 68, 69, 70, 71, 72, 73, 74, 75, 76, 77, 78, 79, 80, 81, 82, 83, 84, 85, 86, 87, 88, 89, 90, 91, 92, 93, 94, 95, 96, 97, 98, 99, 100, 101, 102, 103, 104, 105, 106, 107, 108, 109, 110, 111, 112, 113, 114, 115, 116, 117, 118, 119, 120, 121, 122, 123, 124, 125, 126, 127, 128, 129, 130, 131, 132, 133, 134, 135, 136, 137, 138, 139, 140, 141, 142, 143, 144, 145, 146, 147, 148, 149, 150, 151, 152, 153, 154, 155, 156, 157, 158, 159, 160, 161, 162, 163, 164, 165, 166, 167, 168, 169, 170, 171, 172, 173, 174, 175, 176, 177, 178, 179, 180, 181, 182, 183, 184, 185, 186, 187, 188, 189, 190, 191, 192, 193, 194, 195, 196, 197, 198, 199, 200],
      "LargestImagePixelValue": [370, 371, 370, 373, 371, 372, 371, 371, 372, 372, 371, 370, 370, 370, 371, 370, 372, 371, 369, 371, 370, 372, 370, 371, 370, 372, 371, 372, 371, 370, 372, 370, 371, 372, 372, 372, 370, 372, 370, 373, 370, 372, 373, 371, 372, 371, 372, 370, 372, 372, 371, 372, 371, 372, 370, 372, 369, 372, 369, 369, 370, 370, 371, 371, 370, 372, 372, 372, 370, 372, 371, 371, 371, 371, 370, 370, 371, 370, 370, 371, 371, 370, 371, 370, 371, 370, 370, 371, 371, 372, 371, 371, 370, 370, 372, 371, 371, 371, 370, 369, 372, 371, 370, 372, 370, 370, 370, 371, 370, 371, 371, 371, 371, 370, 371, 370, 372, 372, 370, 370, 372, 372, 369, 371, 371, 371, 370, 371, 372, 371, 372, 370, 371, 369, 372, 371, 370, 370, 370, 371, 371, 372, 371, 371, 369, 370, 372, 371, 372, 370, 371, 370, 370, 371, 371, 371, 372, 371, 371, 369, 369, 370, 371, 370, 371, 370, 372, 370, 371, 370, 371, 372, 370, 371, 370, 371, 371, 370, 371, 371, 370, 370, 371, 370, 371, 369, 371, 370, 371, 371, 369, 371, 370, 371, 371, 370, 372, 369, 371, 369],
      "WindowCenter": [301.0, 301.0, 301.0, 301.0, 301.0, 301.0, 301.0, 301.0, 301.0, 301.0, 301.0, 302.0, 301.0, 301.0, 301.0, 301.0, 301.0, 301.0, 301.0, 301.0, 301.0, 301.0, 301.0, 301.0, 301.0, 301.0, 301.0, 301.0, 301.0, 301.0, 301.0, 301.0, 301.0, 301.0, 301.0, 301.0, 301.0, 301.0, 301.0, 302.0, 301.0, 301.0, 301.0, 301.0, 301.0, 301.0, 301.0, 301.0, 301.0, 301.0, 301.0, 301.0, 301.0, 301.0, 302.0, 301.0, 301.0, 301.0, 301.0, 300.0, 301.0, 301.0, 301.0, 301.0, 301.0, 301.0, 301.0, 301.0, 301.0, 301.0, 301.0, 301.0, 301.0, 301.0, 301.0, 301.0, 301.0, 301.0, 301.0, 301.0, 301.0, 301.0, 301.0, 301.0, 301.0, 301.0, 301.0, 301.0, 301.0, 301.0, 301.0, 301.0, 301.0, 301.0, 301.0, 301.0, 301.0, 301.0, 301.0, 300.0, 301.0, 301.0, 300.0, 300.0, 301.0, 301.0, 301.0, 301.0, 301.0, 301.0, 301.0, 301.0, 301.0, 301.0, 301.0, 301.0, 301.0, 301.0, 301.0, 301.0, 301.0, 301.0, 301.0, 301.0, 301.0, 300.0, 301.0, 300.0, 300.0, 301.0, 300.0, 301.0, 300.0, 300.0, 300.0, 300.0, 300.0, 301.0, 301.0, 301.0, 301.0, 300.0, 301.0, 300.0, 300.0, 300.0, 300.0, 300.0, 301.0, 301.0, 300.0, 300.0, 300.0, 300.0, 300.0, 301.0, 301.0, 301.0, 301.0, 300.0, 300.0, 300.0, 301.0, 300.0, 301.0, 300.0, 301.0, 300.0, 300.0, 300.0, 300.0, 301.0, 300.0, 300.0, 300.0, 301.0, 301.0, 300.0, 300.0, 301.0, 300.0, 301.0, 300.0, 300.0, 300.0, 300.0, 300.0, 300.0, 300.0, 300.0, 300.0, 300.0, 300.0, 300.0, 300.0, 300.0, 300.0, 299.0, 301.0, 300.0],
      "WindowWidth": [653.0, 653.0, 653.0, 653.0, 653.0, 653.0, 653.0, 653.0, 653.0, 653.0, 653.0, 653.0, 653.0, 653.0, 653.0, 653.0, 653.0, 653.0, 652.0, 653.0, 653.0, 653.0, 653.0, 653.0, 653.0, 653.0, 653.0, 653.0, 653.0, 653.0, 653.0, 653.0, 653.0, 653.0, 653.0, 653.0, 653.0, 653.0, 653.0, 653.0, 653.0, 652.0, 653.0, 653.0, 653.0, 652.0, 653.0, 653.0, 653.0, 653.0, 653.0, 653.0, 653.0, 652.0, 653.0, 653.0, 652.0, 653.0, 652.0, 652.0, 653.0, 653.0, 653.0, 652.0, 653.0, 653.0, 653.0, 653.0, 653.0, 653.0, 653.0, 653.0, 652.0, 653.0, 653.0, 653.0, 653.0, 653.0, 653.0, 653.0, 653.0, 653.0, 652.0, 653.0, 653.0, 653.0, 653.0, 652.0, 653.0, 653.0, 653.0, 652.0, 653.0, 653.0, 652.0, 652.0, 652.0, 652.0, 653.0, 652.0, 652.0, 653.0, 651.0, 651.0, 652.0, 652.0, 652.0, 652.0, 652.0, 653.0, 653.0, 652.0, 652.0, 653.0, 652.0, 653.0, 652.0, 653.0, 652.0, 652.0, 652.0, 652.0, 652.0, 652.0, 652.0, 652.0, 653.0, 651.0, 652.0, 652.0, 651.0, 652.0, 652.0, 651.0, 651.0, 651.0, 652.0, 652.0, 652.0, 652.0, 652.0, 651.0, 653.0, 651.0, 651.0, 652.0, 651.0, 652.0, 652.0, 653.0, 651.0, 652.0, 651.0, 652.0, 651.0, 652.0, 652.0, 652.0, 652.0, 651.0, 651.0, 651.0, 652.0, 651.0, 652.0, 651.0, 652.0, 651.0, 651.0, 651.0, 651.0, 652.0, 651.0, 651.0, 652.0, 652.0, 652.0, 651.0, 651.0, 652.0, 651.0, 652.0, 651.0, 651.0, 651.0, 651.0, 651.0, 651.0, 651.0, 651.0, 651.0, 651.0, 651.0, 651.0, 651.0, 651.0, 651.0, 650.0, 651.0, 650.0]
    },
    "slices": {}
  }
}