{
  "AcquisitionMatrixPE": 80,
  "AcquisitionNumber": 1,
  "AcquisitionTime": "10:01:37.415000",
  "BandwidthPerPixelPhaseEncode": 25,
  "BaseResolution": 80,
  "BodyPartExamined": "BRAIN",
  "CoilCombinationMethod": "Sum of Squares",
  "ConsistencyInfo": "N4_VE11E_LATEST_20181129",
  "ConversionSoftware": "dcm2niix",
  "ConversionSoftwareVersion": "v1.0.20220720",
  "DerivedVendorReportedEchoSpacing": 0.0005,
  "DeviceSerialNumber": "66112",
  "DwellTime": 2.7e-06,
  "EchoTime": 0.03,
  "EchoTrainLength": 80,
  "EffectiveEchoSpacing": 0.0005,
  "FlipAngle": 77,
  "HeudiconvVersion": "0.13.1",
  "ImageOrientationPatientDICOM": [0.996308, -0.0855116, 0.00763279, 0.079286, 0.95057, 0.300218],
  "ImageOrientationText": "Tra>Cor(17.4)>Sag(1.9)",
  "ImageType": [
    "ORIGINAL",
    "PRIMARY",
    "M",
    "ND",
    "NORM",
    "MOSAIC"
],
  "ImagingFrequency": 123.259,
  "InPlanePhaseEncodingDirectionDICOM": "COL",
  "InstitutionAddress": "Maynard 3,Hanover,NH,US,03755",
  "InstitutionName": "Dartmouth College - PBS",
  "InstitutionalDepartmentName": "Department",
  "MRAcquisitionType": "2D",
  "MagneticFieldStrength": 3,
  "Manufacturer": "Siemens",
  "ManufacturersModelName": "Prisma",
  "MatrixCoilMode": "SENSE",
  "Modality": "MR",
  "NonlinearGradientCorrection": false,
  "PartialFourier": 1,
  "PatientPosition": "HFS",
  "PercentPhaseFOV": 100,
  "PercentSampling": 100,
  "PhaseEncodingDirection": "j-",
  "PhaseEncodingSteps": 80,
  "PhaseResolution": 1,
  "PixelBandwidth": 2315,
  "ProcedureStepDescription": "dbic^QA",
  "ProtocolName": "func-bold_fa-77",
  "PulseSequenceDetails": "%SiemensSeq%\\ep2d_bold",
  "ReceiveCoilActiveElements": "HEA;HEP",
  "ReceiveCoilName": "Head_32",
  "ReconMatrixPE": 80,
  "RepetitionTime": 2,
  "SAR": 0.0433438,
  "ScanOptions": "FS",
  "ScanningSequence": "EP",
  "SequenceName": "*epfid2d1_80",
  "SequenceVariant": "SK",
  "SeriesDescription": "func-bold_fa-77",
  "SeriesNumber": 8,
  "ShimSetting": [4220, -7736, -7479, 26, -144, -51, 2, 61],
  "SliceThickness": 3.5,
  "SliceTiming": [0.99, 0, 1.055, 0.0675, 1.1225, 0.1325, 1.1875, 0.1975, 1.255, 0.265, 1.32, 0.33, 1.385, 0.395, 1.4525, 0.4625, 1.5175, 0.5275, 1.585, 0.595, 1.65, 0.66, 1.715, 0.725, 1.7825, 0.7925, 1.8475, 0.8575, 1.915, 0.925],
  "SoftwareVersions": "syngo MR E11",
  "SpacingBetweenSlices": 3.99,
  "StationName": "AWP66112",
  "TotalReadoutTime": 0.0395,
  "TxRefAmp": 231.003,
  "dcmmeta_affine": [
    [-2.9889237880706787, 0.23785792291164398, 0.1313810795545578, 109.83467102050781],
    [0.25653478503227234, 2.8517096042633057, 1.1910312175750732, -139.93682861328125],
    [0.02289835549890995, -0.9006530046463013, 3.8058223724365234, -16.411161422729492],
    [0.0, 0.0, 0.0, 1.0]
],
  "dcmmeta_reorient_transform": [
    [0.0, -1.0, 0.0, 79.0],
    [1.0, 0.0, 0.0, 0.0],
    [0.0, 0.0, 1.0, 0.0],
    [0.0, 0.0, 0.0, 1.0]
],
  "dcmmeta_shape": [80, 80, 30, 200],
  "dcmmeta_slice_dim": 2,
  "dcmmeta_version": 0.6,
  "global": {
    "const": {
      "AccessionNumber": "qa",
      "AcquisitionMatrix": [80, 0, 0, 80],
      "AngioFlag": "N",
      "BitsAllocated": 16,
      "BitsStored": 12,
      "BodyPartExamined": "BRAIN",
      "Columns": 480,
      "EchoNumbers": 1,
      "EchoTime": 30.0,
      "EchoTrainLength": 80,
      "FlipAngle": 77.0,
      "HighBit": 11,
      "ImageOrientationPatient": [0.99630793839787, -0.0855115926261, 0.0076327853325, 0.07928597572793, 0.95056987593907, 0.30021766272164],
      "ImagePositionPatient": [-773.9817990907, -604.38319895544, -272.27301580577],
      "ImageType": [
        "ORIGINAL",
        "PRIMARY",
        "M",
        "ND",
        "NORM",
        "MOSAIC"
],
      "ImagedNucleus": "1H",
      "ImagingFrequency": 123.259261,
      "InPlanePhaseEncodingDirection": "COL",
      "MRAcquisitionType": "2D",
      "MagneticFieldStrength": 3.0,
      "Manufacturer": "SIEMENS",
      "ManufacturerModelName": "Prisma",
      "Modality": "MR",
      "NumberOfAverages": 1.0,
      "NumberOfPhaseEncodingSteps": 80,
      "PercentPhaseFieldOfView": 100.0,
      "PercentSampling": 100.0,
      "PerformedProcedureStepStartTime": "094530.725000",
      "PhotometricInterpretation": "MONOCHROME2",
      "PixelBandwidth": 2315.0,
      "PixelRepresentation": 0,
      "PixelSpacing": [3.0, 3.0],
      "ProtocolName": "func-bold_fa-77",
      "RepetitionTime": 2000.0,
      "Rows": 480,
      "SAR": 0.04334383128589,
      "SamplesPerPixel": 1,
      "ScanOptions": "FS",
      "ScanningSequence": "EP",
      "SequenceName": "*epfid2d1_80",
      "SequenceVariant": "SK",
      "SeriesDescription": "func-bold_fa-77",
      "SeriesNumber": 8,
      "SeriesTime": "100220.860000",
      "SliceLocation": -53.80874748902,
      "SliceThickness": 3.5,
      "SmallestImagePixelValue": 0,
      "SoftwareVersions": "syngo MR E11",
      "SpacingBetweenSlices": 3.9900001019655,
      "SpecificCharacterSet": "ISO_IR 100",
      "StudyID": "1",
      "StudyTime": "094530.665000",
      "TransmitCoilName": "Body",
      "VariableFlipAngleFlag": "N",
      "WindowCenterWidthExplanation": "Algo1"
    },
    "slices": {}
  },
  "time": {
    "samples": {
      "AcquisitionNumber": [1, 2, 3, 4, 5, 6, 7, 8, 9, 10, 11, 12, 13, 14, 15, 16, 17, 18, 19, 20, 21, 22, 23, 24, 25, 26, 27, 28, 29, 30, 31, 32, 33, 34, 35, 36, 37, 38, 39, 40, 41, 42, 43, 44, 45, 46, 47, 48, 49, 50, 51, 52, 53, 54, 55, 56, 57, 58, 59, 60, 61, 62, 63, 64, 65, 66, 67, 68, 69, 70, 71, 72, 73, 74, 75, 76, 77, 78, 79, 80, 81, 82, 83, 84, 85, 86, 87, 88, 89, 90, 91, 92, 93, 94, 95, 96, 97, 98, 99, 100, 101, 102, 103, 104, 105, 106, 107, 108, 109, 110, 111, 112, 113, 114, 115, 116, 117, 118, 119, 120, 121, 122, 123, 124, 125, 126, 127, 128, 129, 130, 131, 132, 133, 134, 135, 136, 137, 138, 139, 140, 141, 142, 143, 144, 145, 146, 147, 148, 149, 150, 151, 152, 153, 154, 155, 156, 157, 158, 159, 160, 161, 162, 163, 164, 165, 166, 167, 168, 169, 170, 171, 172, 173, 174, 175, 176, 177, 178, 179, 180, 181, 182, 183, 184, 185, 186, 187, 188, 189, 190, 191, 192, 193, 194, 195, 196, 197, 198, 199, 200],
      "AcquisitionTime": ["100137.415000", "100139.415000", "100141.415000", "100143.415000", "100145.415000", "100147.415000", "100149.415000", "100151.415000", "100153.415000", "100155.415000", "100157.415000", "100159.415000", "100201.415000", "100203.415000", "100205.415000", "100207.415000", "100209.415000", "100211.415000", "100213.415000", "100215.415000", "100217.415000", "100219.415000", "100221.415000", "100223.415000", "100225.415000", "100227.415000", "100229.415000", "100231.415000", "100233.415000", "100235.415000", "100237.415000", "100239.415000", "100241.415000", "100243.415000", "100245.415000", "100247.415000", "100249.415000", "100251.415000", "100253.415000", "100255.415000", "100257.415000", "100259.415000", "100301.415000", "100303.415000", "100305.415000", "100307.415000", "100309.415000", "100311.415000", "100313.415000", "100315.415000", "100317.415000", "100319.415000", "100321.415000", "100323.415000", "100325.415000", "100327.415000", "100329.415000", "100331.415000", "100333.415000", "100335.415000", "100337.415000", "100339.415000", "100341.415000", "100343.415000", "100345.415000", "100347.415000", "100349.415000", "100351.415000", "100353.415000", "100355.415000", "100357.415000", "100359.415000", "100401.415000", "100403.415000", "100405.415000", "100407.415000", "100409.415000", "100411.415000", "100413.415000", "100415.415000", "100417.415000", "100419.415000", "100421.415000", "100423.415000", "100425.415000", "100427.415000", "100429.415000", "100431.415000", "100433.415000", "100435.415000", "100437.415000", "100439.415000", "100441.415000", "100443.415000", "100445.415000", "100447.415000", "100449.415000", "100451.415000", "100453.415000", "100455.415000", "100457.415000", "100459.415000", "100501.415000", "100503.415000", "100505.415000", "100507.415000", "100509.415000", "100511.415000", "100513.415000", "100515.415000", "100517.415000", "100519.415000", "100521.415000", "100523.415000", "100525.415000", "100527.415000", "100529.415000", "100531.415000", "100533.415000", "100535.415000", "100537.415000", "100539.415000", "100541.415000", "100543.415000", "100545.415000", "100547.415000", "100549.415000", "100551.415000", "100553.415000", "100555.415000", "100557.415000", "100559.415000", "100601.415000", "100603.415000", "100605.415000", "100607.415000", "100609.415000", "100611.415000", "100613.415000", "100615.415000", "100617.415000", "100619.415000", "100621.415000", "100623.415000", "100625.415000", "100627.415000", "100629.415000", "100631.415000", "100633.415000", "100635.415000", "100637.415000", "100639.415000", "100641.415000", "100643.415000", "100645.415000", "100647.415000", "100649.415000", "100651.415000", "100653.415000", "100655.415000", "100657.415000", "100659.415000", "100701.415000", "100703.415000", "100705.415000", "100707.415000", "100709.415000", "100711.415000", "100713.415000", "100715.415000", "100717.415000", "100719.415000", "100721.415000", "100723.415000", "100725.415000", "100727.415000", "100729.415000", "100731.415000", "100733.415000", "100735.415000", "100737.415000", "100739.415000", "100741.415000", "100743.415000", "100745.415000", "100747.415000", "100749.415000", "100751.415000", "100753.415000", "100755.415000", "100757.415000", "100759.415000", "100801.415000", "100803.415000", "100805.415000", "100807.415000", "100809.415000", "100811.415000", "100813.415000", "100815.415000"],
      "ContentTime": ["100220.863000", "100220.866000", "100220.868000", "100220.871000", "100220.873000", "100220.875000", "100220.877000", "100220.880000", "100220.882000", "100220.884000", "100220.886000", "100220.889000", "100220.891000", "100220.893000", "100220.895000", "100220.898000", "100220.900000", "100220.909000", "100220.911000", "100220.913000", "100220.915000", "100300.857000", "100300.860000", "100300.862000", "100300.864000", "100300.867000", "100300.869000", "100300.871000", "100300.874000", "100300.876000", "100300.878000", "100300.880000", "100300.883000", "100300.885000", "100300.887000", "100300.889000", "100300.892000", "100300.894000", "100300.896000", "100300.898000", "100300.901000", "100340.857000", "100340.884000", "100340.886000", "100340.889000", "100340.891000", "100340.893000", "100340.895000", "100340.898000", "100340.900000", "100340.902000", "100340.904000", "100340.907000", "100340.909000", "100340.911000", "100340.913000", "100340.916000", "100340.918000", "100340.920000", "100340.922000", "100340.925000", "100400.858000", "100400.861000", "100400.863000", "100400.865000", "100400.868000", "100400.870000", "100400.872000", "100400.874000", "100400.877000", "100400.879000", "100440.858000", "100440.861000", "100440.863000", "100440.865000", "100440.868000", "100440.870000", "100440.872000", "100440.875000", "100440.877000", "100440.879000", "100440.881000", "100440.884000", "100440.886000", "100440.888000", "100440.890000", "100440.893000", "100440.895000", "100440.897000", "100440.900000", "100440.902000", "100520.857000", "100520.860000", "100520.862000", "100520.864000", "100520.866000", "100520.869000", "100520.871000", "100520.873000", "100520.876000", "100520.890000", "100520.892000", "100520.895000", "100520.897000", "100520.899000", "100520.901000", "100520.904000", "100520.906000", "100520.908000", "100520.911000", "100520.913000", "100600.857000", "100600.860000", "100600.862000", "100600.865000", "100600.867000", "100600.869000", "100600.872000", "100600.874000", "100600.876000", "100600.878000", "100600.881000", "100600.883000", "100600.885000", "100600.887000", "100600.890000", "100600.892000", "100600.894000", "100600.896000", "100600.899000", "100600.901000", "100640.858000", "100640.861000", "100640.863000", "100640.865000", "100640.868000", "100640.870000", "100640.872000", "100640.874000", "100640.877000", "100640.879000", "100640.881000", "100640.884000", "100640.886000", "100640.888000", "100640.890000", "100640.893000", "100640.895000", "100640.897000", "100640.900000", "100640.902000", "100720.857000", "100720.860000", "100720.862000", "100720.864000", "100720.866000", "100720.869000", "100720.871000", "100720.873000", "100720.876000", "100720.878000", "100720.880000", "100720.882000", "100720.885000", "100720.887000", "100720.889000", "100720.891000", "100720.894000", "100720.896000", "100720.898000", "100720.901000", "100800.857000", "100800.860000", "100800.862000", "100800.864000", "100800.867000", "100800.869000", "100800.871000", "100800.873000", "100800.876000", "100800.878000", "100800.880000", "100800.883000", "100800.885000", "100800.887000", "100800.890000", "100800.892000", "100800.894000", "100800.896000", "100800.899000", "100800.901000", "100817.360000", "100817.363000", "100817.365000", "100817.368000", "100817.370000", "100817.372000", "100817.375000", "100817.377000", "100817.379000"],
      "InstanceCreationTime": ["100220.863000", "100220.866000", "100220.868000", "100220.871000", "100220.873000", "100220.875000", "100220.877000", "100220.880000", "100220.882000", "100220.884000", "100220.886000", "100220.889000", "100220.891000", "100220.893000", "100220.895000", "100220.898000", "100220.900000", "100220.909000", "100220.911000", "100220.913000", "100220.915000", "100300.857000", "100300.860000", "100300.862000", "100300.864000", "100300.867000", "100300.869000", "100300.871000", "100300.874000", "100300.876000", "100300.878000", "100300.880000", "100300.883000", "100300.885000", "100300.887000", "100300.889000", "100300.892000", "100300.894000", "100300.896000", "100300.898000", "100300.901000", "100340.857000", "100340.884000", "100340.886000", "100340.889000", "100340.891000", "100340.893000", "100340.895000", "100340.898000", "100340.900000", "100340.902000", "100340.904000", "100340.907000", "100340.909000", "100340.911000", "100340.913000", "100340.916000", "100340.918000", "100340.920000", "100340.922000", "100340.925000", "100400.858000", "100400.861000", "100400.863000", "100400.865000", "100400.868000", "100400.870000", "100400.872000", "100400.874000", "100400.877000", "100400.879000", "100440.858000", "100440.861000", "100440.863000", "100440.865000", "100440.868000", "100440.870000", "100440.872000", "100440.875000", "100440.877000", "100440.879000", "100440.881000", "100440.884000", "100440.886000", "100440.888000", "100440.890000", "100440.893000", "100440.895000", "100440.897000", "100440.900000", "100440.902000", "100520.857000", "100520.860000", "100520.862000", "100520.864000", "100520.866000", "100520.869000", "100520.871000", "100520.873000", "100520.876000", "100520.890000", "100520.892000", "100520.895000", "100520.897000", "100520.899000", "100520.901000", "100520.904000", "100520.906000", "100520.908000", "100520.911000", "100520.913000", "100600.857000", "100600.860000", "100600.862000", "100600.865000", "100600.867000", "100600.869000", "100600.872000", "100600.874000", "100600.876000", "100600.878000", "100600.881000", "100600.883000", "100600.885000", "100600.887000", "100600.890000", "100600.892000", "100600.894000", "100600.896000", "100600.899000", "100600.901000", "100640.858000", "100640.861000", "100640.863000", "100640.865000", "100640.868000", "100640.870000", "100640.872000", "100640.874000", "100640.877000", "100640.879000", "100640.881000", "100640.884000", "100640.886000", "100640.888000", "100640.890000", "100640.893000", "100640.895000", "100640.897000", "100640.900000", "100640.902000", "100720.857000", "100720.860000", "100720.862000", "100720.864000", "100720.866000", "100720.869000", "100720.871000", "100720.873000", "100720.876000", "100720.878000", "100720.880000", "100720.882000", "100720.885000", "100720.887000", "100720.889000", "100720.891000", "100720.894000", "100720.896000", "100720.898000", "100720.901000", "100800.857000", "100800.860000", "100800.862000", "100800.864000", "100800.867000", "100800.869000", "100800.871000", "100800.873000", "100800.876000", "100800.878000", "100800.880000", "100800.883000", "100800.885000", "100800.887000", "100800.890000", "100800.892000", "100800.894000", "100800.896000", "100800.899000", "100800.901000", "100817.360000", "100817.363000", "100817.365000", "100817.368000", "100817.370000", "100817.372000", "100817.375000", "100817.377000", "100817.379000"],
      "InstanceNumber": [1, 2, 3, 4, 5, 6, 7, 8, 9, 10, 11, 12, 13, 14, 15, 16, 17, 18, 19, 20, 21, 22, 23, 24, 25, 26, 27, 28, 29, 30, 31, 32, 33, 34, 35, 36, 37, 38, 39, 40, 41, 42, 43, 44, 45, 46, 47, 48, 49, 50, 51, 52, 53, 54, 55, 56, 57, 58, 59, 60, 61, 62, 63, 64, 65, 66, 67, 68, 69, 70, 71, 72, 73, 74, 75, 76, 77, 78, 79, 80, 81, 82, 83, 84, 85, 86, 87, 88, 89, 90, 91, 92, 93, 94, 95, 96, 97, 98, 99, 100, 101, 102, 103, 104, 105, 106, 107, 108, 109, 110, 111, 112, 113, 114, 115, 116, 117, 118, 119, 120, 121, 122, 123, 124, 125, 126, 127, 128, 129, 130, 131, 132, 133, 134, 135, 136, 137, 138, 139, 140, 141, 142, 143, 144, 145, 146, 147, 148, 149, 150, 151, 152, 153, 154, 155, 156, 157, 158, 159, 160, 161, 162, 163, 164, 165, 166, 167, 168, 169, 170, 171, 172, 173, 174, 175, 176, 177, 178, 179, 180, 181, 182, 183, 184, 185, 186, 187, 188, 189, 190, 191, 192, 193, 194, 195, 196, 197, 198, 199, 200],
      "LargestImagePixelValue": [2156, 2157, 2162, 2157, 2159, 2158, 2157, 2158, 2158, 2158, 2156, 2156, 2157, 2158, 2157, 2157, 2157, 2158, 2158, 2156, 2157, 2157, 2158, 2157, 2158, 2158, 2158, 2157, 2156, 2158, 2158, 2157, 2159, 2158, 2157, 2159, 2157, 2157, 2157, 2158, 2157, 2159, 2157, 2158, 2159, 2158, 2157, 2157, 2158, 2159, 2159, 2160, 2161, 2158, 2158, 2160, 2159, 2158, 2159, 2157, 2159, 2157, 2159, 2158, 2157, 2158, 2158, 2157, 2158, 2157, 2157, 2157, 2156, 2157, 2156, 2155, 2155, 2157, 2157, 2157, 2156, 2156, 2158, 2155, 2157, 2158, 2158, 2157, 2156, 2155, 2157, 2157, 2156, 2157, 2159, 2157, 2157, 2157, 2156, 2158, 2157, 2157, 2155, 2156, 2156, 2156, 2156, 2155, 2158, 2156, 2156, 2156, 2158, 2156, 2156, 2157, 2154, 2156, 2156, 2156, 2156, 2156, 2157, 2156, 2156, 2156, 2157, 2158, 2155, 2158, 2156, 2157, 2156, 2154, 2157, 2157, 2155, 2156, 2157, 2155, 2154, 2158, 2157, 2158, 2158, 2157, 2157, 2157, 2157, 2156, 2155, 2156, 2156, 2158, 2157, 2157, 2156, 2157, 2155, 2154, 2156, 2158, 2156, 2156, 2157, 2156, 2156, 2156, 2155, 2157, 2155, 2158, 2155, 2156, 2157, 2158, 2158, 2156, 2155, 2155, 2154, 2157, 2160, 2155, 2157, 2156, 2156, 2155, 2156, 2155, 2156, 2157, 2155, 2155, 2155, 2155, 2156, 2154, 2157, 2157],
      "WindowCenter": [1018.0, 1018.0, 1018.0, 1018.0, 1018.0, 1018.0, 1019.0, 1018.0, 1018.0, 1018.0, 1019.0, 1018.0, 1019.0, 1018.0, 1018.0, 1018.0, 1018.0, 1019.0, 1018.0, 1018.0, 1019.0, 1018.0, 1018.0, 1018.0, 1019.0, 1018.0, 1018.0, 1018.0, 1018.0, 1019.0, 1018.0, 1018.0, 1018.0, 1018.0, 1018.0, 1018.0, 1018.0, 1019.0, 1018.0, 1018.0, 1018.0, 1018.0, 1018.0, 1018.0, 1018.0, 1018.0, 1018.0, 1018.0, 1018.0, 1018.0, 1018.0, 1018.0, 1018.0, 1018.0, 1018.0, 1018.0, 1018.0, 1018.0, 1018.0, 1018.0, 1017.0, 1018.0, 1018.0, 1017.0, 1018.0, 1017.0, 1017.0, 1017.0, 1018.0, 1017.0, 1018.0, 1017.0, 1019.0, 1017.0, 1017.0, 1017.0, 1017.0, 1017.0, 1017.0, 1017.0, 1017.0, 1017.0, 1017.0, 1017.0, 1017.0, 1017.0, 1017.0, 1017.0, 1017.0, 1017.0, 1017.0, 1017.0, 1017.0, 1017.0, 1017.0, 1017.0, 1017.0, 1017.0, 1017.0, 1017.0, 1017.0, 1017.0, 1017.0, 1017.0, 1017.0, 1017.0, 1017.0, 1017.0, 1018.0, 1017.0, 1017.0, 1017.0, 1018.0, 1017.0, 1017.0, 1017.0, 1017.0, 1017.0, 1017.0, 1017.0, 1017.0, 1017.0, 1017.0, 1017.0, 1017.0, 1018.0, 1018.0, 1017.0, 1017.0, 1017.0, 1017.0, 1017.0, 1017.0, 1017.0, 1017.0, 1017.0, 1017.0, 1017.0, 1017.0, 1017.0, 1017.0, 1017.0, 1017.0, 1017.0, 1017.0, 1017.0, 1017.0, 1017.0, 1017.0, 1017.0, 1016.0, 1017.0, 1017.0, 1017.0, 1016.0, 1016.0, 1016.0, 1016.0, 1016.0, 1016.0, 1016.0, 1016.0, 1016.0, 1016.0, 1016.0, 1016.0, 1016.0, 1017.0, 1016.0, 1016.0, 1016.0, 1016.0, 1016.0, 1016.0, 1016.0, 1017.0, 1016.0, 1016.0, 1016.0, 1016.0, 1016.0, 1017.0, 1016.0, 1016.0, 1016.0, 1016.0, 1016.0, 1016.0, 1016.0, 1016.0, 1016.0, 1016.0, 1016.0, 1016.0, 1016.0, 1017.0, 1016.0, 1016.0, 1016.0, 1016.0],
      "WindowWidth": [2275.0, 2276.0, 2275.0, 2275.0, 2276.0, 2276.0, 2277.0, 2276.0, 2275.0, 2276.0, 2277.0, 2276.0, 2276.0, 2275.0, 2276.0, 2276.0, 2276.0, 2276.0, 2276.0, 2275.0, 2276.0, 2275.0, 2275.0, 2276.0, 2276.0, 2275.0, 2276.0, 2275.0, 2275.0, 2276.0, 2275.0, 2276.0, 2275.0, 2275.0, 2275.0, 2275.0, 2275.0, 2276.0, 2275.0, 2275.0, 2275.0, 2275.0, 2275.0, 2275.0, 2275.0, 2275.0, 2275.0, 2275.0, 2275.0, 2275.0, 2275.0, 2275.0, 2275.0, 2275.0, 2275.0, 2275.0, 2275.0, 2275.0, 2275.0, 2274.0, 2274.0, 2274.0, 2274.0, 2274.0, 2275.0, 2274.0, 2274.0, 2274.0, 2275.0, 2274.0, 2275.0, 2274.0, 2275.0, 2274.0, 2273.0, 2273.0, 2273.0, 2273.0, 2273.0, 2273.0, 2273.0, 2273.0, 2273.0, 2273.0, 2273.0, 2273.0, 2273.0, 2273.0, 2273.0, 2273.0, 2273.0, 2273.0, 2273.0, 2273.0, 2273.0, 2273.0, 2273.0, 2273.0, 2273.0, 2273.0, 2273.0, 2273.0, 2273.0, 2273.0, 2273.0, 2273.0, 2273.0, 2273.0, 2273.0, 2273.0, 2273.0, 2273.0, 2274.0, 2273.0, 2273.0, 2273.0, 2273.0, 2273.0, 2273.0, 2273.0, 2272.0, 2272.0, 2272.0, 2272.0, 2273.0, 2273.0, 2274.0, 2272.0, 2272.0, 2273.0, 2272.0, 2273.0, 2272.0, 2273.0, 2273.0, 2272.0, 2272.0, 2272.0, 2272.0, 2272.0, 2272.0, 2272.0, 2272.0, 2272.0, 2272.0, 2272.0, 2272.0, 2272.0, 2272.0, 2272.0, 2272.0, 2272.0, 2272.0, 2272.0, 2272.0, 2272.0, 2272.0, 2272.0, 2272.0, 2272.0, 2272.0, 2272.0, 2272.0, 2272.0, 2272.0, 2272.0, 2272.0, 2273.0, 2272.0, 2272.0, 2272.0, 2272.0, 2272.0, 2272.0, 2271.0, 2273.0, 2272.0, 2271.0, 2272.0, 2272.0, 2272.0, 2273.0, 2272.0, 2272.0, 2272.0, 2271.0, 2271.0, 2271.0, 2271.0, 2271.0, 2271.0, 2272.0, 2271.0, 2271.0, 2272.0, 2272.0, 2271.0, 2272.0, 2271.0, 2272.0]
    },
    "slices": {}
  }
}