{
  "AcquisitionMatrixPE": 80,
  "AcquisitionNumber": 1,
  "AcquisitionTime": "09:51:39.537500",
  "BandwidthPerPixelPhaseEncode": 25,
  "BaseResolution": 80,
  "BodyPartExamined": "BRAIN",
  "CoilCombinationMethod": "Sum of Squares",
  "ConsistencyInfo": "N4_VE11C_LATEST_20160120",
  "ConversionSoftware": "dcm2niix",
  "ConversionSoftwareVersion": "v1.0.20220720",
  "DerivedVendorReportedEchoSpacing": 0.0005,
  "DeviceSerialNumber": "66112",
  "DwellTime": 2.7e-06,
  "EchoTime": 0.03,
  "EchoTrainLength": 80,
  "EffectiveEchoSpacing": 0.0005,
  "FlipAngle": 77,
  "HeudiconvVersion": "0.13.1",
  "ImageOrientationPatientDICOM": [0.98903, 0.147568, 0.00652981, -0.141993, 0.937626, 0.317326],
  "ImageOrientationText": "Tra>Cor(18.4)>Sag(-2.3)",
  "ImageType": [
    "ORIGINAL",
    "PRIMARY",
    "M",
    "ND",
    "NORM",
    "MOSAIC"
],
  "ImagingFrequency": 123.252,
  "InPlanePhaseEncodingDirectionDICOM": "COL",
  "InstitutionAddress": "Maynard 3,Hanover,NH,US,03755",
  "InstitutionName": "Dartmouth College - PBS",
  "InstitutionalDepartmentName": "Department",
  "MRAcquisitionType": "2D",
  "MagneticFieldStrength": 3,
  "Manufacturer": "Siemens",
  "ManufacturersModelName": "Prisma",
  "MatrixCoilMode": "SENSE",
  "Modality": "MR",
  "NonlinearGradientCorrection": false,
  "PartialFourier": 1,
  "PatientPosition": "HFS",
  "PercentPhaseFOV": 100,
  "PercentSampling": 100,
  "PhaseEncodingDirection": "j-",
  "PhaseEncodingSteps": 80,
  "PhaseResolution": 1,
  "PixelBandwidth": 2315,
  "ProcedureStepDescription": "dbic^QA",
  "ProtocolName": "func-bold_fa-77",
  "PulseSequenceDetails": "%SiemensSeq%\\ep2d_bold",
  "ReceiveCoilActiveElements": "HC1-7;NC1,2",
  "ReceiveCoilName": "HeadNeck_64",
  "ReconMatrixPE": 80,
  "RepetitionTime": 2,
  "SAR": 0.0284786,
  "ScanOptions": "FS",
  "ScanningSequence": "EP",
  "SequenceName": "*epfid2d1_80",
  "SequenceVariant": "SK",
  "SeriesDescription": "func-bold_fa-77",
  "SeriesNumber": 7,
  "ShimSetting": [4141, -7691, -7506, 167, -72, -341, -63, 96],
  "SliceThickness": 3.5,
  "SliceTiming": [0.99, 0, 1.055, 0.065, 1.1225, 0.1325, 1.1875, 0.1975, 1.2525, 0.265, 1.32, 0.33, 1.385, 0.395, 1.4525, 0.4625, 1.5175, 0.5275, 1.5825, 0.595, 1.65, 0.66, 1.715, 0.725, 1.7825, 0.7925, 1.8475, 0.8575, 1.9125, 0.9225],
  "SoftwareVersions": "syngo MR E11",
  "SpacingBetweenSlices": 3.99,
  "StationName": "AWP66112",
  "TotalReadoutTime": 0.0395,
  "TxRefAmp": 217.885,
  "dcmmeta_affine": [
    [-2.9670913219451904, -0.4259786307811737, -0.1624109297990799, 138.84811401367188],
    [-0.4427028000354767, 2.812877655029297, 1.2559406757354736, -101.1734619140625],
    [0.019589437171816826, -0.951977550983429, 3.783693313598633, -24.981842041015625],
    [0.0, 0.0, 0.0, 1.0]
],
  "dcmmeta_reorient_transform": [
    [0.0, -1.0, 0.0, 79.0],
    [1.0, 0.0, 0.0, 0.0],
    [0.0, 0.0, 1.0, 0.0],
    [0.0, 0.0, 0.0, 1.0]
],
  "dcmmeta_shape": [80, 80, 30, 200],
  "dcmmeta_slice_dim": 2,
  "dcmmeta_version": 0.6,
  "global": {
    "const": {
      "AccessionNumber": "qa64",
      "AcquisitionMatrix": [80, 0, 0, 80],
      "AngioFlag": "N",
      "BitsAllocated": 16,
      "BitsStored": 12,
      "BodyPartExamined": "BRAIN",
      "Columns": 480,
      "EchoNumbers": 1,
      "EchoTime": 30.0,
      "EchoTrainLength": 80,
      "FlipAngle": 77.0,
      "HighBit": 11,
      "ImageOrientationPatient": [0.98903041716976, 0.14756759626124, 0.00652981214795, -0.1419928806978, 0.93762589690233, 0.31732585663518],
      "ImagePositionPatient": [-613.41832249394, -772.15997090052, -294.50147138591],
      "ImageType": [
        "ORIGINAL",
        "PRIMARY",
        "M",
        "ND",
        "NORM",
        "MOSAIC"
],
      "ImagedNucleus": "1H",
      "ImagingFrequency": 123.252394,
      "InPlanePhaseEncodingDirection": "COL",
      "MRAcquisitionType": "2D",
      "MagneticFieldStrength": 3.0,
      "Manufacturer": "SIEMENS",
      "ManufacturerModelName": "Prisma",
      "Modality": "MR",
      "NumberOfAverages": 1.0,
      "NumberOfPhaseEncodingSteps": 80,
      "PercentPhaseFieldOfView": 100.0,
      "PercentSampling": 100.0,
      "PerformedProcedureStepStartTime": "094150.416000",
      "PhotometricInterpretation": "MONOCHROME2",
      "PixelBandwidth": 2315.0,
      "PixelRepresentation": 0,
      "PixelSpacing": [3.0, 3.0],
      "ProtocolName": "func-bold_fa-77",
      "RepetitionTime": 2000.0,
      "Rows": 480,
      "SAR": 0.02847858548125,
      "SamplesPerPixel": 1,
      "ScanOptions": "FS",
      "ScanningSequence": "EP",
      "SequenceName": "*epfid2d1_80",
      "SequenceVariant": "SK",
      "SeriesDescription": "func-bold_fa-77",
      "SeriesNumber": 7,
      "SeriesTime": "095229.351000",
      "SliceLocation": -61.188459421721,
      "SliceThickness": 3.5,
      "SmallestImagePixelValue": 0,
      "SoftwareVersions": "syngo MR E11",
      "SpacingBetweenSlices": 3.9900000034121,
      "SpecificCharacterSet": "ISO_IR 100",
      "StudyID": "4",
      "StudyTime": "094150.364000",
      "TransmitCoilName": "Body",
      "VariableFlipAngleFlag": "N",
      "WindowCenterWidthExplanation": "Algo1",
      "dBdt": 0.0},
    "slices": {}
  },
  "time": {
    "samples": {
      "AcquisitionNumber": [1, 2, 3, 4, 5, 6, 7, 8, 9, 10, 11, 12, 13, 14, 15, 16, 17, 18, 19, 20, 21, 22, 23, 24, 25, 26, 27, 28, 29, 30, 31, 32, 33, 34, 35, 36, 37, 38, 39, 40, 41, 42, 43, 44, 45, 46, 47, 48, 49, 50, 51, 52, 53, 54, 55, 56, 57, 58, 59, 60, 61, 62, 63, 64, 65, 66, 67, 68, 69, 70, 71, 72, 73, 74, 75, 76, 77, 78, 79, 80, 81, 82, 83, 84, 85, 86, 87, 88, 89, 90, 91, 92, 93, 94, 95, 96, 97, 98, 99, 100, 101, 102, 103, 104, 105, 106, 107, 108, 109, 110, 111, 112, 113, 114, 115, 116, 117, 118, 119, 120, 121, 122, 123, 124, 125, 126, 127, 128, 129, 130, 131, 132, 133, 134, 135, 136, 137, 138, 139, 140, 141, 142, 143, 144, 145, 146, 147, 148, 149, 150, 151, 152, 153, 154, 155, 156, 157, 158, 159, 160, 161, 162, 163, 164, 165, 166, 167, 168, 169, 170, 171, 172, 173, 174, 175, 176, 177, 178, 179, 180, 181, 182, 183, 184, 185, 186, 187, 188, 189, 190, 191, 192, 193, 194, 195, 196, 197, 198, 199, 200],
      "AcquisitionTime": ["095139.537500", "095141.537500", "095143.537500", "095145.537500", "095147.537500", "095149.537500", "095151.537500", "095153.537500", "095155.537500", "095157.537500", "095159.537500", "095201.537500", "095203.537500", "095205.537500", "095207.537500", "095209.537500", "095211.537500", "095213.537500", "095215.537500", "095217.537500", "095219.537500", "095221.537500", "095223.537500", "095225.537500", "095227.537500", "095229.537500", "095231.537500", "095233.537500", "095235.537500", "095237.537500", "095239.537500", "095241.537500", "095243.537500", "095245.537500", "095247.537500", "095249.537500", "095251.537500", "095253.537500", "095255.537500", "095257.537500", "095259.537500", "095301.537500", "095303.537500", "095305.537500", "095307.537500", "095309.537500", "095311.537500", "095313.537500", "095315.537500", "095317.537500", "095319.537500", "095321.537500", "095323.537500", "095325.537500", "095327.537500", "095329.537500", "095331.537500", "095333.537500", "095335.537500", "095337.537500", "095339.537500", "095341.537500", "095343.537500", "095345.537500", "095347.537500", "095349.537500", "095351.537500", "095353.537500", "095355.537500", "095357.537500", "095359.537500", "095401.537500", "095403.537500", "095405.537500", "095407.537500", "095409.537500", "095411.537500", "095413.537500", "095415.537500", "095417.537500", "095419.537500", "095421.537500", "095423.537500", "095425.537500", "095427.537500", "095429.537500", "095431.537500", "095433.537500", "095435.537500", "095437.537500", "095439.537500", "095441.537500", "095443.537500", "095445.537500", "095447.537500", "095449.537500", "095451.537500", "095453.537500", "095455.537500", "095457.537500", "095459.537500", "095501.537500", "095503.537500", "095505.537500", "095507.537500", "095509.537500", "095511.537500", "095513.537500", "095515.537500", "095517.537500", "095519.537500", "095521.537500", "095523.537500", "095525.537500", "095527.537500", "095529.537500", "095531.537500", "095533.537500", "095535.537500", "095537.537500", "095539.537500", "095541.537500", "095543.537500", "095545.537500", "095547.537500", "095549.537500", "095551.537500", "095553.537500", "095555.537500", "095557.537500", "095559.537500", "095601.537500", "095603.537500", "095605.537500", "095607.537500", "095609.537500", "095611.537500", "095613.537500", "095615.537500", "095617.537500", "095619.537500", "095621.537500", "095623.537500", "095625.537500", "095627.537500", "095629.537500", "095631.537500", "095633.537500", "095635.537500", "095637.537500", "095639.537500", "095641.537500", "095643.537500", "095645.537500", "095647.537500", "095649.537500", "095651.537500", "095653.537500", "095655.537500", "095657.537500", "095659.537500", "095701.537500", "095703.537500", "095705.537500", "095707.537500", "095709.537500", "095711.537500", "095713.537500", "095715.537500", "095717.537500", "095719.537500", "095721.537500", "095723.537500", "095725.537500", "095727.537500", "095729.537500", "095731.537500", "095733.537500", "095735.537500", "095737.537500", "095739.537500", "095741.537500", "095743.537500", "095745.537500", "095747.537500", "095749.537500", "095751.537500", "095753.537500", "095755.537500", "095757.537500", "095759.537500", "095801.537500", "095803.537500", "095805.537500", "095807.537500", "095809.537500", "095811.537500", "095813.537500", "095815.537500", "095817.537500"],
      "ContentTime": ["095229.354000", "095229.358000", "095229.360000", "095229.373000", "095229.376000", "095229.378000", "095229.381000", "095229.383000", "095229.386000", "095229.389000", "095229.391000", "095229.394000", "095229.396000", "095229.399000", "095229.401000", "095229.404000", "095229.407000", "095229.409000", "095229.412000", "095229.414000", "095229.417000", "095229.419000", "095229.422000", "095229.425000", "095229.427000", "095309.350000", "095309.353000", "095309.356000", "095309.358000", "095309.361000", "095309.363000", "095309.366000", "095309.368000", "095309.371000", "095309.374000", "095309.376000", "095309.379000", "095309.381000", "095309.384000", "095309.386000", "095309.389000", "095309.392000", "095309.394000", "095309.397000", "095309.399000", "095349.350000", "095349.353000", "095349.356000", "095349.358000", "095349.361000", "095349.364000", "095349.366000", "095349.369000", "095349.371000", "095349.374000", "095349.376000", "095349.379000", "095349.382000", "095349.384000", "095349.387000", "095349.389000", "095349.392000", "095349.394000", "095349.397000", "095349.399000", "095429.349000", "095429.352000", "095429.355000", "095429.358000", "095429.360000", "095429.363000", "095429.365000", "095429.368000", "095429.370000", "095429.373000", "095429.375000", "095429.378000", "095429.380000", "095429.383000", "095429.385000", "095429.388000", "095429.390000", "095429.393000", "095429.396000", "095429.398000", "095509.349000", "095509.352000", "095509.355000", "095509.357000", "095509.360000", "095509.362000", "095509.365000", "095509.368000", "095509.370000", "095509.373000", "095509.375000", "095509.378000", "095509.380000", "095509.383000", "095509.385000", "095509.390000", "095509.392000", "095509.395000", "095509.397000", "095509.400000", "095549.350000", "095549.353000", "095549.356000", "095549.358000", "095549.361000", "095549.363000", "095549.366000", "095549.369000", "095549.371000", "095549.374000", "095549.376000", "095549.379000", "095549.381000", "095549.384000", "095549.387000", "095549.389000", "095549.392000", "095549.394000", "095549.397000", "095549.399000", "095629.349000", "095629.352000", "095629.355000", "095629.357000", "095629.360000", "095629.363000", "095629.365000", "095629.368000", "095629.370000", "095629.373000", "095629.376000", "095629.378000", "095629.381000", "095629.383000", "095629.386000", "095629.388000", "095629.391000", "095629.393000", "095629.396000", "095629.399000", "095649.350000", "095649.352000", "095649.355000", "095649.357000", "095649.360000", "095649.363000", "095649.365000", "095649.368000", "095649.370000", "095649.373000", "095729.349000", "095729.352000", "095729.355000", "095729.358000", "095729.360000", "095729.363000", "095729.365000", "095729.368000", "095729.370000", "095729.373000", "095729.376000", "095729.378000", "095729.381000", "095729.383000", "095729.386000", "095729.388000", "095729.391000", "095729.394000", "095729.396000", "095729.399000", "095809.350000", "095809.353000", "095809.356000", "095809.359000", "095809.361000", "095809.364000", "095809.366000", "095809.369000", "095809.372000", "095809.374000", "095809.377000", "095809.379000", "095809.382000", "095809.384000", "095809.387000", "095809.390000", "095809.392000", "095809.395000", "095809.397000", "095809.400000", "095819.161000", "095819.164000", "095819.167000", "095819.169000", "095819.172000"],
      "InstanceCreationTime": ["095229.354000", "095229.358000", "095229.360000", "095229.373000", "095229.376000", "095229.378000", "095229.381000", "095229.383000", "095229.386000", "095229.389000", "095229.391000", "095229.394000", "095229.396000", "095229.399000", "095229.401000", "095229.404000", "095229.407000", "095229.409000", "095229.412000", "095229.414000", "095229.417000", "095229.419000", "095229.422000", "095229.425000", "095229.427000", "095309.350000", "095309.353000", "095309.356000", "095309.358000", "095309.361000", "095309.363000", "095309.366000", "095309.368000", "095309.371000", "095309.374000", "095309.376000", "095309.379000", "095309.381000", "095309.384000", "095309.386000", "095309.389000", "095309.392000", "095309.394000", "095309.397000", "095309.399000", "095349.350000", "095349.353000", "095349.356000", "095349.358000", "095349.361000", "095349.364000", "095349.366000", "095349.369000", "095349.371000", "095349.374000", "095349.376000", "095349.379000", "095349.382000", "095349.384000", "095349.387000", "095349.389000", "095349.392000", "095349.394000", "095349.397000", "095349.399000", "095429.349000", "095429.352000", "095429.355000", "095429.358000", "095429.360000", "095429.363000", "095429.365000", "095429.368000", "095429.370000", "095429.373000", "095429.375000", "095429.378000", "095429.380000", "095429.383000", "095429.385000", "095429.388000", "095429.390000", "095429.393000", "095429.396000", "095429.398000", "095509.349000", "095509.352000", "095509.355000", "095509.357000", "095509.360000", "095509.362000", "095509.365000", "095509.368000", "095509.370000", "095509.373000", "095509.375000", "095509.378000", "095509.380000", "095509.383000", "095509.385000", "095509.390000", "095509.392000", "095509.395000", "095509.397000", "095509.400000", "095549.350000", "095549.353000", "095549.356000", "095549.358000", "095549.361000", "095549.363000", "095549.366000", "095549.369000", "095549.371000", "095549.374000", "095549.376000", "095549.379000", "095549.381000", "095549.384000", "095549.387000", "095549.389000", "095549.392000", "095549.394000", "095549.397000", "095549.399000", "095629.349000", "095629.352000", "095629.355000", "095629.357000", "095629.360000", "095629.363000", "095629.365000", "095629.368000", "095629.370000", "095629.373000", "095629.376000", "095629.378000", "095629.381000", "095629.383000", "095629.386000", "095629.388000", "095629.391000", "095629.393000", "095629.396000", "095629.399000", "095649.350000", "095649.352000", "095649.355000", "095649.357000", "095649.360000", "095649.363000", "095649.365000", "095649.368000", "095649.370000", "095649.373000", "095729.349000", "095729.352000", "095729.355000", "095729.358000", "095729.360000", "095729.363000", "095729.365000", "095729.368000", "095729.370000", "095729.373000", "095729.376000", "095729.378000", "095729.381000", "095729.383000", "095729.386000", "095729.388000", "095729.391000", "095729.394000", "095729.396000", "095729.399000", "095809.350000", "095809.353000", "095809.356000", "095809.359000", "095809.361000", "095809.364000", "095809.366000", "095809.369000", "095809.372000", "095809.374000", "095809.377000", "095809.379000", "095809.382000", "095809.384000", "095809.387000", "095809.390000", "095809.392000", "095809.395000", "095809.397000", "095809.400000", "095819.161000", "095819.164000", "095819.167000", "095819.169000", "095819.172000"],
      "InstanceNumber": [1, 2, 3, 4, 5, 6, 7, 8, 9, 10, 11, 12, 13, 14, 15, 16, 17, 18, 19, 20, 21, 22, 23, 24, 25, 26, 27, 28, 29, 30, 31, 32, 33, 34, 35, 36, 37, 38, 39, 40, 41, 42, 43, 44, 45, 46, 47, 48, 49, 50, 51, 52, 53, 54, 55, 56, 57, 58, 59, 60, 61, 62, 63, 64, 65, 66, 67, 68, 69, 70, 71, 72, 73, 74, 75, 76, 77, 78, 79, 80, 81, 82, 83, 84, 85, 86, 87, 88, 89, 90, 91, 92, 93, 94, 95, 96, 97, 98, 99, 100, 101, 102, 103, 104, 105, 106, 107, 108, 109, 110, 111, 112, 113, 114, 115, 116, 117, 118, 119, 120, 121, 122, 123, 124, 125, 126, 127, 128, 129, 130, 131, 132, 133, 134, 135, 136, 137, 138, 139, 140, 141, 142, 143, 144, 145, 146, 147, 148, 149, 150, 151, 152, 153, 154, 155, 156, 157, 158, 159, 160, 161, 162, 163, 164, 165, 166, 167, 168, 169, 170, 171, 172, 173, 174, 175, 176, 177, 178, 179, 180, 181, 182, 183, 184, 185, 186, 187, 188, 189, 190, 191, 192, 193, 194, 195, 196, 197, 198, 199, 200],
      "LargestImagePixelValue": [3769, 3761, 3766, 3764, 3763, 3759, 3759, 3761, 3754, 3758, 3755, 3753, 3755, 3756, 3757, 3757, 3752, 3751, 3748, 3750, 3753, 3755, 3752, 3752, 3757, 3757, 3754, 3760, 3756, 3759, 3754, 3757, 3760, 3754, 3755, 3752, 3754, 3755, 3756, 3757, 3754, 3753, 3755, 3761, 3756, 3762, 3756, 3755, 3752, 3757, 3757, 3757, 3756, 3758, 3757, 3754, 3756, 3758, 3756, 3755, 3757, 3759, 3757, 3756, 3764, 3763, 3762, 3759, 3759, 3761, 3760, 3756, 3760, 3766, 3764, 3765, 3761, 3758, 3756, 3763, 3758, 3759, 3761, 3757, 3756, 3754, 3759, 3758, 3760, 3759, 3754, 3756, 3757, 3755, 3752, 3751, 3757, 3757, 3755, 3756, 3755, 3757, 3754, 3755, 3757, 3755, 3758, 3755, 3759, 3755, 3757, 3756, 3755, 3757, 3754, 3754, 3755, 3752, 3751, 3754, 3750, 3750, 3749, 3750, 3745, 3753, 3756, 3753, 3756, 3756, 3759, 3758, 3758, 3756, 3764, 3764, 3764, 3762, 3755, 3761, 3764, 3760, 3754, 3761, 3758, 3760, 3765, 3758, 3756, 3761, 3762, 3757, 3759, 3763, 3758, 3762, 3768, 3768, 3765, 3761, 3762, 3756, 3760, 3759, 3756, 3756, 3750, 3755, 3750, 3749, 3750, 3747, 3752, 3746, 3750, 3750, 3750, 3744, 3748, 3748, 3748, 3751, 3748, 3751, 3744, 3749, 3747, 3748, 3748, 3750, 3753, 3752, 3752, 3749, 3749, 3742, 3742, 3746, 3744, 3746],
      "WindowCenter": [1364.0, 1364.0, 1364.0, 1364.0, 1364.0, 1364.0, 1365.0, 1364.0, 1364.0, 1364.0, 1364.0, 1364.0, 1364.0, 1363.0, 1363.0, 1364.0, 1363.0, 1363.0, 1364.0, 1363.0, 1364.0, 1363.0, 1364.0, 1363.0, 1363.0, 1363.0, 1363.0, 1363.0, 1363.0, 1363.0, 1363.0, 1363.0, 1363.0, 1363.0, 1363.0, 1362.0, 1363.0, 1363.0, 1363.0, 1363.0, 1363.0, 1362.0, 1363.0, 1362.0, 1362.0, 1363.0, 1363.0, 1363.0, 1363.0, 1363.0, 1362.0, 1363.0, 1363.0, 1363.0, 1362.0, 1362.0, 1362.0, 1362.0, 1362.0, 1362.0, 1362.0, 1362.0, 1362.0, 1362.0, 1362.0, 1362.0, 1362.0, 1363.0, 1362.0, 1362.0, 1362.0, 1361.0, 1362.0, 1362.0, 1362.0, 1362.0, 1362.0, 1362.0, 1362.0, 1362.0, 1361.0, 1362.0, 1362.0, 1361.0, 1362.0, 1361.0, 1361.0, 1361.0, 1361.0, 1361.0, 1362.0, 1362.0, 1361.0, 1361.0, 1361.0, 1361.0, 1361.0, 1361.0, 1361.0, 1361.0, 1361.0, 1361.0, 1361.0, 1361.0, 1361.0, 1360.0, 1361.0, 1361.0, 1360.0, 1361.0, 1361.0, 1360.0, 1360.0, 1360.0, 1360.0, 1361.0, 1361.0, 1360.0, 1360.0, 1361.0, 1361.0, 1361.0, 1361.0, 1360.0, 1361.0, 1361.0, 1361.0, 1361.0, 1361.0, 1360.0, 1360.0, 1360.0, 1360.0, 1360.0, 1360.0, 1360.0, 1360.0, 1361.0, 1360.0, 1361.0, 1360.0, 1360.0, 1361.0, 1360.0, 1360.0, 1359.0, 1360.0, 1359.0, 1359.0, 1359.0, 1359.0, 1360.0, 1359.0, 1360.0, 1359.0, 1359.0, 1359.0, 1360.0, 1360.0, 1359.0, 1360.0, 1360.0, 1360.0, 1359.0, 1359.0, 1360.0, 1359.0, 1360.0, 1359.0, 1359.0, 1359.0, 1360.0, 1359.0, 1359.0, 1359.0, 1359.0, 1359.0, 1358.0, 1358.0, 1357.0, 1358.0, 1359.0, 1359.0, 1359.0, 1359.0, 1359.0, 1359.0, 1359.0, 1359.0, 1359.0, 1359.0, 1359.0, 1358.0, 1359.0, 1359.0, 1359.0, 1360.0, 1359.0, 1359.0, 1358.0],
      "WindowWidth": [3256.0, 3256.0, 3256.0, 3256.0, 3256.0, 3256.0, 3255.0, 3256.0, 3256.0, 3256.0, 3256.0, 3256.0, 3255.0, 3255.0, 3255.0, 3256.0, 3256.0, 3256.0, 3255.0, 3255.0, 3255.0, 3255.0, 3255.0, 3255.0, 3255.0, 3255.0, 3255.0, 3255.0, 3255.0, 3255.0, 3255.0, 3255.0, 3255.0, 3255.0, 3255.0, 3255.0, 3255.0, 3255.0, 3255.0, 3255.0, 3255.0, 3255.0, 3254.0, 3255.0, 3255.0, 3255.0, 3254.0, 3254.0, 3254.0, 3254.0, 3254.0, 3254.0, 3254.0, 3254.0, 3254.0, 3254.0, 3254.0, 3254.0, 3254.0, 3254.0, 3254.0, 3254.0, 3254.0, 3254.0, 3254.0, 3254.0, 3254.0, 3253.0, 3254.0, 3253.0, 3254.0, 3254.0, 3254.0, 3253.0, 3254.0, 3253.0, 3253.0, 3253.0, 3253.0, 3253.0, 3253.0, 3253.0, 3253.0, 3253.0, 3253.0, 3253.0, 3253.0, 3253.0, 3253.0, 3252.0, 3252.0, 3252.0, 3253.0, 3253.0, 3253.0, 3253.0, 3253.0, 3253.0, 3253.0, 3253.0, 3253.0, 3253.0, 3252.0, 3252.0, 3252.0, 3253.0, 3252.0, 3252.0, 3253.0, 3253.0, 3253.0, 3253.0, 3252.0, 3252.0, 3252.0, 3251.0, 3252.0, 3252.0, 3252.0, 3252.0, 3252.0, 3252.0, 3252.0, 3252.0, 3252.0, 3252.0, 3252.0, 3252.0, 3252.0, 3252.0, 3252.0, 3252.0, 3251.0, 3251.0, 3251.0, 3252.0, 3252.0, 3251.0, 3252.0, 3251.0, 3252.0, 3252.0, 3251.0, 3251.0, 3251.0, 3251.0, 3251.0, 3251.0, 3251.0, 3250.0, 3251.0, 3251.0, 3251.0, 3250.0, 3251.0, 3251.0, 3252.0, 3251.0, 3250.0, 3251.0, 3250.0, 3250.0, 3250.0, 3251.0, 3251.0, 3250.0, 3250.0, 3250.0, 3251.0, 3249.0, 3249.0, 3250.0, 3250.0, 3250.0, 3251.0, 3250.0, 3249.0, 3248.0, 3248.0, 3248.0, 3248.0, 3249.0, 3250.0, 3250.0, 3250.0, 3250.0, 3250.0, 3250.0, 3250.0, 3250.0, 3250.0, 3250.0, 3251.0, 3250.0, 3250.0, 3250.0, 3250.0, 3250.0, 3250.0, 3251.0]
    },
    "slices": {}
  }
}