{
  "AcquisitionMatrixPE": 80,
  "AcquisitionNumber": 1,
  "AcquisitionTime": "09:20:48.500000",
  "BandwidthPerPixelPhaseEncode": 25,
  "BaseResolution": 80,
  "BodyPartExamined": "BRAIN",
  "CoilCombinationMethod": "Sum of Squares",
  "ConsistencyInfo": "N4_VE11C_LATEST_20160120",
  "ConversionSoftware": "dcm2niix",
  "ConversionSoftwareVersion": "v1.0.20220720",
  "DerivedVendorReportedEchoSpacing": 0.0005,
  "DeviceSerialNumber": "66112",
  "DwellTime": 2.7e-06,
  "EchoTime": 0.03,
  "EchoTrainLength": 80,
  "EffectiveEchoSpacing": 0.0005,
  "FlipAngle": 10,
  "HeudiconvVersion": "0.13.1",
  "ImageOrientationPatientDICOM": [0.985083, 0.171869, 0.00852311, -0.165377, 0.931857, 0.322944],
  "ImageOrientationText": "Tra>Cor(18.7)>Sag(-2.7)",
  "ImageType": [
    "ORIGINAL",
    "PRIMARY",
    "M",
    "ND",
    "NORM",
    "MOSAIC"
],
  "ImagingFrequency": 123.252,
  "InPlanePhaseEncodingDirectionDICOM": "COL",
  "InstitutionAddress": "Maynard 3,Hanover,NH,US,03755",
  "InstitutionName": "Dartmouth College - PBS",
  "InstitutionalDepartmentName": "Department",
  "MRAcquisitionType": "2D",
  "MagneticFieldStrength": 3,
  "Manufacturer": "Siemens",
  "ManufacturersModelName": "Prisma",
  "MatrixCoilMode": "SENSE",
  "Modality": "MR",
  "NonlinearGradientCorrection": false,
  "PartialFourier": 1,
  "PatientPosition": "HFS",
  "PercentPhaseFOV": 100,
  "PercentSampling": 100,
  "PhaseEncodingDirection": "j-",
  "PhaseEncodingSteps": 80,
  "PhaseResolution": 1,
  "PixelBandwidth": 2315,
  "ProcedureStepDescription": "dbic^QA",
  "ProtocolName": "func-bold_fa-10",
  "PulseSequenceDetails": "%SiemensSeq%\\ep2d_bold",
  "ReceiveCoilActiveElements": "HEA;HEP",
  "ReceiveCoilName": "Head_32",
  "ReconMatrixPE": 80,
  "RepetitionTime": 2,
  "SAR": 0.010033,
  "ScanOptions": "FS",
  "ScanningSequence": "EP",
  "SequenceName": "*epfid2d1_80",
  "SequenceVariant": "SK",
  "SeriesDescription": "func-bold_fa-10",
  "SeriesNumber": 10,
  "ShimSetting": [4144, -7695, -7522, 284, -54, -150, 26, 71],
  "SliceThickness": 3.5,
  "SliceTiming": [0.99, 0, 1.0575, 0.0675, 1.1225, 0.1325, 1.19, 0.2, 1.255, 0.265, 1.32, 0.33, 1.3875, 0.3975, 1.4525, 0.4625, 1.52, 0.53, 1.585, 0.595, 1.65, 0.66, 1.7175, 0.7275, 1.7825, 0.7925, 1.85, 0.86, 1.915, 0.925],
  "SoftwareVersions": "syngo MR E11",
  "SpacingBetweenSlices": 3.99,
  "StationName": "AWP66112",
  "TotalReadoutTime": 0.0395,
  "TxRefAmp": 222.642,
  "dcmmeta_affine": [
    [-2.9552488327026367, -0.49612993001937866, -0.18977090716362, 144.06072998046875],
    [-0.5156065225601196, 2.795571804046631, 1.2749478816986084, -99.96542358398438],
    [0.02556932158768177, -0.9688308835029602, 3.7760555744171143, -10.905961990356445],
    [0.0, 0.0, 0.0, 1.0]
],
  "dcmmeta_reorient_transform": [
    [0.0, -1.0, 0.0, 79.0],
    [1.0, 0.0, 0.0, 0.0],
    [0.0, 0.0, 1.0, 0.0],
    [0.0, 0.0, 0.0, 1.0]
],
  "dcmmeta_shape": [80, 80, 30, 200],
  "dcmmeta_slice_dim": 2,
  "dcmmeta_version": 0.6,
  "global": {
    "const": {
      "AccessionNumber": "qa",
      "AcquisitionMatrix": [80, 0, 0, 80],
      "AngioFlag": "N",
      "BitsAllocated": 16,
      "BitsStored": 12,
      "BodyPartExamined": "BRAIN",
      "Columns": 480,
      "EchoNumbers": 1,
      "EchoTime": 30.0,
      "EchoTrainLength": 80,
      "FlipAngle": 10.0,
      "HighBit": 11,
      "ImageOrientationPatient": [0.98508296995398, 0.17186884230086, 0.0085231069929, -0.1653766419042, 0.93185727126652, 0.32294363641383],
      "ImagePositionPatient": [-596.69026899489, -783.12042002413, -286.32365016251],
      "ImageType": [
        "ORIGINAL",
        "PRIMARY",
        "M",
        "ND",
        "NORM",
        "MOSAIC"
],
      "ImagedNucleus": "1H",
      "ImagingFrequency": 123.25237,
      "InPlanePhaseEncodingDirection": "COL",
      "MRAcquisitionType": "2D",
      "MagneticFieldStrength": 3.0,
      "Manufacturer": "SIEMENS",
      "ManufacturerModelName": "Prisma",
      "Modality": "MR",
      "NumberOfAverages": 1.0,
      "NumberOfPhaseEncodingSteps": 80,
      "PercentPhaseFieldOfView": 100.0,
      "PercentSampling": 100.0,
      "PerformedProcedureStepStartTime": "083538.238000",
      "PhotometricInterpretation": "MONOCHROME2",
      "PixelBandwidth": 2315.0,
      "PixelRepresentation": 0,
      "PixelSpacing": [3.0, 3.0],
      "ProtocolName": "func-bold_fa-10",
      "RepetitionTime": 2000.0,
      "Rows": 480,
      "SAR": 0.01003298368721,
      "SamplesPerPixel": 1,
      "ScanOptions": "FS",
      "ScanningSequence": "EP",
      "SequenceName": "*epfid2d1_80",
      "SequenceVariant": "SK",
      "SeriesDescription": "func-bold_fa-10",
      "SeriesNumber": 10,
      "SeriesTime": "092129.257000",
      "SliceLocation": -49.115476855678,
      "SliceThickness": 3.5,
      "SmallestImagePixelValue": 0,
      "SoftwareVersions": "syngo MR E11",
      "SpacingBetweenSlices": 3.9900000630504,
      "SpecificCharacterSet": "ISO_IR 100",
      "StudyID": "9",
      "StudyTime": "083538.119000",
      "TransmitCoilName": "Body",
      "VariableFlipAngleFlag": "N",
      "WindowCenterWidthExplanation": "Algo1",
      "dBdt": 0.0},
    "slices": {}
  },
  "time": {
    "samples": {
      "AcquisitionNumber": [1, 2, 3, 4, 5, 6, 7, 8, 9, 10, 11, 12, 13, 14, 15, 16, 17, 18, 19, 20, 21, 22, 23, 24, 25, 26, 27, 28, 29, 30, 31, 32, 33, 34, 35, 36, 37, 38, 39, 40, 41, 42, 43, 44, 45, 46, 47, 48, 49, 50, 51, 52, 53, 54, 55, 56, 57, 58, 59, 60, 61, 62, 63, 64, 65, 66, 67, 68, 69, 70, 71, 72, 73, 74, 75, 76, 77, 78, 79, 80, 81, 82, 83, 84, 85, 86, 87, 88, 89, 90, 91, 92, 93, 94, 95, 96, 97, 98, 99, 100, 101, 102, 103, 104, 105, 106, 107, 108, 109, 110, 111, 112, 113, 114, 115, 116, 117, 118, 119, 120, 121, 122, 123, 124, 125, 126, 127, 128, 129, 130, 131, 132, 133, 134, 135, 136, 137, 138, 139, 140, 141, 142, 143, 144, 145, 146, 147, 148, 149, 150, 151, 152, 153, 154, 155, 156, 157, 158, 159, 160, 161, 162, 163, 164, 165, 166, 167, 168, 169, 170, 171, 172, 173, 174, 175, 176, 177, 178, 179, 180, 181, 182, 183, 184, 185, 186, 187, 188, 189, 190, 191, 192, 193, 194, 195, 196, 197, 198, 199, 200],
      "AcquisitionTime": ["092048.500000", "092050.500000", "092052.500000", "092054.500000", "092056.500000", "092058.500000", "092100.500000", "092102.500000", "092104.500000", "092106.500000", "092108.500000", "092110.500000", "092112.500000", "092114.500000", "092116.500000", "092118.500000", "092120.500000", "092122.500000", "092124.500000", "092126.500000", "092128.500000", "092130.500000", "092132.500000", "092134.500000", "092136.500000", "092138.500000", "092140.500000", "092142.500000", "092144.500000", "092146.500000", "092148.500000", "092150.500000", "092152.500000", "092154.500000", "092156.500000", "092158.500000", "092200.500000", "092202.500000", "092204.500000", "092206.500000", "092208.500000", "092210.500000", "092212.500000", "092214.500000", "092216.500000", "092218.500000", "092220.500000", "092222.500000", "092224.500000", "092226.500000", "092228.500000", "092230.500000", "092232.500000", "092234.500000", "092236.500000", "092238.500000", "092240.500000", "092242.500000", "092244.500000", "092246.500000", "092248.500000", "092250.500000", "092252.500000", "092254.500000", "092256.500000", "092258.500000", "092300.500000", "092302.500000", "092304.500000", "092306.500000", "092308.500000", "092310.500000", "092312.500000", "092314.500000", "092316.500000", "092318.500000", "092320.500000", "092322.500000", "092324.500000", "092326.500000", "092328.500000", "092330.500000", "092332.500000", "092334.500000", "092336.500000", "092338.500000", "092340.500000", "092342.500000", "092344.500000", "092346.500000", "092348.500000", "092350.500000", "092352.500000", "092354.500000", "092356.500000", "092358.500000", "092400.500000", "092402.500000", "092404.500000", "092406.500000", "092408.500000", "092410.500000", "092412.500000", "092414.500000", "092416.500000", "092418.500000", "092420.500000", "092422.500000", "092424.500000", "092426.500000", "092428.500000", "092430.500000", "092432.500000", "092434.500000", "092436.500000", "092438.500000", "092440.500000", "092442.500000", "092444.500000", "092446.500000", "092448.500000", "092450.500000", "092452.500000", "092454.500000", "092456.500000", "092458.500000", "092500.500000", "092502.500000", "092504.500000", "092506.500000", "092508.500000", "092510.500000", "092512.500000", "092514.500000", "092516.500000", "092518.500000", "092520.500000", "092522.500000", "092524.500000", "092526.500000", "092528.500000", "092530.500000", "092532.500000", "092534.500000", "092536.500000", "092538.500000", "092540.500000", "092542.500000", "092544.500000", "092546.500000", "092548.500000", "092550.500000", "092552.500000", "092554.500000", "092556.500000", "092558.500000", "092600.500000", "092602.500000", "092604.500000", "092606.500000", "092608.500000", "092610.500000", "092612.500000", "092614.500000", "092616.500000", "092618.500000", "092620.500000", "092622.500000", "092624.500000", "092626.500000", "092628.500000", "092630.500000", "092632.500000", "092634.500000", "092636.500000", "092638.500000", "092640.500000", "092642.500000", "092644.500000", "092646.500000", "092648.500000", "092650.500000", "092652.500000", "092654.500000", "092656.500000", "092658.500000", "092700.500000", "092702.500000", "092704.500000", "092706.500000", "092708.500000", "092710.500000", "092712.500000", "092714.500000", "092716.500000", "092718.500000", "092720.500000", "092722.500000", "092724.500000", "092726.500000"],
      "ContentTime": ["092129.265000", "092129.268000", "092129.270000", "092129.273000", "092129.275000", "092129.278000", "092129.280000", "092129.283000", "092129.285000", "092129.287000", "092129.290000", "092129.292000", "092129.295000", "092129.297000", "092129.300000", "092129.302000", "092129.304000", "092129.307000", "092129.309000", "092129.312000", "092209.255000", "092209.258000", "092209.261000", "092209.263000", "092209.266000", "092209.275000", "092209.277000", "092209.280000", "092209.282000", "092209.285000", "092209.287000", "092209.289000", "092209.292000", "092209.294000", "092209.297000", "092209.299000", "092209.302000", "092209.304000", "092209.307000", "092209.309000", "092249.256000", "092249.259000", "092249.262000", "092249.264000", "092249.267000", "092249.269000", "092249.272000", "092249.274000", "092249.277000", "092249.279000", "092249.281000", "092249.284000", "092249.286000", "092249.289000", "092249.291000", "092249.294000", "092249.296000", "092249.307000", "092249.309000", "092249.312000", "092329.256000", "092329.259000", "092329.262000", "092329.264000", "092329.266000", "092329.269000", "092329.271000", "092329.274000", "092329.276000", "092329.279000", "092329.281000", "092329.284000", "092329.286000", "092329.289000", "092329.291000", "092329.293000", "092329.296000", "092329.298000", "092329.301000", "092329.303000", "092409.255000", "092409.258000", "092409.261000", "092409.263000", "092409.266000", "092409.268000", "092409.270000", "092409.273000", "092409.275000", "092409.278000", "092409.280000", "092409.283000", "092409.285000", "092409.288000", "092409.290000", "092409.293000", "092409.295000", "092409.298000", "092409.300000", "092409.302000", "092449.255000", "092449.258000", "092449.261000", "092449.263000", "092449.266000", "092449.268000", "092449.270000", "092449.273000", "092449.275000", "092449.278000", "092449.280000", "092449.283000", "092449.285000", "092449.288000", "092449.290000", "092449.293000", "092449.295000", "092449.297000", "092449.300000", "092449.302000", "092529.256000", "092529.259000", "092529.262000", "092529.264000", "092529.273000", "092529.276000", "092529.278000", "092529.281000", "092529.283000", "092529.285000", "092529.288000", "092529.290000", "092529.293000", "092529.295000", "092529.298000", "092529.300000", "092529.303000", "092529.305000", "092529.308000", "092529.310000", "092609.255000", "092609.258000", "092609.261000", "092609.263000", "092609.265000", "092609.268000", "092609.270000", "092609.273000", "092609.275000", "092609.278000", "092609.280000", "092609.283000", "092609.285000", "092609.288000", "092609.290000", "092609.293000", "092609.295000", "092609.298000", "092609.300000", "092609.303000", "092649.255000", "092649.258000", "092649.261000", "092649.263000", "092649.266000", "092649.268000", "092649.270000", "092649.273000", "092649.275000", "092649.278000", "092649.280000", "092649.283000", "092649.285000", "092649.288000", "092649.290000", "092649.293000", "092649.295000", "092649.298000", "092649.300000", "092649.303000", "092728.410000", "092728.413000", "092728.415000", "092728.418000", "092728.420000", "092728.423000", "092728.425000", "092728.428000", "092728.430000", "092728.433000", "092728.435000", "092728.438000", "092728.440000", "092728.446000", "092728.450000", "092728.452000", "092728.468000", "092728.471000", "092728.473000", "092728.476000"],
      "InstanceCreationTime": ["092129.265000", "092129.268000", "092129.270000", "092129.273000", "092129.275000", "092129.278000", "092129.280000", "092129.283000", "092129.285000", "092129.287000", "092129.290000", "092129.292000", "092129.295000", "092129.297000", "092129.300000", "092129.302000", "092129.304000", "092129.307000", "092129.309000", "092129.312000", "092209.255000", "092209.258000", "092209.261000", "092209.263000", "092209.266000", "092209.275000", "092209.277000", "092209.280000", "092209.282000", "092209.285000", "092209.287000", "092209.289000", "092209.292000", "092209.294000", "092209.297000", "092209.299000", "092209.302000", "092209.304000", "092209.307000", "092209.309000", "092249.256000", "092249.259000", "092249.262000", "092249.264000", "092249.267000", "092249.269000", "092249.272000", "092249.274000", "092249.277000", "092249.279000", "092249.281000", "092249.284000", "092249.286000", "092249.289000", "092249.291000", "092249.294000", "092249.296000", "092249.307000", "092249.309000", "092249.312000", "092329.256000", "092329.259000", "092329.262000", "092329.264000", "092329.266000", "092329.269000", "092329.271000", "092329.274000", "092329.276000", "092329.279000", "092329.281000", "092329.284000", "092329.286000", "092329.289000", "092329.291000", "092329.293000", "092329.296000", "092329.298000", "092329.301000", "092329.303000", "092409.255000", "092409.258000", "092409.261000", "092409.263000", "092409.266000", "092409.268000", "092409.270000", "092409.273000", "092409.275000", "092409.278000", "092409.280000", "092409.283000", "092409.285000", "092409.288000", "092409.290000", "092409.293000", "092409.295000", "092409.298000", "092409.300000", "092409.302000", "092449.255000", "092449.258000", "092449.261000", "092449.263000", "092449.266000", "092449.268000", "092449.270000", "092449.273000", "092449.275000", "092449.278000", "092449.280000", "092449.283000", "092449.285000", "092449.288000", "092449.290000", "092449.293000", "092449.295000", "092449.297000", "092449.300000", "092449.302000", "092529.256000", "092529.259000", "092529.262000", "092529.264000", "092529.273000", "092529.276000", "092529.278000", "092529.281000", "092529.283000", "092529.285000", "092529.288000", "092529.290000", "092529.293000", "092529.295000", "092529.298000", "092529.300000", "092529.303000", "092529.305000", "092529.308000", "092529.310000", "092609.255000", "092609.258000", "092609.261000", "092609.263000", "092609.265000", "092609.268000", "092609.270000", "092609.273000", "092609.275000", "092609.278000", "092609.280000", "092609.283000", "092609.285000", "092609.288000", "092609.290000", "092609.293000", "092609.295000", "092609.298000", "092609.300000", "092609.303000", "092649.255000", "092649.258000", "092649.261000", "092649.263000", "092649.266000", "092649.268000", "092649.270000", "092649.273000", "092649.275000", "092649.278000", "092649.280000", "092649.283000", "092649.285000", "092649.288000", "092649.290000", "092649.293000", "092649.295000", "092649.298000", "092649.300000", "092649.303000", "092728.410000", "092728.413000", "092728.415000", "092728.418000", "092728.420000", "092728.423000", "092728.425000", "092728.428000", "092728.430000", "092728.433000", "092728.435000", "092728.438000", "092728.440000", "092728.446000", "092728.450000", "092728.452000", "092728.468000", "092728.471000", "092728.473000", "092728.476000"],
      "InstanceNumber": [1, 2, 3, 4, 5, 6, 7, 8, 9, 10, 11, 12, 13, 14, 15, 16, 17, 18, 19, 20, 21, 22, 23, 24, 25, 26, 27, 28, 29, 30, 31, 32, 33, 34, 35, 36, 37, 38, 39, 40, 41, 42, 43, 44, 45, 46, 47, 48, 49, 50, 51, 52, 53, 54, 55, 56, 57, 58, 59, 60, 61, 62, 63, 64, 65, 66, 67, 68, 69, 70, 71, 72, 73, 74, 75, 76, 77, 78, 79, 80, 81, 82, 83, 84, 85, 86, 87, 88, 89, 90, 91, 92, 93, 94, 95, 96, 97, 98, 99, 100, 101, 102, 103, 104, 105, 106, 107, 108, 109, 110, 111, 112, 113, 114, 115, 116, 117, 118, 119, 120, 121, 122, 123, 124, 125, 126, 127, 128, 129, 130, 131, 132, 133, 134, 135, 136, 137, 138, 139, 140, 141, 142, 143, 144, 145, 146, 147, 148, 149, 150, 151, 152, 153, 154, 155, 156, 157, 158, 159, 160, 161, 162, 163, 164, 165, 166, 167, 168, 169, 170, 171, 172, 173, 174, 175, 176, 177, 178, 179, 180, 181, 182, 183, 184, 185, 186, 187, 188, 189, 190, 191, 192, 193, 194, 195, 196, 197, 198, 199, 200],
      "LargestImagePixelValue": [376, 377, 376, 378, 377, 377, 378, 377, 376, 378, 377, 378, 377, 377, 376, 379, 376, 378, 377, 377, 376, 375, 378, 377, 378, 380, 376, 376, 376, 376, 385, 377, 375, 385, 375, 378, 377, 383, 377, 380, 378, 377, 376, 377, 376, 375, 377, 383, 376, 377, 380, 375, 379, 378, 378, 375, 376, 376, 378, 376, 383, 377, 377, 375, 377, 384, 384, 383, 379, 376, 378, 378, 377, 376, 375, 377, 374, 375, 377, 376, 376, 376, 377, 375, 375, 376, 375, 380, 376, 376, 375, 376, 375, 374, 376, 376, 375, 376, 374, 377, 376, 377, 376, 375, 375, 375, 379, 384, 386, 385, 376, 374, 375, 376, 376, 376, 375, 375, 377, 376, 377, 375, 376, 376, 376, 375, 376, 376, 377, 375, 377, 377, 376, 377, 376, 378, 375, 377, 375, 376, 378, 377, 375, 377, 375, 377, 376, 382, 377, 377, 375, 376, 378, 374, 375, 377, 376, 377, 383, 376, 376, 376, 375, 375, 376, 377, 374, 377, 377, 376, 375, 375, 378, 380, 373, 375, 376, 375, 376, 374, 376, 374, 376, 377, 375, 383, 383, 386, 375, 375, 382, 374, 376, 380, 375, 376, 375, 374, 375, 375],
      "WindowCenter": [305.0, 304.0, 304.0, 304.0, 305.0, 304.0, 305.0, 304.0, 305.0, 305.0, 304.0, 305.0, 304.0, 304.0, 304.0, 304.0, 304.0, 304.0, 304.0, 305.0, 304.0, 304.0, 304.0, 304.0, 304.0, 304.0, 304.0, 304.0, 305.0, 304.0, 305.0, 304.0, 305.0, 305.0, 305.0, 305.0, 304.0, 306.0, 304.0, 306.0, 305.0, 304.0, 304.0, 304.0, 304.0, 305.0, 305.0, 305.0, 305.0, 305.0, 304.0, 304.0, 304.0, 304.0, 304.0, 304.0, 305.0, 304.0, 305.0, 304.0, 305.0, 304.0, 304.0, 304.0, 304.0, 306.0, 308.0, 308.0, 305.0, 304.0, 303.0, 303.0, 304.0, 304.0, 305.0, 304.0, 304.0, 304.0, 307.0, 304.0, 304.0, 304.0, 304.0, 304.0, 303.0, 304.0, 304.0, 305.0, 304.0, 304.0, 304.0, 304.0, 304.0, 304.0, 304.0, 304.0, 304.0, 304.0, 304.0, 304.0, 304.0, 304.0, 304.0, 304.0, 304.0, 305.0, 304.0, 308.0, 308.0, 306.0, 304.0, 304.0, 304.0, 304.0, 304.0, 304.0, 304.0, 304.0, 304.0, 304.0, 304.0, 304.0, 304.0, 303.0, 304.0, 304.0, 304.0, 305.0, 304.0, 304.0, 304.0, 304.0, 305.0, 304.0, 304.0, 304.0, 304.0, 304.0, 304.0, 304.0, 305.0, 304.0, 304.0, 304.0, 304.0, 304.0, 305.0, 305.0, 304.0, 305.0, 305.0, 305.0, 304.0, 304.0, 304.0, 304.0, 304.0, 304.0, 305.0, 304.0, 303.0, 304.0, 304.0, 303.0, 304.0, 304.0, 304.0, 304.0, 304.0, 304.0, 304.0, 304.0, 304.0, 304.0, 304.0, 304.0, 304.0, 304.0, 304.0, 303.0, 304.0, 304.0, 304.0, 304.0, 303.0, 307.0, 308.0, 308.0, 303.0, 304.0, 306.0, 304.0, 304.0, 305.0, 303.0, 303.0, 303.0, 303.0, 304.0, 303.0],
      "WindowWidth": [659.0, 659.0, 658.0, 659.0, 659.0, 659.0, 659.0, 658.0, 659.0, 659.0, 658.0, 659.0, 658.0, 658.0, 658.0, 658.0, 658.0, 658.0, 658.0, 659.0, 658.0, 658.0, 658.0, 658.0, 658.0, 658.0, 658.0, 658.0, 659.0, 659.0, 659.0, 658.0, 659.0, 660.0, 658.0, 658.0, 658.0, 660.0, 658.0, 662.0, 659.0, 658.0, 657.0, 658.0, 658.0, 658.0, 658.0, 660.0, 658.0, 658.0, 659.0, 658.0, 658.0, 657.0, 658.0, 657.0, 658.0, 657.0, 660.0, 658.0, 659.0, 657.0, 657.0, 657.0, 657.0, 660.0, 666.0, 666.0, 660.0, 658.0, 657.0, 657.0, 657.0, 657.0, 658.0, 657.0, 657.0, 658.0, 664.0, 657.0, 657.0, 657.0, 657.0, 657.0, 657.0, 657.0, 657.0, 660.0, 657.0, 657.0, 657.0, 657.0, 657.0, 657.0, 657.0, 657.0, 657.0, 657.0, 657.0, 657.0, 657.0, 657.0, 657.0, 657.0, 657.0, 658.0, 657.0, 665.0, 665.0, 662.0, 657.0, 657.0, 657.0, 657.0, 657.0, 657.0, 657.0, 657.0, 657.0, 659.0, 657.0, 658.0, 657.0, 657.0, 657.0, 658.0, 658.0, 658.0, 657.0, 657.0, 657.0, 657.0, 658.0, 658.0, 657.0, 657.0, 657.0, 658.0, 657.0, 657.0, 658.0, 657.0, 658.0, 658.0, 657.0, 658.0, 658.0, 660.0, 658.0, 658.0, 658.0, 658.0, 657.0, 658.0, 657.0, 657.0, 657.0, 657.0, 659.0, 657.0, 656.0, 657.0, 657.0, 657.0, 657.0, 657.0, 657.0, 657.0, 657.0, 657.0, 657.0, 657.0, 657.0, 657.0, 657.0, 657.0, 657.0, 657.0, 658.0, 656.0, 657.0, 657.0, 657.0, 657.0, 656.0, 664.0, 665.0, 665.0, 656.0, 657.0, 661.0, 657.0, 657.0, 660.0, 656.0, 656.0, 656.0, 656.0, 656.0, 656.0]
    },
    "slices": {}
  }
}