{
  "AcquisitionMatrixPE": 80,
  "AcquisitionNumber": 1,
  "AcquisitionTime": "09:00:18.207500",
  "BandwidthPerPixelPhaseEncode": 48.077,
  "BaseResolution": 80,
  "BodyPartExamined": "BRAIN",
  "CoilCombinationMethod": "Sum of Squares",
  "ConsistencyInfo": "N4_VE11C_LATEST_20160120",
  "ConversionSoftware": "dcm2niix",
  "ConversionSoftwareVersion": "v1.0.20220720",
  "DerivedVendorReportedEchoSpacing": 0.000519999,
  "DeviceSerialNumber": "66112",
  "DwellTime": 2.7e-06,
  "EchoTime": 0.035,
  "EchoTrainLength": 39,
  "EffectiveEchoSpacing": 0.00026,
  "FlipAngle": 90,
  "HeudiconvVersion": "0.13.1",
  "ImageOrientationPatientDICOM": [0.985083, 0.171869, 0.00852311, -0.165377, 0.931857, 0.322944],
  "ImageOrientationText": "Tra>Cor(18.7)>Sag(-2.7)",
  "ImageType": [
    "ORIGINAL",
    "PRIMARY",
    "M",
    "ND",
    "NORM",
    "MOSAIC"
],
  "ImagingFrequency": 123.252,
  "InPlanePhaseEncodingDirectionDICOM": "COL",
  "InstitutionAddress": "Maynard 3,Hanover,NH,US,03755",
  "InstitutionName": "Dartmouth College - PBS",
  "InstitutionalDepartmentName": "Department",
  "MRAcquisitionType": "2D",
  "MagneticFieldStrength": 3,
  "Manufacturer": "Siemens",
  "ManufacturersModelName": "Prisma",
  "MatrixCoilMode": "GRAPPA",
  "Modality": "MR",
  "NonlinearGradientCorrection": false,
  "ParallelReductionFactorInPlane": 2,
  "PartialFourier": 1,
  "PatientPosition": "HFS",
  "PercentPhaseFOV": 100,
  "PercentSampling": 100,
  "PhaseEncodingDirection": "j-",
  "PhaseEncodingSteps": 79,
  "PhaseResolution": 1,
  "PixelBandwidth": 2315,
  "ProcedureStepDescription": "dbic^QA",
  "ProtocolName": "func-bold_task-rest_acq-p2",
  "PulseSequenceDetails": "%SiemensSeq%\\ep2d_bold",
  "ReceiveCoilActiveElements": "HEA;HEP",
  "ReceiveCoilName": "Head_32",
  "ReconMatrixPE": 80,
  "RefLinesPE": 24,
  "RepetitionTime": 2,
  "SAR": 0.047594,
  "ScanOptions": "FS",
  "ScanningSequence": "EP",
  "SequenceName": "*epfid2d1_80",
  "SequenceVariant": "SK",
  "SeriesDescription": "func-bold_task-rest_acq-p2",
  "SeriesNumber": 5,
  "ShimSetting": [4144, -7695, -7522, 284, -54, -152, 25, 72],
  "SliceThickness": 3.5,
  "SliceTiming": [0.99, 0, 1.055, 0.065, 1.1225, 0.1325, 1.1875, 0.1975, 1.2525, 0.2625, 1.32, 0.33, 1.385, 0.395, 1.4525, 0.4625, 1.5175, 0.5275, 1.5825, 0.5925, 1.65, 0.66, 1.715, 0.725, 1.7825, 0.7925, 1.8475, 0.8575, 1.9125, 0.9225],
  "SoftwareVersions": "syngo MR E11",
  "SpacingBetweenSlices": 3.99,
  "StationName": "AWP66112",
  "TaskName": "rest",
  "TotalReadoutTime": 0.02054,
  "TxRefAmp": 222.642,
  "dcmmeta_affine": [
    [-2.9552488327026367, -0.49612993001937866, -0.1897708922624588, 144.545166015625],
    [-0.5156065225601196, 2.795571804046631, 1.2749477624893188, -102.75994873046875],
    [0.02556932158768177, -0.9688308835029602, 3.776055335998535, -11.290590286254883],
    [0.0, 0.0, 0.0, 1.0]
],
  "dcmmeta_reorient_transform": [
    [0.0, -1.0, 0.0, 79.0],
    [1.0, 0.0, 0.0, 0.0],
    [0.0, 0.0, 1.0, 0.0],
    [0.0, 0.0, 0.0, 1.0]
],
  "dcmmeta_shape": [80, 80, 30, 200],
  "dcmmeta_slice_dim": 2,
  "dcmmeta_version": 0.6,
  "global": {
    "const": {
      "AccessionNumber": "qa",
      "AcquisitionMatrix": [80, 0, 0, 80],
      "AngioFlag": "N",
      "BitsAllocated": 16,
      "BitsStored": 12,
      "BodyPartExamined": "BRAIN",
      "Columns": 480,
      "EchoNumbers": 1,
      "EchoTime": 35.0,
      "EchoTrainLength": 39,
      "FlipAngle": 90.0,
      "HighBit": 11,
      "ImageOrientationPatient": [0.98508296995398, 0.17186884230086, 0.0085231069929, -0.1653766419042, 0.93185727126652, 0.32294363641383],
      "ImagePositionPatient": [-597.17469263228, -780.32589106295, -286.70827845841],
      "ImageType": [
        "ORIGINAL",
        "PRIMARY",
        "M",
        "ND",
        "NORM",
        "MOSAIC"
],
      "ImagedNucleus": "1H",
      "ImagingFrequency": 123.252372,
      "InPlanePhaseEncodingDirection": "COL",
      "MRAcquisitionType": "2D",
      "MagneticFieldStrength": 3.0,
      "Manufacturer": "SIEMENS",
      "ManufacturerModelName": "Prisma",
      "Modality": "MR",
      "NumberOfAverages": 1.0,
      "NumberOfPhaseEncodingSteps": 79,
      "PercentPhaseFieldOfView": 100.0,
      "PercentSampling": 100.0,
      "PerformedProcedureStepStartTime": "083538.238000",
      "PhotometricInterpretation": "MONOCHROME2",
      "PixelBandwidth": 2315.0,
      "PixelRepresentation": 0,
      "PixelSpacing": [3.0, 3.0],
      "ProtocolName": "func-bold_task-rest_acq-p2",
      "RepetitionTime": 2000.0,
      "Rows": 480,
      "SAR": 0.04759400364041,
      "SamplesPerPixel": 1,
      "ScanOptions": "FS",
      "ScanningSequence": "EP",
      "SequenceName": "*epfid2d1_80",
      "SequenceVariant": "SK",
      "SeriesDescription": "func-bold_task-rest_acq-p2",
      "SeriesNumber": 5,
      "SeriesTime": "090109.258000",
      "SliceLocation": -50.395473336181,
      "SliceThickness": 3.5,
      "SmallestImagePixelValue": 0,
      "SoftwareVersions": "syngo MR E11",
      "SpacingBetweenSlices": 3.9899999384646,
      "SpecificCharacterSet": "ISO_IR 100",
      "StudyID": "9",
      "StudyTime": "083538.119000",
      "TransmitCoilName": "Body",
      "VariableFlipAngleFlag": "N",
      "WindowCenterWidthExplanation": "Algo1",
      "dBdt": 0.0},
    "slices": {}
  },
  "time": {
    "samples": {
      "AcquisitionNumber": [1, 2, 3, 4, 5, 6, 7, 8, 9, 10, 11, 12, 13, 14, 15, 16, 17, 18, 19, 20, 21, 22, 23, 24, 25, 26, 27, 28, 29, 30, 31, 32, 33, 34, 35, 36, 37, 38, 39, 40, 41, 42, 43, 44, 45, 46, 47, 48, 49, 50, 51, 52, 53, 54, 55, 56, 57, 58, 59, 60, 61, 62, 63, 64, 65, 66, 67, 68, 69, 70, 71, 72, 73, 74, 75, 76, 77, 78, 79, 80, 81, 82, 83, 84, 85, 86, 87, 88, 89, 90, 91, 92, 93, 94, 95, 96, 97, 98, 99, 100, 101, 102, 103, 104, 105, 106, 107, 108, 109, 110, 111, 112, 113, 114, 115, 116, 117, 118, 119, 120, 121, 122, 123, 124, 125, 126, 127, 128, 129, 130, 131, 132, 133, 134, 135, 136, 137, 138, 139, 140, 141, 142, 143, 144, 145, 146, 147, 148, 149, 150, 151, 152, 153, 154, 155, 156, 157, 158, 159, 160, 161, 162, 163, 164, 165, 166, 167, 168, 169, 170, 171, 172, 173, 174, 175, 176, 177, 178, 179, 180, 181, 182, 183, 184, 185, 186, 187, 188, 189, 190, 191, 192, 193, 194, 195, 196, 197, 198, 199, 200],
      "AcquisitionTime": ["090018.207500", "090020.207500", "090022.207500", "090024.207500", "090026.207500", "090028.207500", "090030.207500", "090032.207500", "090034.207500", "090036.207500", "090038.207500", "090040.207500", "090042.207500", "090044.207500", "090046.207500", "090048.207500", "090050.207500", "090052.207500", "090054.207500", "090056.207500", "090058.207500", "090100.207500", "090102.207500", "090104.207500", "090106.207500", "090108.207500", "090110.207500", "090112.207500", "090114.207500", "090116.207500", "090118.207500", "090120.207500", "090122.207500", "090124.207500", "090126.207500", "090128.207500", "090130.207500", "090132.207500", "090134.207500", "090136.207500", "090138.207500", "090140.207500", "090142.207500", "090144.207500", "090146.207500", "090148.207500", "090150.207500", "090152.207500", "090154.207500", "090156.207500", "090158.207500", "090200.207500", "090202.207500", "090204.207500", "090206.207500", "090208.207500", "090210.207500", "090212.207500", "090214.207500", "090216.207500", "090218.207500", "090220.207500", "090222.207500", "090224.207500", "090226.207500", "090228.207500", "090230.207500", "090232.207500", "090234.207500", "090236.207500", "090238.207500", "090240.207500", "090242.207500", "090244.207500", "090246.207500", "090248.207500", "090250.207500", "090252.207500", "090254.207500", "090256.207500", "090258.207500", "090300.207500", "090302.207500", "090304.207500", "090306.207500", "090308.207500", "090310.207500", "090312.207500", "090314.207500", "090316.207500", "090318.207500", "090320.207500", "090322.207500", "090324.207500", "090326.207500", "090328.207500", "090330.207500", "090332.207500", "090334.207500", "090336.207500", "090338.207500", "090340.207500", "090342.207500", "090344.207500", "090346.207500", "090348.207500", "090350.207500", "090352.207500", "090354.207500", "090356.207500", "090358.207500", "090400.207500", "090402.207500", "090404.207500", "090406.207500", "090408.207500", "090410.207500", "090412.207500", "090414.207500", "090416.207500", "090418.207500", "090420.207500", "090422.207500", "090424.207500", "090426.207500", "090428.207500", "090430.207500", "090432.207500", "090434.207500", "090436.207500", "090438.207500", "090440.207500", "090442.207500", "090444.207500", "090446.207500", "090448.207500", "090450.207500", "090452.207500", "090454.207500", "090456.207500", "090458.207500", "090500.207500", "090502.207500", "090504.207500", "090506.207500", "090508.207500", "090510.207500", "090512.207500", "090514.207500", "090516.207500", "090518.207500", "090520.207500", "090522.207500", "090524.207500", "090526.207500", "090528.207500", "090530.207500", "090532.207500", "090534.207500", "090536.207500", "090538.207500", "090540.207500", "090542.207500", "090544.207500", "090546.207500", "090548.207500", "090550.207500", "090552.207500", "090554.207500", "090556.207500", "090558.207500", "090600.207500", "090602.207500", "090604.207500", "090606.207500", "090608.207500", "090610.207500", "090612.207500", "090614.207500", "090616.207500", "090618.207500", "090620.207500", "090622.207500", "090624.207500", "090626.207500", "090628.207500", "090630.207500", "090632.207500", "090634.207500", "090636.207500", "090638.207500", "090640.207500", "090642.207500", "090644.207500", "090646.207500", "090648.207500", "090650.207500", "090652.207500", "090654.207500", "090656.207500"],
      "ContentTime": ["090109.263000", "090109.267000", "090109.269000", "090109.272000", "090109.274000", "090109.277000", "090109.279000", "090109.282000", "090109.284000", "090109.287000", "090109.289000", "090109.291000", "090109.294000", "090109.296000", "090109.299000", "090109.301000", "090109.304000", "090109.306000", "090109.309000", "090109.311000", "090109.314000", "090109.317000", "090109.319000", "090109.322000", "090109.324000", "090149.256000", "090149.259000", "090149.262000", "090149.264000", "090149.267000", "090149.269000", "090149.272000", "090149.274000", "090149.277000", "090149.279000", "090149.282000", "090149.284000", "090149.287000", "090149.289000", "090149.292000", "090149.294000", "090149.297000", "090149.299000", "090149.302000", "090149.304000", "090229.257000", "090229.260000", "090229.262000", "090229.265000", "090229.267000", "090229.270000", "090229.272000", "090229.275000", "090229.277000", "090229.280000", "090229.282000", "090229.285000", "090229.287000", "090229.290000", "090229.292000", "090229.295000", "090229.297000", "090229.300000", "090229.302000", "090229.305000", "090309.256000", "090309.259000", "090309.261000", "090309.264000", "090309.266000", "090309.269000", "090309.272000", "090309.274000", "090309.276000", "090309.279000", "090309.281000", "090309.284000", "090309.286000", "090309.289000", "090309.291000", "090309.294000", "090309.296000", "090309.299000", "090309.310000", "090309.312000", "090349.256000", "090349.259000", "090349.261000", "090349.264000", "090349.266000", "090349.269000", "090349.271000", "090349.274000", "090349.276000", "090349.279000", "090349.281000", "090349.284000", "090349.286000", "090349.289000", "090349.291000", "090349.294000", "090349.296000", "090349.299000", "090349.301000", "090349.304000", "090429.257000", "090429.260000", "090429.263000", "090429.265000", "090429.268000", "090429.270000", "090429.273000", "090429.275000", "090429.278000", "090429.280000", "090429.283000", "090429.285000", "090429.288000", "090429.290000", "090429.293000", "090429.295000", "090429.298000", "090429.300000", "090429.303000", "090429.305000", "090509.256000", "090509.259000", "090509.262000", "090509.264000", "090509.267000", "090509.269000", "090509.272000", "090509.274000", "090509.277000", "090509.279000", "090509.282000", "090509.284000", "090509.287000", "090509.289000", "090509.292000", "090509.294000", "090509.297000", "090509.299000", "090509.302000", "090509.304000", "090549.256000", "090549.259000", "090549.262000", "090549.264000", "090549.266000", "090549.269000", "090549.272000", "090549.274000", "090549.277000", "090549.279000", "090549.282000", "090549.284000", "090549.287000", "090549.289000", "090549.292000", "090549.294000", "090549.297000", "090549.299000", "090549.302000", "090549.304000", "090629.256000", "090629.259000", "090629.262000", "090629.264000", "090629.267000", "090629.269000", "090629.272000", "090629.274000", "090629.277000", "090629.279000", "090629.282000", "090629.284000", "090629.287000", "090629.289000", "090629.292000", "090629.294000", "090629.297000", "090629.299000", "090629.302000", "090629.304000", "090649.257000", "090649.260000", "090649.262000", "090649.265000", "090649.267000", "090649.270000", "090649.272000", "090649.275000", "090649.277000", "090649.280000", "090657.791000", "090657.794000", "090657.797000", "090657.799000", "090657.802000"],
      "InstanceCreationTime": ["090109.263000", "090109.267000", "090109.269000", "090109.272000", "090109.274000", "090109.277000", "090109.279000", "090109.282000", "090109.284000", "090109.287000", "090109.289000", "090109.291000", "090109.294000", "090109.296000", "090109.299000", "090109.301000", "090109.304000", "090109.306000", "090109.309000", "090109.311000", "090109.314000", "090109.317000", "090109.319000", "090109.322000", "090109.324000", "090149.256000", "090149.259000", "090149.262000", "090149.264000", "090149.267000", "090149.269000", "090149.272000", "090149.274000", "090149.277000", "090149.279000", "090149.282000", "090149.284000", "090149.287000", "090149.289000", "090149.292000", "090149.294000", "090149.297000", "090149.299000", "090149.302000", "090149.304000", "090229.257000", "090229.260000", "090229.262000", "090229.265000", "090229.267000", "090229.270000", "090229.272000", "090229.275000", "090229.277000", "090229.280000", "090229.282000", "090229.285000", "090229.287000", "090229.290000", "090229.292000", "090229.295000", "090229.297000", "090229.300000", "090229.302000", "090229.305000", "090309.256000", "090309.259000", "090309.261000", "090309.264000", "090309.266000", "090309.269000", "090309.272000", "090309.274000", "090309.276000", "090309.279000", "090309.281000", "090309.284000", "090309.286000", "090309.289000", "090309.291000", "090309.294000", "090309.296000", "090309.299000", "090309.310000", "090309.312000", "090349.256000", "090349.259000", "090349.261000", "090349.264000", "090349.266000", "090349.269000", "090349.271000", "090349.274000", "090349.276000", "090349.279000", "090349.281000", "090349.284000", "090349.286000", "090349.289000", "090349.291000", "090349.294000", "090349.296000", "090349.299000", "090349.301000", "090349.304000", "090429.257000", "090429.260000", "090429.263000", "090429.265000", "090429.268000", "090429.270000", "090429.273000", "090429.275000", "090429.278000", "090429.280000", "090429.283000", "090429.285000", "090429.288000", "090429.290000", "090429.293000", "090429.295000", "090429.298000", "090429.300000", "090429.303000", "090429.305000", "090509.256000", "090509.259000", "090509.262000", "090509.264000", "090509.267000", "090509.269000", "090509.272000", "090509.274000", "090509.277000", "090509.279000", "090509.282000", "090509.284000", "090509.287000", "090509.289000", "090509.292000", "090509.294000", "090509.297000", "090509.299000", "090509.302000", "090509.304000", "090549.256000", "090549.259000", "090549.262000", "090549.264000", "090549.266000", "090549.269000", "090549.272000", "090549.274000", "090549.277000", "090549.279000", "090549.282000", "090549.284000", "090549.287000", "090549.289000", "090549.292000", "090549.294000", "090549.297000", "090549.299000", "090549.302000", "090549.304000", "090629.256000", "090629.259000", "090629.262000", "090629.264000", "090629.267000", "090629.269000", "090629.272000", "090629.274000", "090629.277000", "090629.279000", "090629.282000", "090629.284000", "090629.287000", "090629.289000", "090629.292000", "090629.294000", "090629.297000", "090629.299000", "090629.302000", "090629.304000", "090649.257000", "090649.260000", "090649.262000", "090649.265000", "090649.267000", "090649.270000", "090649.272000", "090649.275000", "090649.277000", "090649.280000", "090657.791000", "090657.794000", "090657.797000", "090657.799000", "090657.802000"],
      "InstanceNumber": [1, 2, 3, 4, 5, 6, 7, 8, 9, 10, 11, 12, 13, 14, 15, 16, 17, 18, 19, 20, 21, 22, 23, 24, 25, 26, 27, 28, 29, 30, 31, 32, 33, 34, 35, 36, 37, 38, 39, 40, 41, 42, 43, 44, 45, 46, 47, 48, 49, 50, 51, 52, 53, 54, 55, 56, 57, 58, 59, 60, 61, 62, 63, 64, 65, 66, 67, 68, 69, 70, 71, 72, 73, 74, 75, 76, 77, 78, 79, 80, 81, 82, 83, 84, 85, 86, 87, 88, 89, 90, 91, 92, 93, 94, 95, 96, 97, 98, 99, 100, 101, 102, 103, 104, 105, 106, 107, 108, 109, 110, 111, 112, 113, 114, 115, 116, 117, 118, 119, 120, 121, 122, 123, 124, 125, 126, 127, 128, 129, 130, 131, 132, 133, 134, 135, 136, 137, 138, 139, 140, 141, 142, 143, 144, 145, 146, 147, 148, 149, 150, 151, 152, 153, 154, 155, 156, 157, 158, 159, 160, 161, 162, 163, 164, 165, 166, 167, 168, 169, 170, 171, 172, 173, 174, 175, 176, 177, 178, 179, 180, 181, 182, 183, 184, 185, 186, 187, 188, 189, 190, 191, 192, 193, 194, 195, 196, 197, 198, 199, 200],
      "LargestImagePixelValue": [2324, 2319, 2326, 2324, 2327, 2323, 2328, 2327, 2328, 2317, 2323, 2322, 2326, 2320, 2328, 2318, 2329, 2319, 2322, 2320, 2324, 2320, 2318, 2325, 2322, 2322, 2319, 2326, 2327, 2323, 2329, 2324, 2328, 2333, 2323, 2317, 2330, 2326, 2332, 2328, 2336, 2332, 2326, 2319, 2322, 2319, 2324, 2331, 2318, 2322, 2325, 2329, 2319, 2319, 2326, 2322, 2331, 2322, 2325, 2331, 2335, 2323, 2334, 2328, 2323, 2325, 2333, 2329, 2325, 2323, 2324, 2330, 2329, 2323, 2321, 2330, 2327, 2332, 2323, 2329, 2331, 2326, 2328, 2325, 2331, 2324, 2327, 2332, 2328, 2322, 2319, 2324, 2325, 2332, 2335, 2328, 2333, 2318, 2332, 2326, 2325, 2327, 2329, 2329, 2332, 2322, 2327, 2335, 2328, 2325, 2327, 2332, 2337, 2322, 2326, 2337, 2328, 2327, 2331, 2327, 2327, 2327, 2323, 2322, 2320, 2320, 2328, 2327, 2328, 2325, 2333, 2324, 2322, 2319, 2329, 2323, 2330, 2322, 2326, 2331, 2325, 2328, 2328, 2331, 2331, 2334, 2331, 2332, 2329, 2332, 2329, 2329, 2329, 2322, 2335, 2327, 2335, 2332, 2331, 2323, 2329, 2328, 2326, 2330, 2330, 2328, 2333, 2329, 2329, 2329, 2331, 2331, 2324, 2329, 2339, 2333, 2330, 2330, 2332, 2329, 2328, 2334, 2321, 2329, 2328, 2330, 2335, 2324, 2333, 2326, 2326, 2325, 2331, 2332, 2331, 2330, 2332, 2328, 2325, 2333],
      "WindowCenter": [1051.0, 1050.0, 1050.0, 1050.0, 1050.0, 1050.0, 1050.0, 1050.0, 1050.0, 1050.0, 1050.0, 1050.0, 1050.0, 1050.0, 1050.0, 1050.0, 1050.0, 1050.0, 1050.0, 1050.0, 1050.0, 1050.0, 1050.0, 1050.0, 1050.0, 1050.0, 1050.0, 1050.0, 1050.0, 1050.0, 1050.0, 1050.0, 1050.0, 1050.0, 1050.0, 1050.0, 1050.0, 1050.0, 1050.0, 1050.0, 1050.0, 1050.0, 1050.0, 1050.0, 1050.0, 1050.0, 1050.0, 1050.0, 1050.0, 1050.0, 1050.0, 1050.0, 1050.0, 1050.0, 1050.0, 1050.0, 1050.0, 1050.0, 1050.0, 1050.0, 1050.0, 1050.0, 1050.0, 1050.0, 1050.0, 1050.0, 1050.0, 1050.0, 1050.0, 1050.0, 1050.0, 1051.0, 1051.0, 1050.0, 1051.0, 1050.0, 1051.0, 1050.0, 1051.0, 1051.0, 1050.0, 1050.0, 1051.0, 1051.0, 1050.0, 1050.0, 1050.0, 1050.0, 1050.0, 1051.0, 1050.0, 1051.0, 1050.0, 1051.0, 1051.0, 1051.0, 1050.0, 1050.0, 1050.0, 1050.0, 1050.0, 1051.0, 1051.0, 1051.0, 1050.0, 1050.0, 1050.0, 1051.0, 1050.0, 1050.0, 1050.0, 1050.0, 1051.0, 1051.0, 1050.0, 1050.0, 1050.0, 1050.0, 1050.0, 1050.0, 1050.0, 1050.0, 1050.0, 1051.0, 1050.0, 1050.0, 1050.0, 1050.0, 1051.0, 1050.0, 1050.0, 1051.0, 1050.0, 1050.0, 1050.0, 1050.0, 1050.0, 1051.0, 1050.0, 1050.0, 1051.0, 1050.0, 1050.0, 1050.0, 1051.0, 1050.0, 1050.0, 1050.0, 1050.0, 1050.0, 1050.0, 1051.0, 1051.0, 1051.0, 1050.0, 1050.0, 1050.0, 1050.0, 1050.0, 1050.0, 1050.0, 1050.0, 1050.0, 1050.0, 1050.0, 1050.0, 1050.0, 1050.0, 1050.0, 1050.0, 1051.0, 1050.0, 1050.0, 1050.0, 1050.0, 1050.0, 1050.0, 1050.0, 1050.0, 1050.0, 1050.0, 1050.0, 1050.0, 1050.0, 1050.0, 1050.0, 1050.0, 1050.0, 1050.0, 1050.0, 1050.0, 1050.0, 1050.0, 1050.0, 1050.0, 1050.0, 1050.0, 1050.0, 1050.0, 1050.0],
      "WindowWidth": [2356.0, 2354.0, 2354.0, 2355.0, 2355.0, 2354.0, 2355.0, 2355.0, 2355.0, 2355.0, 2355.0, 2355.0, 2354.0, 2355.0, 2355.0, 2355.0, 2354.0, 2355.0, 2355.0, 2355.0, 2355.0, 2355.0, 2355.0, 2355.0, 2355.0, 2355.0, 2355.0, 2355.0, 2355.0, 2355.0, 2355.0, 2355.0, 2355.0, 2355.0, 2355.0, 2356.0, 2355.0, 2356.0, 2355.0, 2355.0, 2356.0, 2356.0, 2356.0, 2355.0, 2356.0, 2356.0, 2355.0, 2356.0, 2355.0, 2356.0, 2356.0, 2356.0, 2355.0, 2356.0, 2355.0, 2356.0, 2356.0, 2356.0, 2356.0, 2356.0, 2356.0, 2356.0, 2356.0, 2356.0, 2356.0, 2356.0, 2356.0, 2356.0, 2355.0, 2356.0, 2356.0, 2356.0, 2356.0, 2357.0, 2356.0, 2357.0, 2356.0, 2357.0, 2356.0, 2356.0, 2357.0, 2357.0, 2356.0, 2356.0, 2357.0, 2356.0, 2357.0, 2357.0, 2357.0, 2356.0, 2357.0, 2356.0, 2357.0, 2356.0, 2356.0, 2356.0, 2357.0, 2357.0, 2357.0, 2357.0, 2357.0, 2356.0, 2356.0, 2356.0, 2357.0, 2356.0, 2357.0, 2356.0, 2356.0, 2356.0, 2356.0, 2356.0, 2356.0, 2357.0, 2356.0, 2356.0, 2356.0, 2356.0, 2356.0, 2356.0, 2357.0, 2356.0, 2356.0, 2356.0, 2356.0, 2356.0, 2356.0, 2356.0, 2356.0, 2357.0, 2356.0, 2356.0, 2356.0, 2356.0, 2356.0, 2357.0, 2357.0, 2356.0, 2357.0, 2357.0, 2356.0, 2356.0, 2356.0, 2357.0, 2356.0, 2356.0, 2357.0, 2357.0, 2356.0, 2356.0, 2356.0, 2356.0, 2356.0, 2356.0, 2356.0, 2356.0, 2356.0, 2357.0, 2356.0, 2356.0, 2356.0, 2357.0, 2356.0, 2357.0, 2357.0, 2357.0, 2356.0, 2356.0, 2356.0, 2356.0, 2356.0, 2357.0, 2356.0, 2357.0, 2357.0, 2356.0, 2356.0, 2357.0, 2356.0, 2357.0, 2357.0, 2357.0, 2356.0, 2356.0, 2356.0, 2357.0, 2357.0, 2356.0, 2357.0, 2356.0, 2356.0, 2356.0, 2357.0, 2356.0, 2356.0, 2356.0, 2357.0, 2356.0, 2356.0, 2357.0]
    },
    "slices": {}
  }
}