{
  "AcquisitionMatrixPE": 80,
  "AcquisitionNumber": 1,
  "AcquisitionTime": "09:07:13.170000",
  "BandwidthPerPixelPhaseEncode": 44.643,
  "BaseResolution": 80,
  "BodyPartExamined": "BRAIN",
  "CoilCombinationMethod": "Sum of Squares",
  "ConsistencyInfo": "N4_VE11C_LATEST_20160120",
  "ConversionSoftware": "dcm2niix",
  "ConversionSoftwareVersion": "v1.0.20220720",
  "DerivedVendorReportedEchoSpacing": 0.000559998,
  "DeviceSerialNumber": "66112",
  "DwellTime": 2.7e-06,
  "EchoTime": 0.035,
  "EchoTrainLength": 39,
  "EffectiveEchoSpacing": 0.000279999,
  "FlipAngle": 90,
  "HeudiconvVersion": "0.13.1",
  "ImageOrientationPatientDICOM": [0.985083, 0.171869, 0.00852311, -0.165377, 0.931857, 0.322944],
  "ImageOrientationText": "Tra>Cor(18.7)>Sag(-2.7)",
  "ImageType": [
    "ORIGINAL",
    "PRIMARY",
    "M",
    "ND",
    "NORM",
    "MOSAIC"
],
  "ImagingFrequency": 123.252,
  "InPlanePhaseEncodingDirectionDICOM": "COL",
  "InstitutionAddress": "Maynard 3,Hanover,NH,US,03755",
  "InstitutionName": "Dartmouth College - PBS",
  "InstitutionalDepartmentName": "Department",
  "MRAcquisitionType": "2D",
  "MagneticFieldStrength": 3,
  "Manufacturer": "Siemens",
  "ManufacturersModelName": "Prisma",
  "Modality": "MR",
  "MultibandAccelerationFactor": 4,
  "NonlinearGradientCorrection": false,
  "ParallelReductionFactorInPlane": 2,
  "PartialFourier": 1,
  "PatientPosition": "HFS",
  "PercentPhaseFOV": 100,
  "PercentSampling": 100,
  "PhaseEncodingDirection": "j-",
  "PhaseEncodingSteps": 79,
  "PhaseResolution": 1,
  "PixelBandwidth": 2315,
  "ProcedureStepDescription": "dbic^QA",
  "ProtocolName": "func-bold_task-rest_acq-p2-s4-3.5mm",
  "PulseSequenceDetails": "%SiemensSeq%\\ep2d_bold",
  "ReceiveCoilActiveElements": "HEA;HEP",
  "ReceiveCoilName": "Head_32",
  "ReconMatrixPE": 80,
  "RefLinesPE": 24,
  "RepetitionTime": 2,
  "SAR": 0.0178967,
  "ScanOptions": "FS",
  "ScanningSequence": "EP",
  "SequenceName": "*epfid2d1_80",
  "SequenceVariant": "SK",
  "SeriesDescription": "func-bold_task-rest_acq-p2-s4-3.5mm",
  "SeriesNumber": 7,
  "ShimSetting": [4144, -7697, -7521, 287, -53, -155, 26, 70],
  "SliceThickness": 3.5,
  "SliceTiming": [1.485, 0, 0.99, 0.2475, 1.2375, 0.7425, 1.7325, 0.495, 1.485, 0, 0.99, 0.2475, 1.2375, 0.7425, 1.7325, 0.495, 1.485, 0, 0.99, 0.2475, 1.2375, 0.7425, 1.7325, 0.495, 1.485, 0, 0.99, 0.2475, 1.2375, 0.7425, 1.7325, 0.495],
  "SoftwareVersions": "syngo MR E11",
  "SpacingBetweenSlices": 3.99,
  "StationName": "AWP66112",
  "TaskName": "rest",
  "TotalReadoutTime": 0.0221199,
  "TxRefAmp": 222.642,
  "dcmmeta_affine": [
    [-2.9552488327026367, -0.49612993001937866, -0.18977090716362, 144.73492431640625],
    [-0.5156065225601196, 2.795571804046631, 1.2749478816986084, -104.03489685058594],
    [0.02556932158768177, -0.9688308835029602, 3.7760555744171143, -15.066648483276367],
    [0.0, 0.0, 0.0, 1.0]
],
  "dcmmeta_reorient_transform": [
    [0.0, -1.0, 0.0, 79.0],
    [1.0, 0.0, 0.0, 0.0],
    [0.0, 0.0, 1.0, 0.0],
    [0.0, 0.0, 0.0, 1.0]
],
  "dcmmeta_shape": [80, 80, 32, 200],
  "dcmmeta_slice_dim": 2,
  "dcmmeta_version": 0.6,
  "global": {
    "const": {
      "AccessionNumber": "qa",
      "AcquisitionMatrix": [80, 0, 0, 80],
      "AngioFlag": "N",
      "BitsAllocated": 16,
      "BitsStored": 12,
      "BodyPartExamined": "BRAIN",
      "Columns": 480,
      "EchoNumbers": 1,
      "EchoTime": 35.0,
      "EchoTrainLength": 39,
      "FlipAngle": 90.0,
      "HighBit": 11,
      "ImageOrientationPatient": [0.98508296995398, 0.17186884230086, 0.0085231069929, -0.1653766419042, 0.93185727126652, 0.32294363641383],
      "ImagePositionPatient": [-597.36446333082, -779.05094294283, -290.48433665543],
      "ImageType": [
        "ORIGINAL",
        "PRIMARY",
        "M",
        "ND",
        "NORM",
        "MOSAIC"
],
      "ImagedNucleus": "1H",
      "ImagingFrequency": 123.252371,
      "InPlanePhaseEncodingDirection": "COL",
      "MRAcquisitionType": "2D",
      "MagneticFieldStrength": 3.0,
      "Manufacturer": "SIEMENS",
      "ManufacturerModelName": "Prisma",
      "Modality": "MR",
      "NumberOfAverages": 1.0,
      "NumberOfPhaseEncodingSteps": 79,
      "PercentPhaseFieldOfView": 100.0,
      "PercentSampling": 100.0,
      "PerformedProcedureStepStartTime": "083538.238000",
      "PhotometricInterpretation": "MONOCHROME2",
      "PixelBandwidth": 2315.0,
      "PixelRepresentation": 0,
      "PixelSpacing": [3.0, 3.0],
      "ProtocolName": "func-bold_task-rest_acq-p2-s4-3.5mm",
      "RepetitionTime": 2000.0,
      "Rows": 480,
      "SAR": 0.01789673083952,
      "SamplesPerPixel": 1,
      "ScanOptions": "FS",
      "ScanningSequence": "EP",
      "SequenceName": "*epfid2d1_80",
      "SequenceVariant": "SK",
      "SeriesDescription": "func-bold_task-rest_acq-p2-s4-3.5mm",
      "SeriesNumber": 7,
      "SeriesTime": "090809.327000",
      "SliceLocation": -54.38547598459,
      "SliceThickness": 3.5,
      "SmallestImagePixelValue": 0,
      "SoftwareVersions": "syngo MR E11",
      "SpacingBetweenSlices": 3.989999997209,
      "SpecificCharacterSet": "ISO_IR 100",
      "StudyID": "9",
      "StudyTime": "083538.119000",
      "TransmitCoilName": "Body",
      "VariableFlipAngleFlag": "N",
      "WindowCenter": 969.0,
      "WindowCenterWidthExplanation": "Algo1",
      "dBdt": 0.0},
    "slices": {}
  },
  "time": {
    "samples": {
      "AcquisitionNumber": [1, 2, 3, 4, 5, 6, 7, 8, 9, 10, 11, 12, 13, 14, 15, 16, 17, 18, 19, 20, 21, 22, 23, 24, 25, 26, 27, 28, 29, 30, 31, 32, 33, 34, 35, 36, 37, 38, 39, 40, 41, 42, 43, 44, 45, 46, 47, 48, 49, 50, 51, 52, 53, 54, 55, 56, 57, 58, 59, 60, 61, 62, 63, 64, 65, 66, 67, 68, 69, 70, 71, 72, 73, 74, 75, 76, 77, 78, 79, 80, 81, 82, 83, 84, 85, 86, 87, 88, 89, 90, 91, 92, 93, 94, 95, 96, 97, 98, 99, 100, 101, 102, 103, 104, 105, 106, 107, 108, 109, 110, 111, 112, 113, 114, 115, 116, 117, 118, 119, 120, 121, 122, 123, 124, 125, 126, 127, 128, 129, 130, 131, 132, 133, 134, 135, 136, 137, 138, 139, 140, 141, 142, 143, 144, 145, 146, 147, 148, 149, 150, 151, 152, 153, 154, 155, 156, 157, 158, 159, 160, 161, 162, 163, 164, 165, 166, 167, 168, 169, 170, 171, 172, 173, 174, 175, 176, 177, 178, 179, 180, 181, 182, 183, 184, 185, 186, 187, 188, 189, 190, 191, 192, 193, 194, 195, 196, 197, 198, 199, 200],
      "AcquisitionTime": ["090713.170000", "090715.170000", "090717.170000", "090719.170000", "090721.170000", "090723.170000", "090725.170000", "090727.170000", "090729.170000", "090731.170000", "090733.170000", "090735.170000", "090737.170000", "090739.170000", "090741.170000", "090743.170000", "090745.170000", "090747.170000", "090749.170000", "090751.170000", "090753.170000", "090755.170000", "090757.170000", "090759.170000", "090801.170000", "090803.170000", "090805.170000", "090807.170000", "090809.170000", "090811.170000", "090813.170000", "090815.170000", "090817.170000", "090819.170000", "090821.170000", "090823.170000", "090825.170000", "090827.170000", "090829.170000", "090831.170000", "090833.170000", "090835.170000", "090837.170000", "090839.170000", "090841.170000", "090843.170000", "090845.170000", "090847.170000", "090849.170000", "090851.170000", "090853.170000", "090855.170000", "090857.170000", "090859.170000", "090901.170000", "090903.170000", "090905.170000", "090907.170000", "090909.170000", "090911.170000", "090913.170000", "090915.170000", "090917.170000", "090919.170000", "090921.170000", "090923.170000", "090925.170000", "090927.170000", "090929.170000", "090931.170000", "090933.170000", "090935.170000", "090937.170000", "090939.170000", "090941.170000", "090943.170000", "090945.170000", "090947.170000", "090949.170000", "090951.170000", "090953.170000", "090955.170000", "090957.170000", "090959.170000", "091001.170000", "091003.170000", "091005.170000", "091007.170000", "091009.170000", "091011.170000", "091013.170000", "091015.170000", "091017.170000", "091019.170000", "091021.170000", "091023.170000", "091025.170000", "091027.170000", "091029.170000", "091031.170000", "091033.170000", "091035.170000", "091037.170000", "091039.170000", "091041.170000", "091043.170000", "091045.170000", "091047.170000", "091049.170000", "091051.170000", "091053.170000", "091055.170000", "091057.170000", "091059.170000", "091101.170000", "091103.170000", "091105.170000", "091107.170000", "091109.170000", "091111.170000", "091113.170000", "091115.170000", "091117.170000", "091119.170000", "091121.170000", "091123.170000", "091125.170000", "091127.170000", "091129.170000", "091131.170000", "091133.170000", "091135.170000", "091137.170000", "091139.170000", "091141.170000", "091143.170000", "091145.170000", "091147.170000", "091149.170000", "091151.170000", "091153.170000", "091155.170000", "091157.170000", "091159.170000", "091201.170000", "091203.170000", "091205.170000", "091207.170000", "091209.170000", "091211.170000", "091213.170000", "091215.170000", "091217.170000", "091219.170000", "091221.170000", "091223.170000", "091225.170000", "091227.170000", "091229.170000", "091231.170000", "091233.170000", "091235.170000", "091237.170000", "091239.170000", "091241.170000", "091243.170000", "091245.170000", "091247.170000", "091249.170000", "091251.170000", "091253.170000", "091255.170000", "091257.170000", "091259.170000", "091301.170000", "091303.170000", "091305.170000", "091307.170000", "091309.170000", "091311.170000", "091313.170000", "091315.170000", "091317.170000", "091319.170000", "091321.170000", "091323.170000", "091325.170000", "091327.170000", "091329.170000", "091331.170000", "091333.170000", "091335.170000", "091337.170000", "091339.170000", "091341.170000", "091343.170000", "091345.170000", "091347.170000", "091349.170000", "091351.170000"],
      "ContentTime": ["090809.331000", "090809.335000", "090809.338000", "090809.340000", "090809.343000", "090809.345000", "090809.348000", "090809.355000", "090809.358000", "090809.360000", "090809.363000", "090809.365000", "090809.367000", "090809.370000", "090809.372000", "090809.375000", "090809.377000", "090809.380000", "090809.382000", "090809.385000", "090809.387000", "090809.390000", "090809.393000", "090809.395000", "090809.398000", "090809.400000", "090809.403000", "090809.405000", "090849.325000", "090849.328000", "090849.330000", "090849.333000", "090849.336000", "090849.338000", "090849.341000", "090849.343000", "090849.351000", "090849.353000", "090849.356000", "090849.359000", "090849.361000", "090849.363000", "090849.366000", "090849.369000", "090849.371000", "090849.374000", "090849.376000", "090849.379000", "090929.326000", "090929.329000", "090929.331000", "090929.334000", "090929.336000", "090929.339000", "090929.341000", "090929.344000", "090929.346000", "090929.349000", "090929.351000", "090929.354000", "090929.356000", "090929.359000", "090929.361000", "090929.364000", "090929.367000", "090929.369000", "090929.372000", "090929.374000", "091009.325000", "091009.328000", "091009.330000", "091009.333000", "091009.335000", "091009.338000", "091009.340000", "091009.343000", "091009.346000", "091009.348000", "091009.351000", "091009.353000", "091009.356000", "091009.358000", "091009.367000", "091009.369000", "091009.372000", "091009.375000", "091009.377000", "091009.380000", "091049.325000", "091049.328000", "091049.331000", "091049.333000", "091049.335000", "091049.338000", "091049.340000", "091049.343000", "091049.345000", "091049.348000", "091049.350000", "091049.353000", "091049.356000", "091049.358000", "091049.361000", "091049.363000", "091049.366000", "091049.368000", "091049.371000", "091049.373000", "091129.326000", "091129.329000", "091129.332000", "091129.334000", "091129.336000", "091129.339000", "091129.342000", "091129.344000", "091129.347000", "091129.349000", "091129.352000", "091129.354000", "091129.357000", "091129.359000", "091129.362000", "091129.364000", "091129.367000", "091129.369000", "091129.372000", "091129.374000", "091209.325000", "091209.328000", "091209.331000", "091209.333000", "091209.336000", "091209.338000", "091209.341000", "091209.343000", "091209.346000", "091209.348000", "091209.351000", "091209.353000", "091209.356000", "091209.358000", "091209.361000", "091209.363000", "091209.366000", "091209.368000", "091209.371000", "091209.373000", "091249.325000", "091249.328000", "091249.331000", "091249.333000", "091249.336000", "091249.338000", "091249.341000", "091249.343000", "091249.346000", "091249.348000", "091249.351000", "091249.353000", "091249.356000", "091249.358000", "091249.361000", "091249.363000", "091249.366000", "091249.368000", "091249.370000", "091249.373000", "091329.326000", "091329.329000", "091329.332000", "091329.334000", "091329.337000", "091329.339000", "091329.342000", "091329.344000", "091329.347000", "091329.349000", "091329.352000", "091329.354000", "091329.357000", "091329.359000", "091329.362000", "091329.364000", "091329.367000", "091329.369000", "091329.372000", "091329.374000", "091351.866000", "091351.869000", "091351.872000", "091351.875000", "091351.878000", "091351.880000", "091351.883000", "091351.885000", "091351.888000", "091351.890000", "091351.893000", "091351.898000"],
      "InstanceCreationTime": ["090809.331000", "090809.335000", "090809.338000", "090809.340000", "090809.343000", "090809.345000", "090809.348000", "090809.355000", "090809.358000", "090809.360000", "090809.363000", "090809.365000", "090809.367000", "090809.370000", "090809.372000", "090809.375000", "090809.377000", "090809.380000", "090809.382000", "090809.385000", "090809.387000", "090809.390000", "090809.393000", "090809.395000", "090809.398000", "090809.400000", "090809.403000", "090809.405000", "090849.325000", "090849.328000", "090849.330000", "090849.333000", "090849.336000", "090849.338000", "090849.341000", "090849.343000", "090849.351000", "090849.353000", "090849.356000", "090849.359000", "090849.361000", "090849.363000", "090849.366000", "090849.369000", "090849.371000", "090849.374000", "090849.376000", "090849.379000", "090929.326000", "090929.329000", "090929.331000", "090929.334000", "090929.336000", "090929.339000", "090929.341000", "090929.344000", "090929.346000", "090929.349000", "090929.351000", "090929.354000", "090929.356000", "090929.359000", "090929.361000", "090929.364000", "090929.367000", "090929.369000", "090929.372000", "090929.374000", "091009.325000", "091009.328000", "091009.330000", "091009.333000", "091009.335000", "091009.338000", "091009.340000", "091009.343000", "091009.346000", "091009.348000", "091009.351000", "091009.353000", "091009.356000", "091009.358000", "091009.367000", "091009.369000", "091009.372000", "091009.375000", "091009.377000", "091009.380000", "091049.325000", "091049.328000", "091049.331000", "091049.333000", "091049.335000", "091049.338000", "091049.340000", "091049.343000", "091049.345000", "091049.348000", "091049.350000", "091049.353000", "091049.356000", "091049.358000", "091049.361000", "091049.363000", "091049.366000", "091049.368000", "091049.371000", "091049.373000", "091129.326000", "091129.329000", "091129.332000", "091129.334000", "091129.336000", "091129.339000", "091129.342000", "091129.344000", "091129.347000", "091129.349000", "091129.352000", "091129.354000", "091129.357000", "091129.359000", "091129.362000", "091129.364000", "091129.367000", "091129.369000", "091129.372000", "091129.374000", "091209.325000", "091209.328000", "091209.331000", "091209.333000", "091209.336000", "091209.338000", "091209.341000", "091209.343000", "091209.346000", "091209.348000", "091209.351000", "091209.353000", "091209.356000", "091209.358000", "091209.361000", "091209.363000", "091209.366000", "091209.368000", "091209.371000", "091209.373000", "091249.325000", "091249.328000", "091249.331000", "091249.333000", "091249.336000", "091249.338000", "091249.341000", "091249.343000", "091249.346000", "091249.348000", "091249.351000", "091249.353000", "091249.356000", "091249.358000", "091249.361000", "091249.363000", "091249.366000", "091249.368000", "091249.370000", "091249.373000", "091329.326000", "091329.329000", "091329.332000", "091329.334000", "091329.337000", "091329.339000", "091329.342000", "091329.344000", "091329.347000", "091329.349000", "091329.352000", "091329.354000", "091329.357000", "091329.359000", "091329.362000", "091329.364000", "091329.367000", "091329.369000", "091329.372000", "091329.374000", "091351.866000", "091351.869000", "091351.872000", "091351.875000", "091351.878000", "091351.880000", "091351.883000", "091351.885000", "091351.888000", "091351.890000", "091351.893000", "091351.898000"],
      "InstanceNumber": [1, 2, 3, 4, 5, 6, 7, 8, 9, 10, 11, 12, 13, 14, 15, 16, 17, 18, 19, 20, 21, 22, 23, 24, 25, 26, 27, 28, 29, 30, 31, 32, 33, 34, 35, 36, 37, 38, 39, 40, 41, 42, 43, 44, 45, 46, 47, 48, 49, 50, 51, 52, 53, 54, 55, 56, 57, 58, 59, 60, 61, 62, 63, 64, 65, 66, 67, 68, 69, 70, 71, 72, 73, 74, 75, 76, 77, 78, 79, 80, 81, 82, 83, 84, 85, 86, 87, 88, 89, 90, 91, 92, 93, 94, 95, 96, 97, 98, 99, 100, 101, 102, 103, 104, 105, 106, 107, 108, 109, 110, 111, 112, 113, 114, 115, 116, 117, 118, 119, 120, 121, 122, 123, 124, 125, 126, 127, 128, 129, 130, 131, 132, 133, 134, 135, 136, 137, 138, 139, 140, 141, 142, 143, 144, 145, 146, 147, 148, 149, 150, 151, 152, 153, 154, 155, 156, 157, 158, 159, 160, 161, 162, 163, 164, 165, 166, 167, 168, 169, 170, 171, 172, 173, 174, 175, 176, 177, 178, 179, 180, 181, 182, 183, 184, 185, 186, 187, 188, 189, 190, 191, 192, 193, 194, 195, 196, 197, 198, 199, 200],
      "LargestImagePixelValue": [2332, 2328, 2330, 2328, 2327, 2332, 2332, 2336, 2331, 2330, 2328, 2334, 2334, 2333, 2331, 2332, 2335, 2332, 2329, 2331, 2329, 2335, 2334, 2333, 2332, 2332, 2332, 2332, 2333, 2331, 2334, 2330, 2330, 2336, 2334, 2336, 2336, 2333, 2334, 2335, 2334, 2331, 2335, 2334, 2336, 2335, 2332, 2335, 2332, 2336, 2339, 2337, 2339, 2338, 2335, 2332, 2337, 2339, 2337, 2331, 2337, 2336, 2339, 2335, 2335, 2339, 2335, 2337, 2336, 2335, 2340, 2339, 2333, 2336, 2335, 2336, 2344, 2340, 2338, 2334, 2334, 2336, 2340, 2337, 2341, 2338, 2342, 2340, 2334, 2339, 2339, 2335, 2339, 2340, 2341, 2339, 2340, 2342, 2337, 2337, 2338, 2338, 2338, 2338, 2338, 2342, 2335, 2339, 2342, 2340, 2347, 2341, 2341, 2340, 2338, 2342, 2340, 2344, 2339, 2340, 2345, 2339, 2341, 2345, 2338, 2341, 2341, 2340, 2339, 2340, 2339, 2343, 2341, 2340, 2341, 2341, 2345, 2338, 2342, 2340, 2340, 2340, 2346, 2340, 2343, 2343, 2343, 2343, 2341, 2339, 2340, 2343, 2342, 2346, 2347, 2345, 2343, 2340, 2339, 2343, 2340, 2346, 2341, 2340, 2339, 2339, 2339, 2339, 2342, 2340, 2343, 2339, 2348, 2341, 2340, 2340, 2343, 2342, 2346, 2345, 2346, 2343, 2343, 2341, 2341, 2346, 2341, 2344, 2341, 2343, 2342, 2343, 2345, 2342, 2344, 2341, 2339, 2346, 2341, 2347],
      "WindowWidth": [2286.0, 2286.0, 2286.0, 2286.0, 2286.0, 2285.0, 2286.0, 2286.0, 2285.0, 2286.0, 2286.0, 2286.0, 2286.0, 2286.0, 2286.0, 2286.0, 2285.0, 2285.0, 2286.0, 2286.0, 2286.0, 2286.0, 2286.0, 2286.0, 2285.0, 2285.0, 2286.0, 2286.0, 2286.0, 2286.0, 2286.0, 2286.0, 2286.0, 2286.0, 2286.0, 2286.0, 2286.0, 2286.0, 2286.0, 2286.0, 2285.0, 2286.0, 2286.0, 2286.0, 2286.0, 2286.0, 2286.0, 2286.0, 2286.0, 2286.0, 2286.0, 2286.0, 2286.0, 2286.0, 2286.0, 2286.0, 2286.0, 2286.0, 2286.0, 2286.0, 2286.0, 2286.0, 2286.0, 2286.0, 2286.0, 2286.0, 2286.0, 2286.0, 2286.0, 2286.0, 2286.0, 2286.0, 2286.0, 2286.0, 2286.0, 2286.0, 2286.0, 2286.0, 2286.0, 2286.0, 2286.0, 2286.0, 2286.0, 2286.0, 2286.0, 2286.0, 2286.0, 2286.0, 2286.0, 2286.0, 2286.0, 2286.0, 2286.0, 2286.0, 2286.0, 2286.0, 2286.0, 2286.0, 2286.0, 2286.0, 2286.0, 2286.0, 2286.0, 2286.0, 2286.0, 2286.0, 2286.0, 2286.0, 2286.0, 2286.0, 2286.0, 2286.0, 2286.0, 2286.0, 2286.0, 2286.0, 2286.0, 2286.0, 2286.0, 2286.0, 2286.0, 2286.0, 2286.0, 2286.0, 2286.0, 2286.0, 2286.0, 2286.0, 2286.0, 2286.0, 2286.0, 2286.0, 2286.0, 2286.0, 2286.0, 2286.0, 2286.0, 2286.0, 2286.0, 2286.0, 2286.0, 2286.0, 2286.0, 2286.0, 2286.0, 2286.0, 2286.0, 2286.0, 2286.0, 2286.0, 2286.0, 2286.0, 2286.0, 2286.0, 2286.0, 2286.0, 2286.0, 2286.0, 2286.0, 2286.0, 2286.0, 2286.0, 2286.0, 2286.0, 2286.0, 2286.0, 2286.0, 2286.0, 2285.0, 2285.0, 2286.0, 2286.0, 2286.0, 2286.0, 2286.0, 2286.0, 2286.0, 2286.0, 2286.0, 2286.0, 2286.0, 2286.0, 2286.0, 2286.0, 2286.0, 2286.0, 2286.0, 2286.0, 2286.0, 2286.0, 2286.0, 2286.0, 2286.0, 2286.0, 2286.0, 2286.0, 2286.0, 2286.0, 2286.0, 2286.0]
    },
    "slices": {}
  }
}