{
  "AcquisitionMatrixPE": 80,
  "AcquisitionNumber": 1,
  "AcquisitionTime": "09:14:2.490000",
  "BandwidthPerPixelPhaseEncode": 25,
  "BaseResolution": 80,
  "BodyPartExamined": "BRAIN",
  "CoilCombinationMethod": "Sum of Squares",
  "ConsistencyInfo": "N4_VE11C_LATEST_20160120",
  "ConversionSoftware": "dcm2niix",
  "ConversionSoftwareVersion": "v1.0.20220720",
  "DerivedVendorReportedEchoSpacing": 0.0005,
  "DeviceSerialNumber": "66112",
  "DwellTime": 2.7e-06,
  "EchoTime": 0.03,
  "EchoTrainLength": 80,
  "EffectiveEchoSpacing": 0.0005,
  "FlipAngle": 77,
  "HeudiconvVersion": "0.13.1",
  "ImageOrientationPatientDICOM": [0.985083, 0.171869, 0.00852311, -0.165377, 0.931857, 0.322944],
  "ImageOrientationText": "Tra>Cor(18.7)>Sag(-2.7)",
  "ImageType": [
    "ORIGINAL",
    "PRIMARY",
    "M",
    "ND",
    "NORM",
    "MOSAIC"
],
  "ImagingFrequency": 123.252,
  "InPlanePhaseEncodingDirectionDICOM": "COL",
  "InstitutionAddress": "Maynard 3,Hanover,NH,US,03755",
  "InstitutionName": "Dartmouth College - PBS",
  "InstitutionalDepartmentName": "Department",
  "MRAcquisitionType": "2D",
  "MagneticFieldStrength": 3,
  "Manufacturer": "Siemens",
  "ManufacturersModelName": "Prisma",
  "MatrixCoilMode": "SENSE",
  "Modality": "MR",
  "NonlinearGradientCorrection": false,
  "PartialFourier": 1,
  "PatientPosition": "HFS",
  "PercentPhaseFOV": 100,
  "PercentSampling": 100,
  "PhaseEncodingDirection": "j-",
  "PhaseEncodingSteps": 80,
  "PhaseResolution": 1,
  "PixelBandwidth": 2315,
  "ProcedureStepDescription": "dbic^QA",
  "ProtocolName": "func-bold_fa-77",
  "PulseSequenceDetails": "%SiemensSeq%\\ep2d_bold",
  "ReceiveCoilActiveElements": "HEA;HEP",
  "ReceiveCoilName": "Head_32",
  "ReconMatrixPE": 80,
  "RepetitionTime": 2,
  "SAR": 0.0374017,
  "ScanOptions": "FS",
  "ScanningSequence": "EP",
  "SequenceName": "*epfid2d1_80",
  "SequenceVariant": "SK",
  "SeriesDescription": "func-bold_fa-77",
  "SeriesNumber": 8,
  "ShimSetting": [4144, -7695, -7522, 284, -54, -150, 26, 71],
  "SliceThickness": 3.5,
  "SliceTiming": [0.99, 0, 1.055, 0.065, 1.12, 0.1325, 1.1875, 0.1975, 1.2525, 0.2625, 1.32, 0.33, 1.385, 0.395, 1.45, 0.4625, 1.5175, 0.5275, 1.5825, 0.5925, 1.65, 0.66, 1.715, 0.725, 1.78, 0.7925, 1.8475, 0.8575, 1.9125, 0.9225],
  "SoftwareVersions": "syngo MR E11",
  "SpacingBetweenSlices": 3.99,
  "StationName": "AWP66112",
  "TotalReadoutTime": 0.0395,
  "TxRefAmp": 222.642,
  "dcmmeta_affine": [
    [-2.9552488327026367, -0.49612993001937866, -0.18977090716362, 144.06072998046875],
    [-0.5156065225601196, 2.795571804046631, 1.2749478816986084, -99.96542358398438],
    [0.02556932158768177, -0.9688308835029602, 3.7760555744171143, -10.905961990356445],
    [0.0, 0.0, 0.0, 1.0]
],
  "dcmmeta_reorient_transform": [
    [0.0, -1.0, 0.0, 79.0],
    [1.0, 0.0, 0.0, 0.0],
    [0.0, 0.0, 1.0, 0.0],
    [0.0, 0.0, 0.0, 1.0]
],
  "dcmmeta_shape": [80, 80, 30, 200],
  "dcmmeta_slice_dim": 2,
  "dcmmeta_version": 0.6,
  "global": {
    "const": {
      "AccessionNumber": "qa",
      "AcquisitionMatrix": [80, 0, 0, 80],
      "AngioFlag": "N",
      "BitsAllocated": 16,
      "BitsStored": 12,
      "BodyPartExamined": "BRAIN",
      "Columns": 480,
      "EchoNumbers": 1,
      "EchoTime": 30.0,
      "EchoTrainLength": 80,
      "FlipAngle": 77.0,
      "HighBit": 11,
      "ImageOrientationPatient": [0.98508296995398, 0.17186884230086, 0.0085231069929, -0.1653766419042, 0.93185727126652, 0.32294363641383],
      "ImagePositionPatient": [-596.69026899489, -783.12042002413, -286.32365016251],
      "ImageType": [
        "ORIGINAL",
        "PRIMARY",
        "M",
        "ND",
        "NORM",
        "MOSAIC"
],
      "ImagedNucleus": "1H",
      "ImagingFrequency": 123.252369,
      "InPlanePhaseEncodingDirection": "COL",
      "MRAcquisitionType": "2D",
      "MagneticFieldStrength": 3.0,
      "Manufacturer": "SIEMENS",
      "ManufacturerModelName": "Prisma",
      "Modality": "MR",
      "NumberOfAverages": 1.0,
      "NumberOfPhaseEncodingSteps": 80,
      "PercentPhaseFieldOfView": 100.0,
      "PercentSampling": 100.0,
      "PerformedProcedureStepStartTime": "083538.238000",
      "PhotometricInterpretation": "MONOCHROME2",
      "PixelBandwidth": 2315.0,
      "PixelRepresentation": 0,
      "PixelSpacing": [3.0, 3.0],
      "ProtocolName": "func-bold_fa-77",
      "RepetitionTime": 2000.0,
      "Rows": 480,
      "SAR": 0.03740174088045,
      "SamplesPerPixel": 1,
      "ScanOptions": "FS",
      "ScanningSequence": "EP",
      "SequenceName": "*epfid2d1_80",
      "SequenceVariant": "SK",
      "SeriesDescription": "func-bold_fa-77",
      "SeriesNumber": 8,
      "SeriesTime": "091449.185000",
      "SliceLocation": -49.115476855678,
      "SliceThickness": 3.5,
      "SmallestImagePixelValue": 0,
      "SoftwareVersions": "syngo MR E11",
      "SpacingBetweenSlices": 3.9900000630504,
      "SpecificCharacterSet": "ISO_IR 100",
      "StudyID": "9",
      "StudyTime": "083538.119000",
      "TransmitCoilName": "Body",
      "VariableFlipAngleFlag": "N",
      "WindowCenterWidthExplanation": "Algo1",
      "dBdt": 0.0},
    "slices": {}
  },
  "time": {
    "samples": {
      "AcquisitionNumber": [1, 2, 3, 4, 5, 6, 7, 8, 9, 10, 11, 12, 13, 14, 15, 16, 17, 18, 19, 20, 21, 22, 23, 24, 25, 26, 27, 28, 29, 30, 31, 32, 33, 34, 35, 36, 37, 38, 39, 40, 41, 42, 43, 44, 45, 46, 47, 48, 49, 50, 51, 52, 53, 54, 55, 56, 57, 58, 59, 60, 61, 62, 63, 64, 65, 66, 67, 68, 69, 70, 71, 72, 73, 74, 75, 76, 77, 78, 79, 80, 81, 82, 83, 84, 85, 86, 87, 88, 89, 90, 91, 92, 93, 94, 95, 96, 97, 98, 99, 100, 101, 102, 103, 104, 105, 106, 107, 108, 109, 110, 111, 112, 113, 114, 115, 116, 117, 118, 119, 120, 121, 122, 123, 124, 125, 126, 127, 128, 129, 130, 131, 132, 133, 134, 135, 136, 137, 138, 139, 140, 141, 142, 143, 144, 145, 146, 147, 148, 149, 150, 151, 152, 153, 154, 155, 156, 157, 158, 159, 160, 161, 162, 163, 164, 165, 166, 167, 168, 169, 170, 171, 172, 173, 174, 175, 176, 177, 178, 179, 180, 181, 182, 183, 184, 185, 186, 187, 188, 189, 190, 191, 192, 193, 194, 195, 196, 197, 198, 199, 200],
      "AcquisitionTime": ["091402.490000", "091404.490000", "091406.490000", "091408.490000", "091410.490000", "091412.490000", "091414.490000", "091416.490000", "091418.490000", "091420.490000", "091422.490000", "091424.490000", "091426.490000", "091428.490000", "091430.490000", "091432.490000", "091434.490000", "091436.490000", "091438.490000", "091440.490000", "091442.490000", "091444.490000", "091446.490000", "091448.490000", "091450.490000", "091452.490000", "091454.490000", "091456.490000", "091458.490000", "091500.490000", "091502.490000", "091504.490000", "091506.490000", "091508.490000", "091510.490000", "091512.490000", "091514.490000", "091516.490000", "091518.490000", "091520.490000", "091522.490000", "091524.490000", "091526.490000", "091528.490000", "091530.490000", "091532.490000", "091534.490000", "091536.490000", "091538.490000", "091540.490000", "091542.490000", "091544.490000", "091546.490000", "091548.490000", "091550.490000", "091552.490000", "091554.490000", "091556.490000", "091558.490000", "091600.490000", "091602.490000", "091604.490000", "091606.490000", "091608.490000", "091610.490000", "091612.490000", "091614.490000", "091616.490000", "091618.490000", "091620.490000", "091622.490000", "091624.490000", "091626.490000", "091628.490000", "091630.490000", "091632.490000", "091634.490000", "091636.490000", "091638.490000", "091640.490000", "091642.490000", "091644.490000", "091646.490000", "091648.490000", "091650.490000", "091652.490000", "091654.490000", "091656.490000", "091658.490000", "091700.490000", "091702.490000", "091704.490000", "091706.490000", "091708.490000", "091710.490000", "091712.490000", "091714.490000", "091716.490000", "091718.490000", "091720.490000", "091722.490000", "091724.490000", "091726.490000", "091728.490000", "091730.490000", "091732.490000", "091734.490000", "091736.490000", "091738.490000", "091740.490000", "091742.490000", "091744.490000", "091746.490000", "091748.490000", "091750.490000", "091752.490000", "091754.490000", "091756.490000", "091758.490000", "091800.490000", "091802.490000", "091804.490000", "091806.490000", "091808.490000", "091810.490000", "091812.490000", "091814.490000", "091816.490000", "091818.490000", "091820.490000", "091822.490000", "091824.490000", "091826.490000", "091828.490000", "091830.490000", "091832.490000", "091834.490000", "091836.490000", "091838.490000", "091840.490000", "091842.490000", "091844.490000", "091846.490000", "091848.490000", "091850.490000", "091852.490000", "091854.490000", "091856.490000", "091858.490000", "091900.490000", "091902.490000", "091904.490000", "091906.490000", "091908.490000", "091910.490000", "091912.490000", "091914.490000", "091916.490000", "091918.490000", "091920.490000", "091922.490000", "091924.490000", "091926.490000", "091928.490000", "091930.490000", "091932.490000", "091934.490000", "091936.490000", "091938.490000", "091940.490000", "091942.490000", "091944.490000", "091946.490000", "091948.490000", "091950.490000", "091952.490000", "091954.490000", "091956.490000", "091958.490000", "092000.490000", "092002.490000", "092004.490000", "092006.490000", "092008.490000", "092010.490000", "092012.490000", "092014.490000", "092016.490000", "092018.490000", "092020.490000", "092022.490000", "092024.490000", "092026.490000", "092028.490000", "092030.490000", "092032.490000", "092034.490000", "092036.490000", "092038.490000", "092040.490000"],
      "ContentTime": ["091449.188000", "091449.192000", "091449.194000", "091449.197000", "091449.199000", "091449.201000", "091449.204000", "091449.206000", "091449.209000", "091449.211000", "091449.214000", "091449.216000", "091449.219000", "091449.227000", "091449.230000", "091449.232000", "091449.235000", "091449.237000", "091449.240000", "091449.242000", "091449.245000", "091449.247000", "091449.250000", "091529.183000", "091529.186000", "091529.189000", "091529.191000", "091529.194000", "091529.196000", "091529.199000", "091529.201000", "091529.204000", "091529.206000", "091529.209000", "091529.211000", "091529.214000", "091529.216000", "091529.219000", "091529.221000", "091529.224000", "091529.226000", "091529.229000", "091529.231000", "091609.184000", "091609.187000", "091609.190000", "091609.192000", "091609.195000", "091609.197000", "091609.200000", "091609.202000", "091609.205000", "091609.207000", "091609.210000", "091609.212000", "091609.215000", "091609.217000", "091609.219000", "091609.222000", "091609.224000", "091609.227000", "091609.229000", "091609.232000", "091629.185000", "091629.187000", "091629.190000", "091629.192000", "091629.195000", "091629.197000", "091629.200000", "091629.202000", "091629.205000", "091629.207000", "091709.183000", "091709.186000", "091709.189000", "091709.191000", "091709.194000", "091709.196000", "091709.199000", "091709.211000", "091709.213000", "091709.215000", "091709.218000", "091709.220000", "091709.223000", "091709.225000", "091709.228000", "091709.230000", "091709.233000", "091709.235000", "091709.238000", "091709.240000", "091749.183000", "091749.186000", "091749.189000", "091749.191000", "091749.194000", "091749.196000", "091749.199000", "091749.201000", "091749.204000", "091749.206000", "091749.209000", "091749.211000", "091749.214000", "091749.216000", "091749.219000", "091749.221000", "091749.223000", "091749.226000", "091749.228000", "091749.231000", "091829.184000", "091829.187000", "091829.190000", "091829.192000", "091829.195000", "091829.197000", "091829.200000", "091829.202000", "091829.205000", "091829.207000", "091829.210000", "091829.212000", "091829.215000", "091829.217000", "091829.220000", "091829.222000", "091829.225000", "091829.227000", "091829.229000", "091829.232000", "091909.184000", "091909.186000", "091909.189000", "091909.191000", "091909.194000", "091909.196000", "091909.199000", "091909.201000", "091909.204000", "091909.206000", "091909.221000", "091909.224000", "091909.226000", "091909.229000", "091909.231000", "091909.234000", "091909.236000", "091909.238000", "091909.241000", "091909.243000", "091949.183000", "091949.186000", "091949.189000", "091949.191000", "091949.194000", "091949.196000", "091949.199000", "091949.201000", "091949.204000", "091949.206000", "091949.209000", "091949.211000", "091949.214000", "091949.216000", "091949.219000", "091949.221000", "091949.224000", "091949.226000", "091949.229000", "091949.231000", "092029.184000", "092029.187000", "092029.190000", "092029.192000", "092029.195000", "092029.197000", "092029.200000", "092029.202000", "092029.205000", "092029.207000", "092029.210000", "092029.212000", "092029.215000", "092029.217000", "092029.220000", "092029.222000", "092029.225000", "092029.227000", "092029.230000", "092029.232000", "092041.948000", "092041.951000", "092041.954000", "092041.956000", "092041.959000", "092041.961000", "092041.964000"],
      "InstanceCreationTime": ["091449.188000", "091449.192000", "091449.194000", "091449.197000", "091449.199000", "091449.201000", "091449.204000", "091449.206000", "091449.209000", "091449.211000", "091449.214000", "091449.216000", "091449.219000", "091449.227000", "091449.230000", "091449.232000", "091449.235000", "091449.237000", "091449.240000", "091449.242000", "091449.245000", "091449.247000", "091449.250000", "091529.183000", "091529.186000", "091529.189000", "091529.191000", "091529.194000", "091529.196000", "091529.199000", "091529.201000", "091529.204000", "091529.206000", "091529.209000", "091529.211000", "091529.214000", "091529.216000", "091529.219000", "091529.221000", "091529.224000", "091529.226000", "091529.229000", "091529.231000", "091609.184000", "091609.187000", "091609.190000", "091609.192000", "091609.195000", "091609.197000", "091609.200000", "091609.202000", "091609.205000", "091609.207000", "091609.210000", "091609.212000", "091609.215000", "091609.217000", "091609.219000", "091609.222000", "091609.224000", "091609.227000", "091609.229000", "091609.232000", "091629.185000", "091629.187000", "091629.190000", "091629.192000", "091629.195000", "091629.197000", "091629.200000", "091629.202000", "091629.205000", "091629.207000", "091709.183000", "091709.186000", "091709.189000", "091709.191000", "091709.194000", "091709.196000", "091709.199000", "091709.211000", "091709.213000", "091709.215000", "091709.218000", "091709.220000", "091709.223000", "091709.225000", "091709.228000", "091709.230000", "091709.233000", "091709.235000", "091709.238000", "091709.240000", "091749.183000", "091749.186000", "091749.189000", "091749.191000", "091749.194000", "091749.196000", "091749.199000", "091749.201000", "091749.204000", "091749.206000", "091749.209000", "091749.211000", "091749.214000", "091749.216000", "091749.219000", "091749.221000", "091749.223000", "091749.226000", "091749.228000", "091749.231000", "091829.184000", "091829.187000", "091829.190000", "091829.192000", "091829.195000", "091829.197000", "091829.200000", "091829.202000", "091829.205000", "091829.207000", "091829.210000", "091829.212000", "091829.215000", "091829.217000", "091829.220000", "091829.222000", "091829.225000", "091829.227000", "091829.229000", "091829.232000", "091909.184000", "091909.186000", "091909.189000", "091909.191000", "091909.194000", "091909.196000", "091909.199000", "091909.201000", "091909.204000", "091909.206000", "091909.221000", "091909.224000", "091909.226000", "091909.229000", "091909.231000", "091909.234000", "091909.236000", "091909.238000", "091909.241000", "091909.243000", "091949.183000", "091949.186000", "091949.189000", "091949.191000", "091949.194000", "091949.196000", "091949.199000", "091949.201000", "091949.204000", "091949.206000", "091949.209000", "091949.211000", "091949.214000", "091949.216000", "091949.219000", "091949.221000", "091949.224000", "091949.226000", "091949.229000", "091949.231000", "092029.184000", "092029.187000", "092029.190000", "092029.192000", "092029.195000", "092029.197000", "092029.200000", "092029.202000", "092029.205000", "092029.207000", "092029.210000", "092029.212000", "092029.215000", "092029.217000", "092029.220000", "092029.222000", "092029.225000", "092029.227000", "092029.230000", "092029.232000", "092041.948000", "092041.951000", "092041.954000", "092041.956000", "092041.959000", "092041.961000", "092041.964000"],
      "InstanceNumber": [1, 2, 3, 4, 5, 6, 7, 8, 9, 10, 11, 12, 13, 14, 15, 16, 17, 18, 19, 20, 21, 22, 23, 24, 25, 26, 27, 28, 29, 30, 31, 32, 33, 34, 35, 36, 37, 38, 39, 40, 41, 42, 43, 44, 45, 46, 47, 48, 49, 50, 51, 52, 53, 54, 55, 56, 57, 58, 59, 60, 61, 62, 63, 64, 65, 66, 67, 68, 69, 70, 71, 72, 73, 74, 75, 76, 77, 78, 79, 80, 81, 82, 83, 84, 85, 86, 87, 88, 89, 90, 91, 92, 93, 94, 95, 96, 97, 98, 99, 100, 101, 102, 103, 104, 105, 106, 107, 108, 109, 110, 111, 112, 113, 114, 115, 116, 117, 118, 119, 120, 121, 122, 123, 124, 125, 126, 127, 128, 129, 130, 131, 132, 133, 134, 135, 136, 137, 138, 139, 140, 141, 142, 143, 144, 145, 146, 147, 148, 149, 150, 151, 152, 153, 154, 155, 156, 157, 158, 159, 160, 161, 162, 163, 164, 165, 166, 167, 168, 169, 170, 171, 172, 173, 174, 175, 176, 177, 178, 179, 180, 181, 182, 183, 184, 185, 186, 187, 188, 189, 190, 191, 192, 193, 194, 195, 196, 197, 198, 199, 200],
      "LargestImagePixelValue": [2298, 2297, 2295, 2296, 2298, 2299, 2298, 2296, 2299, 2300, 2300, 2297, 2299, 2299, 2301, 2298, 2300, 2298, 2299, 2299, 2298, 2297, 2297, 2296, 2297, 2297, 2298, 2294, 2296, 2295, 2292, 2297, 2296, 2296, 2292, 2294, 2294, 2295, 2294, 2296, 2296, 2298, 2297, 2298, 2293, 2294, 2296, 2296, 2296, 2297, 2297, 2297, 2297, 2297, 2296, 2295, 2294, 2294, 2296, 2297, 2295, 2296, 2294, 2296, 2297, 2297, 2296, 2297, 2297, 2295, 2295, 2295, 2295, 2295, 2295, 2293, 2295, 2294, 2294, 2293, 2292, 2295, 2293, 2294, 2294, 2292, 2292, 2291, 2294, 2293, 2292, 2290, 2292, 2291, 2289, 2292, 2291, 2290, 2291, 2291, 2290, 2291, 2290, 2291, 2288, 2290, 2293, 2293, 2291, 2291, 2291, 2289, 2290, 2292, 2292, 2290, 2290, 2289, 2291, 2290, 2290, 2291, 2289, 2292, 2290, 2290, 2290, 2289, 2289, 2291, 2290, 2289, 2291, 2290, 2289, 2291, 2293, 2292, 2294, 2294, 2290, 2291, 2292, 2291, 2292, 2291, 2292, 2291, 2291, 2291, 2291, 2290, 2290, 2292, 2290, 2291, 2293, 2290, 2290, 2292, 2291, 2292, 2292, 2289, 2289, 2289, 2290, 2291, 2291, 2291, 2292, 2289, 2291, 2292, 2290, 2293, 2292, 2292, 2291, 2288, 2290, 2289, 2289, 2288, 2288, 2291, 2291, 2290, 2289, 2288, 2289, 2289, 2289, 2290, 2288, 2286, 2290, 2288, 2287, 2289],
      "WindowCenter": [1036.0, 1036.0, 1035.0, 1035.0, 1034.0, 1034.0, 1034.0, 1034.0, 1034.0, 1035.0, 1034.0, 1035.0, 1036.0, 1036.0, 1036.0, 1033.0, 1035.0, 1033.0, 1035.0, 1034.0, 1036.0, 1034.0, 1035.0, 1033.0, 1034.0, 1033.0, 1034.0, 1034.0, 1033.0, 1034.0, 1034.0, 1034.0, 1034.0, 1035.0, 1035.0, 1033.0, 1036.0, 1035.0, 1033.0, 1035.0, 1034.0, 1036.0, 1035.0, 1035.0, 1033.0, 1035.0, 1033.0, 1034.0, 1034.0, 1035.0, 1033.0, 1034.0, 1034.0, 1033.0, 1034.0, 1035.0, 1035.0, 1034.0, 1034.0, 1034.0, 1035.0, 1036.0, 1033.0, 1035.0, 1034.0, 1033.0, 1034.0, 1033.0, 1035.0, 1033.0, 1033.0, 1033.0, 1033.0, 1034.0, 1034.0, 1035.0, 1034.0, 1034.0, 1034.0, 1033.0, 1035.0, 1033.0, 1033.0, 1033.0, 1032.0, 1034.0, 1035.0, 1034.0, 1034.0, 1035.0, 1032.0, 1034.0, 1033.0, 1034.0, 1035.0, 1033.0, 1032.0, 1033.0, 1034.0, 1034.0, 1034.0, 1034.0, 1035.0, 1033.0, 1032.0, 1033.0, 1035.0, 1034.0, 1035.0, 1034.0, 1034.0, 1033.0, 1034.0, 1033.0, 1033.0, 1035.0, 1034.0, 1034.0, 1033.0, 1034.0, 1034.0, 1035.0, 1033.0, 1033.0, 1035.0, 1034.0, 1032.0, 1032.0, 1033.0, 1033.0, 1035.0, 1035.0, 1033.0, 1033.0, 1032.0, 1034.0, 1034.0, 1032.0, 1034.0, 1034.0, 1035.0, 1035.0, 1035.0, 1035.0, 1035.0, 1035.0, 1032.0, 1034.0, 1034.0, 1032.0, 1033.0, 1033.0, 1032.0, 1034.0, 1033.0, 1034.0, 1034.0, 1033.0, 1034.0, 1033.0, 1035.0, 1035.0, 1035.0, 1034.0, 1034.0, 1033.0, 1034.0, 1033.0, 1032.0, 1034.0, 1034.0, 1033.0, 1034.0, 1033.0, 1033.0, 1034.0, 1033.0, 1033.0, 1034.0, 1033.0, 1033.0, 1033.0, 1032.0, 1031.0, 1033.0, 1034.0, 1033.0, 1033.0, 1034.0, 1034.0, 1033.0, 1033.0, 1032.0, 1033.0, 1032.0, 1033.0, 1032.0, 1034.0, 1033.0, 1034.0],
      "WindowWidth": [2329.0, 2329.0, 2328.0, 2328.0, 2328.0, 2328.0, 2328.0, 2328.0, 2328.0, 2329.0, 2328.0, 2329.0, 2329.0, 2329.0, 2329.0, 2327.0, 2329.0, 2327.0, 2329.0, 2328.0, 2329.0, 2328.0, 2328.0, 2327.0, 2328.0, 2327.0, 2328.0, 2328.0, 2326.0, 2327.0, 2327.0, 2328.0, 2327.0, 2328.0, 2328.0, 2326.0, 2328.0, 2329.0, 2326.0, 2328.0, 2328.0, 2329.0, 2328.0, 2328.0, 2327.0, 2327.0, 2327.0, 2328.0, 2328.0, 2328.0, 2327.0, 2327.0, 2327.0, 2327.0, 2328.0, 2328.0, 2328.0, 2327.0, 2327.0, 2327.0, 2328.0, 2329.0, 2327.0, 2328.0, 2327.0, 2327.0, 2327.0, 2327.0, 2329.0, 2327.0, 2326.0, 2326.0, 2326.0, 2327.0, 2327.0, 2328.0, 2327.0, 2327.0, 2326.0, 2326.0, 2328.0, 2326.0, 2326.0, 2326.0, 2325.0, 2326.0, 2327.0, 2326.0, 2326.0, 2327.0, 2325.0, 2326.0, 2325.0, 2326.0, 2327.0, 2325.0, 2325.0, 2326.0, 2326.0, 2327.0, 2326.0, 2327.0, 2327.0, 2325.0, 2325.0, 2325.0, 2327.0, 2326.0, 2327.0, 2326.0, 2326.0, 2325.0, 2326.0, 2325.0, 2325.0, 2327.0, 2326.0, 2326.0, 2325.0, 2326.0, 2326.0, 2327.0, 2325.0, 2325.0, 2327.0, 2326.0, 2324.0, 2324.0, 2325.0, 2325.0, 2327.0, 2327.0, 2325.0, 2325.0, 2324.0, 2326.0, 2326.0, 2325.0, 2326.0, 2327.0, 2327.0, 2327.0, 2327.0, 2327.0, 2327.0, 2327.0, 2324.0, 2326.0, 2326.0, 2324.0, 2326.0, 2324.0, 2324.0, 2325.0, 2325.0, 2326.0, 2326.0, 2324.0, 2326.0, 2325.0, 2327.0, 2327.0, 2327.0, 2325.0, 2326.0, 2324.0, 2325.0, 2326.0, 2325.0, 2326.0, 2326.0, 2326.0, 2326.0, 2324.0, 2325.0, 2325.0, 2326.0, 2325.0, 2325.0, 2325.0, 2326.0, 2325.0, 2324.0, 2323.0, 2325.0, 2326.0, 2325.0, 2325.0, 2326.0, 2326.0, 2325.0, 2325.0, 2324.0, 2325.0, 2324.0, 2325.0, 2324.0, 2325.0, 2325.0, 2325.0]
    },
    "slices": {}
  }
}