{
  "AcquisitionMatrixPE": 80,
  "AcquisitionNumber": 1,
  "AcquisitionTime": "09:39:34.810000",
  "BandwidthPerPixelPhaseEncode": 48.077,
  "BaseResolution": 80,
  "BodyPartExamined": "BRAIN",
  "CoilCombinationMethod": "Sum of Squares",
  "ConsistencyInfo": "N4_VE11C_LATEST_20160120",
  "ConversionSoftware": "dcm2niix",
  "ConversionSoftwareVersion": "v1.0.20220720",
  "DerivedVendorReportedEchoSpacing": 0.000519999,
  "DeviceSerialNumber": "66112",
  "DwellTime": 2.7e-06,
  "EchoTime": 0.035,
  "EchoTrainLength": 39,
  "EffectiveEchoSpacing": 0.00026,
  "FlipAngle": 90,
  "HeudiconvVersion": "0.13.1",
  "ImageOrientationPatientDICOM": [0.998988, -0.0446301, 0.00551797, 0.0408221, 0.951465, 0.305038],
  "ImageOrientationText": "Tra>Cor(17.7)>Sag(1.1)",
  "ImageType": [
    "ORIGINAL",
    "PRIMARY",
    "M",
    "ND",
    "NORM",
    "MOSAIC"
],
  "ImagingFrequency": 123.252,
  "InPlanePhaseEncodingDirectionDICOM": "COL",
  "InstitutionAddress": "Maynard 3,Hanover,NH,US,03755",
  "InstitutionName": "Dartmouth College - PBS",
  "InstitutionalDepartmentName": "Department",
  "MRAcquisitionType": "2D",
  "MagneticFieldStrength": 3,
  "Manufacturer": "Siemens",
  "ManufacturersModelName": "Prisma",
  "MatrixCoilMode": "GRAPPA",
  "Modality": "MR",
  "NonlinearGradientCorrection": false,
  "ParallelReductionFactorInPlane": 2,
  "PartialFourier": 1,
  "PatientPosition": "HFS",
  "PercentPhaseFOV": 100,
  "PercentSampling": 100,
  "PhaseEncodingDirection": "j-",
  "PhaseEncodingSteps": 79,
  "PhaseResolution": 1,
  "PixelBandwidth": 2315,
  "ProcedureStepDescription": "dbic^QA",
  "ProtocolName": "func-bold_task-rest_acq-p2",
  "PulseSequenceDetails": "%SiemensSeq%\\ep2d_bold",
  "ReceiveCoilActiveElements": "HEA;HEP",
  "ReceiveCoilName": "Head_32",
  "ReconMatrixPE": 80,
  "RefLinesPE": 24,
  "RepetitionTime": 2,
  "SAR": 0.0555673,
  "ScanOptions": "FS",
  "ScanningSequence": "EP",
  "SequenceName": "*epfid2d1_80",
  "SequenceVariant": "SK",
  "SeriesDescription": "func-bold_task-rest_acq-p2",
  "SeriesNumber": 5,
  "ShimSetting": [4142, -7688, -7504, 287, -106, -155, -63, 54],
  "SliceThickness": 3.5,
  "SliceTiming": [0.99, 0, 1.0575, 0.0675, 1.1225, 0.1325, 1.1875, 0.1975, 1.255, 0.265, 1.32, 0.33, 1.3875, 0.3975, 1.4525, 0.4625, 1.5175, 0.5275, 1.585, 0.595, 1.65, 0.66, 1.7175, 0.7275, 1.7825, 0.7925, 1.8475, 0.8575, 1.915, 0.925],
  "SoftwareVersions": "syngo MR E11",
  "SpacingBetweenSlices": 3.99,
  "StationName": "AWP66112",
  "TaskName": "rest",
  "TotalReadoutTime": 0.02054,
  "TxRefAmp": 240.8,
  "dcmmeta_affine": [
    [-2.996964931488037, 0.12246616929769516, 0.075267493724823, 113.01655578613281],
    [0.13389024138450623, 2.8543944358825684, 1.2149721384048462, -126.89250946044922],
    [0.016553914174437523, -0.9151144623756409, 3.7997734546661377, -13.144042015075684],
    [0.0, 0.0, 0.0, 1.0]
],
  "dcmmeta_reorient_transform": [
    [0.0, -1.0, 0.0, 79.0],
    [1.0, 0.0, 0.0, 0.0],
    [0.0, 0.0, 1.0, 0.0],
    [0.0, 0.0, 0.0, 1.0]
],
  "dcmmeta_shape": [80, 80, 30, 200],
  "dcmmeta_slice_dim": 2,
  "dcmmeta_version": 0.6,
  "global": {
    "const": {
      "AccessionNumber": "qa",
      "AcquisitionMatrix": [80, 0, 0, 80],
      "AngioFlag": "N",
      "BitsAllocated": 16,
      "BitsStored": 12,
      "BodyPartExamined": "BRAIN",
      "Columns": 480,
      "EchoNumbers": 1,
      "EchoTime": 35.0,
      "EchoTrainLength": 39,
      "FlipAngle": 90.0,
      "HighBit": 11,
      "ImageOrientationPatient": [0.99898834224809, -0.0446300800141, 0.00551797158021, 0.04082205677398, 0.95146481135997, 0.3050381491297],
      "ImagePositionPatient": [-746.57762108305, -642.705492386, -271.77175548291],
      "ImageType": [
        "ORIGINAL",
        "PRIMARY",
        "M",
        "ND",
        "NORM",
        "MOSAIC"
],
      "ImagedNucleus": "1H",
      "ImagingFrequency": 123.252434,
      "InPlanePhaseEncodingDirection": "COL",
      "MRAcquisitionType": "2D",
      "MagneticFieldStrength": 3.0,
      "Manufacturer": "SIEMENS",
      "ManufacturerModelName": "Prisma",
      "Modality": "MR",
      "NumberOfAverages": 1.0,
      "NumberOfPhaseEncodingSteps": 79,
      "PercentPhaseFieldOfView": 100.0,
      "PercentSampling": 100.0,
      "PerformedProcedureStepStartTime": "093754.337000",
      "PhotometricInterpretation": "MONOCHROME2",
      "PixelBandwidth": 2315.0,
      "PixelRepresentation": 0,
      "PixelSpacing": [3.0, 3.0],
      "ProtocolName": "func-bold_task-rest_acq-p2",
      "RepetitionTime": 2000.0,
      "Rows": 480,
      "SAR": 0.05556732159475,
      "SamplesPerPixel": 1,
      "ScanOptions": "FS",
      "ScanningSequence": "EP",
      "SequenceName": "*epfid2d1_80",
      "SequenceVariant": "SK",
      "SeriesDescription": "func-bold_task-rest_acq-p2",
      "SeriesNumber": 5,
      "SeriesTime": "094026.721000",
      "SliceLocation": -49.024754247002,
      "SliceThickness": 3.5,
      "SmallestImagePixelValue": 0,
      "SoftwareVersions": "syngo MR E11",
      "SpacingBetweenSlices": 3.990000039062,
      "SpecificCharacterSet": "ISO_IR 100",
      "StudyID": "11",
      "StudyTime": "093754.266000",
      "TransmitCoilName": "Body",
      "VariableFlipAngleFlag": "N",
      "WindowCenterWidthExplanation": "Algo1",
      "dBdt": 0.0},
    "slices": {}
  },
  "time": {
    "samples": {
      "AcquisitionNumber": [1, 2, 3, 4, 5, 6, 7, 8, 9, 10, 11, 12, 13, 14, 15, 16, 17, 18, 19, 20, 21, 22, 23, 24, 25, 26, 27, 28, 29, 30, 31, 32, 33, 34, 35, 36, 37, 38, 39, 40, 41, 42, 43, 44, 45, 46, 47, 48, 49, 50, 51, 52, 53, 54, 55, 56, 57, 58, 59, 60, 61, 62, 63, 64, 65, 66, 67, 68, 69, 70, 71, 72, 73, 74, 75, 76, 77, 78, 79, 80, 81, 82, 83, 84, 85, 86, 87, 88, 89, 90, 91, 92, 93, 94, 95, 96, 97, 98, 99, 100, 101, 102, 103, 104, 105, 106, 107, 108, 109, 110, 111, 112, 113, 114, 115, 116, 117, 118, 119, 120, 121, 122, 123, 124, 125, 126, 127, 128, 129, 130, 131, 132, 133, 134, 135, 136, 137, 138, 139, 140, 141, 142, 143, 144, 145, 146, 147, 148, 149, 150, 151, 152, 153, 154, 155, 156, 157, 158, 159, 160, 161, 162, 163, 164, 165, 166, 167, 168, 169, 170, 171, 172, 173, 174, 175, 176, 177, 178, 179, 180, 181, 182, 183, 184, 185, 186, 187, 188, 189, 190, 191, 192, 193, 194, 195, 196, 197, 198, 199, 200],
      "AcquisitionTime": ["093934.810000", "093936.810000", "093938.810000", "093940.810000", "093942.810000", "093944.810000", "093946.810000", "093948.810000", "093950.810000", "093952.810000", "093954.810000", "093956.810000", "093958.810000", "094000.810000", "094002.810000", "094004.810000", "094006.810000", "094008.810000", "094010.810000", "094012.810000", "094014.810000", "094016.810000", "094018.810000", "094020.810000", "094022.810000", "094024.810000", "094026.810000", "094028.810000", "094030.810000", "094032.810000", "094034.810000", "094036.810000", "094038.810000", "094040.810000", "094042.810000", "094044.810000", "094046.810000", "094048.810000", "094050.810000", "094052.810000", "094054.810000", "094056.810000", "094058.810000", "094100.810000", "094102.810000", "094104.810000", "094106.810000", "094108.810000", "094110.810000", "094112.810000", "094114.810000", "094116.810000", "094118.810000", "094120.810000", "094122.810000", "094124.810000", "094126.810000", "094128.810000", "094130.810000", "094132.810000", "094134.810000", "094136.810000", "094138.810000", "094140.810000", "094142.810000", "094144.810000", "094146.810000", "094148.810000", "094150.810000", "094152.810000", "094154.810000", "094156.810000", "094158.810000", "094200.810000", "094202.810000", "094204.810000", "094206.810000", "094208.810000", "094210.810000", "094212.810000", "094214.810000", "094216.810000", "094218.810000", "094220.810000", "094222.810000", "094224.810000", "094226.810000", "094228.810000", "094230.810000", "094232.810000", "094234.810000", "094236.810000", "094238.810000", "094240.810000", "094242.810000", "094244.810000", "094246.810000", "094248.810000", "094250.810000", "094252.810000", "094254.810000", "094256.810000", "094258.810000", "094300.810000", "094302.810000", "094304.810000", "094306.810000", "094308.810000", "094310.810000", "094312.810000", "094314.810000", "094316.810000", "094318.810000", "094320.810000", "094322.810000", "094324.810000", "094326.810000", "094328.810000", "094330.810000", "094332.810000", "094334.810000", "094336.810000", "094338.810000", "094340.810000", "094342.810000", "094344.810000", "094346.810000", "094348.810000", "094350.810000", "094352.810000", "094354.810000", "094356.810000", "094358.810000", "094400.810000", "094402.810000", "094404.810000", "094406.810000", "094408.810000", "094410.810000", "094412.810000", "094414.810000", "094416.810000", "094418.810000", "094420.810000", "094422.810000", "094424.810000", "094426.810000", "094428.810000", "094430.810000", "094432.810000", "094434.810000", "094436.810000", "094438.810000", "094440.810000", "094442.810000", "094444.810000", "094446.810000", "094448.810000", "094450.810000", "094452.810000", "094454.810000", "094456.810000", "094458.810000", "094500.810000", "094502.810000", "094504.810000", "094506.810000", "094508.810000", "094510.810000", "094512.810000", "094514.810000", "094516.810000", "094518.810000", "094520.810000", "094522.810000", "094524.810000", "094526.810000", "094528.810000", "094530.810000", "094532.810000", "094534.810000", "094536.810000", "094538.810000", "094540.810000", "094542.810000", "094544.810000", "094546.810000", "094548.810000", "094550.810000", "094552.810000", "094554.810000", "094556.810000", "094558.810000", "094600.810000", "094602.810000", "094604.810000", "094606.810000", "094608.810000", "094610.810000", "094612.810000"],
      "ContentTime": ["094026.725000", "094026.728000", "094026.731000", "094026.733000", "094026.736000", "094026.739000", "094026.741000", "094026.744000", "094026.746000", "094026.749000", "094026.751000", "094026.754000", "094026.756000", "094026.759000", "094026.761000", "094026.764000", "094026.767000", "094026.769000", "094026.772000", "094026.774000", "094026.777000", "094026.779000", "094026.782000", "094026.785000", "094026.787000", "094026.790000", "094106.719000", "094106.722000", "094106.725000", "094106.727000", "094106.730000", "094106.733000", "094106.735000", "094106.738000", "094106.740000", "094106.743000", "094106.745000", "094106.748000", "094106.751000", "094106.753000", "094106.756000", "094106.758000", "094106.761000", "094106.763000", "094106.766000", "094106.768000", "094146.720000", "094146.723000", "094146.726000", "094146.728000", "094146.731000", "094146.734000", "094146.736000", "094146.739000", "094146.741000", "094146.744000", "094146.746000", "094146.749000", "094146.751000", "094146.754000", "094146.760000", "094146.763000", "094146.765000", "094146.768000", "094146.770000", "094146.773000", "094226.721000", "094226.723000", "094226.726000", "094226.728000", "094226.731000", "094226.734000", "094226.736000", "094226.739000", "094226.741000", "094226.744000", "094226.746000", "094226.749000", "094226.752000", "094226.754000", "094226.757000", "094226.759000", "094226.762000", "094226.764000", "094226.767000", "094226.769000", "094306.719000", "094306.722000", "094306.725000", "094306.727000", "094306.730000", "094306.732000", "094306.735000", "094306.738000", "094306.740000", "094306.743000", "094306.745000", "094306.748000", "094306.750000", "094306.753000", "094306.755000", "094306.758000", "094306.760000", "094306.763000", "094306.766000", "094306.768000", "094346.720000", "094346.722000", "094346.725000", "094346.728000", "094346.730000", "094346.733000", "094346.735000", "094346.738000", "094346.740000", "094346.743000", "094346.745000", "094346.748000", "094346.751000", "094346.753000", "094346.756000", "094346.758000", "094346.761000", "094346.763000", "094346.766000", "094346.768000", "094426.720000", "094426.723000", "094426.738000", "094426.740000", "094426.743000", "094426.746000", "094426.748000", "094426.751000", "094426.753000", "094426.756000", "094426.758000", "094426.761000", "094426.763000", "094426.766000", "094426.769000", "094426.771000", "094426.774000", "094426.776000", "094426.779000", "094426.781000", "094506.719000", "094506.722000", "094506.725000", "094506.727000", "094506.730000", "094506.733000", "094506.735000", "094506.738000", "094506.740000", "094506.743000", "094506.745000", "094506.748000", "094506.751000", "094506.753000", "094506.756000", "094506.758000", "094506.761000", "094506.763000", "094506.766000", "094506.769000", "094546.720000", "094546.722000", "094546.725000", "094546.728000", "094546.730000", "094546.733000", "094546.735000", "094546.738000", "094546.740000", "094546.743000", "094546.746000", "094546.748000", "094546.751000", "094546.753000", "094546.756000", "094546.758000", "094546.761000", "094546.764000", "094546.766000", "094546.769000", "094614.537000", "094614.540000", "094614.542000", "094614.545000", "094614.548000", "094614.550000", "094614.553000", "094614.555000", "094614.558000", "094614.561000", "094614.563000", "094614.566000", "094614.570000", "094614.574000"],
      "InstanceCreationTime": ["094026.725000", "094026.728000", "094026.731000", "094026.733000", "094026.736000", "094026.739000", "094026.741000", "094026.744000", "094026.746000", "094026.749000", "094026.751000", "094026.754000", "094026.756000", "094026.759000", "094026.761000", "094026.764000", "094026.767000", "094026.769000", "094026.772000", "094026.774000", "094026.777000", "094026.779000", "094026.782000", "094026.785000", "094026.787000", "094026.790000", "094106.719000", "094106.722000", "094106.725000", "094106.727000", "094106.730000", "094106.733000", "094106.735000", "094106.738000", "094106.740000", "094106.743000", "094106.745000", "094106.748000", "094106.751000", "094106.753000", "094106.756000", "094106.758000", "094106.761000", "094106.763000", "094106.766000", "094106.768000", "094146.720000", "094146.723000", "094146.726000", "094146.728000", "094146.731000", "094146.734000", "094146.736000", "094146.739000", "094146.741000", "094146.744000", "094146.746000", "094146.749000", "094146.751000", "094146.754000", "094146.760000", "094146.763000", "094146.765000", "094146.768000", "094146.770000", "094146.773000", "094226.721000", "094226.723000", "094226.726000", "094226.728000", "094226.731000", "094226.734000", "094226.736000", "094226.739000", "094226.741000", "094226.744000", "094226.746000", "094226.749000", "094226.752000", "094226.754000", "094226.757000", "094226.759000", "094226.762000", "094226.764000", "094226.767000", "094226.769000", "094306.719000", "094306.722000", "094306.725000", "094306.727000", "094306.730000", "094306.732000", "094306.735000", "094306.738000", "094306.740000", "094306.743000", "094306.745000", "094306.748000", "094306.750000", "094306.753000", "094306.755000", "094306.758000", "094306.760000", "094306.763000", "094306.766000", "094306.768000", "094346.720000", "094346.722000", "094346.725000", "094346.728000", "094346.730000", "094346.733000", "094346.735000", "094346.738000", "094346.740000", "094346.743000", "094346.745000", "094346.748000", "094346.751000", "094346.753000", "094346.756000", "094346.758000", "094346.761000", "094346.763000", "094346.766000", "094346.768000", "094426.720000", "094426.723000", "094426.738000", "094426.740000", "094426.743000", "094426.746000", "094426.748000", "094426.751000", "094426.753000", "094426.756000", "094426.758000", "094426.761000", "094426.763000", "094426.766000", "094426.769000", "094426.771000", "094426.774000", "094426.776000", "094426.779000", "094426.781000", "094506.719000", "094506.722000", "094506.725000", "094506.727000", "094506.730000", "094506.733000", "094506.735000", "094506.738000", "094506.740000", "094506.743000", "094506.745000", "094506.748000", "094506.751000", "094506.753000", "094506.756000", "094506.758000", "094506.761000", "094506.763000", "094506.766000", "094506.769000", "094546.720000", "094546.722000", "094546.725000", "094546.728000", "094546.730000", "094546.733000", "094546.735000", "094546.738000", "094546.740000", "094546.743000", "094546.746000", "094546.748000", "094546.751000", "094546.753000", "094546.756000", "094546.758000", "094546.761000", "094546.764000", "094546.766000", "094546.769000", "094614.537000", "094614.540000", "094614.542000", "094614.545000", "094614.548000", "094614.550000", "094614.553000", "094614.555000", "094614.558000", "094614.561000", "094614.563000", "094614.566000", "094614.570000", "094614.574000"],
      "InstanceNumber": [1, 2, 3, 4, 5, 6, 7, 8, 9, 10, 11, 12, 13, 14, 15, 16, 17, 18, 19, 20, 21, 22, 23, 24, 25, 26, 27, 28, 29, 30, 31, 32, 33, 34, 35, 36, 37, 38, 39, 40, 41, 42, 43, 44, 45, 46, 47, 48, 49, 50, 51, 52, 53, 54, 55, 56, 57, 58, 59, 60, 61, 62, 63, 64, 65, 66, 67, 68, 69, 70, 71, 72, 73, 74, 75, 76, 77, 78, 79, 80, 81, 82, 83, 84, 85, 86, 87, 88, 89, 90, 91, 92, 93, 94, 95, 96, 97, 98, 99, 100, 101, 102, 103, 104, 105, 106, 107, 108, 109, 110, 111, 112, 113, 114, 115, 116, 117, 118, 119, 120, 121, 122, 123, 124, 125, 126, 127, 128, 129, 130, 131, 132, 133, 134, 135, 136, 137, 138, 139, 140, 141, 142, 143, 144, 145, 146, 147, 148, 149, 150, 151, 152, 153, 154, 155, 156, 157, 158, 159, 160, 161, 162, 163, 164, 165, 166, 167, 168, 169, 170, 171, 172, 173, 174, 175, 176, 177, 178, 179, 180, 181, 182, 183, 184, 185, 186, 187, 188, 189, 190, 191, 192, 193, 194, 195, 196, 197, 198, 199, 200],
      "LargestImagePixelValue": [1923, 1923, 1915, 1922, 1926, 1926, 1921, 1917, 1926, 1926, 1918, 1919, 1925, 1923, 1922, 1921, 1924, 1920, 1926, 1922, 1922, 1924, 1923, 1922, 1925, 1926, 1918, 1920, 1921, 1913, 1917, 1922, 1922, 1920, 1923, 1918, 1923, 1922, 1920, 1927, 1915, 1919, 1922, 1922, 1921, 1922, 1921, 1925, 1920, 1918, 1919, 1918, 1921, 1920, 1920, 1924, 1918, 1919, 1915, 1923, 1919, 1920, 1924, 1922, 1927, 1919, 1909, 1924, 1924, 1920, 1918, 1915, 1927, 1922, 1926, 1915, 1919, 1920, 1922, 1917, 1924, 1917, 1920, 1923, 1924, 1922, 1922, 1918, 1920, 1920, 1917, 1917, 1920, 1926, 1922, 1917, 1914, 1916, 1917, 1918, 1918, 1919, 1919, 1915, 1923, 1921, 1917, 1912, 1917, 1919, 1912, 1915, 1914, 1918, 1920, 1918, 1920, 1920, 1915, 1914, 1917, 1921, 1918, 1916, 1915, 1919, 1922, 1921, 1919, 1917, 1922, 1919, 1922, 1920, 1919, 1923, 1917, 1915, 1916, 1917, 1916, 1918, 1916, 1921, 1919, 1920, 1922, 1915, 1917, 1913, 1914, 1917, 1922, 1915, 1924, 1921, 1918, 1922, 1921, 1921, 1913, 1916, 1915, 1910, 1915, 1914, 1913, 1917, 1920, 1918, 1917, 1920, 1911, 1921, 1912, 1915, 1920, 1920, 1919, 1922, 1915, 1915, 1921, 1916, 1917, 1922, 1918, 1921, 1923, 1925, 1918, 1919, 1917, 1920, 1911, 1915, 1919, 1912, 1906, 1908],
      "WindowCenter": [962.0, 962.0, 962.0, 962.0, 962.0, 962.0, 962.0, 962.0, 962.0, 962.0, 962.0, 962.0, 962.0, 962.0, 962.0, 962.0, 962.0, 962.0, 961.0, 961.0, 962.0, 961.0, 961.0, 961.0, 962.0, 961.0, 962.0, 962.0, 961.0, 961.0, 962.0, 961.0, 961.0, 961.0, 962.0, 962.0, 962.0, 962.0, 962.0, 961.0, 961.0, 961.0, 961.0, 962.0, 962.0, 962.0, 961.0, 962.0, 961.0, 962.0, 962.0, 961.0, 961.0, 962.0, 961.0, 961.0, 961.0, 961.0, 962.0, 961.0, 961.0, 962.0, 962.0, 961.0, 961.0, 962.0, 961.0, 962.0, 961.0, 961.0, 961.0, 961.0, 961.0, 961.0, 961.0, 961.0, 961.0, 962.0, 961.0, 961.0, 962.0, 962.0, 961.0, 962.0, 961.0, 961.0, 961.0, 962.0, 961.0, 961.0, 961.0, 961.0, 961.0, 962.0, 961.0, 961.0, 961.0, 961.0, 962.0, 961.0, 961.0, 961.0, 961.0, 962.0, 961.0, 962.0, 962.0, 961.0, 962.0, 961.0, 961.0, 961.0, 961.0, 961.0, 962.0, 961.0, 962.0, 961.0, 961.0, 961.0, 961.0, 961.0, 961.0, 961.0, 962.0, 961.0, 962.0, 962.0, 962.0, 961.0, 961.0, 962.0, 962.0, 961.0, 961.0, 961.0, 961.0, 962.0, 961.0, 961.0, 961.0, 961.0, 961.0, 961.0, 962.0, 961.0, 961.0, 961.0, 962.0, 961.0, 962.0, 962.0, 961.0, 961.0, 961.0, 961.0, 962.0, 961.0, 961.0, 962.0, 961.0, 961.0, 962.0, 962.0, 961.0, 962.0, 961.0, 962.0, 961.0, 961.0, 961.0, 962.0, 961.0, 961.0, 961.0, 962.0, 961.0, 961.0, 961.0, 962.0, 961.0, 961.0, 962.0, 961.0, 961.0, 961.0, 961.0, 961.0, 961.0, 961.0, 962.0, 961.0, 961.0, 962.0, 961.0, 963.0, 961.0, 961.0, 961.0, 961.0],
      "WindowWidth": [2089.0, 2088.0, 2089.0, 2088.0, 2088.0, 2088.0, 2088.0, 2089.0, 2088.0, 2088.0, 2088.0, 2088.0, 2089.0, 2088.0, 2088.0, 2088.0, 2088.0, 2089.0, 2088.0, 2088.0, 2088.0, 2088.0, 2088.0, 2088.0, 2088.0, 2088.0, 2089.0, 2088.0, 2088.0, 2088.0, 2089.0, 2087.0, 2088.0, 2088.0, 2089.0, 2089.0, 2089.0, 2088.0, 2089.0, 2088.0, 2088.0, 2088.0, 2088.0, 2089.0, 2089.0, 2089.0, 2088.0, 2089.0, 2088.0, 2089.0, 2089.0, 2088.0, 2087.0, 2089.0, 2088.0, 2088.0, 2088.0, 2088.0, 2089.0, 2088.0, 2088.0, 2089.0, 2089.0, 2088.0, 2088.0, 2089.0, 2088.0, 2089.0, 2087.0, 2088.0, 2087.0, 2088.0, 2087.0, 2088.0, 2088.0, 2088.0, 2088.0, 2089.0, 2087.0, 2088.0, 2088.0, 2089.0, 2087.0, 2089.0, 2087.0, 2087.0, 2087.0, 2088.0, 2088.0, 2088.0, 2088.0, 2087.0, 2087.0, 2088.0, 2087.0, 2088.0, 2087.0, 2087.0, 2088.0, 2088.0, 2088.0, 2088.0, 2088.0, 2088.0, 2087.0, 2088.0, 2089.0, 2087.0, 2088.0, 2087.0, 2087.0, 2087.0, 2087.0, 2087.0, 2089.0, 2087.0, 2088.0, 2088.0, 2087.0, 2087.0, 2087.0, 2088.0, 2088.0, 2088.0, 2088.0, 2087.0, 2088.0, 2088.0, 2088.0, 2088.0, 2087.0, 2088.0, 2088.0, 2087.0, 2087.0, 2087.0, 2087.0, 2088.0, 2087.0, 2087.0, 2088.0, 2087.0, 2087.0, 2087.0, 2088.0, 2088.0, 2088.0, 2088.0, 2088.0, 2088.0, 2088.0, 2088.0, 2087.0, 2087.0, 2087.0, 2088.0, 2088.0, 2087.0, 2087.0, 2088.0, 2087.0, 2087.0, 2088.0, 2088.0, 2087.0, 2088.0, 2087.0, 2088.0, 2087.0, 2087.0, 2087.0, 2088.0, 2087.0, 2087.0, 2087.0, 2088.0, 2087.0, 2087.0, 2088.0, 2088.0, 2087.0, 2088.0, 2088.0, 2088.0, 2087.0, 2087.0, 2087.0, 2087.0, 2087.0, 2087.0, 2088.0, 2087.0, 2087.0, 2088.0, 2087.0, 2088.0, 2087.0, 2087.0, 2087.0, 2087.0]
    },
    "slices": {}
  }
}