{
  "AcquisitionMatrixPE": 80,
  "AcquisitionNumber": 1,
  "AcquisitionTime": "09:39:34.810000",
  "BandwidthPerPixelPhaseEncode": 48.077,
  "BaseResolution": 80,
  "BodyPartExamined": "BRAIN",
  "CoilCombinationMethod": "Sum of Squares",
  "ConsistencyInfo": "N4_VE11C_LATEST_20160120",
  "ConversionSoftware": "dcm2niix",
  "ConversionSoftwareVersion": "v1.0.20220720",
  "DerivedVendorReportedEchoSpacing": 0.000519999,
  "DeviceSerialNumber": "66112",
  "DwellTime": 2.7e-06,
  "EchoTime": 0.035,
  "EchoTrainLength": 39,
  "EffectiveEchoSpacing": 0.00026,
  "FlipAngle": 90,
  "HeudiconvVersion": "0.13.1",
  "ImageComments": "Reference volume for motion correction.",
  "ImageOrientationPatientDICOM": [0.998988, -0.0446301, 0.00551797, 0.0408221, 0.951465, 0.305038],
  "ImageOrientationText": "Tra>Cor(17.7)>Sag(1.1)",
  "ImageType": [
    "ORIGINAL",
    "PRIMARY",
    "M",
    "ND",
    "NORM",
    "MOCO",
    "MOSAIC"
],
  "ImagingFrequency": 123.252,
  "InPlanePhaseEncodingDirectionDICOM": "COL",
  "InstitutionAddress": "Maynard 3,Hanover,NH,US,03755",
  "InstitutionName": "Dartmouth College - PBS",
  "InstitutionalDepartmentName": "Department",
  "MRAcquisitionType": "2D",
  "MagneticFieldStrength": 3,
  "Manufacturer": "Siemens",
  "ManufacturersModelName": "Prisma",
  "MatrixCoilMode": "GRAPPA",
  "Modality": "MR",
  "NonlinearGradientCorrection": false,
  "ParallelReductionFactorInPlane": 2,
  "PartialFourier": 1,
  "PatientPosition": "HFS",
  "PercentPhaseFOV": 100,
  "PercentSampling": 100,
  "PhaseEncodingDirection": "j-",
  "PhaseEncodingSteps": 79,
  "PhaseResolution": 1,
  "PixelBandwidth": 2315,
  "ProcedureStepDescription": "dbic^QA",
  "ProtocolName": "func-bold_task-rest_acq-p2_MoCo",
  "PulseSequenceDetails": "%SiemensSeq%\\ep2d_bold",
  "ReceiveCoilActiveElements": "HEA;HEP",
  "ReceiveCoilName": "Head_32",
  "ReconMatrixPE": 80,
  "RefLinesPE": 24,
  "RepetitionTime": 2,
  "SAR": 0.0555673,
  "ScanOptions": "FS",
  "ScanningSequence": "EP",
  "SequenceName": "*epfid2d1_80",
  "SequenceVariant": "SK",
  "SeriesDescription": "MoCoSeries",
  "SeriesNumber": 6,
  "ShimSetting": [4142, -7688, -7504, 287, -106, -155, -63, 54],
  "SliceThickness": 3.5,
  "SliceTiming": [0.99, 0, 1.0575, 0.0675, 1.1225, 0.1325, 1.1875, 0.1975, 1.255, 0.265, 1.32, 0.33, 1.3875, 0.3975, 1.4525, 0.4625, 1.5175, 0.5275, 1.585, 0.595, 1.65, 0.66, 1.7175, 0.7275, 1.7825, 0.7925, 1.8475, 0.8575, 1.915, 0.925],
  "SoftwareVersions": "syngo MR E11",
  "SpacingBetweenSlices": 3.99,
  "StationName": "AWP66112",
  "TaskName": "rest",
  "TotalReadoutTime": 0.02054,
  "TxRefAmp": 240.8,
  "dcmmeta_affine": [
    [-2.996964931488037, 0.12246616929769516, 0.075267493724823, 113.01655578613281],
    [0.13389024138450623, 2.8543944358825684, 1.2149721384048462, -126.89250946044922],
    [0.016553914174437523, -0.9151144623756409, 3.7997734546661377, -13.144042015075684],
    [0.0, 0.0, 0.0, 1.0]
],
  "dcmmeta_reorient_transform": [
    [0.0, -1.0, 0.0, 79.0],
    [1.0, 0.0, 0.0, 0.0],
    [0.0, 0.0, 1.0, 0.0],
    [0.0, 0.0, 0.0, 1.0]
],
  "dcmmeta_shape": [80, 80, 30, 200],
  "dcmmeta_slice_dim": 2,
  "dcmmeta_version": 0.6,
  "global": {
    "const": {
      "AccessionNumber": "qa",
      "AcquisitionMatrix": [80, 0, 0, 80],
      "AngioFlag": "N",
      "BitsAllocated": 16,
      "BitsStored": 12,
      "BodyPartExamined": "BRAIN",
      "Columns": 480,
      "EchoNumbers": 1,
      "EchoTime": 35.0,
      "EchoTrainLength": 39,
      "FlipAngle": 90.0,
      "HighBit": 11,
      "ImageOrientationPatient": [0.99898834224809, -0.0446300800141, 0.00551797158021, 0.04082205677398, 0.95146481135997, 0.3050381491297],
      "ImagePositionPatient": [-746.57762108305, -642.705492386, -271.77175548291],
      "ImageType": [
        "ORIGINAL",
        "PRIMARY",
        "M",
        "ND",
        "NORM",
        "MOCO",
        "MOSAIC"
],
      "ImagedNucleus": "1H",
      "ImagingFrequency": 123.252434,
      "InPlanePhaseEncodingDirection": "COL",
      "MRAcquisitionType": "2D",
      "MagneticFieldStrength": 3.0,
      "Manufacturer": "SIEMENS",
      "ManufacturerModelName": "Prisma",
      "Modality": "MR",
      "NumberOfAverages": 1.0,
      "NumberOfPhaseEncodingSteps": 79,
      "PercentPhaseFieldOfView": 100.0,
      "PercentSampling": 100.0,
      "PerformedProcedureStepStartTime": "093754.337000",
      "PhotometricInterpretation": "MONOCHROME2",
      "PixelBandwidth": 2315.0,
      "PixelRepresentation": 0,
      "PixelSpacing": [3.0, 3.0],
      "ProtocolName": "func-bold_task-rest_acq-p2",
      "RepetitionTime": 2000.0,
      "Rows": 480,
      "SAR": 0.05556732159475,
      "SamplesPerPixel": 1,
      "ScanOptions": "FS",
      "ScanningSequence": "EP",
      "SequenceName": "*epfid2d1_80",
      "SequenceVariant": "SK",
      "SeriesDescription": "MoCoSeries",
      "SeriesNumber": 6,
      "SeriesTime": "094026.836000",
      "SliceLocation": -49.024754247002,
      "SliceThickness": 3.5,
      "SmallestImagePixelValue": 0,
      "SoftwareVersions": "syngo MR E11",
      "SpacingBetweenSlices": 3.990000039062,
      "SpecificCharacterSet": "ISO_IR 100",
      "StudyID": "11",
      "StudyTime": "093754.266000",
      "TransmitCoilName": "Body",
      "VariableFlipAngleFlag": "N",
      "WindowCenterWidthExplanation": "Algo1",
      "dBdt": 0.0},
    "slices": {}
  },
  "time": {
    "samples": {
      "AcquisitionNumber": [1, 2, 3, 4, 5, 6, 7, 8, 9, 10, 11, 12, 13, 14, 15, 16, 17, 18, 19, 20, 21, 22, 23, 24, 25, 26, 27, 28, 29, 30, 31, 32, 33, 34, 35, 36, 37, 38, 39, 40, 41, 42, 43, 44, 45, 46, 47, 48, 49, 50, 51, 52, 53, 54, 55, 56, 57, 58, 59, 60, 61, 62, 63, 64, 65, 66, 67, 68, 69, 70, 71, 72, 73, 74, 75, 76, 77, 78, 79, 80, 81, 82, 83, 84, 85, 86, 87, 88, 89, 90, 91, 92, 93, 94, 95, 96, 97, 98, 99, 100, 101, 102, 103, 104, 105, 106, 107, 108, 109, 110, 111, 112, 113, 114, 115, 116, 117, 118, 119, 120, 121, 122, 123, 124, 125, 126, 127, 128, 129, 130, 131, 132, 133, 134, 135, 136, 137, 138, 139, 140, 141, 142, 143, 144, 145, 146, 147, 148, 149, 150, 151, 152, 153, 154, 155, 156, 157, 158, 159, 160, 161, 162, 163, 164, 165, 166, 167, 168, 169, 170, 171, 172, 173, 174, 175, 176, 177, 178, 179, 180, 181, 182, 183, 184, 185, 186, 187, 188, 189, 190, 191, 192, 193, 194, 195, 196, 197, 198, 199, 200],
      "AcquisitionTime": ["093934.810000", "093936.810000", "093938.810000", "093940.810000", "093942.810000", "093944.810000", "093946.810000", "093948.810000", "093950.810000", "093952.810000", "093954.810000", "093956.810000", "093958.810000", "094000.810000", "094002.810000", "094004.810000", "094006.810000", "094008.810000", "094010.810000", "094012.810000", "094014.810000", "094016.810000", "094018.810000", "094020.810000", "094022.810000", "094024.810000", "094026.810000", "094028.810000", "094030.810000", "094032.810000", "094034.810000", "094036.810000", "094038.810000", "094040.810000", "094042.810000", "094044.810000", "094046.810000", "094048.810000", "094050.810000", "094052.810000", "094054.810000", "094056.810000", "094058.810000", "094100.810000", "094102.810000", "094104.810000", "094106.810000", "094108.810000", "094110.810000", "094112.810000", "094114.810000", "094116.810000", "094118.810000", "094120.810000", "094122.810000", "094124.810000", "094126.810000", "094128.810000", "094130.810000", "094132.810000", "094134.810000", "094136.810000", "094138.810000", "094140.810000", "094142.810000", "094144.810000", "094146.810000", "094148.810000", "094150.810000", "094152.810000", "094154.810000", "094156.810000", "094158.810000", "094200.810000", "094202.810000", "094204.810000", "094206.810000", "094208.810000", "094210.810000", "094212.810000", "094214.810000", "094216.810000", "094218.810000", "094220.810000", "094222.810000", "094224.810000", "094226.810000", "094228.810000", "094230.810000", "094232.810000", "094234.810000", "094236.810000", "094238.810000", "094240.810000", "094242.810000", "094244.810000", "094246.810000", "094248.810000", "094250.810000", "094252.810000", "094254.810000", "094256.810000", "094258.810000", "094300.810000", "094302.810000", "094304.810000", "094306.810000", "094308.810000", "094310.810000", "094312.810000", "094314.810000", "094316.810000", "094318.810000", "094320.810000", "094322.810000", "094324.810000", "094326.810000", "094328.810000", "094330.810000", "094332.810000", "094334.810000", "094336.810000", "094338.810000", "094340.810000", "094342.810000", "094344.810000", "094346.810000", "094348.810000", "094350.810000", "094352.810000", "094354.810000", "094356.810000", "094358.810000", "094400.810000", "094402.810000", "094404.810000", "094406.810000", "094408.810000", "094410.810000", "094412.810000", "094414.810000", "094416.810000", "094418.810000", "094420.810000", "094422.810000", "094424.810000", "094426.810000", "094428.810000", "094430.810000", "094432.810000", "094434.810000", "094436.810000", "094438.810000", "094440.810000", "094442.810000", "094444.810000", "094446.810000", "094448.810000", "094450.810000", "094452.810000", "094454.810000", "094456.810000", "094458.810000", "094500.810000", "094502.810000", "094504.810000", "094506.810000", "094508.810000", "094510.810000", "094512.810000", "094514.810000", "094516.810000", "094518.810000", "094520.810000", "094522.810000", "094524.810000", "094526.810000", "094528.810000", "094530.810000", "094532.810000", "094534.810000", "094536.810000", "094538.810000", "094540.810000", "094542.810000", "094544.810000", "094546.810000", "094548.810000", "094550.810000", "094552.810000", "094554.810000", "094556.810000", "094558.810000", "094600.810000", "094602.810000", "094604.810000", "094606.810000", "094608.810000", "094610.810000", "094612.810000"],
      "ContentTime": ["094026.839000", "094026.841000", "094026.844000", "094026.847000", "094026.849000", "094026.852000", "094026.855000", "094026.857000", "094026.860000", "094026.863000", "094026.865000", "094026.868000", "094026.870000", "094026.873000", "094026.876000", "094026.878000", "094026.881000", "094026.884000", "094026.886000", "094026.889000", "094026.892000", "094026.894000", "094026.897000", "094026.900000", "094026.902000", "094026.905000", "094106.801000", "094106.804000", "094106.806000", "094106.809000", "094106.811000", "094106.814000", "094106.817000", "094106.819000", "094106.822000", "094106.825000", "094106.827000", "094106.830000", "094106.833000", "094106.835000", "094106.838000", "094106.840000", "094106.843000", "094106.846000", "094106.848000", "094106.851000", "094146.805000", "094146.808000", "094146.811000", "094146.813000", "094146.816000", "094146.819000", "094146.821000", "094146.824000", "094146.826000", "094146.829000", "094146.832000", "094146.834000", "094146.837000", "094146.840000", "094146.842000", "094146.845000", "094146.848000", "094146.850000", "094146.853000", "094146.855000", "094226.798000", "094226.800000", "094226.803000", "094226.806000", "094226.808000", "094226.811000", "094226.814000", "094226.816000", "094226.819000", "094226.821000", "094226.824000", "094226.827000", "094226.829000", "094226.832000", "094226.835000", "094226.837000", "094226.840000", "094226.842000", "094226.845000", "094226.848000", "094306.795000", "094306.798000", "094306.800000", "094306.803000", "094306.806000", "094306.808000", "094306.811000", "094306.814000", "094306.816000", "094306.819000", "094306.821000", "094306.824000", "094306.827000", "094306.829000", "094306.832000", "094306.835000", "094306.837000", "094306.840000", "094306.843000", "094306.845000", "094346.870000", "094346.874000", "094346.877000", "094346.879000", "094346.882000", "094346.885000", "094346.887000", "094346.890000", "094346.893000", "094346.895000", "094346.898000", "094346.900000", "094346.903000", "094346.906000", "094346.908000", "094346.911000", "094346.914000", "094346.916000", "094346.919000", "094346.921000", "094426.902000", "094426.905000", "094426.907000", "094426.910000", "094426.913000", "094426.915000", "094426.918000", "094426.920000", "094426.923000", "094426.926000", "094426.928000", "094426.931000", "094426.934000", "094426.936000", "094426.939000", "094426.941000", "094426.944000", "094426.947000", "094426.949000", "094426.952000", "094506.888000", "094506.891000", "094506.894000", "094506.896000", "094506.899000", "094506.902000", "094506.904000", "094506.907000", "094506.910000", "094506.912000", "094506.915000", "094506.918000", "094506.920000", "094506.923000", "094506.926000", "094506.928000", "094506.931000", "094506.933000", "094506.936000", "094506.939000", "094546.842000", "094546.845000", "094546.847000", "094546.850000", "094546.853000", "094546.855000", "094546.858000", "094546.860000", "094546.863000", "094546.866000", "094546.868000", "094546.871000", "094546.874000", "094546.876000", "094546.879000", "094546.882000", "094546.885000", "094546.887000", "094546.890000", "094546.892000", "094614.624000", "094614.627000", "094614.630000", "094614.632000", "094614.636000", "094614.639000", "094614.642000", "094614.644000", "094614.647000", "094614.650000", "094614.652000", "094614.655000", "094614.658000", "094614.660000"],
      "InstanceCreationTime": ["094026.839000", "094026.841000", "094026.844000", "094026.847000", "094026.849000", "094026.852000", "094026.855000", "094026.857000", "094026.860000", "094026.863000", "094026.865000", "094026.868000", "094026.870000", "094026.873000", "094026.876000", "094026.878000", "094026.881000", "094026.884000", "094026.886000", "094026.889000", "094026.892000", "094026.894000", "094026.897000", "094026.900000", "094026.902000", "094026.905000", "094106.801000", "094106.804000", "094106.806000", "094106.809000", "094106.811000", "094106.814000", "094106.817000", "094106.819000", "094106.822000", "094106.825000", "094106.827000", "094106.830000", "094106.833000", "094106.835000", "094106.838000", "094106.840000", "094106.843000", "094106.846000", "094106.848000", "094106.851000", "094146.805000", "094146.808000", "094146.811000", "094146.813000", "094146.816000", "094146.819000", "094146.821000", "094146.824000", "094146.826000", "094146.829000", "094146.832000", "094146.834000", "094146.837000", "094146.840000", "094146.842000", "094146.845000", "094146.848000", "094146.850000", "094146.853000", "094146.855000", "094226.798000", "094226.800000", "094226.803000", "094226.806000", "094226.808000", "094226.811000", "094226.814000", "094226.816000", "094226.819000", "094226.821000", "094226.824000", "094226.827000", "094226.829000", "094226.832000", "094226.835000", "094226.837000", "094226.840000", "094226.842000", "094226.845000", "094226.848000", "094306.795000", "094306.798000", "094306.800000", "094306.803000", "094306.806000", "094306.808000", "094306.811000", "094306.814000", "094306.816000", "094306.819000", "094306.821000", "094306.824000", "094306.827000", "094306.829000", "094306.832000", "094306.835000", "094306.837000", "094306.840000", "094306.843000", "094306.845000", "094346.870000", "094346.874000", "094346.877000", "094346.879000", "094346.882000", "094346.885000", "094346.887000", "094346.890000", "094346.893000", "094346.895000", "094346.898000", "094346.900000", "094346.903000", "094346.906000", "094346.908000", "094346.911000", "094346.914000", "094346.916000", "094346.919000", "094346.921000", "094426.902000", "094426.905000", "094426.907000", "094426.910000", "094426.913000", "094426.915000", "094426.918000", "094426.920000", "094426.923000", "094426.926000", "094426.928000", "094426.931000", "094426.934000", "094426.936000", "094426.939000", "094426.941000", "094426.944000", "094426.947000", "094426.949000", "094426.952000", "094506.888000", "094506.891000", "094506.894000", "094506.896000", "094506.899000", "094506.902000", "094506.904000", "094506.907000", "094506.910000", "094506.912000", "094506.915000", "094506.918000", "094506.920000", "094506.923000", "094506.926000", "094506.928000", "094506.931000", "094506.933000", "094506.936000", "094506.939000", "094546.842000", "094546.845000", "094546.847000", "094546.850000", "094546.853000", "094546.855000", "094546.858000", "094546.860000", "094546.863000", "094546.866000", "094546.868000", "094546.871000", "094546.874000", "094546.876000", "094546.879000", "094546.882000", "094546.885000", "094546.887000", "094546.890000", "094546.892000", "094614.624000", "094614.627000", "094614.630000", "094614.632000", "094614.636000", "094614.639000", "094614.642000", "094614.644000", "094614.647000", "094614.650000", "094614.652000", "094614.655000", "094614.658000", "094614.660000"],
      "InstanceNumber": [1, 2, 3, 4, 5, 6, 7, 8, 9, 10, 11, 12, 13, 14, 15, 16, 17, 18, 19, 20, 21, 22, 23, 24, 25, 26, 27, 28, 29, 30, 31, 32, 33, 34, 35, 36, 37, 38, 39, 40, 41, 42, 43, 44, 45, 46, 47, 48, 49, 50, 51, 52, 53, 54, 55, 56, 57, 58, 59, 60, 61, 62, 63, 64, 65, 66, 67, 68, 69, 70, 71, 72, 73, 74, 75, 76, 77, 78, 79, 80, 81, 82, 83, 84, 85, 86, 87, 88, 89, 90, 91, 92, 93, 94, 95, 96, 97, 98, 99, 100, 101, 102, 103, 104, 105, 106, 107, 108, 109, 110, 111, 112, 113, 114, 115, 116, 117, 118, 119, 120, 121, 122, 123, 124, 125, 126, 127, 128, 129, 130, 131, 132, 133, 134, 135, 136, 137, 138, 139, 140, 141, 142, 143, 144, 145, 146, 147, 148, 149, 150, 151, 152, 153, 154, 155, 156, 157, 158, 159, 160, 161, 162, 163, 164, 165, 166, 167, 168, 169, 170, 171, 172, 173, 174, 175, 176, 177, 178, 179, 180, 181, 182, 183, 184, 185, 186, 187, 188, 189, 190, 191, 192, 193, 194, 195, 196, 197, 198, 199, 200],
      "LargestImagePixelValue": [1923, 1922, 1915, 1921, 1926, 1926, 1921, 1918, 1926, 1927, 1919, 1920, 1926, 1924, 1922, 1922, 1925, 1921, 1927, 1923, 1923, 1925, 1925, 1923, 1927, 1928, 1920, 1922, 1922, 1914, 1918, 1923, 1923, 1922, 1925, 1920, 1925, 1924, 1923, 1929, 1917, 1921, 1925, 1924, 1923, 1924, 1922, 1927, 1922, 1920, 1921, 1920, 1923, 1922, 1921, 1926, 1920, 1921, 1916, 1924, 1921, 1922, 1926, 1924, 1929, 1921, 1910, 1926, 1926, 1922, 1920, 1917, 1929, 1924, 1928, 1917, 1921, 1922, 1924, 1919, 1926, 1919, 1922, 1925, 1926, 1924, 1924, 1921, 1922, 1922, 1919, 1919, 1922, 1929, 1924, 1920, 1916, 1919, 1920, 1920, 1920, 1922, 1922, 1918, 1927, 1924, 1919, 1915, 1920, 1921, 1915, 1918, 1918, 1921, 1923, 1921, 1922, 1923, 1918, 1916, 1919, 1924, 1921, 1919, 1918, 1921, 1924, 1924, 1921, 1919, 1925, 1922, 1925, 1922, 1922, 1926, 1921, 1918, 1919, 1920, 1919, 1921, 1919, 1924, 1923, 1923, 1924, 1917, 1919, 1916, 1917, 1920, 1925, 1918, 1928, 1925, 1921, 1926, 1924, 1924, 1917, 1919, 1918, 1914, 1918, 1918, 1917, 1920, 1923, 1921, 1919, 1923, 1915, 1923, 1916, 1919, 1923, 1923, 1922, 1925, 1918, 1918, 1925, 1919, 1920, 1924, 1922, 1925, 1926, 1928, 1921, 1922, 1920, 1923, 1914, 1919, 1922, 1916, 1910, 1912],
      "WindowCenter": [962.0, 962.0, 962.0, 962.0, 962.0, 962.0, 962.0, 962.0, 962.0, 962.0, 962.0, 962.0, 962.0, 962.0, 962.0, 962.0, 962.0, 962.0, 961.0, 961.0, 962.0, 961.0, 961.0, 961.0, 962.0, 961.0, 962.0, 962.0, 961.0, 961.0, 962.0, 961.0, 961.0, 961.0, 962.0, 962.0, 962.0, 962.0, 962.0, 961.0, 961.0, 961.0, 961.0, 962.0, 962.0, 962.0, 961.0, 962.0, 961.0, 962.0, 962.0, 961.0, 961.0, 962.0, 961.0, 961.0, 961.0, 961.0, 962.0, 961.0, 961.0, 962.0, 962.0, 961.0, 961.0, 962.0, 961.0, 962.0, 961.0, 961.0, 961.0, 961.0, 961.0, 961.0, 961.0, 961.0, 961.0, 962.0, 961.0, 961.0, 962.0, 962.0, 961.0, 962.0, 961.0, 961.0, 961.0, 962.0, 961.0, 961.0, 961.0, 961.0, 961.0, 962.0, 961.0, 961.0, 961.0, 961.0, 962.0, 961.0, 961.0, 961.0, 961.0, 962.0, 961.0, 962.0, 962.0, 961.0, 962.0, 961.0, 961.0, 961.0, 961.0, 961.0, 962.0, 961.0, 962.0, 961.0, 961.0, 961.0, 961.0, 961.0, 961.0, 961.0, 962.0, 961.0, 962.0, 962.0, 962.0, 961.0, 961.0, 962.0, 962.0, 961.0, 961.0, 961.0, 961.0, 962.0, 961.0, 961.0, 961.0, 961.0, 961.0, 961.0, 962.0, 961.0, 961.0, 961.0, 962.0, 961.0, 962.0, 962.0, 961.0, 961.0, 961.0, 961.0, 962.0, 961.0, 961.0, 962.0, 961.0, 961.0, 962.0, 962.0, 961.0, 962.0, 961.0, 962.0, 961.0, 961.0, 961.0, 962.0, 961.0, 961.0, 961.0, 962.0, 961.0, 961.0, 961.0, 962.0, 961.0, 961.0, 962.0, 961.0, 961.0, 961.0, 961.0, 961.0, 961.0, 961.0, 962.0, 961.0, 961.0, 962.0, 961.0, 962.0, 961.0, 961.0, 961.0, 961.0],
      "WindowWidth": [2089.0, 2088.0, 2089.0, 2088.0, 2088.0, 2088.0, 2088.0, 2089.0, 2088.0, 2088.0, 2088.0, 2088.0, 2089.0, 2088.0, 2088.0, 2088.0, 2088.0, 2089.0, 2088.0, 2088.0, 2088.0, 2088.0, 2088.0, 2088.0, 2088.0, 2088.0, 2089.0, 2088.0, 2088.0, 2088.0, 2089.0, 2087.0, 2088.0, 2088.0, 2089.0, 2088.0, 2089.0, 2088.0, 2089.0, 2088.0, 2088.0, 2088.0, 2088.0, 2089.0, 2089.0, 2089.0, 2088.0, 2089.0, 2088.0, 2089.0, 2089.0, 2088.0, 2087.0, 2089.0, 2088.0, 2088.0, 2087.0, 2088.0, 2089.0, 2088.0, 2088.0, 2089.0, 2088.0, 2088.0, 2088.0, 2089.0, 2088.0, 2089.0, 2087.0, 2088.0, 2087.0, 2088.0, 2087.0, 2088.0, 2087.0, 2088.0, 2088.0, 2089.0, 2087.0, 2087.0, 2088.0, 2089.0, 2087.0, 2089.0, 2087.0, 2087.0, 2087.0, 2088.0, 2088.0, 2088.0, 2087.0, 2087.0, 2087.0, 2088.0, 2087.0, 2087.0, 2087.0, 2087.0, 2088.0, 2088.0, 2088.0, 2087.0, 2088.0, 2088.0, 2087.0, 2088.0, 2088.0, 2087.0, 2088.0, 2087.0, 2087.0, 2087.0, 2087.0, 2087.0, 2089.0, 2088.0, 2088.0, 2087.0, 2087.0, 2087.0, 2087.0, 2088.0, 2088.0, 2088.0, 2088.0, 2087.0, 2088.0, 2088.0, 2088.0, 2088.0, 2087.0, 2088.0, 2088.0, 2087.0, 2087.0, 2087.0, 2087.0, 2088.0, 2087.0, 2087.0, 2087.0, 2087.0, 2087.0, 2087.0, 2088.0, 2087.0, 2087.0, 2088.0, 2088.0, 2088.0, 2088.0, 2088.0, 2087.0, 2087.0, 2087.0, 2088.0, 2088.0, 2087.0, 2087.0, 2088.0, 2087.0, 2087.0, 2088.0, 2088.0, 2087.0, 2088.0, 2087.0, 2088.0, 2087.0, 2087.0, 2087.0, 2088.0, 2087.0, 2087.0, 2087.0, 2088.0, 2087.0, 2087.0, 2088.0, 2088.0, 2087.0, 2088.0, 2088.0, 2088.0, 2087.0, 2087.0, 2087.0, 2087.0, 2087.0, 2087.0, 2088.0, 2087.0, 2087.0, 2088.0, 2087.0, 2088.0, 2087.0, 2087.0, 2087.0, 2087.0]
    },
    "slices": {}
  }
}