{
  "AcquisitionMatrixPE": 80,
  "AcquisitionNumber": 1,
  "AcquisitionTime": "10:00:5.542500",
  "BandwidthPerPixelPhaseEncode": 25,
  "BaseResolution": 80,
  "BodyPartExamined": "BRAIN",
  "CoilCombinationMethod": "Sum of Squares",
  "ConsistencyInfo": "N4_VE11C_LATEST_20160120",
  "ConversionSoftware": "dcm2niix",
  "ConversionSoftwareVersion": "v1.0.20220720",
  "DerivedVendorReportedEchoSpacing": 0.0005,
  "DeviceSerialNumber": "66112",
  "DwellTime": 2.7e-06,
  "EchoTime": 0.03,
  "EchoTrainLength": 80,
  "EffectiveEchoSpacing": 0.0005,
  "FlipAngle": 10,
  "HeudiconvVersion": "0.13.1",
  "ImageOrientationPatientDICOM": [0.998988, -0.0446301, 0.00551797, 0.0408221, 0.951465, 0.305038],
  "ImageOrientationText": "Tra>Cor(17.7)>Sag(1.1)",
  "ImageType": [
    "ORIGINAL",
    "PRIMARY",
    "M",
    "ND",
    "NORM",
    "MOSAIC"
],
  "ImagingFrequency": 123.252,
  "InPlanePhaseEncodingDirectionDICOM": "COL",
  "InstitutionAddress": "Maynard 3,Hanover,NH,US,03755",
  "InstitutionName": "Dartmouth College - PBS",
  "InstitutionalDepartmentName": "Department",
  "MRAcquisitionType": "2D",
  "MagneticFieldStrength": 3,
  "Manufacturer": "Siemens",
  "ManufacturersModelName": "Prisma",
  "MatrixCoilMode": "SENSE",
  "Modality": "MR",
  "NonlinearGradientCorrection": false,
  "PartialFourier": 1,
  "PatientPosition": "HFS",
  "PercentPhaseFOV": 100,
  "PercentSampling": 100,
  "PhaseEncodingDirection": "j-",
  "PhaseEncodingSteps": 80,
  "PhaseResolution": 1,
  "PixelBandwidth": 2315,
  "ProcedureStepDescription": "dbic^QA",
  "ProtocolName": "func-bold_acq-32ch-10flip",
  "PulseSequenceDetails": "%SiemensSeq%\\ep2d_bold",
  "ReceiveCoilActiveElements": "HEA;HEP",
  "ReceiveCoilName": "Head_32",
  "ReconMatrixPE": 80,
  "RepetitionTime": 2,
  "SAR": 0.0117138,
  "ScanOptions": "FS",
  "ScanningSequence": "EP",
  "SequenceName": "*epfid2d1_80",
  "SequenceVariant": "SK",
  "SeriesDescription": "func-bold_acq-32ch-10flip",
  "SeriesNumber": 10,
  "ShimSetting": [4142, -7688, -7504, 288, -105, -155, -63, 54],
  "SliceThickness": 3.5,
  "SliceTiming": [0.99, 0, 1.055, 0.065, 1.12, 0.13, 1.1875, 0.1975, 1.2525, 0.2625, 1.32, 0.33, 1.385, 0.395, 1.45, 0.46, 1.5175, 0.5275, 1.5825, 0.5925, 1.65, 0.66, 1.715, 0.725, 1.78, 0.79, 1.8475, 0.8575, 1.9125, 0.9225],
  "SoftwareVersions": "syngo MR E11",
  "SpacingBetweenSlices": 3.99,
  "StationName": "AWP66112",
  "TotalReadoutTime": 0.0395,
  "TxRefAmp": 240.8,
  "dcmmeta_affine": [
    [-2.996964931488037, 0.12246616929769516, 0.075267493724823, 113.07061004638672],
    [0.13389024138450623, 2.8543944358825684, 1.2149721384048462, -125.45575714111328],
    [0.016553914174437523, -0.9151144623756409, 3.7997734546661377, -14.945860862731934],
    [0.0, 0.0, 0.0, 1.0]
],
  "dcmmeta_reorient_transform": [
    [0.0, -1.0, 0.0, 79.0],
    [1.0, 0.0, 0.0, 0.0],
    [0.0, 0.0, 1.0, 0.0],
    [0.0, 0.0, 0.0, 1.0]
],
  "dcmmeta_shape": [80, 80, 30, 200],
  "dcmmeta_slice_dim": 2,
  "dcmmeta_version": 0.6,
  "global": {
    "const": {
      "AccessionNumber": "qa",
      "AcquisitionMatrix": [80, 0, 0, 80],
      "AngioFlag": "N",
      "BitsAllocated": 16,
      "BitsStored": 12,
      "BodyPartExamined": "BRAIN",
      "Columns": 480,
      "EchoNumbers": 1,
      "EchoTime": 30.0,
      "EchoTrainLength": 80,
      "FlipAngle": 10.0,
      "HighBit": 11,
      "ImageOrientationPatient": [0.99898834224809, -0.0446300800141, 0.00551797158021, 0.04082205677398, 0.95146481135997, 0.3050381491297],
      "ImagePositionPatient": [-746.63168011167, -644.14223898329, -273.57357433057],
      "ImageType": [
        "ORIGINAL",
        "PRIMARY",
        "M",
        "ND",
        "NORM",
        "MOSAIC"
],
      "ImagedNucleus": "1H",
      "ImagingFrequency": 123.252433,
      "InPlanePhaseEncodingDirection": "COL",
      "MRAcquisitionType": "2D",
      "MagneticFieldStrength": 3.0,
      "Manufacturer": "SIEMENS",
      "ManufacturerModelName": "Prisma",
      "Modality": "MR",
      "NumberOfAverages": 1.0,
      "NumberOfPhaseEncodingSteps": 80,
      "PercentPhaseFieldOfView": 100.0,
      "PercentSampling": 100.0,
      "PerformedProcedureStepStartTime": "093754.337000",
      "PhotometricInterpretation": "MONOCHROME2",
      "PixelBandwidth": 2315.0,
      "PixelRepresentation": 0,
      "PixelSpacing": [3.0, 3.0],
      "ProtocolName": "func-bold_acq-32ch-10flip",
      "RepetitionTime": 2000.0,
      "Rows": 480,
      "SAR": 0.01171378853725,
      "SamplesPerPixel": 1,
      "ScanOptions": "FS",
      "ScanningSequence": "EP",
      "SequenceName": "*epfid2d1_80",
      "SequenceVariant": "SK",
      "SeriesDescription": "func-bold_acq-32ch-10flip",
      "SeriesNumber": 10,
      "SeriesTime": "100046.722000",
      "SliceLocation": -50.302154554692,
      "SliceThickness": 3.5,
      "SmallestImagePixelValue": 0,
      "SoftwareVersions": "syngo MR E11",
      "SpacingBetweenSlices": 3.990000059104,
      "SpecificCharacterSet": "ISO_IR 100",
      "StudyID": "11",
      "StudyTime": "093754.266000",
      "TransmitCoilName": "Body",
      "VariableFlipAngleFlag": "N",
      "WindowCenterWidthExplanation": "Algo1",
      "dBdt": 0.0},
    "slices": {}
  },
  "time": {
    "samples": {
      "AcquisitionNumber": [1, 2, 3, 4, 5, 6, 7, 8, 9, 10, 11, 12, 13, 14, 15, 16, 17, 18, 19, 20, 21, 22, 23, 24, 25, 26, 27, 28, 29, 30, 31, 32, 33, 34, 35, 36, 37, 38, 39, 40, 41, 42, 43, 44, 45, 46, 47, 48, 49, 50, 51, 52, 53, 54, 55, 56, 57, 58, 59, 60, 61, 62, 63, 64, 65, 66, 67, 68, 69, 70, 71, 72, 73, 74, 75, 76, 77, 78, 79, 80, 81, 82, 83, 84, 85, 86, 87, 88, 89, 90, 91, 92, 93, 94, 95, 96, 97, 98, 99, 100, 101, 102, 103, 104, 105, 106, 107, 108, 109, 110, 111, 112, 113, 114, 115, 116, 117, 118, 119, 120, 121, 122, 123, 124, 125, 126, 127, 128, 129, 130, 131, 132, 133, 134, 135, 136, 137, 138, 139, 140, 141, 142, 143, 144, 145, 146, 147, 148, 149, 150, 151, 152, 153, 154, 155, 156, 157, 158, 159, 160, 161, 162, 163, 164, 165, 166, 167, 168, 169, 170, 171, 172, 173, 174, 175, 176, 177, 178, 179, 180, 181, 182, 183, 184, 185, 186, 187, 188, 189, 190, 191, 192, 193, 194, 195, 196, 197, 198, 199, 200],
      "AcquisitionTime": ["100005.542500", "100007.542500", "100009.542500", "100011.542500", "100013.542500", "100015.542500", "100017.542500", "100019.542500", "100021.542500", "100023.542500", "100025.542500", "100027.542500", "100029.542500", "100031.542500", "100033.542500", "100035.542500", "100037.542500", "100039.542500", "100041.542500", "100043.542500", "100045.542500", "100047.542500", "100049.542500", "100051.542500", "100053.542500", "100055.542500", "100057.542500", "100059.542500", "100101.542500", "100103.542500", "100105.542500", "100107.542500", "100109.542500", "100111.542500", "100113.542500", "100115.542500", "100117.542500", "100119.542500", "100121.542500", "100123.542500", "100125.542500", "100127.542500", "100129.542500", "100131.542500", "100133.542500", "100135.542500", "100137.542500", "100139.542500", "100141.542500", "100143.542500", "100145.542500", "100147.542500", "100149.542500", "100151.542500", "100153.542500", "100155.542500", "100157.542500", "100159.542500", "100201.542500", "100203.542500", "100205.542500", "100207.542500", "100209.542500", "100211.542500", "100213.542500", "100215.542500", "100217.542500", "100219.542500", "100221.542500", "100223.542500", "100225.542500", "100227.542500", "100229.542500", "100231.542500", "100233.542500", "100235.542500", "100237.542500", "100239.542500", "100241.542500", "100243.542500", "100245.542500", "100247.542500", "100249.542500", "100251.542500", "100253.542500", "100255.542500", "100257.542500", "100259.542500", "100301.542500", "100303.542500", "100305.542500", "100307.542500", "100309.542500", "100311.542500", "100313.542500", "100315.542500", "100317.542500", "100319.542500", "100321.542500", "100323.542500", "100325.542500", "100327.542500", "100329.542500", "100331.542500", "100333.542500", "100335.542500", "100337.542500", "100339.542500", "100341.542500", "100343.542500", "100345.542500", "100347.542500", "100349.542500", "100351.542500", "100353.542500", "100355.542500", "100357.542500", "100359.542500", "100401.542500", "100403.542500", "100405.542500", "100407.542500", "100409.542500", "100411.542500", "100413.542500", "100415.542500", "100417.542500", "100419.542500", "100421.542500", "100423.542500", "100425.542500", "100427.542500", "100429.542500", "100431.542500", "100433.542500", "100435.542500", "100437.542500", "100439.542500", "100441.542500", "100443.542500", "100445.542500", "100447.542500", "100449.542500", "100451.542500", "100453.542500", "100455.542500", "100457.542500", "100459.542500", "100501.542500", "100503.542500", "100505.542500", "100507.542500", "100509.542500", "100511.542500", "100513.542500", "100515.542500", "100517.542500", "100519.542500", "100521.542500", "100523.542500", "100525.542500", "100527.542500", "100529.542500", "100531.542500", "100533.542500", "100535.542500", "100537.542500", "100539.542500", "100541.542500", "100543.542500", "100545.542500", "100547.542500", "100549.542500", "100551.542500", "100553.542500", "100555.542500", "100557.542500", "100559.542500", "100601.542500", "100603.542500", "100605.542500", "100607.542500", "100609.542500", "100611.542500", "100613.542500", "100615.542500", "100617.542500", "100619.542500", "100621.542500", "100623.542500", "100625.542500", "100627.542500", "100629.542500", "100631.542500", "100633.542500", "100635.542500", "100637.542500", "100639.542500", "100641.542500", "100643.542500"],
      "ContentTime": ["100046.725000", "100046.728000", "100046.731000", "100046.733000", "100046.736000", "100046.738000", "100046.741000", "100046.743000", "100046.746000", "100046.748000", "100046.751000", "100046.753000", "100046.756000", "100046.758000", "100046.761000", "100046.763000", "100046.766000", "100046.768000", "100046.771000", "100046.773000", "100126.719000", "100126.722000", "100126.725000", "100126.727000", "100126.730000", "100126.741000", "100126.743000", "100126.746000", "100126.748000", "100126.751000", "100126.753000", "100126.756000", "100126.758000", "100126.761000", "100126.763000", "100126.766000", "100126.768000", "100126.771000", "100126.773000", "100126.776000", "100206.719000", "100206.722000", "100206.725000", "100206.727000", "100206.730000", "100206.732000", "100206.735000", "100206.737000", "100206.740000", "100206.742000", "100206.745000", "100206.747000", "100206.750000", "100206.752000", "100206.755000", "100206.757000", "100206.760000", "100206.762000", "100206.765000", "100206.767000", "100246.720000", "100246.723000", "100246.726000", "100246.728000", "100246.731000", "100246.733000", "100246.736000", "100246.738000", "100246.741000", "100246.743000", "100246.746000", "100246.748000", "100246.751000", "100246.753000", "100246.756000", "100246.759000", "100246.761000", "100246.764000", "100246.766000", "100246.769000", "100326.719000", "100326.722000", "100326.725000", "100326.727000", "100326.730000", "100326.732000", "100326.735000", "100326.737000", "100326.740000", "100326.742000", "100326.745000", "100326.747000", "100326.750000", "100326.752000", "100326.755000", "100326.757000", "100326.760000", "100326.773000", "100326.776000", "100326.778000", "100406.719000", "100406.722000", "100406.725000", "100406.727000", "100406.730000", "100406.732000", "100406.735000", "100406.737000", "100406.740000", "100406.742000", "100406.745000", "100406.747000", "100406.750000", "100406.752000", "100406.755000", "100406.758000", "100406.760000", "100406.763000", "100406.765000", "100406.768000", "100446.719000", "100446.722000", "100446.733000", "100446.735000", "100446.738000", "100446.740000", "100446.743000", "100446.746000", "100446.748000", "100446.751000", "100446.753000", "100446.756000", "100446.758000", "100446.761000", "100446.763000", "100446.766000", "100446.768000", "100446.771000", "100446.773000", "100446.776000", "100526.720000", "100526.723000", "100526.726000", "100526.728000", "100526.731000", "100526.733000", "100526.736000", "100526.738000", "100526.741000", "100526.744000", "100526.746000", "100526.749000", "100526.751000", "100526.754000", "100526.756000", "100526.759000", "100526.761000", "100526.764000", "100526.766000", "100526.769000", "100606.719000", "100606.722000", "100606.725000", "100606.727000", "100606.730000", "100606.732000", "100606.735000", "100606.737000", "100606.740000", "100606.742000", "100606.745000", "100606.747000", "100606.750000", "100606.753000", "100606.755000", "100606.758000", "100606.760000", "100606.763000", "100606.765000", "100606.768000", "100645.199000", "100645.202000", "100645.204000", "100645.207000", "100645.209000", "100645.212000", "100645.214000", "100645.217000", "100645.220000", "100645.222000", "100645.225000", "100645.227000", "100645.236000", "100645.240000", "100645.243000", "100645.247000", "100645.255000", "100645.258000", "100645.261000", "100645.264000"],
      "InstanceCreationTime": ["100046.725000", "100046.728000", "100046.731000", "100046.733000", "100046.736000", "100046.738000", "100046.741000", "100046.743000", "100046.746000", "100046.748000", "100046.751000", "100046.753000", "100046.756000", "100046.758000", "100046.761000", "100046.763000", "100046.766000", "100046.768000", "100046.771000", "100046.773000", "100126.719000", "100126.722000", "100126.725000", "100126.727000", "100126.730000", "100126.741000", "100126.743000", "100126.746000", "100126.748000", "100126.751000", "100126.753000", "100126.756000", "100126.758000", "100126.761000", "100126.763000", "100126.766000", "100126.768000", "100126.771000", "100126.773000", "100126.776000", "100206.719000", "100206.722000", "100206.725000", "100206.727000", "100206.730000", "100206.732000", "100206.735000", "100206.737000", "100206.740000", "100206.742000", "100206.745000", "100206.747000", "100206.750000", "100206.752000", "100206.755000", "100206.757000", "100206.760000", "100206.762000", "100206.765000", "100206.767000", "100246.720000", "100246.723000", "100246.726000", "100246.728000", "100246.731000", "100246.733000", "100246.736000", "100246.738000", "100246.741000", "100246.743000", "100246.746000", "100246.748000", "100246.751000", "100246.753000", "100246.756000", "100246.759000", "100246.761000", "100246.764000", "100246.766000", "100246.769000", "100326.719000", "100326.722000", "100326.725000", "100326.727000", "100326.730000", "100326.732000", "100326.735000", "100326.737000", "100326.740000", "100326.742000", "100326.745000", "100326.747000", "100326.750000", "100326.752000", "100326.755000", "100326.757000", "100326.760000", "100326.773000", "100326.776000", "100326.778000", "100406.719000", "100406.722000", "100406.725000", "100406.727000", "100406.730000", "100406.732000", "100406.735000", "100406.737000", "100406.740000", "100406.742000", "100406.745000", "100406.747000", "100406.750000", "100406.752000", "100406.755000", "100406.758000", "100406.760000", "100406.763000", "100406.765000", "100406.768000", "100446.719000", "100446.722000", "100446.733000", "100446.735000", "100446.738000", "100446.740000", "100446.743000", "100446.746000", "100446.748000", "100446.751000", "100446.753000", "100446.756000", "100446.758000", "100446.761000", "100446.763000", "100446.766000", "100446.768000", "100446.771000", "100446.773000", "100446.776000", "100526.720000", "100526.723000", "100526.726000", "100526.728000", "100526.731000", "100526.733000", "100526.736000", "100526.738000", "100526.741000", "100526.744000", "100526.746000", "100526.749000", "100526.751000", "100526.754000", "100526.756000", "100526.759000", "100526.761000", "100526.764000", "100526.766000", "100526.769000", "100606.719000", "100606.722000", "100606.725000", "100606.727000", "100606.730000", "100606.732000", "100606.735000", "100606.737000", "100606.740000", "100606.742000", "100606.745000", "100606.747000", "100606.750000", "100606.753000", "100606.755000", "100606.758000", "100606.760000", "100606.763000", "100606.765000", "100606.768000", "100645.199000", "100645.202000", "100645.204000", "100645.207000", "100645.209000", "100645.212000", "100645.214000", "100645.217000", "100645.220000", "100645.222000", "100645.225000", "100645.227000", "100645.236000", "100645.240000", "100645.243000", "100645.247000", "100645.255000", "100645.258000", "100645.261000", "100645.264000"],
      "InstanceNumber": [1, 2, 3, 4, 5, 6, 7, 8, 9, 10, 11, 12, 13, 14, 15, 16, 17, 18, 19, 20, 21, 22, 23, 24, 25, 26, 27, 28, 29, 30, 31, 32, 33, 34, 35, 36, 37, 38, 39, 40, 41, 42, 43, 44, 45, 46, 47, 48, 49, 50, 51, 52, 53, 54, 55, 56, 57, 58, 59, 60, 61, 62, 63, 64, 65, 66, 67, 68, 69, 70, 71, 72, 73, 74, 75, 76, 77, 78, 79, 80, 81, 82, 83, 84, 85, 86, 87, 88, 89, 90, 91, 92, 93, 94, 95, 96, 97, 98, 99, 100, 101, 102, 103, 104, 105, 106, 107, 108, 109, 110, 111, 112, 113, 114, 115, 116, 117, 118, 119, 120, 121, 122, 123, 124, 125, 126, 127, 128, 129, 130, 131, 132, 133, 134, 135, 136, 137, 138, 139, 140, 141, 142, 143, 144, 145, 146, 147, 148, 149, 150, 151, 152, 153, 154, 155, 156, 157, 158, 159, 160, 161, 162, 163, 164, 165, 166, 167, 168, 169, 170, 171, 172, 173, 174, 175, 176, 177, 178, 179, 180, 181, 182, 183, 184, 185, 186, 187, 188, 189, 190, 191, 192, 193, 194, 195, 196, 197, 198, 199, 200],
      "LargestImagePixelValue": [330, 331, 331, 329, 329, 330, 329, 331, 332, 329, 330, 330, 329, 330, 331, 329, 329, 330, 330, 330, 329, 329, 329, 330, 330, 331, 328, 329, 329, 330, 327, 328, 329, 328, 331, 330, 328, 329, 328, 329, 329, 330, 328, 328, 328, 328, 328, 328, 330, 329, 328, 328, 327, 329, 328, 330, 330, 330, 329, 329, 331, 328, 329, 327, 328, 330, 328, 328, 328, 331, 331, 327, 329, 329, 329, 327, 328, 328, 328, 327, 328, 329, 329, 328, 329, 328, 329, 329, 328, 329, 328, 328, 328, 330, 329, 329, 327, 328, 329, 328, 328, 328, 328, 329, 329, 328, 329, 328, 329, 329, 327, 329, 329, 329, 327, 329, 328, 329, 329, 328, 328, 329, 328, 327, 328, 330, 329, 328, 328, 328, 328, 328, 329, 329, 329, 330, 329, 327, 328, 329, 328, 328, 328, 328, 328, 330, 327, 330, 329, 328, 330, 330, 329, 329, 328, 328, 328, 329, 328, 328, 328, 329, 330, 330, 329, 328, 328, 328, 327, 327, 330, 328, 328, 326, 328, 328, 329, 328, 330, 329, 330, 330, 328, 327, 328, 329, 330, 329, 328, 328, 329, 328, 328, 329, 329, 330, 328, 330, 328, 328],
      "WindowCenter": [270.0, 270.0, 270.0, 269.0, 269.0, 269.0, 269.0, 270.0, 270.0, 269.0, 270.0, 269.0, 269.0, 270.0, 270.0, 269.0, 269.0, 269.0, 270.0, 270.0, 269.0, 269.0, 269.0, 270.0, 270.0, 270.0, 269.0, 269.0, 269.0, 270.0, 269.0, 269.0, 269.0, 269.0, 270.0, 270.0, 269.0, 269.0, 269.0, 269.0, 269.0, 270.0, 269.0, 269.0, 269.0, 269.0, 269.0, 269.0, 270.0, 269.0, 269.0, 269.0, 269.0, 269.0, 269.0, 270.0, 270.0, 270.0, 269.0, 269.0, 270.0, 269.0, 269.0, 269.0, 269.0, 270.0, 269.0, 269.0, 269.0, 270.0, 270.0, 269.0, 269.0, 269.0, 269.0, 269.0, 269.0, 269.0, 269.0, 269.0, 269.0, 269.0, 269.0, 269.0, 269.0, 269.0, 269.0, 269.0, 269.0, 269.0, 269.0, 269.0, 269.0, 270.0, 269.0, 269.0, 269.0, 269.0, 269.0, 269.0, 269.0, 269.0, 269.0, 268.0, 269.0, 269.0, 269.0, 269.0, 269.0, 269.0, 269.0, 269.0, 269.0, 268.0, 269.0, 269.0, 269.0, 269.0, 268.0, 268.0, 269.0, 269.0, 268.0, 268.0, 268.0, 269.0, 268.0, 269.0, 268.0, 268.0, 269.0, 268.0, 269.0, 268.0, 268.0, 269.0, 269.0, 268.0, 269.0, 269.0, 269.0, 268.0, 269.0, 269.0, 269.0, 269.0, 269.0, 269.0, 268.0, 268.0, 269.0, 269.0, 268.0, 268.0, 269.0, 269.0, 268.0, 268.0, 268.0, 268.0, 268.0, 269.0, 269.0, 269.0, 268.0, 268.0, 268.0, 268.0, 269.0, 268.0, 269.0, 268.0, 268.0, 268.0, 268.0, 268.0, 268.0, 268.0, 269.0, 269.0, 269.0, 269.0, 268.0, 268.0, 268.0, 268.0, 269.0, 268.0, 268.0, 268.0, 268.0, 268.0, 268.0, 268.0, 268.0, 269.0, 268.0, 269.0, 268.0, 268.0],
      "WindowWidth": [592.0, 592.0, 592.0, 591.0, 591.0, 592.0, 591.0, 592.0, 592.0, 591.0, 592.0, 592.0, 591.0, 592.0, 592.0, 591.0, 591.0, 592.0, 592.0, 592.0, 591.0, 591.0, 591.0, 592.0, 592.0, 592.0, 591.0, 591.0, 591.0, 592.0, 591.0, 591.0, 591.0, 591.0, 592.0, 592.0, 591.0, 591.0, 591.0, 591.0, 591.0, 592.0, 591.0, 591.0, 591.0, 591.0, 591.0, 591.0, 592.0, 591.0, 591.0, 591.0, 591.0, 591.0, 591.0, 592.0, 592.0, 592.0, 591.0, 591.0, 592.0, 591.0, 591.0, 591.0, 591.0, 592.0, 591.0, 591.0, 591.0, 592.0, 592.0, 591.0, 591.0, 591.0, 591.0, 591.0, 591.0, 591.0, 591.0, 591.0, 591.0, 591.0, 591.0, 591.0, 591.0, 591.0, 591.0, 591.0, 591.0, 591.0, 591.0, 591.0, 591.0, 592.0, 591.0, 591.0, 591.0, 591.0, 591.0, 591.0, 591.0, 591.0, 591.0, 590.0, 591.0, 591.0, 591.0, 591.0, 590.0, 591.0, 591.0, 591.0, 591.0, 590.0, 591.0, 591.0, 591.0, 591.0, 590.0, 590.0, 591.0, 591.0, 590.0, 590.0, 590.0, 591.0, 590.0, 591.0, 590.0, 590.0, 591.0, 590.0, 591.0, 590.0, 590.0, 591.0, 591.0, 590.0, 591.0, 591.0, 591.0, 590.0, 591.0, 591.0, 591.0, 591.0, 591.0, 591.0, 590.0, 590.0, 591.0, 591.0, 590.0, 590.0, 591.0, 591.0, 590.0, 590.0, 590.0, 590.0, 589.0, 591.0, 591.0, 591.0, 590.0, 590.0, 590.0, 590.0, 591.0, 590.0, 590.0, 590.0, 590.0, 590.0, 590.0, 590.0, 590.0, 589.0, 590.0, 591.0, 591.0, 591.0, 590.0, 590.0, 590.0, 590.0, 591.0, 590.0, 590.0, 590.0, 590.0, 590.0, 589.0, 590.0, 589.0, 591.0, 590.0, 591.0, 590.0, 590.0]
    },
    "slices": {}
  }
}