{
  "AcquisitionMatrixPE": 122,
  "AcquisitionNumber": 1,
  "AcquisitionTime": "10:13:44.475000",
  "BandwidthPerPixelPhaseEncode": 27.785,
  "BaseResolution": 122,
  "BodyPartExamined": "BRAIN",
  "CoilCombinationMethod": "Adaptive Combine",
  "ConsistencyInfo": "N4_VE11C_LATEST_20160120",
  "ConversionSoftware": "dcm2niix",
  "ConversionSoftwareVersion": "v1.0.20220720",
  "DerivedVendorReportedEchoSpacing": 0.000590011,
  "DeviceSerialNumber": "66112",
  "DiffusionScheme": "Monopolar",
  "DwellTime": 2e-06,
  "EchoTime": 0.068,
  "EchoTrainLength": 61,
  "EffectiveEchoSpacing": 0.000295005,
  "FlipAngle": 90,
  "HeudiconvVersion": "0.13.1",
  "ImageOrientationPatientDICOM": [0.983219, 0.182188, 0.00941461, -0.176555, 0.937288, 0.300532],
  "ImageOrientationText": "Tra>Cor(17.3)>Sag(-2.6)",
  "ImageType": [
    "ORIGINAL",
    "PRIMARY",
    "DIFFUSION",
    "NONE",
    "ND",
    "NORM"
],
  "ImagingFrequency": 123.252,
  "InPlanePhaseEncodingDirectionDICOM": "COL",
  "InstitutionAddress": "Maynard 3,Hanover,NH,US,03755",
  "InstitutionName": "Dartmouth College - PBS",
  "InstitutionalDepartmentName": "Department",
  "MRAcquisitionType": "2D",
  "MagneticFieldStrength": 3,
  "Manufacturer": "Siemens",
  "ManufacturersModelName": "Prisma",
  "Modality": "MR",
  "MultibandAccelerationFactor": 4,
  "NonlinearGradientCorrection": false,
  "ParallelReductionFactorInPlane": 2,
  "PartialFourier": 1,
  "PatientPosition": "HFS",
  "PercentPhaseFOV": 100,
  "PercentSampling": 100,
  "PhaseEncodingDirection": "j-",
  "PhaseEncodingSteps": 122,
  "PhaseResolution": 1,
  "PixelBandwidth": 2050,
  "ProcedureStepDescription": "dbic^QA",
  "ProtocolName": "dwi_acq-DTI-30-p2-s4",
  "PulseSequenceDetails": "%SiemensSeq%\\ep2d_diff",
  "ReceiveCoilActiveElements": "HEA;HEP",
  "ReceiveCoilName": "Head_32",
  "ReconMatrixPE": 122,
  "RefLinesPE": 38,
  "RepetitionTime": 3.6,
  "SAR": 0.159913,
  "ScanOptions": "FS",
  "ScanningSequence": "EP",
  "SequenceName": "*ep_b0",
  "SequenceVariant": "SK\\SP",
  "SeriesDescription": "dwi_acq-DTI-30-p2-s4",
  "SeriesNumber": 13,
  "ShimSetting": [4143, -7696, -7512, 277, -59, -79, -16, 58],
  "SliceThickness": 2,
  "SliceTiming": [2.58594, 0, 1.78906, 0.20312, 1.99219, 0.39844, 2.1875, 0.59375, 2.39062, 0.99219, 2.78125, 1.19531, 2.98438, 1.39062, 3.17969, 1.59375, 3.38281, 0.79688, 2.58594, 0, 1.78906, 0.20312, 1.99219, 0.39844, 2.1875, 0.59375, 2.39062, 0.99219, 2.78125, 1.19531, 2.98438, 1.39062, 3.17969, 1.59375, 3.38281, 0.79688, 2.58594, 0, 1.78906, 0.20312, 1.99219, 0.39844, 2.1875, 0.59375, 2.39062, 0.99219, 2.78125, 1.19531, 2.98438, 1.39062, 3.17969, 1.59375, 3.38281, 0.79688, 2.58594, 0, 1.78906, 0.20312, 1.99219, 0.39844, 2.1875, 0.59375, 2.39062, 0.99219, 2.78125, 1.19531, 2.98438, 1.39062, 3.17969, 1.59375, 3.38281, 0.79688],
  "SoftwareVersions": "syngo MR E11",
  "SpacingBetweenSlices": 2,
  "SpoilingState": true,
  "StationName": "AWP66112",
  "TotalReadoutTime": 0.0356956,
  "TxRefAmp": 224.328,
  "dcmmeta_affine": [
    [-1.934200644493103, -0.3473207950592041, -0.09185817837715149, 145.173583984375],
    [-0.35840240120887756, 1.8438453674316406, 0.5943012237548828, -101.80448150634766],
    [0.018520547077059746, -0.5912107229232788, 1.9074478149414062, -29.774656295776367],
    [0.0, 0.0, 0.0, 1.0]
],
  "dcmmeta_reorient_transform": [
    [0.0, -1.0, 0.0, 121.0],
    [1.0, 0.0, 0.0, 0.0],
    [0.0, 0.0, -1.0, 71.0],
    [0.0, 0.0, 0.0, 1.0]
],
  "dcmmeta_shape": [122, 122, 72, 31],
  "dcmmeta_slice_dim": 2,
  "dcmmeta_version": 0.6,
  "global": {
    "const": {
      "AccessionNumber": "qa",
      "AcquisitionMatrix": [122, 0, 0, 122],
      "AngioFlag": "N",
      "BitsAllocated": 16,
      "BitsStored": 12,
      "BodyPartExamined": "BRAIN",
      "Columns": 122,
      "EchoNumbers": 1,
      "EchoTime": 68.0,
      "EchoTrainLength": 61,
      "FlipAngle": 90.0,
      "HighBit": 11,
      "ImageOrientationPatient": [0.98321866467684, 0.18218787699755, 0.00941461131555, -0.1765547359397, 0.9372880430778, 0.30053211063157],
      "ImageType": [
        "ORIGINAL",
        "PRIMARY",
        "DIFFUSION",
        "NONE",
        "ND",
        "NORM"
],
      "ImagedNucleus": "1H",
      "ImagingFrequency": 123.252371,
      "InPlanePhaseEncodingDirection": "COL",
      "MRAcquisitionType": "2D",
      "MagneticFieldStrength": 3.0,
      "Manufacturer": "SIEMENS",
      "ManufacturerModelName": "Prisma",
      "Modality": "MR",
      "NumberOfAverages": 1.0,
      "NumberOfPhaseEncodingSteps": 122,
      "PercentPhaseFieldOfView": 100.0,
      "PercentSampling": 100.0,
      "PerformedProcedureStepStartTime": "093403.119000",
      "PhotometricInterpretation": "MONOCHROME2",
      "PixelBandwidth": 2050.0,
      "PixelRepresentation": 0,
      "PixelSpacing": [1.9672131538391, 1.9672131538391],
      "ProtocolName": "dwi_acq-DTI-30-p2-s4",
      "RepetitionTime": 3600.0,
      "Rows": 122,
      "SAR": 0.15991273633796,
      "SamplesPerPixel": 1,
      "ScanOptions": "FS",
      "ScanningSequence": "EP",
      "SequenceVariant": [
        "SK",
        "SP"
],
      "SeriesDescription": "dwi_acq-DTI-30-p2-s4",
      "SeriesNumber": 13,
      "SeriesTime": "101350.165000",
      "SliceThickness": 2.0,
      "SmallestImagePixelValue": 0,
      "SoftwareVersions": "syngo MR E11",
      "SpacingBetweenSlices": 2.0,
      "SpecificCharacterSet": "ISO_IR 100",
      "StudyID": "32",
      "StudyTime": "093403.063000",
      "TransmitCoilName": "Body",
      "VariableFlipAngleFlag": "N",
      "WindowCenterWidthExplanation": "Algo1",
      "dBdt": 0.0},
    "slices": {
      "AcquisitionTime": ["101344.475000", "101341.890000", "101343.680000", "101342.090000", "101343.880000", "101342.287500", "101344.077500", "101342.487500", "101344.277500", "101342.885000", "101344.675000", "101343.085000", "101344.875000", "101343.282500", "101345.072500", "101343.482500", "101345.272500", "101342.687500", "101344.475000", "101341.890000", "101343.680000", "101342.090000", "101343.880000", "101342.287500", "101344.077500", "101342.487500", "101344.277500", "101342.885000", "101344.675000", "101343.085000", "101344.875000", "101343.282500", "101345.072500", "101343.482500", "101345.272500", "101342.687500", "101344.475000", "101341.890000", "101343.680000", "101342.090000", "101343.880000", "101342.287500", "101344.077500", "101342.487500", "101344.277500", "101342.885000", "101344.675000", "101343.085000", "101344.875000", "101343.282500", "101345.072500", "101343.482500", "101345.272500", "101342.687500", "101344.475000", "101341.890000", "101343.680000", "101342.090000", "101343.880000", "101342.287500", "101344.077500", "101342.487500", "101344.277500", "101342.885000", "101344.675000", "101343.085000", "101344.875000", "101343.282500", "101345.072500", "101343.482500", "101345.272500", "101342.687500", "101348.075000", "101345.490000", "101347.280000", "101345.690000", "101347.480000", "101345.887500", "101347.677500", "101346.087500", "101347.877500", "101346.485000", "101348.275000", "101346.685000", "101348.475000", "101346.882500", "101348.672500", "101347.082500", "101348.872500", "101346.287500", "101348.075000", "101345.490000", "101347.280000", "101345.690000", "101347.480000", "101345.887500", "101347.677500", "101346.087500", "101347.877500", "101346.485000", "101348.275000", "101346.685000", "101348.475000", "101346.882500", "101348.672500", "101347.082500", "101348.872500", "101346.287500", "101348.075000", "101345.490000", "101347.280000", "101345.690000", "101347.480000", "101345.887500", "101347.677500", "101346.087500", "101347.877500", "101346.485000", "101348.275000", "101346.685000", "101348.475000", "101346.882500", "101348.672500", "101347.082500", "101348.872500", "101346.287500", "101348.075000", "101345.490000", "101347.280000", "101345.690000", "101347.480000", "101345.887500", "101347.677500", "101346.087500", "101347.877500", "101346.485000", "101348.275000", "101346.685000", "101348.475000", "101346.882500", "101348.672500", "101347.082500", "101348.872500", "101346.287500", "101351.675000", "101349.090000", "101350.880000", "101349.290000", "101351.080000", "101349.487500", "101351.277500", "101349.687500", "101351.477500", "101350.085000", "101351.875000", "101350.285000", "101352.075000", "101350.482500", "101352.272500", "101350.682500", "101352.472500", "101349.887500", "101351.675000", "101349.090000", "101350.880000", "101349.290000", "101351.080000", "101349.487500", "101351.277500", "101349.687500", "101351.477500", "101350.085000", "101351.875000", "101350.285000", "101352.075000", "101350.482500", "101352.272500", "101350.682500", "101352.472500", "101349.887500", "101351.675000", "101349.090000", "101350.880000", "101349.290000", "101351.080000", "101349.487500", "101351.277500", "101349.687500", "101351.477500", "101350.085000", "101351.875000", "101350.285000", "101352.075000", "101350.482500", "101352.272500", "101350.682500", "101352.472500", "101349.887500", "101351.675000", "101349.090000", "101350.880000", "101349.290000", "101351.080000", "101349.487500", "101351.277500", "101349.687500", "101351.477500", "101350.085000", "101351.875000", "101350.285000", "101352.075000", "101350.482500", "101352.272500", "101350.682500", "101352.472500", "101349.887500", "101355.275000", "101352.690000", "101354.480000", "101352.890000", "101354.680000", "101353.087500", "101354.877500", "101353.287500", "101355.077500", "101353.685000", "101355.475000", "101353.885000", "101355.675000", "101354.082500", "101355.872500", "101354.282500", "101356.072500", "101353.487500", "101355.275000", "101352.690000", "101354.480000", "101352.890000", "101354.680000", "101353.087500", "101354.877500", "101353.287500", "101355.077500", "101353.685000", "101355.475000", "101353.885000", "101355.675000", "101354.082500", "101355.872500", "101354.282500", "101356.072500", "101353.487500", "101355.275000", "101352.690000", "101354.480000", "101352.890000", "101354.680000", "101353.087500", "101354.877500", "101353.287500", "101355.077500", "101353.685000", "101355.475000", "101353.885000", "101355.675000", "101354.082500", "101355.872500", "101354.282500", "101356.072500", "101353.487500", "101355.275000", "101352.690000", "101354.480000", "101352.890000", "101354.680000", "101353.087500", "101354.877500", "101353.287500", "101355.077500", "101353.685000", "101355.475000", "101353.885000", "101355.675000", "101354.082500", "101355.872500", "101354.282500", "101356.072500", "101353.487500", "101358.875000", "101356.290000", "101358.080000", "101356.490000", "101358.280000", "101356.687500", "101358.477500", "101356.887500", "101358.677500", "101357.285000", "101359.075000", "101357.485000", "101359.275000", "101357.682500", "101359.472500", "101357.882500", "101359.672500", "101357.087500", "101358.875000", "101356.290000", "101358.080000", "101356.490000", "101358.280000", "101356.687500", "101358.477500", "101356.887500", "101358.677500", "101357.285000", "101359.075000", "101357.485000", "101359.275000", "101357.682500", "101359.472500", "101357.882500", "101359.672500", "101357.087500", "101358.875000", "101356.290000", "101358.080000", "101356.490000", "101358.280000", "101356.687500", "101358.477500", "101356.887500", "101358.677500", "101357.285000", "101359.075000", "101357.485000", "101359.275000", "101357.682500", "101359.472500", "101357.882500", "101359.672500", "101357.087500", "101358.875000", "101356.290000", "101358.080000", "101356.490000", "101358.280000", "101356.687500", "101358.477500", "101356.887500", "101358.677500", "101357.285000", "101359.075000", "101357.485000", "101359.275000", "101357.682500", "101359.472500", "101357.882500", "101359.672500", "101357.087500", "101402.475000", "101359.890000", "101401.680000", "101400.090000", "101401.880000", "101400.287500", "101402.077500", "101400.487500", "101402.277500", "101400.885000", "101402.675000", "101401.085000", "101402.875000", "101401.282500", "101403.072500", "101401.482500", "101403.272500", "101400.687500", "101402.475000", "101359.890000", "101401.680000", "101400.090000", "101401.880000", "101400.287500", "101402.077500", "101400.487500", "101402.277500", "101400.885000", "101402.675000", "101401.085000", "101402.875000", "101401.282500", "101403.072500", "101401.482500", "101403.272500", "101400.687500", "101402.475000", "101359.890000", "101401.680000", "101400.090000", "101401.880000", "101400.287500", "101402.077500", "101400.487500", "101402.277500", "101400.885000", "101402.675000", "101401.085000", "101402.875000", "101401.282500", "101403.072500", "101401.482500", "101403.272500", "101400.687500", "101402.475000", "101359.890000", "101401.680000", "101400.090000", "101401.880000", "101400.287500", "101402.077500", "101400.487500", "101402.277500", "101400.885000", "101402.675000", "101401.085000", "101402.875000", "101401.282500", "101403.072500", "101401.482500", "101403.272500", "101400.687500", "101406.075000", "101403.490000", "101405.280000", "101403.690000", "101405.480000", "101403.887500", "101405.677500", "101404.087500", "101405.877500", "101404.485000", "101406.275000", "101404.685000", "101406.475000", "101404.882500", "101406.672500", "101405.082500", "101406.872500", "101404.287500", "101406.075000", "101403.490000", "101405.280000", "101403.690000", "101405.480000", "101403.887500", "101405.677500", "101404.087500", "101405.877500", "101404.485000", "101406.275000", "101404.685000", "101406.475000", "101404.882500", "101406.672500", "101405.082500", "101406.872500", "101404.287500", "101406.075000", "101403.490000", "101405.280000", "101403.690000", "101405.480000", "101403.887500", "101405.677500", "101404.087500", "101405.877500", "101404.485000", "101406.275000", "101404.685000", "101406.475000", "101404.882500", "101406.672500", "101405.082500", "101406.872500", "101404.287500", "101406.075000", "101403.490000", "101405.280000", "101403.690000", "101405.480000", "101403.887500", "101405.677500", "101404.087500", "101405.877500", "101404.485000", "101406.275000", "101404.685000", "101406.475000", "101404.882500", "101406.672500", "101405.082500", "101406.872500", "101404.287500", "101409.675000", "101407.090000", "101408.880000", "101407.290000", "101409.080000", "101407.487500", "101409.277500", "101407.687500", "101409.477500", "101408.085000", "101409.875000", "101408.285000", "101410.075000", "101408.482500", "101410.272500", "101408.682500", "101410.472500", "101407.887500", "101409.675000", "101407.090000", "101408.880000", "101407.290000", "101409.080000", "101407.487500", "101409.277500", "101407.687500", "101409.477500", "101408.085000", "101409.875000", "101408.285000", "101410.075000", "101408.482500", "101410.272500", "101408.682500", "101410.472500", "101407.887500", "101409.675000", "101407.090000", "101408.880000", "101407.290000", "101409.080000", "101407.487500", "101409.277500", "101407.687500", "101409.477500", "101408.085000", "101409.875000", "101408.285000", "101410.075000", "101408.482500", "101410.272500", "101408.682500", "101410.472500", "101407.887500", "101409.675000", "101407.090000", "101408.880000", "101407.290000", "101409.080000", "101407.487500", "101409.277500", "101407.687500", "101409.477500", "101408.085000", "101409.875000", "101408.285000", "101410.075000", "101408.482500", "101410.272500", "101408.682500", "101410.472500", "101407.887500", "101413.275000", "101410.690000", "101412.480000", "101410.890000", "101412.680000", "101411.087500", "101412.877500", "101411.287500", "101413.077500", "101411.685000", "101413.475000", "101411.885000", "101413.675000", "101412.082500", "101413.872500", "101412.282500", "101414.072500", "101411.487500", "101413.275000", "101410.690000", "101412.480000", "101410.890000", "101412.680000", "101411.087500", "101412.877500", "101411.287500", "101413.077500", "101411.685000", "101413.475000", "101411.885000", "101413.675000", "101412.082500", "101413.872500", "101412.282500", "101414.072500", "101411.487500", "101413.275000", "101410.690000", "101412.480000", "101410.890000", "101412.680000", "101411.087500", "101412.877500", "101411.287500", "101413.077500", "101411.685000", "101413.475000", "101411.885000", "101413.675000", "101412.082500", "101413.872500", "101412.282500", "101414.072500", "101411.487500", "101413.275000", "101410.690000", "101412.480000", "101410.890000", "101412.680000", "101411.087500", "101412.877500", "101411.287500", "101413.077500", "101411.685000", "101413.475000", "101411.885000", "101413.675000", "101412.082500", "101413.872500", "101412.282500", "101414.072500", "101411.487500", "101416.875000", "101414.290000", "101416.080000", "101414.490000", "101416.280000", "101414.687500", "101416.477500", "101414.887500", "101416.677500", "101415.285000", "101417.075000", "101415.485000", "101417.275000", "101415.682500", "101417.472500", "101415.882500", "101417.672500", "101415.087500", "101416.875000", "101414.290000", "101416.080000", "101414.490000", "101416.280000", "101414.687500", "101416.477500", "101414.887500", "101416.677500", "101415.285000", "101417.075000", "101415.485000", "101417.275000", "101415.682500", "101417.472500", "101415.882500", "101417.672500", "101415.087500", "101416.875000", "101414.290000", "101416.080000", "101414.490000", "101416.280000", "101414.687500", "101416.477500", "101414.887500", "101416.677500", "101415.285000", "101417.075000", "101415.485000", "101417.275000", "101415.682500", "101417.472500", "101415.882500", "101417.672500", "101415.087500", "101416.875000", "101414.290000", "101416.080000", "101414.490000", "101416.280000", "101414.687500", "101416.477500", "101414.887500", "101416.677500", "101415.285000", "101417.075000", "101415.485000", "101417.275000", "101415.682500", "101417.472500", "101415.882500", "101417.672500", "101415.087500", "101420.475000", "101417.890000", "101419.680000", "101418.090000", "101419.880000", "101418.287500", "101420.077500", "101418.487500", "101420.277500", "101418.885000", "101420.675000", "101419.085000", "101420.875000", "101419.282500", "101421.072500", "101419.482500", "101421.272500", "101418.687500", "101420.475000", "101417.890000", "101419.680000", "101418.090000", "101419.880000", "101418.287500", "101420.077500", "101418.487500", "101420.277500", "101418.885000", "101420.675000", "101419.085000", "101420.875000", "101419.282500", "101421.072500", "101419.482500", "101421.272500", "101418.687500", "101420.475000", "101417.890000", "101419.680000", "101418.090000", "101419.880000", "101418.287500", "101420.077500", "101418.487500", "101420.277500", "101418.885000", "101420.675000", "101419.085000", "101420.875000", "101419.282500", "101421.072500", "101419.482500", "101421.272500", "101418.687500", "101420.475000", "101417.890000", "101419.680000", "101418.090000", "101419.880000", "101418.287500", "101420.077500", "101418.487500", "101420.277500", "101418.885000", "101420.675000", "101419.085000", "101420.875000", "101419.282500", "101421.072500", "101419.482500", "101421.272500", "101418.687500", "101424.075000", "101421.490000", "101423.280000", "101421.690000", "101423.480000", "101421.887500", "101423.677500", "101422.087500", "101423.877500", "101422.485000", "101424.275000", "101422.685000", "101424.475000", "101422.882500", "101424.672500", "101423.082500", "101424.872500", "101422.287500", "101424.075000", "101421.490000", "101423.280000", "101421.690000", "101423.480000", "101421.887500", "101423.677500", "101422.087500", "101423.877500", "101422.485000", "101424.275000", "101422.685000", "101424.475000", "101422.882500", "101424.672500", "101423.082500", "101424.872500", "101422.287500", "101424.075000", "101421.490000", "101423.280000", "101421.690000", "101423.480000", "101421.887500", "101423.677500", "101422.087500", "101423.877500", "101422.485000", "101424.275000", "101422.685000", "101424.475000", "101422.882500", "101424.672500", "101423.082500", "101424.872500", "101422.287500", "101424.075000", "101421.490000", "101423.280000", "101421.690000", "101423.480000", "101421.887500", "101423.677500", "101422.087500", "101423.877500", "101422.485000", "101424.275000", "101422.685000", "101424.475000", "101422.882500", "101424.672500", "101423.082500", "101424.872500", "101422.287500", "101427.675000", "101425.090000", "101426.880000", "101425.290000", "101427.080000", "101425.487500", "101427.277500", "101425.687500", "101427.477500", "101426.085000", "101427.875000", "101426.285000", "101428.075000", "101426.482500", "101428.272500", "101426.682500", "101428.472500", "101425.887500", "101427.675000", "101425.090000", "101426.880000", "101425.290000", "101427.080000", "101425.487500", "101427.277500", "101425.687500", "101427.477500", "101426.085000", "101427.875000", "101426.285000", "101428.075000", "101426.482500", "101428.272500", "101426.682500", "101428.472500", "101425.887500", "101427.675000", "101425.090000", "101426.880000", "101425.290000", "101427.080000", "101425.487500", "101427.277500", "101425.687500", "101427.477500", "101426.085000", "101427.875000", "101426.285000", "101428.075000", "101426.482500", "101428.272500", "101426.682500", "101428.472500", "101425.887500", "101427.675000", "101425.090000", "101426.880000", "101425.290000", "101427.080000", "101425.487500", "101427.277500", "101425.687500", "101427.477500", "101426.085000", "101427.875000", "101426.285000", "101428.075000", "101426.482500", "101428.272500", "101426.682500", "101428.472500", "101425.887500", "101431.275000", "101428.690000", "101430.480000", "101428.890000", "101430.680000", "101429.087500", "101430.877500", "101429.287500", "101431.077500", "101429.685000", "101431.475000", "101429.885000", "101431.675000", "101430.082500", "101431.872500", "101430.282500", "101432.072500", "101429.487500", "101431.275000", "101428.690000", "101430.480000", "101428.890000", "101430.680000", "101429.087500", "101430.877500", "101429.287500", "101431.077500", "101429.685000", "101431.475000", "101429.885000", "101431.675000", "101430.082500", "101431.872500", "101430.282500", "101432.072500", "101429.487500", "101431.275000", "101428.690000", "101430.480000", "101428.890000", "101430.680000", "101429.087500", "101430.877500", "101429.287500", "101431.077500", "101429.685000", "101431.475000", "101429.885000", "101431.675000", "101430.082500", "101431.872500", "101430.282500", "101432.072500", "101429.487500", "101431.275000", "101428.690000", "101430.480000", "101428.890000", "101430.680000", "101429.087500", "101430.877500", "101429.287500", "101431.077500", "101429.685000", "101431.475000", "101429.885000", "101431.675000", "101430.082500", "101431.872500", "101430.282500", "101432.072500", "101429.487500", "101434.875000", "101432.290000", "101434.080000", "101432.490000", "101434.280000", "101432.687500", "101434.477500", "101432.887500", "101434.677500", "101433.285000", "101435.075000", "101433.485000", "101435.275000", "101433.682500", "101435.472500", "101433.882500", "101435.672500", "101433.087500", "101434.875000", "101432.290000", "101434.080000", "101432.490000", "101434.280000", "101432.687500", "101434.477500", "101432.887500", "101434.677500", "101433.285000", "101435.075000", "101433.485000", "101435.275000", "101433.682500", "101435.472500", "101433.882500", "101435.672500", "101433.087500", "101434.875000", "101432.290000", "101434.080000", "101432.490000", "101434.280000", "101432.687500", "101434.477500", "101432.887500", "101434.677500", "101433.285000", "101435.075000", "101433.485000", "101435.275000", "101433.682500", "101435.472500", "101433.882500", "101435.672500", "101433.087500", "101434.875000", "101432.290000", "101434.080000", "101432.490000", "101434.280000", "101432.687500", "101434.477500", "101432.887500", "101434.677500", "101433.285000", "101435.075000", "101433.485000", "101435.275000", "101433.682500", "101435.472500", "101433.882500", "101435.672500", "101433.087500", "101438.475000", "101435.890000", "101437.680000", "101436.090000", "101437.880000", "101436.287500", "101438.077500", "101436.487500", "101438.277500", "101436.885000", "101438.675000", "101437.085000", "101438.875000", "101437.282500", "101439.072500", "101437.482500", "101439.272500", "101436.687500", "101438.475000", "101435.890000", "101437.680000", "101436.090000", "101437.880000", "101436.287500", "101438.077500", "101436.487500", "101438.277500", "101436.885000", "101438.675000", "101437.085000", "101438.875000", "101437.282500", "101439.072500", "101437.482500", "101439.272500", "101436.687500", "101438.475000", "101435.890000", "101437.680000", "101436.090000", "101437.880000", "101436.287500", "101438.077500", "101436.487500", "101438.277500", "101436.885000", "101438.675000", "101437.085000", "101438.875000", "101437.282500", "101439.072500", "101437.482500", "101439.272500", "101436.687500", "101438.475000", "101435.890000", "101437.680000", "101436.090000", "101437.880000", "101436.287500", "101438.077500", "101436.487500", "101438.277500", "101436.885000", "101438.675000", "101437.085000", "101438.875000", "101437.282500", "101439.072500", "101437.482500", "101439.272500", "101436.687500", "101442.075000", "101439.490000", "101441.280000", "101439.690000", "101441.480000", "101439.887500", "101441.677500", "101440.087500", "101441.877500", "101440.485000", "101442.275000", "101440.685000", "101442.475000", "101440.882500", "101442.672500", "101441.082500", "101442.872500", "101440.287500", "101442.075000", "101439.490000", "101441.280000", "101439.690000", "101441.480000", "101439.887500", "101441.677500", "101440.087500", "101441.877500", "101440.485000", "101442.275000", "101440.685000", "101442.475000", "101440.882500", "101442.672500", "101441.082500", "101442.872500", "101440.287500", "101442.075000", "101439.490000", "101441.280000", "101439.690000", "101441.480000", "101439.887500", "101441.677500", "101440.087500", "101441.877500", "101440.485000", "101442.275000", "101440.685000", "101442.475000", "101440.882500", "101442.672500", "101441.082500", "101442.872500", "101440.287500", "101442.075000", "101439.490000", "101441.280000", "101439.690000", "101441.480000", "101439.887500", "101441.677500", "101440.087500", "101441.877500", "101440.485000", "101442.275000", "101440.685000", "101442.475000", "101440.882500", "101442.672500", "101441.082500", "101442.872500", "101440.287500", "101445.675000", "101443.090000", "101444.880000", "101443.290000", "101445.080000", "101443.487500", "101445.277500", "101443.687500", "101445.477500", "101444.085000", "101445.875000", "101444.285000", "101446.075000", "101444.482500", "101446.272500", "101444.682500", "101446.472500", "101443.887500", "101445.675000", "101443.090000", "101444.880000", "101443.290000", "101445.080000", "101443.487500", "101445.277500", "101443.687500", "101445.477500", "101444.085000", "101445.875000", "101444.285000", "101446.075000", "101444.482500", "101446.272500", "101444.682500", "101446.472500", "101443.887500", "101445.675000", "101443.090000", "101444.880000", "101443.290000", "101445.080000", "101443.487500", "101445.277500", "101443.687500", "101445.477500", "101444.085000", "101445.875000", "101444.285000", "101446.075000", "101444.482500", "101446.272500", "101444.682500", "101446.472500", "101443.887500", "101445.675000", "101443.090000", "101444.880000", "101443.290000", "101445.080000", "101443.487500", "101445.277500", "101443.687500", "101445.477500", "101444.085000", "101445.875000", "101444.285000", "101446.075000", "101444.482500", "101446.272500", "101444.682500", "101446.472500", "101443.887500", "101449.275000", "101446.690000", "101448.480000", "101446.890000", "101448.680000", "101447.087500", "101448.877500", "101447.287500", "101449.077500", "101447.685000", "101449.475000", "101447.885000", "101449.675000", "101448.082500", "101449.872500", "101448.282500", "101450.072500", "101447.487500", "101449.275000", "101446.690000", "101448.480000", "101446.890000", "101448.680000", "101447.087500", "101448.877500", "101447.287500", "101449.077500", "101447.685000", "101449.475000", "101447.885000", "101449.675000", "101448.082500", "101449.872500", "101448.282500", "101450.072500", "101447.487500", "101449.275000", "101446.690000", "101448.480000", "101446.890000", "101448.680000", "101447.087500", "101448.877500", "101447.287500", "101449.077500", "101447.685000", "101449.475000", "101447.885000", "101449.675000", "101448.082500", "101449.872500", "101448.282500", "101450.072500", "101447.487500", "101449.275000", "101446.690000", "101448.480000", "101446.890000", "101448.680000", "101447.087500", "101448.877500", "101447.287500", "101449.077500", "101447.685000", "101449.475000", "101447.885000", "101449.675000", "101448.082500", "101449.872500", "101448.282500", "101450.072500", "101447.487500", "101452.875000", "101450.290000", "101452.080000", "101450.490000", "101452.280000", "101450.687500", "101452.477500", "101450.887500", "101452.677500", "101451.285000", "101453.075000", "101451.485000", "101453.275000", "101451.682500", "101453.472500", "101451.882500", "101453.672500", "101451.087500", "101452.875000", "101450.290000", "101452.080000", "101450.490000", "101452.280000", "101450.687500", "101452.477500", "101450.887500", "101452.677500", "101451.285000", "101453.075000", "101451.485000", "101453.275000", "101451.682500", "101453.472500", "101451.882500", "101453.672500", "101451.087500", "101452.875000", "101450.290000", "101452.080000", "101450.490000", "101452.280000", "101450.687500", "101452.477500", "101450.887500", "101452.677500", "101451.285000", "101453.075000", "101451.485000", "101453.275000", "101451.682500", "101453.472500", "101451.882500", "101453.672500", "101451.087500", "101452.875000", "101450.290000", "101452.080000", "101450.490000", "101452.280000", "101450.687500", "101452.477500", "101450.887500", "101452.677500", "101451.285000", "101453.075000", "