{
  "AcquisitionMatrixPE": 122,
  "AcquisitionNumber": 1,
  "AcquisitionTime": "10:09:25.057500",
  "BandwidthPerPixelPhaseEncode": 28.76,
  "BaseResolution": 122,
  "BodyPartExamined": "BRAIN",
  "CoilCombinationMethod": "Adaptive Combine",
  "ConsistencyInfo": "N4_VE11C_LATEST_20160120",
  "ConversionSoftware": "dcm2niix",
  "ConversionSoftwareVersion": "v1.0.20220720",
  "DerivedVendorReportedEchoSpacing": 0.000570008,
  "DeviceSerialNumber": "66112",
  "DiffusionScheme": "Monopolar",
  "DwellTime": 2e-06,
  "EchoTime": 0.075,
  "EchoTrainLength": 61,
  "EffectiveEchoSpacing": 0.000285004,
  "FlipAngle": 90,
  "HeudiconvVersion": "0.13.1",
  "ImageOrientationPatientDICOM": [0.983219, 0.182188, 0.00941461, -0.176555, 0.937288, 0.300532],
  "ImageOrientationText": "Tra>Cor(17.3)>Sag(-2.6)",
  "ImageType": [
    "ORIGINAL",
    "PRIMARY",
    "DIFFUSION",
    "NONE",
    "ND",
    "NORM"
],
  "ImagingFrequency": 123.252,
  "InPlanePhaseEncodingDirectionDICOM": "COL",
  "InstitutionAddress": "Maynard 3,Hanover,NH,US,03755",
  "InstitutionName": "Dartmouth College - PBS",
  "InstitutionalDepartmentName": "Department",
  "MRAcquisitionType": "2D",
  "MagneticFieldStrength": 3,
  "Manufacturer": "Siemens",
  "ManufacturersModelName": "Prisma",
  "MatrixCoilMode": "GRAPPA",
  "Modality": "MR",
  "NonlinearGradientCorrection": false,
  "ParallelReductionFactorInPlane": 2,
  "PartialFourier": 1,
  "PatientPosition": "HFS",
  "PercentPhaseFOV": 100,
  "PercentSampling": 100,
  "PhaseEncodingDirection": "j-",
  "PhaseEncodingSteps": 122,
  "PhaseResolution": 1,
  "PixelBandwidth": 2050,
  "ProcedureStepDescription": "dbic^QA",
  "ProtocolName": "dwi_acq-DTI-30-p2",
  "PulseSequenceDetails": "%SiemensSeq%\\ep2d_diff",
  "ReceiveCoilActiveElements": "HEA;HEP",
  "ReceiveCoilName": "Head_32",
  "ReconMatrixPE": 122,
  "RefLinesPE": 38,
  "RepetitionTime": 7.7,
  "SAR": 0.101871,
  "ScanOptions": "FS",
  "ScanningSequence": "EP",
  "SequenceName": "*ep_b0",
  "SequenceVariant": "SK\\SP",
  "SeriesDescription": "dwi_acq-DTI-30-p2",
  "SeriesNumber": 12,
  "ShimSetting": [4143, -7695, -7512, 276, -59, -80, -16, 58],
  "SliceThickness": 2,
  "SliceTiming": [3.83594, 0, 3.94531, 0.10938, 4.05469, 0.21875, 4.16406, 0.32812, 4.27344, 0.4375, 4.38281, 0.54688, 4.5, 0.65625, 4.60938, 0.76562, 4.71875, 0.875, 4.82031, 0.98438, 4.9375, 1.09375, 5.04688, 1.20312, 5.15625, 1.3125, 5.26562, 1.42188, 5.375, 1.53125, 5.48438, 1.64062, 5.59375, 1.75, 5.70312, 1.86719, 5.8125, 1.97656, 5.92188, 2.07812, 6.03125, 2.1875, 6.14062, 2.30469, 6.25, 2.41406, 6.35938, 2.52344, 6.46875, 2.63281, 6.57812, 2.74219, 6.6875, 2.85156, 6.79688, 2.96094, 6.90625, 3.07031, 7.01562, 3.17969, 7.125, 3.28906, 7.24219, 3.39844, 7.35156, 3.50781, 7.46094, 3.61719, 7.57031, 3.72656],
  "SoftwareVersions": "syngo MR E11",
  "SpacingBetweenSlices": 2,
  "SpoilingState": true,
  "StationName": "AWP66112",
  "TotalReadoutTime": 0.0344855,
  "TxRefAmp": 224.328,
  "dcmmeta_affine": [
    [-1.934200644493103, -0.3473207950592041, -0.09185818582773209, 145.08172607421875],
    [-0.35840240120887756, 1.8438453674316406, 0.5943031311035156, -101.21031188964844],
    [0.018520547077059746, -0.5912107229232788, 1.9074478149414062, -27.86720848083496],
    [0.0, 0.0, 0.0, 1.0]
],
  "dcmmeta_reorient_transform": [
    [0.0, -1.0, 0.0, 121.0],
    [1.0, 0.0, 0.0, 0.0],
    [0.0, 0.0, -1.0, 69.0],
    [0.0, 0.0, 0.0, 1.0]
],
  "dcmmeta_shape": [122, 122, 70, 31],
  "dcmmeta_slice_dim": 2,
  "dcmmeta_version": 0.6,
  "global": {
    "const": {
      "AccessionNumber": "qa",
      "AcquisitionMatrix": [122, 0, 0, 122],
      "AngioFlag": "N",
      "BitsAllocated": 16,
      "BitsStored": 12,
      "BodyPartExamined": "BRAIN",
      "Columns": 122,
      "EchoNumbers": 1,
      "EchoTime": 75.0,
      "EchoTrainLength": 61,
      "FlipAngle": 90.0,
      "HighBit": 11,
      "ImageOrientationPatient": [0.98321866467684, 0.18218787699755, 0.00941461131555, -0.1765547359397, 0.9372880430778, 0.30053211063157],
      "ImageType": [
        "ORIGINAL",
        "PRIMARY",
        "DIFFUSION",
        "NONE",
        "ND",
        "NORM"
],
      "ImagedNucleus": "1H",
      "ImagingFrequency": 123.25237,
      "InPlanePhaseEncodingDirection": "COL",
      "MRAcquisitionType": "2D",
      "MagneticFieldStrength": 3.0,
      "Manufacturer": "SIEMENS",
      "ManufacturerModelName": "Prisma",
      "Modality": "MR",
      "NumberOfAverages": 1.0,
      "NumberOfPhaseEncodingSteps": 122,
      "PercentPhaseFieldOfView": 100.0,
      "PercentSampling": 100.0,
      "PerformedProcedureStepStartTime": "093403.119000",
      "PhotometricInterpretation": "MONOCHROME2",
      "PixelBandwidth": 2050.0,
      "PixelRepresentation": 0,
      "PixelSpacing": [1.9672131538391, 1.9672131538391],
      "ProtocolName": "dwi_acq-DTI-30-p2",
      "RepetitionTime": 7700.0,
      "Rows": 122,
      "SAR": 0.10187107576104,
      "SamplesPerPixel": 1,
      "ScanOptions": "FS",
      "ScanningSequence": "EP",
      "SequenceVariant": [
        "SK",
        "SP"
],
      "SeriesDescription": "dwi_acq-DTI-30-p2",
      "SeriesNumber": 12,
      "SeriesTime": "100930.096000",
      "SliceThickness": 2.0,
      "SmallestImagePixelValue": 0,
      "SoftwareVersions": "syngo MR E11",
      "SpacingBetweenSlices": 2.0,
      "SpecificCharacterSet": "ISO_IR 100",
      "StudyID": "32",
      "StudyTime": "093403.063000",
      "TransmitCoilName": "Body",
      "VariableFlipAngleFlag": "N",
      "WindowCenterWidthExplanation": "Algo1",
      "dBdt": 0.0},
    "slices": {
      "AcquisitionTime": ["100925.057500", "100921.217500", "100925.165000", "100921.325000", "100925.275000", "100921.435000", "100925.385000", "100921.545000", "100925.495000", "100921.655000", "100925.605000", "100921.765000", "100925.715000", "100921.875000", "100925.825000", "100921.985000", "100925.935000", "100922.095000", "100926.042500", "100922.205000", "100926.152500", "100922.312500", "100926.262500", "100922.422500", "100926.372500", "100922.532500", "100926.482500", "100922.642500", "100926.592500", "100922.752500", "100926.702500", "100922.862500", "100926.812500", "100922.972500", "100926.922500", "100923.082500", "100927.030000", "100923.192500", "100927.140000", "100923.300000", "100927.250000", "100923.410000", "100927.360000", "100923.520000", "100927.470000", "100923.630000", "100927.580000", "100923.740000", "100927.690000", "100923.850000", "100927.800000", "100923.960000", "100927.910000", "100924.070000", "100928.017500", "100924.177500", "100928.127500", "100924.287500", "100928.237500", "100924.397500", "100928.347500", "100924.507500", "100928.457500", "100924.617500", "100928.567500", "100924.727500", "100928.677500", "100924.837500", "100928.787500", "100924.947500", "100932.757500", "100928.917500", "100932.865000", "100929.025000", "100932.975000", "100929.135000", "100933.085000", "100929.245000", "100933.195000", "100929.355000", "100933.305000", "100929.465000", "100933.415000", "100929.575000", "100933.525000", "100929.685000", "100933.635000", "100929.795000", "100933.742500", "100929.905000", "100933.852500", "100930.012500", "100933.962500", "100930.122500", "100934.072500", "100930.232500", "100934.182500", "100930.342500", "100934.292500", "100930.452500", "100934.402500", "100930.562500", "100934.512500", "100930.672500", "100934.622500", "100930.782500", "100934.730000", "100930.892500", "100934.840000", "100931.000000", "100934.950000", "100931.110000", "100935.060000", "100931.220000", "100935.170000", "100931.330000", "100935.280000", "100931.440000", "100935.390000", "100931.550000", "100935.500000", "100931.660000", "100935.610000", "100931.770000", "100935.717500", "100931.877500", "100935.827500", "100931.987500", "100935.937500", "100932.097500", "100936.047500", "100932.207500", "100936.157500", "100932.317500", "100936.267500", "100932.427500", "100936.377500", "100932.537500", "100936.487500", "100932.647500", "100940.457500", "100936.617500", "100940.565000", "100936.725000", "100940.675000", "100936.835000", "100940.785000", "100936.945000", "100940.895000", "100937.055000", "100941.005000", "100937.165000", "100941.115000", "100937.275000", "100941.225000", "100937.385000", "100941.335000", "100937.495000", "100941.442500", "100937.605000", "100941.552500", "100937.712500", "100941.662500", "100937.822500", "100941.772500", "100937.932500", "100941.882500", "100938.042500", "100941.992500", "100938.152500", "100942.102500", "100938.262500", "100942.212500", "100938.372500", "100942.322500", "100938.482500", "100942.430000", "100938.592500", "100942.540000", "100938.700000", "100942.650000", "100938.810000", "100942.760000", "100938.920000", "100942.870000", "100939.030000", "100942.980000", "100939.140000", "100943.090000", "100939.250000", "100943.200000", "100939.360000", "100943.310000", "100939.470000", "100943.417500", "100939.577500", "100943.527500", "100939.687500", "100943.637500", "100939.797500", "100943.747500", "100939.907500", "100943.857500", "100940.017500", "100943.967500", "100940.127500", "100944.077500", "100940.237500", "100944.187500", "100940.347500", "100948.157500", "100944.317500", "100948.265000", "100944.425000", "100948.375000", "100944.535000", "100948.485000", "100944.645000", "100948.595000", "100944.755000", "100948.705000", "100944.865000", "100948.815000", "100944.975000", "100948.925000", "100945.085000", "100949.035000", "100945.195000", "100949.142500", "100945.305000", "100949.252500", "100945.412500", "100949.362500", "100945.522500", "100949.472500", "100945.632500", "100949.582500", "100945.742500", "100949.692500", "100945.852500", "100949.802500", "100945.962500", "100949.912500", "100946.072500", "100950.022500", "100946.182500", "100950.130000", "100946.292500", "100950.240000", "100946.400000", "100950.350000", "100946.510000", "100950.460000", "100946.620000", "100950.570000", "100946.730000", "100950.680000", "100946.840000", "100950.790000", "100946.950000", "100950.900000", "100947.060000", "100951.010000", "100947.170000", "100951.117500", "100947.277500", "100951.227500", "100947.387500", "100951.337500", "100947.497500", "100951.447500", "100947.607500", "100951.557500", "100947.717500", "100951.667500", "100947.827500", "100951.777500", "100947.937500", "100951.887500", "100948.047500", "100955.857500", "100952.017500", "100955.965000", "100952.125000", "100956.075000", "100952.235000", "100956.185000", "100952.345000", "100956.295000", "100952.455000", "100956.405000", "100952.565000", "100956.515000", "100952.675000", "100956.625000", "100952.785000", "100956.735000", "100952.895000", "100956.842500", "100953.005000", "100956.952500", "100953.112500", "100957.062500", "100953.222500", "100957.172500", "100953.332500", "100957.282500", "100953.442500", "100957.392500", "100953.552500", "100957.502500", "100953.662500", "100957.612500", "100953.772500", "100957.722500", "100953.882500", "100957.830000", "100953.992500", "100957.940000", "100954.100000", "100958.050000", "100954.210000", "100958.160000", "100954.320000", "100958.270000", "100954.430000", "100958.380000", "100954.540000", "100958.490000", "100954.650000", "100958.600000", "100954.760000", "100958.710000", "100954.870000", "100958.817500", "100954.977500", "100958.927500", "100955.087500", "100959.037500", "100955.197500", "100959.147500", "100955.307500", "100959.257500", "100955.417500", "100959.367500", "100955.527500", "100959.477500", "100955.637500", "100959.587500", "100955.747500", "101003.557500", "100959.717500", "101003.665000", "100959.825000", "101003.775000", "100959.935000", "101003.885000", "101000.045000", "101003.995000", "101000.155000", "101004.105000", "101000.265000", "101004.215000", "101000.375000", "101004.325000", "101000.485000", "101004.435000", "101000.595000", "101004.542500", "101000.705000", "101004.652500", "101000.812500", "101004.762500", "101000.922500", "101004.872500", "101001.032500", "101004.982500", "101001.142500", "101005.092500", "101001.252500", "101005.202500", "101001.362500", "101005.312500", "101001.472500", "101005.422500", "101001.582500", "101005.530000", "101001.692500", "101005.640000", "101001.800000", "101005.750000", "101001.910000", "101005.860000", "101002.020000", "101005.970000", "101002.130000", "101006.080000", "101002.240000", "101006.190000", "101002.350000", "101006.300000", "101002.460000", "101006.410000", "101002.570000", "101006.517500", "101002.677500", "101006.627500", "101002.787500", "101006.737500", "101002.897500", "101006.847500", "101003.007500", "101006.957500", "101003.117500", "101007.067500", "101003.227500", "101007.177500", "101003.337500", "101007.287500", "101003.447500", "101011.257500", "101007.417500", "101011.365000", "101007.525000", "101011.475000", "101007.635000", "101011.585000", "101007.745000", "101011.695000", "101007.855000", "101011.805000", "101007.965000", "101011.915000", "101008.075000", "101012.025000", "101008.185000", "101012.135000", "101008.295000", "101012.242500", "101008.405000", "101012.352500", "101008.512500", "101012.462500", "101008.622500", "101012.572500", "101008.732500", "101012.682500", "101008.842500", "101012.792500", "101008.952500", "101012.902500", "101009.062500", "101013.012500", "101009.172500", "101013.122500", "101009.282500", "101013.230000", "101009.392500", "101013.340000", "101009.500000", "101013.450000", "101009.610000", "101013.560000", "101009.720000", "101013.670000", "101009.830000", "101013.780000", "101009.940000", "101013.890000", "101010.050000", "101014.000000", "101010.160000", "101014.110000", "101010.270000", "101014.217500", "101010.377500", "101014.327500", "101010.487500", "101014.437500", "101010.597500", "101014.547500", "101010.707500", "101014.657500", "101010.817500", "101014.767500", "101010.927500", "101014.877500", "101011.037500", "101014.987500", "101011.147500", "101018.957500", "101015.117500", "101019.065000", "101015.225000", "101019.175000", "101015.335000", "101019.285000", "101015.445000", "101019.395000", "101015.555000", "101019.505000", "101015.665000", "101019.615000", "101015.775000", "101019.725000", "101015.885000", "101019.835000", "101015.995000", "101019.942500", "101016.105000", "101020.052500", "101016.212500", "101020.162500", "101016.322500", "101020.272500", "101016.432500", "101020.382500", "101016.542500", "101020.492500", "101016.652500", "101020.602500", "101016.762500", "101020.712500", "101016.872500", "101020.822500", "101016.982500", "101020.930000", "101017.092500", "101021.040000", "101017.200000", "101021.150000", "101017.310000", "101021.260000", "101017.420000", "101021.370000", "101017.530000", "101021.480000", "101017.640000", "101021.590000", "101017.750000", "101021.700000", "101017.860000", "101021.810000", "101017.970000", "101021.917500", "101018.077500", "101022.027500", "101018.187500", "101022.137500", "101018.297500", "101022.247500", "101018.407500", "101022.357500", "101018.517500", "101022.467500", "101018.627500", "101022.577500", "101018.737500", "101022.687500", "101018.847500", "101026.657500", "101022.817500", "101026.765000", "101022.925000", "101026.875000", "101023.035000", "101026.985000", "101023.145000", "101027.095000", "101023.255000", "101027.205000", "101023.365000", "101027.315000", "101023.475000", "101027.425000", "101023.585000", "101027.535000", "101023.695000", "101027.642500", "101023.805000", "101027.752500", "101023.912500", "101027.862500", "101024.022500", "101027.972500", "101024.132500", "101028.082500", "101024.242500", "101028.192500", "101024.352500", "101028.302500", "101024.462500", "101028.412500", "101024.572500", "101028.522500", "101024.682500", "101028.630000", "101024.792500", "101028.740000", "101024.900000", "101028.850000", "101025.010000", "101028.960000", "101025.120000", "101029.070000", "101025.230000", "101029.180000", "101025.340000", "101029.290000", "101025.450000", "101029.400000", "101025.560000", "101029.510000", "101025.670000", "101029.617500", "101025.777500", "101029.727500", "101025.887500", "101029.837500", "101025.997500", "101029.947500", "101026.107500", "101030.057500", "101026.217500", "101030.167500", "101026.327500", "101030.277500", "101026.437500", "101030.387500", "101026.547500", "101034.357500", "101030.517500", "101034.465000", "101030.625000", "101034.575000", "101030.735000", "101034.685000", "101030.845000", "101034.795000", "101030.955000", "101034.905000", "101031.065000", "101035.015000", "101031.175000", "101035.125000", "101031.285000", "101035.235000", "101031.395000", "101035.342500", "101031.505000", "101035.452500", "101031.612500", "101035.562500", "101031.722500", "101035.672500", "101031.832500", "101035.782500", "101031.942500", "101035.892500", "101032.052500", "101036.002500", "101032.162500", "101036.112500", "101032.272500", "101036.222500", "101032.382500", "101036.330000", "101032.492500", "101036.440000", "101032.600000", "101036.550000", "101032.710000", "101036.660000", "101032.820000", "101036.770000", "101032.930000", "101036.880000", "101033.040000", "101036.990000", "101033.150000", "101037.100000", "101033.260000", "101037.210000", "101033.370000", "101037.317500", "101033.477500", "101037.427500", "101033.587500", "101037.537500", "101033.697500", "101037.647500", "101033.807500", "101037.757500", "101033.917500", "101037.867500", "101034.027500", "101037.977500", "101034.137500", "101038.087500", "101034.247500", "101042.057500", "101038.217500", "101042.165000", "101038.325000", "101042.275000", "101038.435000", "101042.385000", "101038.545000", "101042.495000", "101038.655000", "101042.605000", "101038.765000", "101042.715000", "101038.875000", "101042.825000", "101038.985000", "101042.935000", "101039.095000", "101043.042500", "101039.205000", "101043.152500", "101039.312500", "101043.262500", "101039.422500", "101043.372500", "101039.532500", "101043.482500", "101039.642500", "101043.592500", "101039.752500", "101043.702500", "101039.862500", "101043.812500", "101039.972500", "101043.922500", "101040.082500", "101044.030000", "101040.192500", "101044.140000", "101040.300000", "101044.250000", "101040.410000", "101044.360000", "101040.520000", "101044.470000", "101040.630000", "101044.580000", "101040.740000", "101044.690000", "101040.850000", "101044.800000", "101040.960000", "101044.910000", "101041.070000", "101045.017500", "101041.177500", "101045.127500", "101041.287500", "101045.237500", "101041.397500", "101045.347500", "101041.507500", "101045.457500", "101041.617500", "101045.567500", "101041.727500", "101045.677500", "101041.837500", "101045.787500", "101041.947500", "101049.757500", "101045.917500", "101049.865000", "101046.025000", "101049.975000", "101046.135000", "101050.085000", "101046.245000", "101050.195000", "101046.355000", "101050.305000", "101046.465000", "101050.415000", "101046.575000", "101050.525000", "101046.685000", "101050.635000", "101046.795000", "101050.742500", "101046.905000", "101050.852500", "101047.012500", "101050.962500", "101047.122500", "101051.072500", "101047.232500", "101051.182500", "101047.342500", "101051.292500", "101047.452500", "101051.402500", "101047.562500", "101051.512500", "101047.672500", "101051.622500", "101047.782500", "101051.730000", "101047.892500", "101051.840000", "101048.000000", "101051.950000", "101048.110000", "101052.060000", "101048.220000", "101052.170000", "101048.330000", "101052.280000", "101048.440000", "101052.390000", "101048.550000", "101052.500000", "101048.660000", "101052.610000", "101048.770000", "101052.717500", "101048.877500", "101052.827500", "101048.987500", "101052.937500", "101049.097500", "101053.047500", "101049.207500", "101053.157500", "101049.317500", "101053.267500", "101049.427500", "101053.377500", "101049.537500", "101053.487500", "101049.647500", "101057.457500", "101053.617500", "101057.565000", "101053.725000", "101057.675000", "101053.835000", "101057.785000", "101053.945000", "101057.895000", "101054.055000", "101058.005000", "101054.165000", "101058.115000", "101054.275000", "101058.225000", "101054.385000", "101058.335000", "101054.495000", "101058.442500", "101054.605000", "101058.552500", "101054.712500", "101058.662500", "101054.822500", "101058.772500", "101054.932500", "101058.882500", "101055.042500", "101058.992500", "101055.152500", "101059.102500", "101055.262500", "101059.212500", "101055.372500", "101059.322500", "101055.482500", "101059.430000", "101055.592500", "101059.540000", "101055.700000", "101059.650000", "101055.810000", "101059.760000", "101055.920000", "101059.870000", "101056.030000", "101059.980000", "101056.140000", "101100.090000", "101056.250000", "101100.200000", "101056.360000", "101100.310000", "101056.470000", "101100.417500", "101056.577500", "101100.527500", "101056.687500", "101100.637500", "101056.797500", "101100.747500", "101056.907500", "101100.857500", "101057.017500", "101100.967500", "101057.127500", "101101.077500", "101057.237500", "101101.187500", "101057.347500", "101105.157500", "101101.317500", "101105.265000", "101101.425000", "101105.375000", "101101.535000", "101105.485000", "101101.645000", "101105.595000", "101101.755000", "101105.705000", "101101.865000", "101105.815000", "101101.975000", "101105.925000", "101102.085000", "101106.035000", "101102.195000", "101106.142500", "101102.305000", "101106.252500", "101102.412500", "101106.362500", "101102.522500", "101106.472500", "101102.632500", "101106.582500", "101102.742500", "101106.692500", "101102.852500", "101106.802500", "101102.962500", "101106.912500", "101103.072500", "101107.022500", "101103.182500", "101107.130000", "101103.292500", "101107.240000", "101103.400000", "101107.350000", "101103.510000", "101107.460000", "101103.620000", "101107.570000", "101103.730000", "101107.680000", "101103.840000", "101107.790000", "101103.950000", "101107.900000", "101104.060000", "101108.010000", "101104.170000", "101108.117500", "101104.277500", "101108.227500", "101104.387500", "101108.337500", "101104.497500", "101108.447500", "101104.607500", "101108.557500", "101104.717500", "101108.667500", "101104.827500", "101108.777500", "101104.937500", "101108.887500", "101105.047500", "101112.857500", "101109.017500", "101112.965000", "101109.125000", "101113.075000", "101109.235000", "101113.185000", "101109.345000", "101113.295000", "101109.455000", "101113.405000", "101109.565000", "101113.515000", "101109.675000", "101113.625000", "101109.785000", "101113.735000", "101109.895000", "101113.842500", "101110.005000", "101113.952500", "101110.112500", "101114.062500", "101110.222500", "101114.172500", "101110.332500", "101114.282500", "101110.442500", "101114.392500", "101110.552500", "101114.502500", "101110.662500", "101114.612500", "101110.772500", "101114.722500", "101110.882500", "101114.830000", "101110.992500", "101114.940000", "101111.100000", "101115.050000", "101111.210000", "101115.160000", "101111.320000", "101115.270000", "101111.430000", "101115.380000", "101111.540000", "101115.490000", "101111.650000", "101115.600000", "101111.760000", "101115.710000", "101111.870000", "101115.817500", "101111.977500", "101115.927500", "101112.087500", "101116.037500", "101112.197500", "101116.147500", "101112.307500", "101116.257500", "101112.417500", "101116.367500", "101112.527500", "101116.477500", "101112.637500", "101116.587500", "101112.747500", "101120.557500", "101116.717500", "101120.665000", "101116.825000", "101120.775000", "101116.935000", "101120.885000", "101117.045000", "101120.995000", "101117.155000", "101121.105000", "101117.265000", "101121.215000", "101117.375000", "101121.325000", "101117.485000", "101121.435000", "101117.595000", "101121.542500", "101117.705000", "101121.652500", "101117.812500", "101121.762500", "101117.922500", "101121.872500", "101118.032500", "101121.982500", "101118.142500", "101122.092500", "101118.252500", "101122.202500", "101118.362500", "101122.312500", "101118.472500", "101122.422500", "101118.582500", "101122.530000", "101118.692500", "101122.640000", "101118.800000", "101122.750000", "101118.910000", "101122.860000", "101119.020000", "101122.970000", "101119.130000", "101123.080000", "101119.240000", "101123.190000", "101119.350000", "101123.300000", "101119.460000", "101123.410000", "101119.570000", "101123.517500", "101119.677500", "101123.627500", "101119.787500", "101123.737500", "101119.897500", "101123.847500", "101120.007500", "101123.957500", "101120.117500", "101124.067500", "101120.227500", "101124.177500", "101120.337500", "101124.287500", "101120.447500", "101128.257500", "101124.417500", "101128.365000", "101124.525000", "101128.475000", "101124.635000", "101128.585000", "101124.745000", "101128.695000", "101124.855000", "101128.805000", "101124.965000", "101128.915000", "101125.075000", "101129.025000", "101125.185000", "101129.135000", "101125.295000", "101129.242500", "101125.405000", "101129.352500", "101125.512500", "101129.462500", "101125.622500", "101129.572500", "101125.732500", "101129.682500", "101125.842500", "101129.792500", "101125.952500", "101129.902500", "101126.062500", "101130.012500", "101126.172500", "101130.122500", "101126.282500", "101130.230000", "101126.392500", "101130.340000", "101126.500000", "101130.450000", "101126.610000", "101130.560000", "101126.720000", "101130.670000", "101126.830000", "101130.780000", "101126.940000", "101130.890000", "101127.050000", "101131.000000", "101127.160000", "101131.110000", "101127.270000", "101131.217500", "101127.377500", "101131.327500", "101127.487500", "101131.437500", "101127.597500", "101131.547500", "101127.707500", "101131.657500", "101127.817500", "101131.767500", "101127.927500", "101131.877500", "101128.037500", "101131.987500", "101128.147500", "101135.957500", "101132.117500", "101136.065000", "101132.225000", "101136.175000", "101132.335000", "101136.285000", "101132.445000", "101136.395000", "101132.555000", "101136.505000", "101132.665000", "101136.615000", "101132.775000", "101136.725000", "101132.885000", "101136.835000", "101132.995000", "101136.942500", "101133.105000", "101137.052500", "101133.212500", "101137.162500", "101133.322500", "101137.272500", "101133.432500", "101137.382500", "101133.542500", "101137.492500", "101133.652500", "101137.602500", "101133.762500", "101137.712500", "101133.872500", "101137.822500", "101133.982500", "101137.930000", "101134.092500", "101138.040000", "101134.200000", "101138.150000", "101134.310000", "101138.260000", "101134.420000", "101138.370000", "101134.530000", "101138.480000", "101134.640000", "101138.590000", "101134.750000", "101138.700000", "101134.860000", "101138.810000", "101134.970000", "101138.917500", "101135.077500", "101139.027500", "101135.187500", "101139.137500", "101135.297500", "101139.247500", "101135.407500", "101139.357500", "101135.517500", "101139.467500", "101135.627500", "101139.577500", "101135.737500", "101139.687500", "101135.847500", "101143.657500", "101139.817500", "101143.765000", "101139.925000", "101143.875000", "101140.035000", "101143.985000", "101140.145000", "101144.095000", "101140.255000", "101144.205000", "101140.365000", "101144.315000", "101140.475000", "101144.425000", "101140.585000", "101144.535000", "101140.695000", "101144.642500", "101140.805000", "101144.752500", "101140.912500", "101144.862500", "101141.022500", "101144.972500", "101141.132500", "101145.082500", "101141.242500", "101145.192500", "101141.352500", "101145.302500", "101141.462500", "101145.412500", "101141.572500", "101145.522500", "101141.682500", "101145.630000", "101141.792500", "101145.740000", "101141.900000", "101145.850000", "101142.010000", "101145.960000", "101142.120000", "101146.070000", "101142.230000", "101146.180000", "101142.340000", "101146.290000", "101142.450000", "101146.400000", "101142.560000", "101146.510000", "101142.670000", "101146.617500", "101142.777500", "101146.727500", "101142.887500", "101146.837500", "101142.997500", "101146.947500", "101143.107500", "101147.057500", "101143.217500", "101147.167500", "101143.327500", "101147.277500", "101143.437500", "101147.387500", "101143.547500", "101151.357500", "101147.517500", "101151.465000", "101147.625000", "101151.575000", "101147.735000", "101151.685000", "101147.845000", "101151.795000", "101147.955000", "101151.905000", "101148.065000", "101152.015000", "101148.175000", "101152.125000", "101148.285000", "101152.235000", "101148.395000", "101152.342500", "101148.505000", "101152.452500", "101148.612500", "101152.562500", "101148.722500", "101152.672500", "101148.832500", "101152.782500", "101148.942500", "101152.892500", "101149.052500", "101153.002500", "101149.162500", "101153.112500", "101149.272500", "101153.222500", "101149.382500", "101153.330000", "101149.492500", "101153.440000", "101149.600000", "101153.550000", "101149.710000", "101153.660000", "101149.820000", "101153.770000", "101149.930000", "101153.880000", "101150.040000", "101153.990000", "101150.150000", "101154.100000", "101150.260000", "101154.210000", "101150.370000", "101154.317500", "101150.477500", "101154.427500", "101150.587500", "101154.537500", "101150.697500", "101154.647500", "101150.807500", "101154.757500", "101150.917500", "101154.867500", "101151.027500", "101154.977500", "101151.137500", "101155.087500", "101151.247500", "101159.057500", "101155.217500", "101159.165000", "101155.325000", "101159.275000", "101155.435000", "101159.385000", "101155.545000", "101159.495000", "101155.655000", "101159.605000", "101155.765000", "101159.715000", "101155.875000", "101159.825000", "101155.985000", "101159.935000", "101156.095000", "101200.042500", "101156.205000", "101200.152500", "101156.312500", "101200.262500", "101156.422500", "101200.372500", "101156.532500", "101200.482500", "101156.642500", "101200.592500", "101156.752500", "101200.702500", "101156.862500", "101200.812500", "101156.972500", "101200.922500", "101