{
  "AcquisitionMatrixPE": 122,
  "AcquisitionNumber": 1,
  "AcquisitionTime": "10:22:47.032500",
  "BandwidthPerPixelPhaseEncode": 28.76,
  "BaseResolution": 122,
  "BodyPartExamined": "BRAIN",
  "CoilCombinationMethod": "Adaptive Combine",
  "ConsistencyInfo": "N4_VE11C_LATEST_20160120",
  "ConversionSoftware": "dcm2niix",
  "ConversionSoftwareVersion": "v1.0.20220720",
  "DerivedVendorReportedEchoSpacing": 0.000570008,
  "DeviceSerialNumber": "66112",
  "DiffusionScheme": "Monopolar",
  "DwellTime": 2e-06,
  "EchoTime": 0.075,
  "EchoTrainLength": 61,
  "EffectiveEchoSpacing": 0.000285004,
  "FlipAngle": 90,
  "HeudiconvVersion": "0.13.1",
  "ImageOrientationPatientDICOM": [0.979307, 0.20194, 0.0133704, -0.196574, 0.933406, 0.300187],
  "ImageOrientationText": "Tra>Cor(17.3)>Sag(-2.8)",
  "ImageType": [
    "ORIGINAL",
    "PRIMARY",
    "DIFFUSION",
    "NONE",
    "ND",
    "NORM"
],
  "ImagingFrequency": 123.252,
  "InPlanePhaseEncodingDirectionDICOM": "COL",
  "InstitutionAddress": "Maynard 3,Hanover,NH,US,03755",
  "InstitutionName": "Dartmouth College - PBS",
  "InstitutionalDepartmentName": "Department",
  "MRAcquisitionType": "2D",
  "MagneticFieldStrength": 3,
  "Manufacturer": "Siemens",
  "ManufacturersModelName": "Prisma",
  "MatrixCoilMode": "GRAPPA",
  "Modality": "MR",
  "NonlinearGradientCorrection": false,
  "ParallelReductionFactorInPlane": 2,
  "PartialFourier": 1,
  "PatientPosition": "HFS",
  "PercentPhaseFOV": 100,
  "PercentSampling": 100,
  "PhaseEncodingDirection": "j-",
  "PhaseEncodingSteps": 122,
  "PhaseResolution": 1,
  "PixelBandwidth": 2050,
  "ProcedureStepDescription": "dbic^QA",
  "ProtocolName": "dwi_acq-DTI-30-p2",
  "PulseSequenceDetails": "%SiemensSeq%\\ep2d_diff",
  "ReceiveCoilActiveElements": "HEA;HEP",
  "ReceiveCoilName": "Head_32",
  "ReconMatrixPE": 122,
  "RefLinesPE": 38,
  "RepetitionTime": 7.7,
  "SAR": 0.101668,
  "ScanOptions": "FS",
  "ScanningSequence": "EP",
  "SequenceName": "*ep_b0",
  "SequenceVariant": "SK\\SP",
  "SeriesDescription": "dwi_acq-DTI-30-p2",
  "SeriesNumber": 12,
  "ShimSetting": [4147, -7699, -7509, 272, -53, -73, -46, 48],
  "SliceThickness": 2,
  "SliceTiming": [3.83594, 0, 3.94531, 0.10938, 4.05469, 0.21875, 4.16406, 0.32812, 4.27344, 0.4375, 4.38281, 0.54688, 4.49219, 0.65625, 4.60156, 0.76562, 4.71094, 0.875, 4.82812, 0.98438, 4.9375, 1.09375, 5.04688, 1.20312, 5.14844, 1.3125, 5.26562, 1.42188, 5.375, 1.53125, 5.48438, 1.64062, 5.59375, 1.75, 5.70312, 1.85938, 5.8125, 1.96875, 5.92188, 2.08594, 6.03125, 2.19531, 6.14062, 2.29688, 6.25, 2.40625, 6.35938, 2.52344, 6.46875, 2.63281, 6.57812, 2.74219, 6.6875, 2.85156, 6.79688, 2.96094, 6.90625, 3.07031, 7.01562, 3.17969, 7.125, 3.28906, 7.23438, 3.39844, 7.34375, 3.50781, 7.46094, 3.61719, 7.57031, 3.72656],
  "SoftwareVersions": "syngo MR E11",
  "SpacingBetweenSlices": 2,
  "SpoilingState": true,
  "StationName": "AWP66112",
  "TotalReadoutTime": 0.0344855,
  "TxRefAmp": 232.227,
  "dcmmeta_affine": [
    [-1.9265047311782837, -0.38670235872268677, -0.09627974033355713, 148.54232788085938],
    [-0.3972596824169159, 1.8362083435058594, 0.5932083129882812, -102.28730773925781],
    [0.02630234882235527, -0.5905317664146423, 1.9075698852539062, -22.376686096191406],
    [0.0, 0.0, 0.0, 1.0]
],
  "dcmmeta_reorient_transform": [
    [0.0, -1.0, 0.0, 121.0],
    [1.0, 0.0, 0.0, 0.0],
    [0.0, 0.0, -1.0, 69.0],
    [0.0, 0.0, 0.0, 1.0]
],
  "dcmmeta_shape": [122, 122, 70, 31],
  "dcmmeta_slice_dim": 2,
  "dcmmeta_version": 0.6,
  "global": {
    "const": {
      "AccessionNumber": "qa",
      "AcquisitionMatrix": [122, 0, 0, 122],
      "AngioFlag": "N",
      "BitsAllocated": 16,
      "BitsStored": 12,
      "BodyPartExamined": "BRAIN",
      "Columns": 122,
      "EchoNumbers": 1,
      "EchoTime": 75.0,
      "EchoTrainLength": 61,
      "FlipAngle": 90.0,
      "HighBit": 11,
      "ImageOrientationPatient": [0.97930655784103, 0.20194033584602, 0.01337036005331, -0.1965736947267, 0.93340589835911, 0.30018696082599],
      "ImageType": [
        "ORIGINAL",
        "PRIMARY",
        "DIFFUSION",
        "NONE",
        "ND",
        "NORM"
],
      "ImagedNucleus": "1H",
      "ImagingFrequency": 123.252377,
      "InPlanePhaseEncodingDirection": "COL",
      "MRAcquisitionType": "2D",
      "MagneticFieldStrength": 3.0,
      "Manufacturer": "SIEMENS",
      "ManufacturerModelName": "Prisma",
      "Modality": "MR",
      "NumberOfAverages": 1.0,
      "NumberOfPhaseEncodingSteps": 122,
      "PercentPhaseFieldOfView": 100.0,
      "PercentSampling": 100.0,
      "PerformedProcedureStepStartTime": "094547.171000",
      "PhotometricInterpretation": "MONOCHROME2",
      "PixelBandwidth": 2050.0,
      "PixelRepresentation": 0,
      "PixelSpacing": [1.9672131538391, 1.9672131538391],
      "ProtocolName": "dwi_acq-DTI-30-p2",
      "RepetitionTime": 7700.0,
      "Rows": 122,
      "SAR": 0.1016681600065,
      "SamplesPerPixel": 1,
      "ScanOptions": "FS",
      "ScanningSequence": "EP",
      "SequenceVariant": [
        "SK",
        "SP"
],
      "SeriesDescription": "dwi_acq-DTI-30-p2",
      "SeriesNumber": 12,
      "SeriesTime": "102248.618000",
      "SliceThickness": 2.0,
      "SmallestImagePixelValue": 0,
      "SoftwareVersions": "syngo MR E11",
      "SpacingBetweenSlices": 2.0,
      "SpecificCharacterSet": "ISO_IR 100",
      "StudyID": "52",
      "StudyTime": "094547.129000",
      "TransmitCoilName": "Body",
      "VariableFlipAngleFlag": "N",
      "WindowCenterWidthExplanation": "Algo1",
      "dBdt": 0.0},
    "slices": {
      "AcquisitionTime": ["102247.032500", "102243.192500", "102247.142500", "102243.302500", "102247.252500", "102243.412500", "102247.360000", "102243.520000", "102247.470000", "102243.630000", "102247.580000", "102243.740000", "102247.690000", "102243.850000", "102247.800000", "102243.960000", "102247.910000", "102244.070000", "102248.020000", "102244.180000", "102248.130000", "102244.290000", "102248.240000", "102244.400000", "102248.347500", "102244.507500", "102248.457500", "102244.617500", "102248.567500", "102244.727500", "102248.677500", "102244.837500", "102248.787500", "102244.947500", "102248.897500", "102245.057500", "102249.007500", "102245.167500", "102249.117500", "102245.277500", "102249.225000", "102245.387500", "102249.335000", "102245.495000", "102249.445000", "102245.605000", "102249.555000", "102245.715000", "102249.665000", "102245.825000", "102249.775000", "102245.935000", "102249.885000", "102246.045000", "102249.995000", "102246.155000", "102250.105000", "102246.265000", "102250.212500", "102246.372500", "102250.322500", "102246.482500", "102250.432500", "102246.592500", "102250.542500", "102246.702500", "102250.652500", "102246.812500", "102250.762500", "102246.922500", "102254.732500", "102250.892500", "102254.842500", "102251.002500", "102254.952500", "102251.112500", "102255.060000", "102251.220000", "102255.170000", "102251.330000", "102255.280000", "102251.440000", "102255.390000", "102251.550000", "102255.500000", "102251.660000", "102255.610000", "102251.770000", "102255.720000", "102251.880000", "102255.830000", "102251.990000", "102255.940000", "102252.100000", "102256.047500", "102252.207500", "102256.157500", "102252.317500", "102256.267500", "102252.427500", "102256.377500", "102252.537500", "102256.487500", "102252.647500", "102256.597500", "102252.757500", "102256.707500", "102252.867500", "102256.817500", "102252.977500", "102256.925000", "102253.087500", "102257.035000", "102253.195000", "102257.145000", "102253.305000", "102257.255000", "102253.415000", "102257.365000", "102253.525000", "102257.475000", "102253.635000", "102257.585000", "102253.745000", "102257.695000", "102253.855000", "102257.805000", "102253.965000", "102257.912500", "102254.072500", "102258.022500", "102254.182500", "102258.132500", "102254.292500", "102258.242500", "102254.402500", "102258.352500", "102254.512500", "102258.462500", "102254.622500", "102302.432500", "102258.592500", "102302.542500", "102258.702500", "102302.652500", "102258.812500", "102302.760000", "102258.920000", "102302.870000", "102259.030000", "102302.980000", "102259.140000", "102303.090000", "102259.250000", "102303.200000", "102259.360000", "102303.310000", "102259.470000", "102303.420000", "102259.580000", "102303.530000", "102259.690000", "102303.640000", "102259.800000", "102303.747500", "102259.907500", "102303.857500", "102300.017500", "102303.967500", "102300.127500", "102304.077500", "102300.237500", "102304.187500", "102300.347500", "102304.297500", "102300.457500", "102304.407500", "102300.567500", "102304.517500", "102300.677500", "102304.625000", "102300.787500", "102304.735000", "102300.895000", "102304.845000", "102301.005000", "102304.955000", "102301.115000", "102305.065000", "102301.225000", "102305.175000", "102301.335000", "102305.285000", "102301.445000", "102305.395000", "102301.555000", "102305.505000", "102301.665000", "102305.612500", "102301.772500", "102305.722500", "102301.882500", "102305.832500", "102301.992500", "102305.942500", "102302.102500", "102306.052500", "102302.212500", "102306.162500", "102302.322500", "102310.132500", "102306.292500", "102310.242500", "102306.402500", "102310.352500", "102306.512500", "102310.460000", "102306.620000", "102310.570000", "102306.730000", "102310.680000", "102306.840000", "102310.790000", "102306.950000", "102310.900000", "102307.060000", "102311.010000", "102307.170000", "102311.120000", "102307.280000", "102311.230000", "102307.390000", "102311.340000", "102307.500000", "102311.447500", "102307.607500", "102311.557500", "102307.717500", "102311.667500", "102307.827500", "102311.777500", "102307.937500", "102311.887500", "102308.047500", "102311.997500", "102308.157500", "102312.107500", "102308.267500", "102312.217500", "102308.377500", "102312.325000", "102308.487500", "102312.435000", "102308.595000", "102312.545000", "102308.705000", "102312.655000", "102308.815000", "102312.765000", "102308.925000", "102312.875000", "102309.035000", "102312.985000", "102309.145000", "102313.095000", "102309.255000", "102313.205000", "102309.365000", "102313.312500", "102309.472500", "102313.422500", "102309.582500", "102313.532500", "102309.692500", "102313.642500", "102309.802500", "102313.752500", "102309.912500", "102313.862500", "102310.022500", "102317.832500", "102313.992500", "102317.942500", "102314.102500", "102318.052500", "102314.212500", "102318.160000", "102314.320000", "102318.270000", "102314.430000", "102318.380000", "102314.540000", "102318.490000", "102314.650000", "102318.600000", "102314.760000", "102318.710000", "102314.870000", "102318.820000", "102314.980000", "102318.930000", "102315.090000", "102319.040000", "102315.200000", "102319.147500", "102315.307500", "102319.257500", "102315.417500", "102319.367500", "102315.527500", "102319.477500", "102315.637500", "102319.587500", "102315.747500", "102319.697500", "102315.857500", "102319.807500", "102315.967500", "102319.917500", "102316.077500", "102320.025000", "102316.187500", "102320.135000", "102316.295000", "102320.245000", "102316.405000", "102320.355000", "102316.515000", "102320.465000", "102316.625000", "102320.575000", "102316.735000", "102320.685000", "102316.845000", "102320.795000", "102316.955000", "102320.905000", "102317.065000", "102321.012500", "102317.172500", "102321.122500", "102317.282500", "102321.232500", "102317.392500", "102321.342500", "102317.502500", "102321.452500", "102317.612500", "102321.562500", "102317.722500", "102325.532500", "102321.692500", "102325.642500", "102321.802500", "102325.752500", "102321.912500", "102325.860000", "102322.020000", "102325.970000", "102322.130000", "102326.080000", "102322.240000", "102326.190000", "102322.350000", "102326.300000", "102322.460000", "102326.410000", "102322.570000", "102326.520000", "102322.680000", "102326.630000", "102322.790000", "102326.740000", "102322.900000", "102326.847500", "102323.007500", "102326.957500", "102323.117500", "102327.067500", "102323.227500", "102327.177500", "102323.337500", "102327.287500", "102323.447500", "102327.397500", "102323.557500", "102327.507500", "102323.667500", "102327.617500", "102323.777500", "102327.725000", "102323.887500", "102327.835000", "102323.995000", "102327.945000", "102324.105000", "102328.055000", "102324.215000", "102328.165000", "102324.325000", "102328.275000", "102324.435000", "102328.385000", "102324.545000", "102328.495000", "102324.655000", "102328.605000", "102324.765000", "102328.712500", "102324.872500", "102328.822500", "102324.982500", "102328.932500", "102325.092500", "102329.042500", "102325.202500", "102329.152500", "102325.312500", "102329.262500", "102325.422500", "102333.232500", "102329.392500", "102333.342500", "102329.502500", "102333.452500", "102329.612500", "102333.560000", "102329.720000", "102333.670000", "102329.830000", "102333.780000", "102329.940000", "102333.890000", "102330.050000", "102334.000000", "102330.160000", "102334.110000", "102330.270000", "102334.220000", "102330.380000", "102334.330000", "102330.490000", "102334.440000", "102330.600000", "102334.547500", "102330.707500", "102334.657500", "102330.817500", "102334.767500", "102330.927500", "102334.877500", "102331.037500", "102334.987500", "102331.147500", "102335.097500", "102331.257500", "102335.207500", "102331.367500", "102335.317500", "102331.477500", "102335.425000", "102331.587500", "102335.535000", "102331.695000", "102335.645000", "102331.805000", "102335.755000", "102331.915000", "102335.865000", "102332.025000", "102335.975000", "102332.135000", "102336.085000", "102332.245000", "102336.195000", "102332.355000", "102336.305000", "102332.465000", "102336.412500", "102332.572500", "102336.522500", "102332.682500", "102336.632500", "102332.792500", "102336.742500", "102332.902500", "102336.852500", "102333.012500", "102336.962500", "102333.122500", "102340.932500", "102337.092500", "102341.042500", "102337.202500", "102341.152500", "102337.312500", "102341.260000", "102337.420000", "102341.370000", "102337.530000", "102341.480000", "102337.640000", "102341.590000", "102337.750000", "102341.700000", "102337.860000", "102341.810000", "102337.970000", "102341.920000", "102338.080000", "102342.030000", "102338.190000", "102342.140000", "102338.300000", "102342.247500", "102338.407500", "102342.357500", "102338.517500", "102342.467500", "102338.627500", "102342.577500", "102338.737500", "102342.687500", "102338.847500", "102342.797500", "102338.957500", "102342.907500", "102339.067500", "102343.017500", "102339.177500", "102343.125000", "102339.287500", "102343.235000", "102339.395000", "102343.345000", "102339.505000", "102343.455000", "102339.615000", "102343.565000", "102339.725000", "102343.675000", "102339.835000", "102343.785000", "102339.945000", "102343.895000", "102340.055000", "102344.005000", "102340.165000", "102344.112500", "102340.272500", "102344.222500", "102340.382500", "102344.332500", "102340.492500", "102344.442500", "102340.602500", "102344.552500", "102340.712500", "102344.662500", "102340.822500", "102348.632500", "102344.792500", "102348.742500", "102344.902500", "102348.852500", "102345.012500", "102348.960000", "102345.120000", "102349.070000", "102345.230000", "102349.180000", "102345.340000", "102349.290000", "102345.450000", "102349.400000", "102345.560000", "102349.510000", "102345.670000", "102349.620000", "102345.780000", "102349.730000", "102345.890000", "102349.840000", "102346.000000", "102349.947500", "102346.107500", "102350.057500", "102346.217500", "102350.167500", "102346.327500", "102350.277500", "102346.437500", "102350.387500", "102346.547500", "102350.497500", "102346.657500", "102350.607500", "102346.767500", "102350.717500", "102346.877500", "102350.825000", "102346.987500", "102350.935000", "102347.095000", "102351.045000", "102347.205000", "102351.155000", "102347.315000", "102351.265000", "102347.425000", "102351.375000", "102347.535000", "102351.485000", "102347.645000", "102351.595000", "102347.755000", "102351.705000", "102347.865000", "102351.812500", "102347.972500", "102351.922500", "102348.082500", "102352.032500", "102348.192500", "102352.142500", "102348.302500", "102352.252500", "102348.412500", "102352.362500", "102348.522500", "102356.332500", "102352.492500", "102356.442500", "102352.602500", "102356.552500", "102352.712500", "102356.660000", "102352.820000", "102356.770000", "102352.930000", "102356.880000", "102353.040000", "102356.990000", "102353.150000", "102357.100000", "102353.260000", "102357.210000", "102353.370000", "102357.320000", "102353.480000", "102357.430000", "102353.590000", "102357.540000", "102353.700000", "102357.647500", "102353.807500", "102357.757500", "102353.917500", "102357.867500", "102354.027500", "102357.977500", "102354.137500", "102358.087500", "102354.247500", "102358.197500", "102354.357500", "102358.307500", "102354.467500", "102358.417500", "102354.577500", "102358.525000", "102354.687500", "102358.635000", "102354.795000", "102358.745000", "102354.905000", "102358.855000", "102355.015000", "102358.965000", "102355.125000", "102359.075000", "102355.235000", "102359.185000", "102355.345000", "102359.295000", "102355.455000", "102359.405000", "102355.565000", "102359.512500", "102355.672500", "102359.622500", "102355.782500", "102359.732500", "102355.892500", "102359.842500", "102356.002500", "102359.952500", "102356.112500", "102400.062500", "102356.222500", "102404.032500", "102400.192500", "102404.142500", "102400.302500", "102404.252500", "102400.412500", "102404.360000", "102400.520000", "102404.470000", "102400.630000", "102404.580000", "102400.740000", "102404.690000", "102400.850000", "102404.800000", "102400.960000", "102404.910000", "102401.070000", "102405.020000", "102401.180000", "102405.130000", "102401.290000", "102405.240000", "102401.400000", "102405.347500", "102401.507500", "102405.457500", "102401.617500", "102405.567500", "102401.727500", "102405.677500", "102401.837500", "102405.787500", "102401.947500", "102405.897500", "102402.057500", "102406.007500", "102402.167500", "102406.117500", "102402.277500", "102406.225000", "102402.387500", "102406.335000", "102402.495000", "102406.445000", "102402.605000", "102406.555000", "102402.715000", "102406.665000", "102402.825000", "102406.775000", "102402.935000", "102406.885000", "102403.045000", "102406.995000", "102403.155000", "102407.105000", "102403.265000", "102407.212500", "102403.372500", "102407.322500", "102403.482500", "102407.432500", "102403.592500", "102407.542500", "102403.702500", "102407.652500", "102403.812500", "102407.762500", "102403.922500", "102411.732500", "102407.892500", "102411.842500", "102408.002500", "102411.952500", "102408.112500", "102412.060000", "102408.220000", "102412.170000", "102408.330000", "102412.280000", "102408.440000", "102412.390000", "102408.550000", "102412.500000", "102408.660000", "102412.610000", "102408.770000", "102412.720000", "102408.880000", "102412.830000", "102408.990000", "102412.940000", "102409.100000", "102413.047500", "102409.207500", "102413.157500", "102409.317500", "102413.267500", "102409.427500", "102413.377500", "102409.537500", "102413.487500", "102409.647500", "102413.597500", "102409.757500", "102413.707500", "102409.867500", "102413.817500", "102409.977500", "102413.925000", "102410.087500", "102414.035000", "102410.195000", "102414.145000", "102410.305000", "102414.255000", "102410.415000", "102414.365000", "102410.525000", "102414.475000", "102410.635000", "102414.585000", "102410.745000", "102414.695000", "102410.855000", "102414.805000", "102410.965000", "102414.912500", "102411.072500", "102415.022500", "102411.182500", "102415.132500", "102411.292500", "102415.242500", "102411.402500", "102415.352500", "102411.512500", "102415.462500", "102411.622500", "102419.432500", "102415.592500", "102419.542500", "102415.702500", "102419.652500", "102415.812500", "102419.760000", "102415.920000", "102419.870000", "102416.030000", "102419.980000", "102416.140000", "102420.090000", "102416.250000", "102420.200000", "102416.360000", "102420.310000", "102416.470000", "102420.420000", "102416.580000", "102420.530000", "102416.690000", "102420.640000", "102416.800000", "102420.747500", "102416.907500", "102420.857500", "102417.017500", "102420.967500", "102417.127500", "102421.077500", "102417.237500", "102421.187500", "102417.347500", "102421.297500", "102417.457500", "102421.407500", "102417.567500", "102421.517500", "102417.677500", "102421.625000", "102417.787500", "102421.735000", "102417.895000", "102421.845000", "102418.005000", "102421.955000", "102418.115000", "102422.065000", "102418.225000", "102422.175000", "102418.335000", "102422.285000", "102418.445000", "102422.395000", "102418.555000", "102422.505000", "102418.665000", "102422.612500", "102418.772500", "102422.722500", "102418.882500", "102422.832500", "102418.992500", "102422.942500", "102419.102500", "102423.052500", "102419.212500", "102423.162500", "102419.322500", "102427.132500", "102423.292500", "102427.242500", "102423.402500", "102427.352500", "102423.512500", "102427.460000", "102423.620000", "102427.570000", "102423.730000", "102427.680000", "102423.840000", "102427.790000", "102423.950000", "102427.900000", "102424.060000", "102428.010000", "102424.170000", "102428.120000", "102424.280000", "102428.230000", "102424.390000", "102428.340000", "102424.500000", "102428.447500", "102424.607500", "102428.557500", "102424.717500", "102428.667500", "102424.827500", "102428.777500", "102424.937500", "102428.887500", "102425.047500", "102428.997500", "102425.157500", "102429.107500", "102425.267500", "102429.217500", "102425.377500", "102429.325000", "102425.487500", "102429.435000", "102425.595000", "102429.545000", "102425.705000", "102429.655000", "102425.815000", "102429.765000", "102425.925000", "102429.875000", "102426.035000", "102429.985000", "102426.145000", "102430.095000", "102426.255000", "102430.205000", "102426.365000", "102430.312500", "102426.472500", "102430.422500", "102426.582500", "102430.532500", "102426.692500", "102430.642500", "102426.802500", "102430.752500", "102426.912500", "102430.862500", "102427.022500", "102434.832500", "102430.992500", "102434.942500", "102431.102500", "102435.052500", "102431.212500", "102435.160000", "102431.320000", "102435.270000", "102431.430000", "102435.380000", "102431.540000", "102435.490000", "102431.650000", "102435.600000", "102431.760000", "102435.710000", "102431.870000", "102435.820000", "102431.980000", "102435.930000", "102432.090000", "102436.040000", "102432.200000", "102436.147500", "102432.307500", "102436.257500", "102432.417500", "102436.367500", "102432.527500", "102436.477500", "102432.637500", "102436.587500", "102432.747500", "102436.697500", "102432.857500", "102436.807500", "102432.967500", "102436.917500", "102433.077500", "102437.025000", "102433.187500", "102437.135000", "102433.295000", "102437.245000", "102433.405000", "102437.355000", "102433.515000", "102437.465000", "102433.625000", "102437.575000", "102433.735000", "102437.685000", "102433.845000", "102437.795000", "102433.955000", "102437.905000", "102434.065000", "102438.012500", "102434.172500", "102438.122500", "102434.282500", "102438.232500", "102434.392500", "102438.342500", "102434.502500", "102438.452500", "102434.612500", "102438.562500", "102434.722500", "102442.532500", "102438.692500", "102442.642500", "102438.802500", "102442.752500", "102438.912500", "102442.860000", "102439.020000", "102442.970000", "102439.130000", "102443.080000", "102439.240000", "102443.190000", "102439.350000", "102443.300000", "102439.460000", "102443.410000", "102439.570000", "102443.520000", "102439.680000", "102443.630000", "102439.790000", "102443.740000", "102439.900000", "102443.847500", "102440.007500", "102443.957500", "102440.117500", "102444.067500", "102440.227500", "102444.177500", "102440.337500", "102444.287500", "102440.447500", "102444.397500", "102440.557500", "102444.507500", "102440.667500", "102444.617500", "102440.777500", "102444.725000", "102440.887500", "102444.835000", "102440.995000", "102444.945000", "102441.105000", "102445.055000", "102441.215000", "102445.165000", "102441.325000", "102445.275000", "102441.435000", "102445.385000", "102441.545000", "102445.495000", "102441.655000", "102445.605000", "102441.765000", "102445.712500", "102441.872500", "102445.822500", "102441.982500", "102445.932500", "102442.092500", "102446.042500", "102442.202500", "102446.152500", "102442.312500", "102446.262500", "102442.422500", "102450.232500", "102446.392500", "102450.342500", "102446.502500", "102450.452500", "102446.612500", "102450.560000", "102446.720000", "102450.670000", "102446.830000", "102450.780000", "102446.940000", "102450.890000", "102447.050000", "102451.000000", "102447.160000", "102451.110000", "102447.270000", "102451.220000", "102447.380000", "102451.330000", "102447.490000", "102451.440000", "102447.600000", "102451.547500", "102447.707500", "102451.657500", "102447.817500", "102451.767500", "102447.927500", "102451.877500", "102448.037500", "102451.987500", "102448.147500", "102452.097500", "102448.257500", "102452.207500", "102448.367500", "102452.317500", "102448.477500", "102452.425000", "102448.587500", "102452.535000", "102448.695000", "102452.645000", "102448.805000", "102452.755000", "102448.915000", "102452.865000", "102449.025000", "102452.975000", "102449.135000", "102453.085000", "102449.245000", "102453.195000", "102449.355000", "102453.305000", "102449.465000", "102453.412500", "102449.572500", "102453.522500", "102449.682500", "102453.632500", "102449.792500", "102453.742500", "102449.902500", "102453.852500", "102450.012500", "102453.962500", "102450.122500", "102457.932500", "102454.092500", "102458.042500", "102454.202500", "102458.152500", "102454.312500", "102458.260000", "102454.420000", "102458.370000", "102454.530000", "102458.480000", "102454.640000", "102458.590000", "102454.750000", "102458.700000", "102454.860000", "102458.810000", "102454.970000", "102458.920000", "102455.080000", "102459.030000", "102455.190000", "102459.140000", "102455.300000", "102459.247500", "102455.407500", "102459.357500", "102455.517500", "102459.467500", "102455.627500", "102459.577500", "102455.737500", "102459.687500", "102455.847500", "102459.797500", "102455.957500", "102459.907500", "102456.067500", "102500.017500", "102456.177500", "102500.125000", "102456.287500", "102500.235000", "102456.395000", "102500.345000", "102456.505000", "102500.455000", "102456.615000", "102500.565000", "102456.725000", "102500.675000", "102456.835000", "102500.785000", "102456.945000", "102500.895000", "102457.055000", "102501.005000", "102457.165000", "102501.112500", "102457.272500", "102501.222500", "102457.382500", "102501.332500", "102457.492500", "102501.442500", "102457.602500", "102501.552500", "102457.712500", "102501.662500", "102457.822500", "102505.632500", "102501.792500", "102505.742500", "102501.902500", "102505.852500", "102502.012500", "102505.960000", "102502.120000", "102506.070000", "102502.230000", "102506.180000", "102502.340000", "102506.290000", "102502.450000", "102506.400000", "102502.560000", "102506.510000", "102502.670000", "102506.620000", "102502.780000", "102506.730000", "102502.890000", "102506.840000", "102503.000000", "102506.947500", "102503.107500", "102507.057500", "102503.217500", "102507.167500", "102503.327500", "102507.277500", "102503.437500", "102507.387500", "102503.547500", "102507.497500", "102503.657500", "102507.607500", "102503.767500", "102507.717500", "102503.877500", "102507.825000", "102503.987500", "102507.935000", "102504.095000", "102508.045000", "102504.205000", "102508.155000", "102504.315000", "102508.265000", "102504.425000", "102508.375000", "102504.535000", "102508.485000", "102504.645000", "102508.595000", "102504.755000", "102508.705000", "102504.865000", "102508.812500", "102504.972500", "102508.922500", "102505.082500", "102509.032500", "102505.192500", "102509.142500", "102505.302500", "102509.252500", "102505.412500", "102509.362500", "102505.522500", "102513.332500", "102509.492500", "102513.442500", "102509.602500", "102513.552500", "102509.712500", "102513.660000", "102509.820000", "102513.770000", "102509.930000", "102513.880000", "102510.040000", "102513.990000", "102510.150000", "102514.100000", "102510.260000", "102514.210000", "102510.370000", "102514.320000", "102510.480000", "102514.430000", "102510.590000", "102514.540000", "102510.700000", "102514.647500", "102510.807500", "102514.757500", "102510.917500", "102514.867500", "102511.027500", "102514.977500", "102511.137500", "102515.087500", "102511.247500", "102515.197500", "102511.357500", "102515.307500", "102511.467500", "102515.417500", "102511.577500", "102515.525000", "102511.687500", "102515.635000", "102511.795000", "102515.745000", "102511.905000", "102515.855000", "102512.015000", "102515.965000", "102512.125000", "102516.075000", "102512.235000", "102516.185000", "102512.345000", "102516.295000", "102512.455000", "102516.405000", "102512.565000", "102516.512500", "102512.672500", "102516.622500", "102512.782500", "102516.732500", "102512.892500", "102516.842500", "102513.002500", "102516.952500", "102513.112500", "102517.062500", "102513.222500", "102521.032500", "102517.192500", "102521.142500", "102517.302500", "102521.252500", "102517.412500", "102521.360000", "102517.520000", "102521.470000", "102517.630000", "102521.580000", "102517.740000", "102521.690000", "102517.850000", "102521.800000", "102517.960000", "102521.910000", "102518.070000", "102522.020000", "102518.180000", "102522.130000", "102518.290000", "102522.240000", "102518.400000", "102522.347500", "102518.507500", "102522.457500", "102518.617500", "102522.567500", "102518.727500", "102522.677500", "102518.837500", "102522.787500", "102518.947500", "102522.897500",