{
  "AcquisitionMatrixPE": 80,
  "AcquisitionNumber": 1,
  "AcquisitionTime": "08:59:58.502500",
  "BandwidthPerPixelPhaseEncode": 25,
  "BaseResolution": 80,
  "BodyPartExamined": "BRAIN",
  "CoilCombinationMethod": "Sum of Squares",
  "ConsistencyInfo": "N4_VE11C_LATEST_20160120",
  "ConversionSoftware": "dcm2niix",
  "ConversionSoftwareVersion": "v1.0.20220720",
  "DerivedVendorReportedEchoSpacing": 0.0005,
  "DeviceSerialNumber": "66112",
  "DwellTime": 2.7e-06,
  "EchoTime": 0.03,
  "EchoTrainLength": 80,
  "EffectiveEchoSpacing": 0.0005,
  "FlipAngle": 10,
  "HeudiconvVersion": "0.13.1",
  "ImageOrientationPatientDICOM": [0.9882, 0.152672, 0.0123319, -0.148746, 0.937338, 0.315076],
  "ImageOrientationText": "Tra>Cor(18.3)>Sag(-2.1)",
  "ImageType": [
    "ORIGINAL",
    "PRIMARY",
    "M",
    "ND",
    "NORM",
    "MOSAIC"
],
  "ImagingFrequency": 123.252,
  "InPlanePhaseEncodingDirectionDICOM": "COL",
  "InstitutionAddress": "Maynard 3,Hanover,NH,US,03755",
  "InstitutionName": "Dartmouth College - PBS",
  "InstitutionalDepartmentName": "Department",
  "MRAcquisitionType": "2D",
  "MagneticFieldStrength": 3,
  "Manufacturer": "Siemens",
  "ManufacturersModelName": "Prisma",
  "MatrixCoilMode": "SENSE",
  "Modality": "MR",
  "NonlinearGradientCorrection": false,
  "PartialFourier": 1,
  "PatientPosition": "HFS",
  "PercentPhaseFOV": 100,
  "PercentSampling": 100,
  "PhaseEncodingDirection": "j-",
  "PhaseEncodingSteps": 80,
  "PhaseResolution": 1,
  "PixelBandwidth": 2315,
  "ProcedureStepDescription": "dbic^QA",
  "ProtocolName": "func-bold_fa-10",
  "PulseSequenceDetails": "%SiemensSeq%\\ep2d_bold",
  "ReceiveCoilActiveElements": "HEA;HEP",
  "ReceiveCoilName": "Head_32",
  "ReconMatrixPE": 80,
  "RepetitionTime": 2,
  "SAR": 0.0138465,
  "ScanOptions": "FS",
  "ScanningSequence": "EP",
  "SequenceName": "*epfid2d1_80",
  "SequenceVariant": "SK",
  "SeriesDescription": "func-bold_fa-10",
  "SeriesNumber": 10,
  "ShimSetting": [4150, -7699, -7501, 289, -46, -45, -81, 91],
  "SliceThickness": 3.5,
  "SliceTiming": [0.99, 0, 1.0575, 0.0675, 1.1225, 0.1325, 1.1875, 0.1975, 1.255, 0.265, 1.32, 0.33, 1.3875, 0.3975, 1.4525, 0.4625, 1.5175, 0.5275, 1.585, 0.595, 1.65, 0.66, 1.7175, 0.7275, 1.7825, 0.7925, 1.8475, 0.8575, 1.915, 0.925],
  "SoftwareVersions": "syngo MR E11",
  "SpacingBetweenSlices": 3.99,
  "StationName": "AWP66112",
  "TotalReadoutTime": 0.0395,
  "TxRefAmp": 222.441,
  "dcmmeta_affine": [
    [-2.964600086212158, -0.44623681902885437, -0.14581024646759033, 139.33474731445312],
    [-0.45801499485969543, 2.8120133876800537, 1.2496362924575806, -97.20979309082031],
    [0.03699583187699318, -0.9452268481254578, 3.7864561080932617, -15.414081573486328],
    [0.0, 0.0, 0.0, 1.0]
],
  "dcmmeta_reorient_transform": [
    [0.0, -1.0, 0.0, 79.0],
    [1.0, 0.0, 0.0, 0.0],
    [0.0, 0.0, 1.0, 0.0],
    [0.0, 0.0, 0.0, 1.0]
],
  "dcmmeta_shape": [80, 80, 30, 200],
  "dcmmeta_slice_dim": 2,
  "dcmmeta_version": 0.6,
  "global": {
    "const": {
      "AccessionNumber": "qa",
      "AcquisitionMatrix": [80, 0, 0, 80],
      "AngioFlag": "N",
      "BitsAllocated": 16,
      "BitsStored": 12,
      "BodyPartExamined": "BRAIN",
      "Columns": 480,
      "EchoNumbers": 1,
      "EchoTime": 30.0,
      "EchoTrainLength": 80,
      "FlipAngle": 10.0,
      "HighBit": 11,
      "ImageOrientationPatient": [0.98820002301133, 0.15267166622394, 0.01233194440493, -0.1487456092136, 0.93733777182725, 0.3150756182976],
      "ImagePositionPatient": [-607.75467968913, -778.94492320066, -286.53154084895],
      "ImageType": [
        "ORIGINAL",
        "PRIMARY",
        "M",
        "ND",
        "NORM",
        "MOSAIC"
],
      "ImagedNucleus": "1H",
      "ImagingFrequency": 123.252375,
      "InPlanePhaseEncodingDirection": "COL",
      "MRAcquisitionType": "2D",
      "MagneticFieldStrength": 3.0,
      "Manufacturer": "SIEMENS",
      "ManufacturerModelName": "Prisma",
      "Modality": "MR",
      "NumberOfAverages": 1.0,
      "NumberOfPhaseEncodingSteps": 80,
      "PercentPhaseFieldOfView": 100.0,
      "PercentSampling": 100.0,
      "PerformedProcedureStepStartTime": "083544.712000",
      "PhotometricInterpretation": "MONOCHROME2",
      "PixelBandwidth": 2315.0,
      "PixelRepresentation": 0,
      "PixelSpacing": [3.0, 3.0],
      "ProtocolName": "func-bold_fa-10",
      "RepetitionTime": 2000.0,
      "Rows": 480,
      "SAR": 0.01384649231485,
      "SamplesPerPixel": 1,
      "ScanOptions": "FS",
      "ScanningSequence": "EP",
      "SequenceName": "*epfid2d1_80",
      "SequenceVariant": "SK",
      "SeriesDescription": "func-bold_fa-10",
      "SeriesNumber": 10,
      "SeriesTime": "090055.065000",
      "SliceLocation": -50.164927039121,
      "SliceThickness": 3.5,
      "SmallestImagePixelValue": 0,
      "SoftwareVersions": "syngo MR E11",
      "SpacingBetweenSlices": 3.9900000795521,
      "SpecificCharacterSet": "ISO_IR 100",
      "StudyID": "17",
      "StudyTime": "083544.590000",
      "TransmitCoilName": "Body",
      "VariableFlipAngleFlag": "N",
      "WindowCenterWidthExplanation": "Algo1",
      "dBdt": 0.0},
    "slices": {}
  },
  "time": {
    "samples": {
      "AcquisitionNumber": [1, 2, 3, 4, 5, 6, 7, 8, 9, 10, 11, 12, 13, 14, 15, 16, 17, 18, 19, 20, 21, 22, 23, 24, 25, 26, 27, 28, 29, 30, 31, 32, 33, 34, 35, 36, 37, 38, 39, 40, 41, 42, 43, 44, 45, 46, 47, 48, 49, 50, 51, 52, 53, 54, 55, 56, 57, 58, 59, 60, 61, 62, 63, 64, 65, 66, 67, 68, 69, 70, 71, 72, 73, 74, 75, 76, 77, 78, 79, 80, 81, 82, 83, 84, 85, 86, 87, 88, 89, 90, 91, 92, 93, 94, 95, 96, 97, 98, 99, 100, 101, 102, 103, 104, 105, 106, 107, 108, 109, 110, 111, 112, 113, 114, 115, 116, 117, 118, 119, 120, 121, 122, 123, 124, 125, 126, 127, 128, 129, 130, 131, 132, 133, 134, 135, 136, 137, 138, 139, 140, 141, 142, 143, 144, 145, 146, 147, 148, 149, 150, 151, 152, 153, 154, 155, 156, 157, 158, 159, 160, 161, 162, 163, 164, 165, 166, 167, 168, 169, 170, 171, 172, 173, 174, 175, 176, 177, 178, 179, 180, 181, 182, 183, 184, 185, 186, 187, 188, 189, 190, 191, 192, 193, 194, 195, 196, 197, 198, 199, 200],
      "AcquisitionTime": ["085958.502500", "090000.502500", "090002.502500", "090004.502500", "090006.502500", "090008.502500", "090010.502500", "090012.502500", "090014.502500", "090016.502500", "090018.502500", "090020.502500", "090022.502500", "090024.502500", "090026.502500", "090028.502500", "090030.502500", "090032.502500", "090034.502500", "090036.502500", "090038.502500", "090040.502500", "090042.502500", "090044.502500", "090046.502500", "090048.502500", "090050.502500", "090052.502500", "090054.502500", "090056.502500", "090058.502500", "090100.502500", "090102.502500", "090104.502500", "090106.502500", "090108.502500", "090110.502500", "090112.502500", "090114.502500", "090116.502500", "090118.502500", "090120.502500", "090122.502500", "090124.502500", "090126.502500", "090128.502500", "090130.502500", "090132.502500", "090134.502500", "090136.502500", "090138.502500", "090140.502500", "090142.502500", "090144.502500", "090146.502500", "090148.502500", "090150.502500", "090152.502500", "090154.502500", "090156.502500", "090158.502500", "090200.502500", "090202.502500", "090204.502500", "090206.502500", "090208.502500", "090210.502500", "090212.502500", "090214.502500", "090216.502500", "090218.502500", "090220.502500", "090222.502500", "090224.502500", "090226.502500", "090228.502500", "090230.502500", "090232.502500", "090234.502500", "090236.502500", "090238.502500", "090240.502500", "090242.502500", "090244.502500", "090246.502500", "090248.502500", "090250.502500", "090252.502500", "090254.502500", "090256.502500", "090258.502500", "090300.502500", "090302.502500", "090304.502500", "090306.502500", "090308.502500", "090310.502500", "090312.502500", "090314.502500", "090316.502500", "090318.502500", "090320.502500", "090322.502500", "090324.502500", "090326.502500", "090328.502500", "090330.502500", "090332.502500", "090334.502500", "090336.502500", "090338.502500", "090340.502500", "090342.502500", "090344.502500", "090346.502500", "090348.502500", "090350.502500", "090352.502500", "090354.502500", "090356.502500", "090358.502500", "090400.502500", "090402.502500", "090404.502500", "090406.502500", "090408.502500", "090410.502500", "090412.502500", "090414.502500", "090416.502500", "090418.502500", "090420.502500", "090422.502500", "090424.502500", "090426.502500", "090428.502500", "090430.502500", "090432.502500", "090434.502500", "090436.502500", "090438.502500", "090440.502500", "090442.502500", "090444.502500", "090446.502500", "090448.502500", "090450.502500", "090452.502500", "090454.502500", "090456.502500", "090458.502500", "090500.502500", "090502.502500", "090504.502500", "090506.502500", "090508.502500", "090510.502500", "090512.502500", "090514.502500", "090516.502500", "090518.502500", "090520.502500", "090522.502500", "090524.502500", "090526.502500", "090528.502500", "090530.502500", "090532.502500", "090534.502500", "090536.502500", "090538.502500", "090540.502500", "090542.502500", "090544.502500", "090546.502500", "090548.502500", "090550.502500", "090552.502500", "090554.502500", "090556.502500", "090558.502500", "090600.502500", "090602.502500", "090604.502500", "090606.502500", "090608.502500", "090610.502500", "090612.502500", "090614.502500", "090616.502500", "090618.502500", "090620.502500", "090622.502500", "090624.502500", "090626.502500", "090628.502500", "090630.502500", "090632.502500", "090634.502500", "090636.502500"],
      "ContentTime": ["090055.068000", "090055.071000", "090055.074000", "090055.077000", "090055.080000", "090055.083000", "090055.085000", "090055.088000", "090055.090000", "090055.093000", "090055.096000", "090055.098000", "090055.101000", "090055.103000", "090055.106000", "090055.108000", "090055.111000", "090055.113000", "090055.116000", "090055.119000", "090055.121000", "090055.124000", "090055.126000", "090055.136000", "090055.139000", "090055.141000", "090055.144000", "090055.146000", "090135.062000", "090135.065000", "090135.068000", "090135.071000", "090135.073000", "090135.076000", "090135.078000", "090135.081000", "090135.083000", "090135.086000", "090135.088000", "090135.091000", "090135.100000", "090135.103000", "090135.105000", "090135.108000", "090135.110000", "090135.113000", "090135.116000", "090135.118000", "090155.062000", "090155.065000", "090155.068000", "090155.070000", "090155.073000", "090155.075000", "090155.078000", "090155.080000", "090155.083000", "090155.086000", "090235.062000", "090235.065000", "090235.068000", "090235.070000", "090235.073000", "090235.075000", "090235.078000", "090235.080000", "090235.083000", "090235.086000", "090235.088000", "090235.091000", "090235.093000", "090235.096000", "090235.098000", "090235.101000", "090235.103000", "090235.106000", "090235.109000", "090235.111000", "090315.063000", "090315.066000", "090315.069000", "090315.071000", "090315.074000", "090315.076000", "090315.079000", "090315.082000", "090315.084000", "090315.087000", "090315.089000", "090315.092000", "090315.094000", "090315.097000", "090315.100000", "090315.102000", "090315.105000", "090315.107000", "090315.110000", "090315.112000", "090355.062000", "090355.074000", "090355.077000", "090355.079000", "090355.088000", "090355.091000", "090355.093000", "090355.096000", "090355.098000", "090355.101000", "090355.103000", "090355.106000", "090355.108000", "090355.111000", "090355.114000", "090355.116000", "090355.119000", "090355.121000", "090355.124000", "090355.126000", "090435.062000", "090435.065000", "090435.068000", "090435.087000", "090435.090000", "090435.092000", "090435.095000", "090435.098000", "090435.100000", "090435.103000", "090435.105000", "090435.108000", "090435.110000", "090435.113000", "090435.116000", "090435.118000", "090435.121000", "090435.123000", "090435.126000", "090435.128000", "090515.063000", "090515.066000", "090515.069000", "090515.072000", "090515.074000", "090515.077000", "090515.079000", "090515.082000", "090515.084000", "090515.087000", "090515.089000", "090515.092000", "090515.095000", "090515.097000", "090515.100000", "090515.102000", "090515.105000", "090515.107000", "090515.110000", "090515.112000", "090555.064000", "090555.066000", "090555.069000", "090555.072000", "090555.074000", "090555.077000", "090555.079000", "090555.082000", "090555.084000", "090555.087000", "090555.089000", "090555.092000", "090555.095000", "090555.097000", "090555.100000", "090555.102000", "090555.105000", "090555.108000", "090555.110000", "090555.113000", "090635.063000", "090635.065000", "090635.068000", "090635.071000", "090635.073000", "090635.076000", "090635.078000", "090635.081000", "090635.084000", "090635.086000", "090635.089000", "090635.091000", "090635.094000", "090635.096000", "090635.099000", "090635.102000", "090635.104000", "090635.107000", "090635.109000", "090635.112000", "090638.211000", "090638.214000"],
      "InstanceCreationTime": ["090055.068000", "090055.071000", "090055.074000", "090055.077000", "090055.080000", "090055.083000", "090055.085000", "090055.088000", "090055.090000", "090055.093000", "090055.096000", "090055.098000", "090055.101000", "090055.103000", "090055.106000", "090055.108000", "090055.111000", "090055.113000", "090055.116000", "090055.119000", "090055.121000", "090055.124000", "090055.126000", "090055.136000", "090055.139000", "090055.141000", "090055.144000", "090055.146000", "090135.062000", "090135.065000", "090135.068000", "090135.071000", "090135.073000", "090135.076000", "090135.078000", "090135.081000", "090135.083000", "090135.086000", "090135.088000", "090135.091000", "090135.100000", "090135.103000", "090135.105000", "090135.108000", "090135.110000", "090135.113000", "090135.116000", "090135.118000", "090155.062000", "090155.065000", "090155.068000", "090155.070000", "090155.073000", "090155.075000", "090155.078000", "090155.080000", "090155.083000", "090155.086000", "090235.062000", "090235.065000", "090235.068000", "090235.070000", "090235.073000", "090235.075000", "090235.078000", "090235.080000", "090235.083000", "090235.086000", "090235.088000", "090235.091000", "090235.093000", "090235.096000", "090235.098000", "090235.101000", "090235.103000", "090235.106000", "090235.109000", "090235.111000", "090315.063000", "090315.066000", "090315.069000", "090315.071000", "090315.074000", "090315.076000", "090315.079000", "090315.082000", "090315.084000", "090315.087000", "090315.089000", "090315.092000", "090315.094000", "090315.097000", "090315.100000", "090315.102000", "090315.105000", "090315.107000", "090315.110000", "090315.112000", "090355.062000", "090355.074000", "090355.077000", "090355.079000", "090355.088000", "090355.091000", "090355.093000", "090355.096000", "090355.098000", "090355.101000", "090355.103000", "090355.106000", "090355.108000", "090355.111000", "090355.114000", "090355.116000", "090355.119000", "090355.121000", "090355.124000", "090355.126000", "090435.062000", "090435.065000", "090435.068000", "090435.087000", "090435.090000", "090435.092000", "090435.095000", "090435.098000", "090435.100000", "090435.103000", "090435.105000", "090435.108000", "090435.110000", "090435.113000", "090435.116000", "090435.118000", "090435.121000", "090435.123000", "090435.126000", "090435.128000", "090515.063000", "090515.066000", "090515.069000", "090515.072000", "090515.074000", "090515.077000", "090515.079000", "090515.082000", "090515.084000", "090515.087000", "090515.089000", "090515.092000", "090515.095000", "090515.097000", "090515.100000", "090515.102000", "090515.105000", "090515.107000", "090515.110000", "090515.112000", "090555.064000", "090555.066000", "090555.069000", "090555.072000", "090555.074000", "090555.077000", "090555.079000", "090555.082000", "090555.084000", "090555.087000", "090555.089000", "090555.092000", "090555.095000", "090555.097000", "090555.100000", "090555.102000", "090555.105000", "090555.108000", "090555.110000", "090555.113000", "090635.063000", "090635.065000", "090635.068000", "090635.071000", "090635.073000", "090635.076000", "090635.078000", "090635.081000", "090635.084000", "090635.086000", "090635.089000", "090635.091000", "090635.094000", "090635.096000", "090635.099000", "090635.102000", "090635.104000", "090635.107000", "090635.109000", "090635.112000", "090638.211000", "090638.214000"],
      "InstanceNumber": [1, 2, 3, 4, 5, 6, 7, 8, 9, 10, 11, 12, 13, 14, 15, 16, 17, 18, 19, 20, 21, 22, 23, 24, 25, 26, 27, 28, 29, 30, 31, 32, 33, 34, 35, 36, 37, 38, 39, 40, 41, 42, 43, 44, 45, 46, 47, 48, 49, 50, 51, 52, 53, 54, 55, 56, 57, 58, 59, 60, 61, 62, 63, 64, 65, 66, 67, 68, 69, 70, 71, 72, 73, 74, 75, 76, 77, 78, 79, 80, 81, 82, 83, 84, 85, 86, 87, 88, 89, 90, 91, 92, 93, 94, 95, 96, 97, 98, 99, 100, 101, 102, 103, 104, 105, 106, 107, 108, 109, 110, 111, 112, 113, 114, 115, 116, 117, 118, 119, 120, 121, 122, 123, 124, 125, 126, 127, 128, 129, 130, 131, 132, 133, 134, 135, 136, 137, 138, 139, 140, 141, 142, 143, 144, 145, 146, 147, 148, 149, 150, 151, 152, 153, 154, 155, 156, 157, 158, 159, 160, 161, 162, 163, 164, 165, 166, 167, 168, 169, 170, 171, 172, 173, 174, 175, 176, 177, 178, 179, 180, 181, 182, 183, 184, 185, 186, 187, 188, 189, 190, 191, 192, 193, 194, 195, 196, 197, 198, 199, 200],
      "LargestImagePixelValue": [305, 304, 304, 304, 306, 302, 306, 303, 303, 307, 304, 302, 305, 304, 303, 309, 305, 306, 303, 303, 305, 307, 305, 306, 306, 306, 311, 304, 304, 304, 307, 304, 306, 308, 307, 306, 308, 307, 305, 307, 306, 304, 305, 303, 306, 305, 305, 308, 304, 308, 306, 305, 305, 307, 305, 305, 306, 305, 306, 309, 306, 305, 308, 307, 304, 306, 305, 306, 305, 304, 311, 312, 305, 306, 306, 306, 304, 306, 306, 304, 308, 307, 305, 307, 306, 306, 305, 304, 304, 305, 305, 306, 305, 304, 304, 304, 306, 303, 303, 305, 304, 309, 303, 305, 308, 306, 307, 307, 306, 305, 305, 303, 308, 303, 306, 304, 305, 303, 307, 309, 306, 305, 308, 304, 304, 308, 304, 305, 305, 305, 305, 304, 302, 305, 306, 306, 304, 308, 308, 306, 306, 307, 304, 304, 304, 307, 304, 304, 304, 307, 307, 306, 306, 303, 305, 303, 305, 304, 305, 306, 303, 306, 305, 304, 310, 307, 302, 309, 304, 303, 302, 305, 303, 306, 305, 309, 304, 307, 306, 305, 306, 308, 305, 305, 306, 304, 303, 305, 306, 305, 302, 305, 306, 306, 304, 307, 306, 307, 306, 305],
      "WindowCenter": [252.0, 251.0, 251.0, 251.0, 250.0, 250.0, 251.0, 250.0, 250.0, 250.0, 250.0, 250.0, 250.0, 250.0, 250.0, 250.0, 251.0, 250.0, 249.0, 250.0, 251.0, 251.0, 251.0, 251.0, 251.0, 251.0, 251.0, 251.0, 251.0, 251.0, 251.0, 251.0, 251.0, 251.0, 251.0, 250.0, 251.0, 251.0, 251.0, 251.0, 251.0, 251.0, 250.0, 250.0, 250.0, 251.0, 251.0, 251.0, 251.0, 251.0, 251.0, 251.0, 251.0, 251.0, 251.0, 251.0, 251.0, 251.0, 251.0, 251.0, 251.0, 251.0, 251.0, 251.0, 251.0, 251.0, 251.0, 251.0, 251.0, 251.0, 252.0, 252.0, 251.0, 251.0, 251.0, 251.0, 251.0, 251.0, 251.0, 251.0, 251.0, 251.0, 251.0, 251.0, 251.0, 251.0, 251.0, 251.0, 251.0, 251.0, 251.0, 251.0, 251.0, 251.0, 251.0, 251.0, 251.0, 251.0, 251.0, 251.0, 250.0, 251.0, 251.0, 251.0, 251.0, 251.0, 251.0, 251.0, 251.0, 251.0, 251.0, 251.0, 251.0, 251.0, 251.0, 251.0, 251.0, 251.0, 251.0, 251.0, 251.0, 251.0, 250.0, 251.0, 250.0, 251.0, 250.0, 251.0, 251.0, 251.0, 251.0, 251.0, 250.0, 251.0, 251.0, 251.0, 251.0, 251.0, 251.0, 251.0, 251.0, 251.0, 251.0, 251.0, 251.0, 251.0, 251.0, 251.0, 251.0, 251.0, 251.0, 251.0, 251.0, 251.0, 251.0, 251.0, 251.0, 251.0, 251.0, 251.0, 251.0, 251.0, 251.0, 251.0, 252.0, 251.0, 251.0, 251.0, 251.0, 250.0, 251.0, 251.0, 251.0, 251.0, 251.0, 251.0, 251.0, 251.0, 251.0, 251.0, 251.0, 251.0, 251.0, 251.0, 251.0, 251.0, 251.0, 251.0, 251.0, 251.0, 251.0, 251.0, 251.0, 251.0, 251.0, 251.0, 251.0, 251.0, 251.0, 250.0],
      "WindowWidth": [560.0, 559.0, 559.0, 559.0, 557.0, 556.0, 559.0, 557.0, 556.0, 556.0, 556.0, 556.0, 556.0, 556.0, 557.0, 557.0, 559.0, 557.0, 555.0, 556.0, 559.0, 559.0, 559.0, 559.0, 559.0, 559.0, 560.0, 559.0, 559.0, 559.0, 559.0, 559.0, 559.0, 559.0, 559.0, 557.0, 559.0, 559.0, 559.0, 559.0, 559.0, 558.0, 557.0, 556.0, 557.0, 559.0, 559.0, 559.0, 559.0, 559.0, 559.0, 559.0, 559.0, 558.0, 559.0, 559.0, 559.0, 559.0, 559.0, 559.0, 559.0, 559.0, 559.0, 559.0, 559.0, 559.0, 559.0, 558.0, 558.0, 559.0, 560.0, 560.0, 559.0, 559.0, 559.0, 559.0, 558.0, 559.0, 558.0, 559.0, 559.0, 559.0, 559.0, 558.0, 558.0, 559.0, 559.0, 559.0, 559.0, 559.0, 559.0, 558.0, 559.0, 559.0, 558.0, 559.0, 559.0, 559.0, 559.0, 559.0, 558.0, 559.0, 559.0, 559.0, 559.0, 559.0, 559.0, 559.0, 559.0, 559.0, 559.0, 558.0, 559.0, 559.0, 558.0, 558.0, 558.0, 559.0, 559.0, 558.0, 558.0, 559.0, 557.0, 558.0, 557.0, 558.0, 557.0, 559.0, 559.0, 558.0, 558.0, 559.0, 558.0, 558.0, 559.0, 559.0, 558.0, 558.0, 559.0, 559.0, 559.0, 558.0, 558.0, 559.0, 559.0, 558.0, 559.0, 558.0, 559.0, 559.0, 558.0, 558.0, 558.0, 559.0, 558.0, 559.0, 558.0, 558.0, 558.0, 558.0, 558.0, 558.0, 558.0, 558.0, 560.0, 558.0, 559.0, 558.0, 558.0, 558.0, 559.0, 558.0, 559.0, 558.0, 558.0, 559.0, 558.0, 558.0, 559.0, 558.0, 558.0, 558.0, 558.0, 558.0, 558.0, 558.0, 558.0, 558.0, 558.0, 558.0, 558.0, 558.0, 558.0, 559.0, 558.0, 558.0, 558.0, 559.0, 558.0, 558.0]
    },
    "slices": {}
  }
}