{
  "AcquisitionMatrixPE": 80,
  "AcquisitionNumber": 1,
  "AcquisitionTime": "08:53:12.515000",
  "BandwidthPerPixelPhaseEncode": 25,
  "BaseResolution": 80,
  "BodyPartExamined": "BRAIN",
  "CoilCombinationMethod": "Sum of Squares",
  "ConsistencyInfo": "N4_VE11C_LATEST_20160120",
  "ConversionSoftware": "dcm2niix",
  "ConversionSoftwareVersion": "v1.0.20220720",
  "DerivedVendorReportedEchoSpacing": 0.0005,
  "DeviceSerialNumber": "66112",
  "DwellTime": 2.7e-06,
  "EchoTime": 0.03,
  "EchoTrainLength": 80,
  "EffectiveEchoSpacing": 0.0005,
  "FlipAngle": 77,
  "HeudiconvVersion": "0.13.1",
  "ImageOrientationPatientDICOM": [0.9882, 0.152672, 0.0123319, -0.148746, 0.937338, 0.315076],
  "ImageOrientationText": "Tra>Cor(18.3)>Sag(-2.1)",
  "ImageType": [
    "ORIGINAL",
    "PRIMARY",
    "M",
    "ND",
    "NORM",
    "MOSAIC"
],
  "ImagingFrequency": 123.252,
  "InPlanePhaseEncodingDirectionDICOM": "COL",
  "InstitutionAddress": "Maynard 3,Hanover,NH,US,03755",
  "InstitutionName": "Dartmouth College - PBS",
  "InstitutionalDepartmentName": "Department",
  "MRAcquisitionType": "2D",
  "MagneticFieldStrength": 3,
  "Manufacturer": "Siemens",
  "ManufacturersModelName": "Prisma",
  "MatrixCoilMode": "SENSE",
  "Modality": "MR",
  "NonlinearGradientCorrection": false,
  "PartialFourier": 1,
  "PatientPosition": "HFS",
  "PercentPhaseFOV": 100,
  "PercentSampling": 100,
  "PhaseEncodingDirection": "j-",
  "PhaseEncodingSteps": 80,
  "PhaseResolution": 1,
  "PixelBandwidth": 2315,
  "ProcedureStepDescription": "dbic^QA",
  "ProtocolName": "func-bold_fa-77",
  "PulseSequenceDetails": "%SiemensSeq%\\ep2d_bold",
  "ReceiveCoilActiveElements": "HEA;HEP",
  "ReceiveCoilName": "Head_32",
  "ReconMatrixPE": 80,
  "RepetitionTime": 2,
  "SAR": 0.051618,
  "ScanOptions": "FS",
  "ScanningSequence": "EP",
  "SequenceName": "*epfid2d1_80",
  "SequenceVariant": "SK",
  "SeriesDescription": "func-bold_fa-77",
  "SeriesNumber": 8,
  "ShimSetting": [4150, -7699, -7501, 289, -46, -45, -81, 91],
  "SliceThickness": 3.5,
  "SliceTiming": [0.99, 0, 1.055, 0.065, 1.1225, 0.1325, 1.1875, 0.1975, 1.255, 0.265, 1.32, 0.33, 1.385, 0.395, 1.4525, 0.4625, 1.5175, 0.5275, 1.5825, 0.595, 1.65, 0.66, 1.715, 0.725, 1.7825, 0.7925, 1.8475, 0.8575, 1.9125, 0.925],
  "SoftwareVersions": "syngo MR E11",
  "SpacingBetweenSlices": 3.99,
  "StationName": "AWP66112",
  "TotalReadoutTime": 0.0395,
  "TxRefAmp": 222.441,
  "dcmmeta_affine": [
    [-2.964600086212158, -0.44623681902885437, -0.14581024646759033, 139.33474731445312],
    [-0.45801499485969543, 2.8120133876800537, 1.2496362924575806, -97.20979309082031],
    [0.03699583187699318, -0.9452268481254578, 3.7864561080932617, -15.414081573486328],
    [0.0, 0.0, 0.0, 1.0]
],
  "dcmmeta_reorient_transform": [
    [0.0, -1.0, 0.0, 79.0],
    [1.0, 0.0, 0.0, 0.0],
    [0.0, 0.0, 1.0, 0.0],
    [0.0, 0.0, 0.0, 1.0]
],
  "dcmmeta_shape": [80, 80, 30, 200],
  "dcmmeta_slice_dim": 2,
  "dcmmeta_version": 0.6,
  "global": {
    "const": {
      "AccessionNumber": "qa",
      "AcquisitionMatrix": [80, 0, 0, 80],
      "AngioFlag": "N",
      "BitsAllocated": 16,
      "BitsStored": 12,
      "BodyPartExamined": "BRAIN",
      "Columns": 480,
      "EchoNumbers": 1,
      "EchoTime": 30.0,
      "EchoTrainLength": 80,
      "FlipAngle": 77.0,
      "HighBit": 11,
      "ImageOrientationPatient": [0.98820002301133, 0.15267166622394, 0.01233194440493, -0.1487456092136, 0.93733777182725, 0.3150756182976],
      "ImagePositionPatient": [-607.75467968913, -778.94492320066, -286.53154084895],
      "ImageType": [
        "ORIGINAL",
        "PRIMARY",
        "M",
        "ND",
        "NORM",
        "MOSAIC"
],
      "ImagedNucleus": "1H",
      "ImagingFrequency": 123.252374,
      "InPlanePhaseEncodingDirection": "COL",
      "MRAcquisitionType": "2D",
      "MagneticFieldStrength": 3.0,
      "Manufacturer": "SIEMENS",
      "ManufacturerModelName": "Prisma",
      "Modality": "MR",
      "NumberOfAverages": 1.0,
      "NumberOfPhaseEncodingSteps": 80,
      "PercentPhaseFieldOfView": 100.0,
      "PercentSampling": 100.0,
      "PerformedProcedureStepStartTime": "083544.712000",
      "PhotometricInterpretation": "MONOCHROME2",
      "PixelBandwidth": 2315.0,
      "PixelRepresentation": 0,
      "PixelSpacing": [3.0, 3.0],
      "ProtocolName": "func-bold_fa-77",
      "RepetitionTime": 2000.0,
      "Rows": 480,
      "SAR": 0.05161803793458,
      "SamplesPerPixel": 1,
      "ScanOptions": "FS",
      "ScanningSequence": "EP",
      "SequenceName": "*epfid2d1_80",
      "SequenceVariant": "SK",
      "SeriesDescription": "func-bold_fa-77",
      "SeriesNumber": 8,
      "SeriesTime": "085354.995000",
      "SliceLocation": -50.164927039121,
      "SliceThickness": 3.5,
      "SmallestImagePixelValue": 0,
      "SoftwareVersions": "syngo MR E11",
      "SpacingBetweenSlices": 3.9900000795521,
      "SpecificCharacterSet": "ISO_IR 100",
      "StudyID": "17",
      "StudyTime": "083544.590000",
      "TransmitCoilName": "Body",
      "VariableFlipAngleFlag": "N",
      "WindowCenterWidthExplanation": "Algo1",
      "dBdt": 0.0},
    "slices": {}
  },
  "time": {
    "samples": {
      "AcquisitionNumber": [1, 2, 3, 4, 5, 6, 7, 8, 9, 10, 11, 12, 13, 14, 15, 16, 17, 18, 19, 20, 21, 22, 23, 24, 25, 26, 27, 28, 29, 30, 31, 32, 33, 34, 35, 36, 37, 38, 39, 40, 41, 42, 43, 44, 45, 46, 47, 48, 49, 50, 51, 52, 53, 54, 55, 56, 57, 58, 59, 60, 61, 62, 63, 64, 65, 66, 67, 68, 69, 70, 71, 72, 73, 74, 75, 76, 77, 78, 79, 80, 81, 82, 83, 84, 85, 86, 87, 88, 89, 90, 91, 92, 93, 94, 95, 96, 97, 98, 99, 100, 101, 102, 103, 104, 105, 106, 107, 108, 109, 110, 111, 112, 113, 114, 115, 116, 117, 118, 119, 120, 121, 122, 123, 124, 125, 126, 127, 128, 129, 130, 131, 132, 133, 134, 135, 136, 137, 138, 139, 140, 141, 142, 143, 144, 145, 146, 147, 148, 149, 150, 151, 152, 153, 154, 155, 156, 157, 158, 159, 160, 161, 162, 163, 164, 165, 166, 167, 168, 169, 170, 171, 172, 173, 174, 175, 176, 177, 178, 179, 180, 181, 182, 183, 184, 185, 186, 187, 188, 189, 190, 191, 192, 193, 194, 195, 196, 197, 198, 199, 200],
      "AcquisitionTime": ["085312.515000", "085314.515000", "085316.515000", "085318.515000", "085320.515000", "085322.515000", "085324.515000", "085326.515000", "085328.515000", "085330.515000", "085332.515000", "085334.515000", "085336.515000", "085338.515000", "085340.515000", "085342.515000", "085344.515000", "085346.515000", "085348.515000", "085350.515000", "085352.515000", "085354.515000", "085356.515000", "085358.515000", "085400.515000", "085402.515000", "085404.515000", "085406.515000", "085408.515000", "085410.515000", "085412.515000", "085414.515000", "085416.515000", "085418.515000", "085420.515000", "085422.515000", "085424.515000", "085426.515000", "085428.515000", "085430.515000", "085432.515000", "085434.515000", "085436.515000", "085438.515000", "085440.515000", "085442.515000", "085444.515000", "085446.515000", "085448.515000", "085450.515000", "085452.515000", "085454.515000", "085456.515000", "085458.515000", "085500.515000", "085502.515000", "085504.515000", "085506.515000", "085508.515000", "085510.515000", "085512.515000", "085514.515000", "085516.515000", "085518.515000", "085520.515000", "085522.515000", "085524.515000", "085526.515000", "085528.515000", "085530.515000", "085532.515000", "085534.515000", "085536.515000", "085538.515000", "085540.515000", "085542.515000", "085544.515000", "085546.515000", "085548.515000", "085550.515000", "085552.515000", "085554.515000", "085556.515000", "085558.515000", "085600.515000", "085602.515000", "085604.515000", "085606.515000", "085608.515000", "085610.515000", "085612.515000", "085614.515000", "085616.515000", "085618.515000", "085620.515000", "085622.515000", "085624.515000", "085626.515000", "085628.515000", "085630.515000", "085632.515000", "085634.515000", "085636.515000", "085638.515000", "085640.515000", "085642.515000", "085644.515000", "085646.515000", "085648.515000", "085650.515000", "085652.515000", "085654.515000", "085656.515000", "085658.515000", "085700.515000", "085702.515000", "085704.515000", "085706.515000", "085708.515000", "085710.515000", "085712.515000", "085714.515000", "085716.515000", "085718.515000", "085720.515000", "085722.515000", "085724.515000", "085726.515000", "085728.515000", "085730.515000", "085732.515000", "085734.515000", "085736.515000", "085738.515000", "085740.515000", "085742.515000", "085744.515000", "085746.515000", "085748.515000", "085750.515000", "085752.515000", "085754.515000", "085756.515000", "085758.515000", "085800.515000", "085802.515000", "085804.515000", "085806.515000", "085808.515000", "085810.515000", "085812.515000", "085814.515000", "085816.515000", "085818.515000", "085820.515000", "085822.515000", "085824.515000", "085826.515000", "085828.515000", "085830.515000", "085832.515000", "085834.515000", "085836.515000", "085838.515000", "085840.515000", "085842.515000", "085844.515000", "085846.515000", "085848.515000", "085850.515000", "085852.515000", "085854.515000", "085856.515000", "085858.515000", "085900.515000", "085902.515000", "085904.515000", "085906.515000", "085908.515000", "085910.515000", "085912.515000", "085914.515000", "085916.515000", "085918.515000", "085920.515000", "085922.515000", "085924.515000", "085926.515000", "085928.515000", "085930.515000", "085932.515000", "085934.515000", "085936.515000", "085938.515000", "085940.515000", "085942.515000", "085944.515000", "085946.515000", "085948.515000", "085950.515000"],
      "ContentTime": ["085354.998000", "085355.003000", "085355.005000", "085355.008000", "085355.016000", "085355.018000", "085355.021000", "085355.024000", "085355.026000", "085355.029000", "085355.031000", "085355.034000", "085355.043000", "085355.046000", "085355.048000", "085355.051000", "085355.054000", "085355.056000", "085355.059000", "085355.061000", "085355.064000", "085434.992000", "085434.996000", "085434.998000", "085435.002000", "085435.004000", "085435.007000", "085435.009000", "085435.012000", "085435.015000", "085435.017000", "085435.020000", "085435.022000", "085435.025000", "085435.027000", "085435.030000", "085435.032000", "085435.035000", "085435.037000", "085435.040000", "085435.043000", "085514.993000", "085514.995000", "085514.998000", "085515.002000", "085515.004000", "085515.007000", "085515.009000", "085515.012000", "085515.014000", "085515.017000", "085515.020000", "085515.022000", "085515.025000", "085515.027000", "085515.030000", "085515.032000", "085515.035000", "085515.047000", "085515.049000", "085515.052000", "085554.994000", "085554.996000", "085555.000000", "085555.003000", "085555.005000", "085555.008000", "085555.010000", "085555.013000", "085555.015000", "085555.018000", "085555.021000", "085555.023000", "085555.026000", "085555.028000", "085555.031000", "085555.033000", "085555.036000", "085555.038000", "085555.041000", "085555.044000", "085634.994000", "085634.996000", "085635.000000", "085635.003000", "085635.005000", "085635.008000", "085635.010000", "085635.013000", "085635.016000", "085635.018000", "085635.021000", "085635.031000", "085635.033000", "085635.036000", "085635.039000", "085635.041000", "085635.044000", "085635.046000", "085635.049000", "085635.051000", "085714.993000", "085714.995000", "085714.998000", "085715.002000", "085715.004000", "085715.007000", "085715.009000", "085715.012000", "085715.019000", "085715.022000", "085715.037000", "085715.039000", "085715.042000", "085715.045000", "085715.047000", "085715.050000", "085715.052000", "085715.055000", "085715.057000", "085715.060000", "085754.993000", "085754.995000", "085754.998000", "085755.002000", "085755.004000", "085755.007000", "085755.010000", "085755.013000", "085755.015000", "085755.018000", "085755.020000", "085755.023000", "085755.026000", "085755.028000", "085755.031000", "085755.034000", "085755.036000", "085755.039000", "085755.041000", "085755.044000", "085834.993000", "085834.996000", "085835.000000", "085835.003000", "085835.005000", "085835.008000", "085835.010000", "085835.013000", "085835.015000", "085835.018000", "085835.021000", "085835.023000", "085835.026000", "085835.028000", "085835.031000", "085835.034000", "085835.036000", "085835.039000", "085835.041000", "085835.044000", "085914.993000", "085914.995000", "085914.998000", "085915.002000", "085915.004000", "085915.007000", "085915.009000", "085915.012000", "085915.014000", "085915.017000", "085915.020000", "085915.022000", "085915.025000", "085915.027000", "085915.030000", "085915.032000", "085915.035000", "085915.038000", "085915.040000", "085915.043000", "085951.822000", "085951.825000", "085951.827000", "085951.830000", "085951.832000", "085951.835000", "085951.838000", "085951.840000", "085951.843000", "085951.845000", "085951.848000", "085951.851000", "085951.861000", "085951.864000", "085951.866000", "085951.869000", "085951.872000", "085951.875000", "085951.879000"],
      "InstanceCreationTime": ["085354.998000", "085355.003000", "085355.005000", "085355.008000", "085355.016000", "085355.018000", "085355.021000", "085355.024000", "085355.026000", "085355.029000", "085355.031000", "085355.034000", "085355.043000", "085355.046000", "085355.048000", "085355.051000", "085355.054000", "085355.056000", "085355.059000", "085355.061000", "085355.064000", "085434.992000", "085434.996000", "085434.998000", "085435.002000", "085435.004000", "085435.007000", "085435.009000", "085435.012000", "085435.015000", "085435.017000", "085435.020000", "085435.022000", "085435.025000", "085435.027000", "085435.030000", "085435.032000", "085435.035000", "085435.037000", "085435.040000", "085435.043000", "085514.993000", "085514.995000", "085514.998000", "085515.002000", "085515.004000", "085515.007000", "085515.009000", "085515.012000", "085515.014000", "085515.017000", "085515.020000", "085515.022000", "085515.025000", "085515.027000", "085515.030000", "085515.032000", "085515.035000", "085515.047000", "085515.049000", "085515.052000", "085554.994000", "085554.996000", "085555.000000", "085555.003000", "085555.005000", "085555.008000", "085555.010000", "085555.013000", "085555.015000", "085555.018000", "085555.021000", "085555.023000", "085555.026000", "085555.028000", "085555.031000", "085555.033000", "085555.036000", "085555.038000", "085555.041000", "085555.044000", "085634.994000", "085634.996000", "085635.000000", "085635.003000", "085635.005000", "085635.008000", "085635.010000", "085635.013000", "085635.016000", "085635.018000", "085635.021000", "085635.031000", "085635.033000", "085635.036000", "085635.039000", "085635.041000", "085635.044000", "085635.046000", "085635.049000", "085635.051000", "085714.993000", "085714.995000", "085714.998000", "085715.002000", "085715.004000", "085715.007000", "085715.009000", "085715.012000", "085715.019000", "085715.022000", "085715.037000", "085715.039000", "085715.042000", "085715.045000", "085715.047000", "085715.050000", "085715.052000", "085715.055000", "085715.057000", "085715.060000", "085754.993000", "085754.995000", "085754.998000", "085755.002000", "085755.004000", "085755.007000", "085755.010000", "085755.013000", "085755.015000", "085755.018000", "085755.020000", "085755.023000", "085755.026000", "085755.028000", "085755.031000", "085755.034000", "085755.036000", "085755.039000", "085755.041000", "085755.044000", "085834.993000", "085834.996000", "085835.000000", "085835.003000", "085835.005000", "085835.008000", "085835.010000", "085835.013000", "085835.015000", "085835.018000", "085835.021000", "085835.023000", "085835.026000", "085835.028000", "085835.031000", "085835.034000", "085835.036000", "085835.039000", "085835.041000", "085835.044000", "085914.993000", "085914.995000", "085914.998000", "085915.002000", "085915.004000", "085915.007000", "085915.009000", "085915.012000", "085915.014000", "085915.017000", "085915.020000", "085915.022000", "085915.025000", "085915.027000", "085915.030000", "085915.032000", "085915.035000", "085915.038000", "085915.040000", "085915.043000", "085951.822000", "085951.825000", "085951.827000", "085951.830000", "085951.832000", "085951.835000", "085951.838000", "085951.840000", "085951.843000", "085951.845000", "085951.848000", "085951.851000", "085951.861000", "085951.864000", "085951.866000", "085951.869000", "085951.872000", "085951.875000", "085951.879000"],
      "InstanceNumber": [1, 2, 3, 4, 5, 6, 7, 8, 9, 10, 11, 12, 13, 14, 15, 16, 17, 18, 19, 20, 21, 22, 23, 24, 25, 26, 27, 28, 29, 30, 31, 32, 33, 34, 35, 36, 37, 38, 39, 40, 41, 42, 43, 44, 45, 46, 47, 48, 49, 50, 51, 52, 53, 54, 55, 56, 57, 58, 59, 60, 61, 62, 63, 64, 65, 66, 67, 68, 69, 70, 71, 72, 73, 74, 75, 76, 77, 78, 79, 80, 81, 82, 83, 84, 85, 86, 87, 88, 89, 90, 91, 92, 93, 94, 95, 96, 97, 98, 99, 100, 101, 102, 103, 104, 105, 106, 107, 108, 109, 110, 111, 112, 113, 114, 115, 116, 117, 118, 119, 120, 121, 122, 123, 124, 125, 126, 127, 128, 129, 130, 131, 132, 133, 134, 135, 136, 137, 138, 139, 140, 141, 142, 143, 144, 145, 146, 147, 148, 149, 150, 151, 152, 153, 154, 155, 156, 157, 158, 159, 160, 161, 162, 163, 164, 165, 166, 167, 168, 169, 170, 171, 172, 173, 174, 175, 176, 177, 178, 179, 180, 181, 182, 183, 184, 185, 186, 187, 188, 189, 190, 191, 192, 193, 194, 195, 196, 197, 198, 199, 200],
      "LargestImagePixelValue": [1753, 1754, 1755, 1754, 1756, 1753, 1754, 1757, 1754, 1752, 1756, 1755, 1756, 1754, 1754, 1757, 1757, 1756, 1756, 1755, 1755, 1756, 1755, 1753, 1753, 1754, 1756, 1752, 1754, 1754, 1754, 1755, 1754, 1754, 1753, 1757, 1753, 1754, 1752, 1752, 1753, 1755, 1755, 1755, 1755, 1755, 1755, 1756, 1756, 1755, 1753, 1755, 1754, 1757, 1755, 1755, 1753, 1754, 1753, 1753, 1755, 1754, 1757, 1754, 1753, 1754, 1755, 1753, 1755, 1754, 1754, 1755, 1750, 1753, 1752, 1755, 1753, 1754, 1751, 1755, 1755, 1754, 1757, 1755, 1752, 1754, 1754, 1756, 1753, 1751, 1752, 1756, 1752, 1754, 1752, 1752, 1753, 1754, 1754, 1751, 1754, 1754, 1755, 1752, 1753, 1756, 1751, 1754, 1754, 1752, 1751, 1752, 1756, 1754, 1753, 1752, 1754, 1754, 1755, 1754, 1756, 1755, 1754, 1755, 1754, 1756, 1754, 1753, 1755, 1755, 1753, 1755, 1754, 1756, 1755, 1753, 1752, 1752, 1757, 1754, 1751, 1754, 1755, 1754, 1756, 1757, 1755, 1754, 1758, 1756, 1757, 1754, 1753, 1753, 1757, 1755, 1754, 1754, 1753, 1755, 1755, 1756, 1755, 1756, 1753, 1755, 1756, 1755, 1754, 1755, 1756, 1754, 1752, 1756, 1754, 1752, 1752, 1754, 1753, 1749, 1755, 1753, 1754, 1756, 1754, 1754, 1755, 1754, 1756, 1753, 1756, 1758, 1750, 1755, 1754, 1754, 1754, 1753, 1755, 1755],
      "WindowCenter": [925.0, 925.0, 925.0, 925.0, 925.0, 925.0, 925.0, 925.0, 925.0, 925.0, 925.0, 925.0, 924.0, 925.0, 925.0, 925.0, 926.0, 925.0, 924.0, 925.0, 925.0, 924.0, 924.0, 924.0, 925.0, 924.0, 924.0, 924.0, 924.0, 924.0, 924.0, 925.0, 925.0, 925.0, 925.0, 925.0, 924.0, 925.0, 924.0, 925.0, 924.0, 924.0, 924.0, 924.0, 925.0, 925.0, 924.0, 924.0, 924.0, 924.0, 925.0, 925.0, 925.0, 925.0, 923.0, 924.0, 924.0, 925.0, 924.0, 925.0, 924.0, 924.0, 924.0, 924.0, 923.0, 924.0, 924.0, 924.0, 924.0, 924.0, 924.0, 924.0, 924.0, 924.0, 924.0, 924.0, 924.0, 924.0, 924.0, 924.0, 924.0, 924.0, 924.0, 925.0, 923.0, 923.0, 924.0, 924.0, 923.0, 923.0, 923.0, 924.0, 923.0, 923.0, 924.0, 923.0, 924.0, 923.0, 924.0, 924.0, 924.0, 924.0, 924.0, 925.0, 923.0, 924.0, 923.0, 924.0, 923.0, 923.0, 923.0, 924.0, 924.0, 924.0, 924.0, 924.0, 924.0, 924.0, 924.0, 924.0, 924.0, 924.0, 923.0, 923.0, 924.0, 924.0, 924.0, 923.0, 923.0, 924.0, 923.0, 925.0, 923.0, 923.0, 923.0, 923.0, 924.0, 923.0, 923.0, 924.0, 924.0, 923.0, 924.0, 923.0, 924.0, 924.0, 924.0, 924.0, 924.0, 924.0, 924.0, 923.0, 923.0, 924.0, 923.0, 925.0, 925.0, 924.0, 923.0, 924.0, 925.0, 923.0, 923.0, 924.0, 923.0, 923.0, 924.0, 924.0, 923.0, 923.0, 924.0, 923.0, 923.0, 924.0, 924.0, 923.0, 923.0, 923.0, 923.0, 922.0, 923.0, 924.0, 923.0, 923.0, 923.0, 924.0, 923.0, 923.0, 922.0, 923.0, 923.0, 923.0, 923.0, 923.0, 923.0, 923.0, 923.0, 923.0, 923.0, 923.0],
      "WindowWidth": [1992.0, 1991.0, 1992.0, 1991.0, 1991.0, 1992.0, 1992.0, 1991.0, 1991.0, 1992.0, 1992.0, 1992.0, 1991.0, 1991.0, 1992.0, 1992.0, 1993.0, 1991.0, 1991.0, 1992.0, 1992.0, 1991.0, 1991.0, 1991.0, 1991.0, 1990.0, 1991.0, 1991.0, 1990.0, 1990.0, 1991.0, 1992.0, 1992.0, 1991.0, 1992.0, 1992.0, 1991.0, 1992.0, 1990.0, 1991.0, 1990.0, 1990.0, 1991.0, 1991.0, 1992.0, 1992.0, 1991.0, 1991.0, 1991.0, 1991.0, 1991.0, 1991.0, 1991.0, 1991.0, 1990.0, 1990.0, 1991.0, 1991.0, 1990.0, 1991.0, 1991.0, 1990.0, 1990.0, 1990.0, 1989.0, 1990.0, 1990.0, 1990.0, 1990.0, 1990.0, 1990.0, 1990.0, 1990.0, 1990.0, 1990.0, 1990.0, 1990.0, 1990.0, 1989.0, 1990.0, 1990.0, 1990.0, 1990.0, 1991.0, 1989.0, 1989.0, 1990.0, 1990.0, 1988.0, 1989.0, 1989.0, 1989.0, 1989.0, 1989.0, 1990.0, 1989.0, 1990.0, 1989.0, 1990.0, 1990.0, 1989.0, 1989.0, 1990.0, 1990.0, 1989.0, 1990.0, 1989.0, 1989.0, 1989.0, 1989.0, 1989.0, 1990.0, 1990.0, 1990.0, 1990.0, 1990.0, 1990.0, 1990.0, 1990.0, 1990.0, 1990.0, 1989.0, 1989.0, 1989.0, 1990.0, 1990.0, 1990.0, 1988.0, 1989.0, 1990.0, 1988.0, 1991.0, 1989.0, 1989.0, 1989.0, 1989.0, 1990.0, 1988.0, 1988.0, 1990.0, 1989.0, 1989.0, 1990.0, 1989.0, 1990.0, 1990.0, 1990.0, 1990.0, 1990.0, 1990.0, 1990.0, 1989.0, 1989.0, 1990.0, 1989.0, 1991.0, 1990.0, 1990.0, 1989.0, 1990.0, 1990.0, 1988.0, 1989.0, 1990.0, 1989.0, 1989.0, 1990.0, 1990.0, 1989.0, 1989.0, 1990.0, 1988.0, 1988.0, 1989.0, 1989.0, 1988.0, 1988.0, 1988.0, 1988.0, 1987.0, 1988.0, 1989.0, 1989.0, 1989.0, 1989.0, 1989.0, 1989.0, 1989.0, 1987.0, 1987.0, 1989.0, 1989.0, 1988.0, 1988.0, 1989.0, 1989.0, 1989.0, 1988.0, 1987.0, 1988.0]
    },
    "slices": {}
  }
}