{
  "AcquisitionMatrixPE": 80,
  "AcquisitionNumber": 1,
  "AcquisitionTime": "08:39:28.200000",
  "BandwidthPerPixelPhaseEncode": 48.077,
  "BaseResolution": 80,
  "BodyPartExamined": "BRAIN",
  "CoilCombinationMethod": "Sum of Squares",
  "ConsistencyInfo": "N4_VE11C_LATEST_20160120",
  "ConversionSoftware": "dcm2niix",
  "ConversionSoftwareVersion": "v1.0.20220720",
  "DerivedVendorReportedEchoSpacing": 0.000519999,
  "DeviceSerialNumber": "66112",
  "DwellTime": 2.7e-06,
  "EchoTime": 0.035,
  "EchoTrainLength": 39,
  "EffectiveEchoSpacing": 0.00026,
  "FlipAngle": 90,
  "HeudiconvVersion": "0.13.1",
  "ImageOrientationPatientDICOM": [0.9882, 0.152672, 0.0123319, -0.148746, 0.937338, 0.315076],
  "ImageOrientationText": "Tra>Cor(18.3)>Sag(-2.1)",
  "ImageType": [
    "ORIGINAL",
    "PRIMARY",
    "M",
    "ND",
    "NORM",
    "MOSAIC"
],
  "ImagingFrequency": 123.252,
  "InPlanePhaseEncodingDirectionDICOM": "COL",
  "InstitutionAddress": "Maynard 3,Hanover,NH,US,03755",
  "InstitutionName": "Dartmouth College - PBS",
  "InstitutionalDepartmentName": "Department",
  "MRAcquisitionType": "2D",
  "MagneticFieldStrength": 3,
  "Manufacturer": "Siemens",
  "ManufacturersModelName": "Prisma",
  "MatrixCoilMode": "GRAPPA",
  "Modality": "MR",
  "NonlinearGradientCorrection": false,
  "ParallelReductionFactorInPlane": 2,
  "PartialFourier": 1,
  "PatientPosition": "HFS",
  "PercentPhaseFOV": 100,
  "PercentSampling": 100,
  "PhaseEncodingDirection": "j-",
  "PhaseEncodingSteps": 79,
  "PhaseResolution": 1,
  "PixelBandwidth": 2315,
  "ProcedureStepDescription": "dbic^QA",
  "ProtocolName": "func-bold_task-rest_acq-p2",
  "PulseSequenceDetails": "%SiemensSeq%\\ep2d_bold",
  "ReceiveCoilActiveElements": "HEA;HEP",
  "ReceiveCoilName": "Head_32",
  "ReconMatrixPE": 80,
  "RefLinesPE": 24,
  "RepetitionTime": 2,
  "SAR": 0.0656843,
  "ScanOptions": "FS",
  "ScanningSequence": "EP",
  "SequenceName": "*epfid2d1_80",
  "SequenceVariant": "SK",
  "SeriesDescription": "func-bold_task-rest_acq-p2",
  "SeriesNumber": 5,
  "ShimSetting": [4150, -7699, -7501, 290, -48, -44, -83, 92],
  "SliceThickness": 3.5,
  "SliceTiming": [0.99, 0, 1.055, 0.065, 1.1225, 0.1325, 1.1875, 0.1975, 1.255, 0.265, 1.32, 0.33, 1.385, 0.395, 1.4525, 0.4625, 1.5175, 0.5275, 1.585, 0.595, 1.65, 0.66, 1.715, 0.725, 1.7825, 0.7925, 1.8475, 0.8575, 1.915, 0.925],
  "SoftwareVersions": "syngo MR E11",
  "SpacingBetweenSlices": 3.99,
  "StationName": "AWP66112",
  "TaskName": "rest",
  "TotalReadoutTime": 0.02054,
  "TxRefAmp": 222.441,
  "dcmmeta_affine": [
    [-2.964600086212158, -0.44623681902885437, -0.14581024646759033, 139.71405029296875],
    [-0.45801499485969543, 2.8120133876800537, 1.2496362924575806, -99.81146240234375],
    [0.03699583187699318, -0.9452268481254578, 3.7864561080932617, -17.236202239990234],
    [0.0, 0.0, 0.0, 1.0]
],
  "dcmmeta_reorient_transform": [
    [0.0, -1.0, 0.0, 79.0],
    [1.0, 0.0, 0.0, 0.0],
    [0.0, 0.0, 1.0, 0.0],
    [0.0, 0.0, 0.0, 1.0]
],
  "dcmmeta_shape": [80, 80, 30, 200],
  "dcmmeta_slice_dim": 2,
  "dcmmeta_version": 0.6,
  "global": {
    "const": {
      "AccessionNumber": "qa",
      "AcquisitionMatrix": [80, 0, 0, 80],
      "AngioFlag": "N",
      "BitsAllocated": 16,
      "BitsStored": 12,
      "BodyPartExamined": "BRAIN",
      "Columns": 480,
      "EchoNumbers": 1,
      "EchoTime": 35.0,
      "EchoTrainLength": 39,
      "FlipAngle": 90.0,
      "HighBit": 11,
      "ImageOrientationPatient": [0.98820002301133, 0.15267166622394, 0.01233194440493, -0.1487456092136, 0.93733777182725, 0.3150756182976],
      "ImagePositionPatient": [-608.133984575, -776.34325531965, -288.35366151545],
      "ImageType": [
        "ORIGINAL",
        "PRIMARY",
        "M",
        "ND",
        "NORM",
        "MOSAIC"
],
      "ImagedNucleus": "1H",
      "ImagingFrequency": 123.252379,
      "InPlanePhaseEncodingDirection": "COL",
      "MRAcquisitionType": "2D",
      "MagneticFieldStrength": 3.0,
      "Manufacturer": "SIEMENS",
      "ManufacturerModelName": "Prisma",
      "Modality": "MR",
      "NumberOfAverages": 1.0,
      "NumberOfPhaseEncodingSteps": 79,
      "PercentPhaseFieldOfView": 100.0,
      "PercentSampling": 100.0,
      "PerformedProcedureStepStartTime": "083544.712000",
      "PhotometricInterpretation": "MONOCHROME2",
      "PixelBandwidth": 2315.0,
      "PixelRepresentation": 0,
      "PixelSpacing": [3.0, 3.0],
      "ProtocolName": "func-bold_task-rest_acq-p2",
      "RepetitionTime": 2000.0,
      "Rows": 480,
      "SAR": 0.06568434598042,
      "SamplesPerPixel": 1,
      "ScanOptions": "FS",
      "ScanningSequence": "EP",
      "SequenceName": "*epfid2d1_80",
      "SequenceVariant": "SK",
      "SeriesDescription": "func-bold_task-rest_acq-p2",
      "SeriesNumber": 5,
      "SeriesTime": "084015.066000",
      "SliceLocation": -52.722777858238,
      "SliceThickness": 3.5,
      "SmallestImagePixelValue": 0,
      "SoftwareVersions": "syngo MR E11",
      "SpacingBetweenSlices": 3.9900000849271,
      "SpecificCharacterSet": "ISO_IR 100",
      "StudyID": "17",
      "StudyTime": "083544.590000",
      "TransmitCoilName": "Body",
      "VariableFlipAngleFlag": "N",
      "WindowCenterWidthExplanation": "Algo1",
      "dBdt": 0.0},
    "slices": {}
  },
  "time": {
    "samples": {
      "AcquisitionNumber": [1, 2, 3, 4, 5, 6, 7, 8, 9, 10, 11, 12, 13, 14, 15, 16, 17, 18, 19, 20, 21, 22, 23, 24, 25, 26, 27, 28, 29, 30, 31, 32, 33, 34, 35, 36, 37, 38, 39, 40, 41, 42, 43, 44, 45, 46, 47, 48, 49, 50, 51, 52, 53, 54, 55, 56, 57, 58, 59, 60, 61, 62, 63, 64, 65, 66, 67, 68, 69, 70, 71, 72, 73, 74, 75, 76, 77, 78, 79, 80, 81, 82, 83, 84, 85, 86, 87, 88, 89, 90, 91, 92, 93, 94, 95, 96, 97, 98, 99, 100, 101, 102, 103, 104, 105, 106, 107, 108, 109, 110, 111, 112, 113, 114, 115, 116, 117, 118, 119, 120, 121, 122, 123, 124, 125, 126, 127, 128, 129, 130, 131, 132, 133, 134, 135, 136, 137, 138, 139, 140, 141, 142, 143, 144, 145, 146, 147, 148, 149, 150, 151, 152, 153, 154, 155, 156, 157, 158, 159, 160, 161, 162, 163, 164, 165, 166, 167, 168, 169, 170, 171, 172, 173, 174, 175, 176, 177, 178, 179, 180, 181, 182, 183, 184, 185, 186, 187, 188, 189, 190, 191, 192, 193, 194, 195, 196, 197, 198, 199, 200],
      "AcquisitionTime": ["083928.200000", "083930.200000", "083932.200000", "083934.200000", "083936.200000", "083938.200000", "083940.200000", "083942.200000", "083944.200000", "083946.200000", "083948.200000", "083950.200000", "083952.200000", "083954.200000", "083956.200000", "083958.200000", "084000.200000", "084002.200000", "084004.200000", "084006.200000", "084008.200000", "084010.200000", "084012.200000", "084014.200000", "084016.200000", "084018.200000", "084020.200000", "084022.200000", "084024.200000", "084026.200000", "084028.200000", "084030.200000", "084032.200000", "084034.200000", "084036.200000", "084038.200000", "084040.200000", "084042.200000", "084044.200000", "084046.200000", "084048.200000", "084050.200000", "084052.200000", "084054.200000", "084056.200000", "084058.200000", "084100.200000", "084102.200000", "084104.200000", "084106.200000", "084108.200000", "084110.200000", "084112.200000", "084114.200000", "084116.200000", "084118.200000", "084120.200000", "084122.200000", "084124.200000", "084126.200000", "084128.200000", "084130.200000", "084132.200000", "084134.200000", "084136.200000", "084138.200000", "084140.200000", "084142.200000", "084144.200000", "084146.200000", "084148.200000", "084150.200000", "084152.200000", "084154.200000", "084156.200000", "084158.200000", "084200.200000", "084202.200000", "084204.200000", "084206.200000", "084208.200000", "084210.200000", "084212.200000", "084214.200000", "084216.200000", "084218.200000", "084220.200000", "084222.200000", "084224.200000", "084226.200000", "084228.200000", "084230.200000", "084232.200000", "084234.200000", "084236.200000", "084238.200000", "084240.200000", "084242.200000", "084244.200000", "084246.200000", "084248.200000", "084250.200000", "084252.200000", "084254.200000", "084256.200000", "084258.200000", "084300.200000", "084302.200000", "084304.200000", "084306.200000", "084308.200000", "084310.200000", "084312.200000", "084314.200000", "084316.200000", "084318.200000", "084320.200000", "084322.200000", "084324.200000", "084326.200000", "084328.200000", "084330.200000", "084332.200000", "084334.200000", "084336.200000", "084338.200000", "084340.200000", "084342.200000", "084344.200000", "084346.200000", "084348.200000", "084350.200000", "084352.200000", "084354.200000", "084356.200000", "084358.200000", "084400.200000", "084402.200000", "084404.200000", "084406.200000", "084408.200000", "084410.200000", "084412.200000", "084414.200000", "084416.200000", "084418.200000", "084420.200000", "084422.200000", "084424.200000", "084426.200000", "084428.200000", "084430.200000", "084432.200000", "084434.200000", "084436.200000", "084438.200000", "084440.200000", "084442.200000", "084444.200000", "084446.200000", "084448.200000", "084450.200000", "084452.200000", "084454.200000", "084456.200000", "084458.200000", "084500.200000", "084502.200000", "084504.200000", "084506.200000", "084508.200000", "084510.200000", "084512.200000", "084514.200000", "084516.200000", "084518.200000", "084520.200000", "084522.200000", "084524.200000", "084526.200000", "084528.200000", "084530.200000", "084532.200000", "084534.200000", "084536.200000", "084538.200000", "084540.200000", "084542.200000", "084544.200000", "084546.200000", "084548.200000", "084550.200000", "084552.200000", "084554.200000", "084556.200000", "084558.200000", "084600.200000", "084602.200000", "084604.200000", "084606.200000"],
      "ContentTime": ["084015.071000", "084015.084000", "084015.087000", "084015.090000", "084015.092000", "084015.097000", "084015.100000", "084015.102000", "084015.105000", "084015.108000", "084015.110000", "084015.113000", "084015.115000", "084015.118000", "084015.120000", "084015.123000", "084015.126000", "084015.128000", "084015.131000", "084015.134000", "084015.136000", "084015.139000", "084015.142000", "084055.063000", "084055.066000", "084055.069000", "084055.072000", "084055.074000", "084055.077000", "084055.079000", "084055.082000", "084055.085000", "084055.087000", "084055.090000", "084055.092000", "084055.095000", "084055.098000", "084055.100000", "084055.103000", "084055.106000", "084055.109000", "084055.112000", "084055.114000", "084135.063000", "084135.066000", "084135.069000", "084135.072000", "084135.074000", "084135.077000", "084135.079000", "084135.082000", "084135.085000", "084135.087000", "084135.090000", "084135.092000", "084135.095000", "084135.098000", "084135.100000", "084135.103000", "084135.106000", "084135.108000", "084135.111000", "084135.113000", "084215.064000", "084215.067000", "084215.070000", "084215.073000", "084215.075000", "084215.078000", "084215.080000", "084215.083000", "084215.086000", "084215.088000", "084215.091000", "084215.093000", "084215.096000", "084215.098000", "084215.101000", "084215.104000", "084215.106000", "084215.109000", "084215.111000", "084215.114000", "084255.063000", "084255.066000", "084255.069000", "084255.071000", "084255.074000", "084255.077000", "084255.079000", "084255.082000", "084255.085000", "084255.088000", "084255.090000", "084255.093000", "084255.096000", "084255.098000", "084255.101000", "084255.104000", "084255.106000", "084255.109000", "084255.112000", "084255.114000", "084335.063000", "084335.067000", "084335.070000", "084335.073000", "084335.075000", "084335.078000", "084335.081000", "084335.083000", "084335.086000", "084335.089000", "084335.092000", "084335.094000", "084335.097000", "084335.100000", "084335.102000", "084335.105000", "084335.108000", "084335.111000", "084335.113000", "084335.116000", "084415.064000", "084415.067000", "084415.070000", "084415.073000", "084415.075000", "084415.078000", "084415.081000", "084415.083000", "084415.086000", "084415.089000", "084415.091000", "084415.094000", "084415.097000", "084415.099000", "084415.102000", "084415.104000", "084415.107000", "084415.110000", "084415.112000", "084415.115000", "084455.064000", "084455.074000", "084455.077000", "084455.080000", "084455.082000", "084455.085000", "084455.088000", "084455.090000", "084455.093000", "084455.096000", "084455.098000", "084455.105000", "084455.108000", "084455.111000", "084455.113000", "084455.116000", "084455.119000", "084455.121000", "084455.124000", "084455.127000", "084535.063000", "084535.067000", "084535.069000", "084535.072000", "084535.075000", "084535.078000", "084535.080000", "084535.083000", "084535.086000", "084535.089000", "084535.092000", "084535.095000", "084535.097000", "084535.100000", "084535.103000", "084535.106000", "084535.109000", "084535.111000", "084535.114000", "084535.117000", "084607.355000", "084607.359000", "084607.361000", "084607.364000", "084607.367000", "084607.370000", "084607.373000", "084607.376000", "084607.379000", "084607.383000", "084607.392000", "084607.396000", "084607.399000", "084607.404000", "084607.417000", "084607.420000", "084607.425000"],
      "InstanceCreationTime": ["084015.071000", "084015.084000", "084015.087000", "084015.090000", "084015.092000", "084015.097000", "084015.100000", "084015.102000", "084015.105000", "084015.108000", "084015.110000", "084015.113000", "084015.115000", "084015.118000", "084015.120000", "084015.123000", "084015.126000", "084015.128000", "084015.131000", "084015.134000", "084015.136000", "084015.139000", "084015.142000", "084055.063000", "084055.066000", "084055.069000", "084055.072000", "084055.074000", "084055.077000", "084055.079000", "084055.082000", "084055.085000", "084055.087000", "084055.090000", "084055.092000", "084055.095000", "084055.098000", "084055.100000", "084055.103000", "084055.106000", "084055.109000", "084055.112000", "084055.114000", "084135.063000", "084135.066000", "084135.069000", "084135.072000", "084135.074000", "084135.077000", "084135.079000", "084135.082000", "084135.085000", "084135.087000", "084135.090000", "084135.092000", "084135.095000", "084135.098000", "084135.100000", "084135.103000", "084135.106000", "084135.108000", "084135.111000", "084135.113000", "084215.064000", "084215.067000", "084215.070000", "084215.073000", "084215.075000", "084215.078000", "084215.080000", "084215.083000", "084215.086000", "084215.088000", "084215.091000", "084215.093000", "084215.096000", "084215.098000", "084215.101000", "084215.104000", "084215.106000", "084215.109000", "084215.111000", "084215.114000", "084255.063000", "084255.066000", "084255.069000", "084255.071000", "084255.074000", "084255.077000", "084255.079000", "084255.082000", "084255.085000", "084255.088000", "084255.090000", "084255.093000", "084255.096000", "084255.098000", "084255.101000", "084255.104000", "084255.106000", "084255.109000", "084255.112000", "084255.114000", "084335.063000", "084335.067000", "084335.070000", "084335.073000", "084335.075000", "084335.078000", "084335.081000", "084335.083000", "084335.086000", "084335.089000", "084335.092000", "084335.094000", "084335.097000", "084335.100000", "084335.102000", "084335.105000", "084335.108000", "084335.111000", "084335.113000", "084335.116000", "084415.064000", "084415.067000", "084415.070000", "084415.073000", "084415.075000", "084415.078000", "084415.081000", "084415.083000", "084415.086000", "084415.089000", "084415.091000", "084415.094000", "084415.097000", "084415.099000", "084415.102000", "084415.104000", "084415.107000", "084415.110000", "084415.112000", "084415.115000", "084455.064000", "084455.074000", "084455.077000", "084455.080000", "084455.082000", "084455.085000", "084455.088000", "084455.090000", "084455.093000", "084455.096000", "084455.098000", "084455.105000", "084455.108000", "084455.111000", "084455.113000", "084455.116000", "084455.119000", "084455.121000", "084455.124000", "084455.127000", "084535.063000", "084535.067000", "084535.069000", "084535.072000", "084535.075000", "084535.078000", "084535.080000", "084535.083000", "084535.086000", "084535.089000", "084535.092000", "084535.095000", "084535.097000", "084535.100000", "084535.103000", "084535.106000", "084535.109000", "084535.111000", "084535.114000", "084535.117000", "084607.355000", "084607.359000", "084607.361000", "084607.364000", "084607.367000", "084607.370000", "084607.373000", "084607.376000", "084607.379000", "084607.383000", "084607.392000", "084607.396000", "084607.399000", "084607.404000", "084607.417000", "084607.420000", "084607.425000"],
      "InstanceNumber": [1, 2, 3, 4, 5, 6, 7, 8, 9, 10, 11, 12, 13, 14, 15, 16, 17, 18, 19, 20, 21, 22, 23, 24, 25, 26, 27, 28, 29, 30, 31, 32, 33, 34, 35, 36, 37, 38, 39, 40, 41, 42, 43, 44, 45, 46, 47, 48, 49, 50, 51, 52, 53, 54, 55, 56, 57, 58, 59, 60, 61, 62, 63, 64, 65, 66, 67, 68, 69, 70, 71, 72, 73, 74, 75, 76, 77, 78, 79, 80, 81, 82, 83, 84, 85, 86, 87, 88, 89, 90, 91, 92, 93, 94, 95, 96, 97, 98, 99, 100, 101, 102, 103, 104, 105, 106, 107, 108, 109, 110, 111, 112, 113, 114, 115, 116, 117, 118, 119, 120, 121, 122, 123, 124, 125, 126, 127, 128, 129, 130, 131, 132, 133, 134, 135, 136, 137, 138, 139, 140, 141, 142, 143, 144, 145, 146, 147, 148, 149, 150, 151, 152, 153, 154, 155, 156, 157, 158, 159, 160, 161, 162, 163, 164, 165, 166, 167, 168, 169, 170, 171, 172, 173, 174, 175, 176, 177, 178, 179, 180, 181, 182, 183, 184, 185, 186, 187, 188, 189, 190, 191, 192, 193, 194, 195, 196, 197, 198, 199, 200],
      "LargestImagePixelValue": [1788, 1782, 1782, 1781, 1788, 1780, 1790, 1790, 1787, 1789, 1792, 1793, 1786, 1783, 1787, 1785, 1787, 1786, 1786, 1786, 1783, 1789, 1790, 1791, 1790, 1789, 1789, 1792, 1791, 1785, 1792, 1791, 1788, 1787, 1789, 1788, 1788, 1789, 1787, 1786, 1794, 1791, 1793, 1794, 1792, 1789, 1792, 1788, 1792, 1790, 1793, 1785, 1793, 1788, 1793, 1792, 1788, 1786, 1792, 1792, 1788, 1792, 1789, 1787, 1789, 1790, 1788, 1792, 1789, 1785, 1789, 1785, 1790, 1792, 1792, 1783, 1788, 1783, 1794, 1788, 1792, 1785, 1789, 1790, 1788, 1789, 1793, 1790, 1797, 1784, 1787, 1789, 1789, 1788, 1789, 1787, 1791, 1787, 1790, 1786, 1792, 1795, 1791, 1790, 1790, 1784, 1785, 1790, 1786, 1789, 1788, 1789, 1785, 1789, 1794, 1785, 1792, 1786, 1792, 1791, 1787, 1788, 1792, 1790, 1780, 1787, 1791, 1787, 1793, 1787, 1787, 1788, 1786, 1788, 1784, 1784, 1786, 1786, 1789, 1790, 1784, 1787, 1787, 1791, 1785, 1788, 1786, 1789, 1789, 1787, 1790, 1789, 1789, 1788, 1789, 1792, 1784, 1793, 1795, 1789, 1788, 1785, 1791, 1790, 1787, 1787, 1789, 1789, 1785, 1791, 1790, 1787, 1784, 1791, 1782, 1788, 1790, 1785, 1791, 1790, 1793, 1788, 1784, 1791, 1794, 1788, 1788, 1786, 1792, 1790, 1791, 1784, 1790, 1790, 1789, 1791, 1792, 1791, 1787, 1786],
      "WindowCenter": [938.0, 938.0, 938.0, 938.0, 938.0, 938.0, 939.0, 938.0, 938.0, 938.0, 938.0, 938.0, 938.0, 938.0, 938.0, 939.0, 938.0, 938.0, 939.0, 938.0, 938.0, 938.0, 938.0, 937.0, 938.0, 938.0, 938.0, 938.0, 938.0, 938.0, 938.0, 938.0, 938.0, 939.0, 937.0, 938.0, 938.0, 938.0, 938.0, 938.0, 938.0, 938.0, 937.0, 938.0, 938.0, 938.0, 938.0, 938.0, 938.0, 938.0, 938.0, 938.0, 938.0, 938.0, 938.0, 938.0, 938.0, 938.0, 938.0, 938.0, 938.0, 938.0, 938.0, 938.0, 938.0, 938.0, 938.0, 939.0, 938.0, 938.0, 938.0, 938.0, 938.0, 938.0, 938.0, 938.0, 938.0, 938.0, 938.0, 940.0, 938.0, 938.0, 938.0, 938.0, 938.0, 938.0, 938.0, 938.0, 938.0, 938.0, 938.0, 938.0, 938.0, 938.0, 938.0, 937.0, 938.0, 938.0, 937.0, 938.0, 938.0, 938.0, 938.0, 938.0, 937.0, 938.0, 938.0, 937.0, 938.0, 937.0, 938.0, 938.0, 939.0, 938.0, 937.0, 938.0, 938.0, 939.0, 937.0, 937.0, 938.0, 938.0, 937.0, 937.0, 937.0, 938.0, 937.0, 938.0, 938.0, 938.0, 938.0, 938.0, 938.0, 937.0, 938.0, 938.0, 939.0, 938.0, 938.0, 938.0, 937.0, 937.0, 938.0, 938.0, 938.0, 938.0, 938.0, 937.0, 938.0, 938.0, 938.0, 937.0, 937.0, 938.0, 938.0, 938.0, 938.0, 938.0, 938.0, 938.0, 938.0, 938.0, 937.0, 937.0, 937.0, 937.0, 938.0, 937.0, 937.0, 937.0, 937.0, 938.0, 938.0, 937.0, 937.0, 938.0, 937.0, 937.0, 938.0, 938.0, 937.0, 937.0, 937.0, 937.0, 937.0, 937.0, 937.0, 937.0, 939.0, 938.0, 937.0, 937.0, 937.0, 937.0, 937.0, 938.0, 937.0, 938.0, 937.0, 938.0],
      "WindowWidth": [2021.0, 2021.0, 2021.0, 2021.0, 2021.0, 2020.0, 2022.0, 2021.0, 2020.0, 2021.0, 2021.0, 2021.0, 2021.0, 2021.0, 2021.0, 2022.0, 2021.0, 2021.0, 2022.0, 2021.0, 2020.0, 2020.0, 2020.0, 2020.0, 2021.0, 2020.0, 2020.0, 2021.0, 2020.0, 2021.0, 2020.0, 2020.0, 2021.0, 2021.0, 2019.0, 2020.0, 2021.0, 2020.0, 2020.0, 2021.0, 2020.0, 2020.0, 2019.0, 2021.0, 2020.0, 2020.0, 2021.0, 2021.0, 2020.0, 2020.0, 2021.0, 2020.0, 2021.0, 2021.0, 2021.0, 2020.0, 2020.0, 2021.0, 2021.0, 2021.0, 2020.0, 2021.0, 2020.0, 2020.0, 2020.0, 2021.0, 2021.0, 2022.0, 2021.0, 2021.0, 2021.0, 2021.0, 2020.0, 2020.0, 2020.0, 2020.0, 2020.0, 2021.0, 2021.0, 2022.0, 2020.0, 2020.0, 2021.0, 2020.0, 2021.0, 2020.0, 2020.0, 2021.0, 2020.0, 2020.0, 2020.0, 2020.0, 2020.0, 2021.0, 2020.0, 2019.0, 2020.0, 2020.0, 2020.0, 2021.0, 2020.0, 2020.0, 2020.0, 2020.0, 2020.0, 2020.0, 2020.0, 2020.0, 2020.0, 2020.0, 2020.0, 2020.0, 2021.0, 2020.0, 2020.0, 2021.0, 2020.0, 2021.0, 2020.0, 2020.0, 2020.0, 2020.0, 2020.0, 2020.0, 2020.0, 2020.0, 2020.0, 2021.0, 2020.0, 2021.0, 2020.0, 2021.0, 2021.0, 2020.0, 2020.0, 2020.0, 2021.0, 2020.0, 2020.0, 2021.0, 2020.0, 2020.0, 2020.0, 2021.0, 2021.0, 2020.0, 2020.0, 2020.0, 2020.0, 2021.0, 2021.0, 2020.0, 2020.0, 2021.0, 2020.0, 2020.0, 2020.0, 2020.0, 2020.0, 2021.0, 2021.0, 2021.0, 2020.0, 2020.0, 2019.0, 2020.0, 2021.0, 2020.0, 2020.0, 2020.0, 2020.0, 2021.0, 2021.0, 2020.0, 2020.0, 2021.0, 2020.0, 2020.0, 2020.0, 2021.0, 2020.0, 2020.0, 2020.0, 2020.0, 2020.0, 2020.0, 2020.0, 2020.0, 2022.0, 2021.0, 2020.0, 2020.0, 2020.0, 2020.0, 2020.0, 2021.0, 2020.0, 2021.0, 2020.0, 2021.0]
    },
    "slices": {}
  }
}