{
  "AcquisitionMatrixPE": 80,
  "AcquisitionNumber": 1,
  "AcquisitionTime": "08:46:22.160000",
  "BandwidthPerPixelPhaseEncode": 44.643,
  "BaseResolution": 80,
  "BodyPartExamined": "BRAIN",
  "CoilCombinationMethod": "Sum of Squares",
  "ConsistencyInfo": "N4_VE11C_LATEST_20160120",
  "ConversionSoftware": "dcm2niix",
  "ConversionSoftwareVersion": "v1.0.20220720",
  "DerivedVendorReportedEchoSpacing": 0.000559998,
  "DeviceSerialNumber": "66112",
  "DwellTime": 2.7e-06,
  "EchoTime": 0.035,
  "EchoTrainLength": 39,
  "EffectiveEchoSpacing": 0.000279999,
  "FlipAngle": 90,
  "HeudiconvVersion": "0.13.1",
  "ImageOrientationPatientDICOM": [0.9882, 0.152672, 0.0123319, -0.148746, 0.937338, 0.315076],
  "ImageOrientationText": "Tra>Cor(18.3)>Sag(-2.1)",
  "ImageType": [
    "ORIGINAL",
    "PRIMARY",
    "M",
    "ND",
    "NORM",
    "MOSAIC"
],
  "ImagingFrequency": 123.252,
  "InPlanePhaseEncodingDirectionDICOM": "COL",
  "InstitutionAddress": "Maynard 3,Hanover,NH,US,03755",
  "InstitutionName": "Dartmouth College - PBS",
  "InstitutionalDepartmentName": "Department",
  "MRAcquisitionType": "2D",
  "MagneticFieldStrength": 3,
  "Manufacturer": "Siemens",
  "ManufacturersModelName": "Prisma",
  "Modality": "MR",
  "MultibandAccelerationFactor": 4,
  "NonlinearGradientCorrection": false,
  "ParallelReductionFactorInPlane": 2,
  "PartialFourier": 1,
  "PatientPosition": "HFS",
  "PercentPhaseFOV": 100,
  "PercentSampling": 100,
  "PhaseEncodingDirection": "j-",
  "PhaseEncodingSteps": 79,
  "PhaseResolution": 1,
  "PixelBandwidth": 2315,
  "ProcedureStepDescription": "dbic^QA",
  "ProtocolName": "func-bold_task-rest_acq-p2-s4-3.5mm",
  "PulseSequenceDetails": "%SiemensSeq%\\ep2d_bold",
  "ReceiveCoilActiveElements": "HEA;HEP",
  "ReceiveCoilName": "Head_32",
  "ReconMatrixPE": 80,
  "RefLinesPE": 24,
  "RepetitionTime": 2,
  "SAR": 0.0246992,
  "ScanOptions": "FS",
  "ScanningSequence": "EP",
  "SequenceName": "*epfid2d1_80",
  "SequenceVariant": "SK",
  "SeriesDescription": "func-bold_task-rest_acq-p2-s4-3.5mm",
  "SeriesNumber": 7,
  "ShimSetting": [4150, -7699, -7501, 289, -47, -48, -81, 90],
  "SliceThickness": 3.5,
  "SliceTiming": [1.485, 0, 0.99, 0.2475, 1.2375, 0.7425, 1.7325, 0.495, 1.485, 0, 0.99, 0.2475, 1.2375, 0.7425, 1.7325, 0.495, 1.485, 0, 0.99, 0.2475, 1.2375, 0.7425, 1.7325, 0.495, 1.485, 0, 0.99, 0.2475, 1.2375, 0.7425, 1.7325, 0.495],
  "SoftwareVersions": "syngo MR E11",
  "SpacingBetweenSlices": 3.99,
  "StationName": "AWP66112",
  "TaskName": "rest",
  "TotalReadoutTime": 0.0221199,
  "TxRefAmp": 222.441,
  "dcmmeta_affine": [
    [-2.964600086212158, -0.44623681902885437, -0.14581024646759033, 139.85986328125],
    [-0.45801499485969543, 2.8120133876800537, 1.2496362924575806, -101.06109619140625],
    [0.03699583187699318, -0.9452268481254578, 3.7864558696746826, -21.022659301757812],
    [0.0, 0.0, 0.0, 1.0]
],
  "dcmmeta_reorient_transform": [
    [0.0, -1.0, 0.0, 79.0],
    [1.0, 0.0, 0.0, 0.0],
    [0.0, 0.0, 1.0, 0.0],
    [0.0, 0.0, 0.0, 1.0]
],
  "dcmmeta_shape": [80, 80, 32, 200],
  "dcmmeta_slice_dim": 2,
  "dcmmeta_version": 0.6,
  "global": {
    "const": {
      "AccessionNumber": "qa",
      "AcquisitionMatrix": [80, 0, 0, 80],
      "AngioFlag": "N",
      "BitsAllocated": 16,
      "BitsStored": 12,
      "BodyPartExamined": "BRAIN",
      "Columns": 480,
      "EchoNumbers": 1,
      "EchoTime": 35.0,
      "EchoTrainLength": 39,
      "FlipAngle": 90.0,
      "HighBit": 11,
      "ImageOrientationPatient": [0.98820002301133, 0.15267166622394, 0.01233194440493, -0.1487456092136, 0.93733777182725, 0.3150756182976],
      "ImagePositionPatient": [-608.27979470226, -775.09361962324, -292.14011857722],
      "ImageType": [
        "ORIGINAL",
        "PRIMARY",
        "M",
        "ND",
        "NORM",
        "MOSAIC"
],
      "ImagedNucleus": "1H",
      "ImagingFrequency": 123.252379,
      "InPlanePhaseEncodingDirection": "COL",
      "MRAcquisitionType": "2D",
      "MagneticFieldStrength": 3.0,
      "Manufacturer": "SIEMENS",
      "ManufacturerModelName": "Prisma",
      "Modality": "MR",
      "NumberOfAverages": 1.0,
      "NumberOfPhaseEncodingSteps": 79,
      "PercentPhaseFieldOfView": 100.0,
      "PercentSampling": 100.0,
      "PerformedProcedureStepStartTime": "083544.712000",
      "PhotometricInterpretation": "MONOCHROME2",
      "PixelBandwidth": 2315.0,
      "PixelRepresentation": 0,
      "PixelSpacing": [3.0, 3.0],
      "ProtocolName": "func-bold_task-rest_acq-p2-s4-3.5mm",
      "RepetitionTime": 2000.0,
      "Rows": 480,
      "SAR": 0.02469922698209,
      "SamplesPerPixel": 1,
      "ScanOptions": "FS",
      "ScanningSequence": "EP",
      "SequenceName": "*epfid2d1_80",
      "SequenceVariant": "SK",
      "SeriesDescription": "func-bold_task-rest_acq-p2-s4-3.5mm",
      "SeriesNumber": 7,
      "SeriesTime": "084715.135000",
      "SliceLocation": -56.712778741392,
      "SliceThickness": 3.5,
      "SmallestImagePixelValue": 0,
      "SoftwareVersions": "syngo MR E11",
      "SpacingBetweenSlices": 3.9900000197888,
      "SpecificCharacterSet": "ISO_IR 100",
      "StudyID": "17",
      "StudyTime": "083544.590000",
      "TransmitCoilName": "Body",
      "VariableFlipAngleFlag": "N",
      "WindowCenterWidthExplanation": "Algo1",
      "dBdt": 0.0},
    "slices": {}
  },
  "time": {
    "samples": {
      "AcquisitionNumber": [1, 2, 3, 4, 5, 6, 7, 8, 9, 10, 11, 12, 13, 14, 15, 16, 17, 18, 19, 20, 21, 22, 23, 24, 25, 26, 27, 28, 29, 30, 31, 32, 33, 34, 35, 36, 37, 38, 39, 40, 41, 42, 43, 44, 45, 46, 47, 48, 49, 50, 51, 52, 53, 54, 55, 56, 57, 58, 59, 60, 61, 62, 63, 64, 65, 66, 67, 68, 69, 70, 71, 72, 73, 74, 75, 76, 77, 78, 79, 80, 81, 82, 83, 84, 85, 86, 87, 88, 89, 90, 91, 92, 93, 94, 95, 96, 97, 98, 99, 100, 101, 102, 103, 104, 105, 106, 107, 108, 109, 110, 111, 112, 113, 114, 115, 116, 117, 118, 119, 120, 121, 122, 123, 124, 125, 126, 127, 128, 129, 130, 131, 132, 133, 134, 135, 136, 137, 138, 139, 140, 141, 142, 143, 144, 145, 146, 147, 148, 149, 150, 151, 152, 153, 154, 155, 156, 157, 158, 159, 160, 161, 162, 163, 164, 165, 166, 167, 168, 169, 170, 171, 172, 173, 174, 175, 176, 177, 178, 179, 180, 181, 182, 183, 184, 185, 186, 187, 188, 189, 190, 191, 192, 193, 194, 195, 196, 197, 198, 199, 200],
      "AcquisitionTime": ["084622.160000", "084624.160000", "084626.160000", "084628.160000", "084630.160000", "084632.160000", "084634.160000", "084636.160000", "084638.160000", "084640.160000", "084642.160000", "084644.160000", "084646.160000", "084648.160000", "084650.160000", "084652.160000", "084654.160000", "084656.160000", "084658.160000", "084700.160000", "084702.160000", "084704.160000", "084706.160000", "084708.160000", "084710.160000", "084712.160000", "084714.160000", "084716.160000", "084718.160000", "084720.160000", "084722.160000", "084724.160000", "084726.160000", "084728.160000", "084730.160000", "084732.160000", "084734.160000", "084736.160000", "084738.160000", "084740.160000", "084742.160000", "084744.160000", "084746.160000", "084748.160000", "084750.160000", "084752.160000", "084754.160000", "084756.160000", "084758.160000", "084800.160000", "084802.160000", "084804.160000", "084806.160000", "084808.160000", "084810.160000", "084812.160000", "084814.160000", "084816.160000", "084818.160000", "084820.160000", "084822.160000", "084824.160000", "084826.160000", "084828.160000", "084830.160000", "084832.160000", "084834.160000", "084836.160000", "084838.160000", "084840.160000", "084842.160000", "084844.160000", "084846.160000", "084848.160000", "084850.160000", "084852.160000", "084854.160000", "084856.160000", "084858.160000", "084900.160000", "084902.160000", "084904.160000", "084906.160000", "084908.160000", "084910.160000", "084912.160000", "084914.160000", "084916.160000", "084918.160000", "084920.160000", "084922.160000", "084924.160000", "084926.160000", "084928.160000", "084930.160000", "084932.160000", "084934.160000", "084936.160000", "084938.160000", "084940.160000", "084942.160000", "084944.160000", "084946.160000", "084948.160000", "084950.160000", "084952.160000", "084954.160000", "084956.160000", "084958.160000", "085000.160000", "085002.160000", "085004.160000", "085006.160000", "085008.160000", "085010.160000", "085012.160000", "085014.160000", "085016.160000", "085018.160000", "085020.160000", "085022.160000", "085024.160000", "085026.160000", "085028.160000", "085030.160000", "085032.160000", "085034.160000", "085036.160000", "085038.160000", "085040.160000", "085042.160000", "085044.160000", "085046.160000", "085048.160000", "085050.160000", "085052.160000", "085054.160000", "085056.160000", "085058.160000", "085100.160000", "085102.160000", "085104.160000", "085106.160000", "085108.160000", "085110.160000", "085112.160000", "085114.160000", "085116.160000", "085118.160000", "085120.160000", "085122.160000", "085124.160000", "085126.160000", "085128.160000", "085130.160000", "085132.160000", "085134.160000", "085136.160000", "085138.160000", "085140.160000", "085142.160000", "085144.160000", "085146.160000", "085148.160000", "085150.160000", "085152.160000", "085154.160000", "085156.160000", "085158.160000", "085200.160000", "085202.160000", "085204.160000", "085206.160000", "085208.160000", "085210.160000", "085212.160000", "085214.160000", "085216.160000", "085218.160000", "085220.160000", "085222.160000", "085224.160000", "085226.160000", "085228.160000", "085230.160000", "085232.160000", "085234.160000", "085236.160000", "085238.160000", "085240.160000", "085242.160000", "085244.160000", "085246.160000", "085248.160000", "085250.160000", "085252.160000", "085254.160000", "085256.160000", "085258.160000", "085300.160000"],
      "ContentTime": ["084715.140000", "084715.144000", "084715.146000", "084715.149000", "084715.158000", "084715.161000", "084715.163000", "084715.166000", "084715.168000", "084715.171000", "084715.174000", "084715.176000", "084715.179000", "084715.182000", "084715.184000", "084715.187000", "084715.239000", "084715.242000", "084715.245000", "084715.247000", "084715.250000", "084715.253000", "084715.255000", "084715.258000", "084715.260000", "084715.263000", "084755.132000", "084755.135000", "084755.138000", "084755.140000", "084755.143000", "084755.146000", "084755.148000", "084755.151000", "084755.153000", "084755.164000", "084755.167000", "084755.170000", "084755.172000", "084755.175000", "084755.177000", "084755.251000", "084755.254000", "084755.257000", "084755.259000", "084755.262000", "084835.132000", "084835.135000", "084835.138000", "084835.140000", "084835.143000", "084835.145000", "084835.148000", "084835.151000", "084835.153000", "084835.164000", "084835.167000", "084835.169000", "084835.172000", "084835.174000", "084835.177000", "084835.180000", "084835.182000", "084835.185000", "084835.188000", "084835.190000", "084915.133000", "084915.136000", "084915.139000", "084915.141000", "084915.144000", "084915.147000", "084915.149000", "084915.152000", "084915.155000", "084915.157000", "084915.160000", "084915.162000", "084915.165000", "084915.167000", "084915.170000", "084915.173000", "084915.251000", "084915.254000", "084915.257000", "084915.260000", "084955.132000", "084955.135000", "084955.138000", "084955.140000", "084955.143000", "084955.146000", "084955.148000", "084955.151000", "084955.154000", "084955.156000", "084955.159000", "084955.161000", "084955.164000", "084955.166000", "084955.169000", "084955.172000", "084955.174000", "084955.177000", "084955.180000", "084955.182000", "085035.132000", "085035.135000", "085035.138000", "085035.141000", "085035.143000", "085035.146000", "085035.148000", "085035.151000", "085035.154000", "085035.156000", "085035.159000", "085035.161000", "085035.164000", "085035.167000", "085035.169000", "085035.172000", "085035.175000", "085035.177000", "085035.180000", "085035.183000", "085115.133000", "085115.136000", "085115.139000", "085115.142000", "085115.144000", "085115.147000", "085115.149000", "085115.152000", "085115.155000", "085115.157000", "085115.160000", "085115.162000", "085115.165000", "085115.168000", "085115.170000", "085115.173000", "085115.176000", "085115.185000", "085115.188000", "085115.191000", "085155.133000", "085155.136000", "085155.139000", "085155.142000", "085155.144000", "085155.147000", "085155.150000", "085155.152000", "085155.155000", "085155.157000", "085155.160000", "085155.163000", "085155.165000", "085155.168000", "085155.170000", "085155.173000", "085155.176000", "085155.178000", "085155.181000", "085155.184000", "085235.132000", "085235.135000", "085235.138000", "085235.140000", "085235.159000", "085235.161000", "085235.164000", "085235.167000", "085235.169000", "085235.172000", "085235.224000", "085235.227000", "085235.230000", "085235.232000", "085235.235000", "085235.237000", "085235.240000", "085235.243000", "085235.245000", "085235.248000", "085301.476000", "085301.479000", "085301.482000", "085301.485000", "085301.488000", "085301.490000", "085301.493000", "085301.496000", "085301.498000", "085301.501000", "085301.504000", "085301.507000", "085301.511000", "085301.514000"],
      "InstanceCreationTime": ["084715.140000", "084715.144000", "084715.146000", "084715.149000", "084715.158000", "084715.161000", "084715.163000", "084715.166000", "084715.168000", "084715.171000", "084715.174000", "084715.176000", "084715.179000", "084715.182000", "084715.184000", "084715.187000", "084715.239000", "084715.242000", "084715.245000", "084715.247000", "084715.250000", "084715.253000", "084715.255000", "084715.258000", "084715.260000", "084715.263000", "084755.132000", "084755.135000", "084755.138000", "084755.140000", "084755.143000", "084755.146000", "084755.148000", "084755.151000", "084755.153000", "084755.164000", "084755.167000", "084755.170000", "084755.172000", "084755.175000", "084755.177000", "084755.251000", "084755.254000", "084755.257000", "084755.259000", "084755.262000", "084835.132000", "084835.135000", "084835.138000", "084835.140000", "084835.143000", "084835.145000", "084835.148000", "084835.151000", "084835.153000", "084835.164000", "084835.167000", "084835.169000", "084835.172000", "084835.174000", "084835.177000", "084835.180000", "084835.182000", "084835.185000", "084835.188000", "084835.190000", "084915.133000", "084915.136000", "084915.139000", "084915.141000", "084915.144000", "084915.147000", "084915.149000", "084915.152000", "084915.155000", "084915.157000", "084915.160000", "084915.162000", "084915.165000", "084915.167000", "084915.170000", "084915.173000", "084915.251000", "084915.254000", "084915.257000", "084915.260000", "084955.132000", "084955.135000", "084955.138000", "084955.140000", "084955.143000", "084955.146000", "084955.148000", "084955.151000", "084955.154000", "084955.156000", "084955.159000", "084955.161000", "084955.164000", "084955.166000", "084955.169000", "084955.172000", "084955.174000", "084955.177000", "084955.180000", "084955.182000", "085035.132000", "085035.135000", "085035.138000", "085035.141000", "085035.143000", "085035.146000", "085035.148000", "085035.151000", "085035.154000", "085035.156000", "085035.159000", "085035.161000", "085035.164000", "085035.167000", "085035.169000", "085035.172000", "085035.175000", "085035.177000", "085035.180000", "085035.183000", "085115.133000", "085115.136000", "085115.139000", "085115.142000", "085115.144000", "085115.147000", "085115.149000", "085115.152000", "085115.155000", "085115.157000", "085115.160000", "085115.162000", "085115.165000", "085115.168000", "085115.170000", "085115.173000", "085115.176000", "085115.185000", "085115.188000", "085115.191000", "085155.133000", "085155.136000", "085155.139000", "085155.142000", "085155.144000", "085155.147000", "085155.150000", "085155.152000", "085155.155000", "085155.157000", "085155.160000", "085155.163000", "085155.165000", "085155.168000", "085155.170000", "085155.173000", "085155.176000", "085155.178000", "085155.181000", "085155.184000", "085235.132000", "085235.135000", "085235.138000", "085235.140000", "085235.159000", "085235.161000", "085235.164000", "085235.167000", "085235.169000", "085235.172000", "085235.224000", "085235.227000", "085235.230000", "085235.232000", "085235.235000", "085235.237000", "085235.240000", "085235.243000", "085235.245000", "085235.248000", "085301.476000", "085301.479000", "085301.482000", "085301.485000", "085301.488000", "085301.490000", "085301.493000", "085301.496000", "085301.498000", "085301.501000", "085301.504000", "085301.507000", "085301.511000", "085301.514000"],
      "InstanceNumber": [1, 2, 3, 4, 5, 6, 7, 8, 9, 10, 11, 12, 13, 14, 15, 16, 17, 18, 19, 20, 21, 22, 23, 24, 25, 26, 27, 28, 29, 30, 31, 32, 33, 34, 35, 36, 37, 38, 39, 40, 41, 42, 43, 44, 45, 46, 47, 48, 49, 50, 51, 52, 53, 54, 55, 56, 57, 58, 59, 60, 61, 62, 63, 64, 65, 66, 67, 68, 69, 70, 71, 72, 73, 74, 75, 76, 77, 78, 79, 80, 81, 82, 83, 84, 85, 86, 87, 88, 89, 90, 91, 92, 93, 94, 95, 96, 97, 98, 99, 100, 101, 102, 103, 104, 105, 106, 107, 108, 109, 110, 111, 112, 113, 114, 115, 116, 117, 118, 119, 120, 121, 122, 123, 124, 125, 126, 127, 128, 129, 130, 131, 132, 133, 134, 135, 136, 137, 138, 139, 140, 141, 142, 143, 144, 145, 146, 147, 148, 149, 150, 151, 152, 153, 154, 155, 156, 157, 158, 159, 160, 161, 162, 163, 164, 165, 166, 167, 168, 169, 170, 171, 172, 173, 174, 175, 176, 177, 178, 179, 180, 181, 182, 183, 184, 185, 186, 187, 188, 189, 190, 191, 192, 193, 194, 195, 196, 197, 198, 199, 200],
      "LargestImagePixelValue": [1773, 1778, 1779, 1781, 1769, 1772, 1777, 1778, 1777, 1780, 1773, 1784, 1775, 1780, 1774, 1787, 1777, 1784, 1779, 1775, 1778, 1775, 1782, 1782, 1775, 1775, 1779, 1774, 1777, 1773, 1779, 1779, 1772, 1773, 1776, 1782, 1776, 1776, 1776, 1781, 1775, 1772, 1777, 1780, 1777, 1781, 1775, 1773, 1771, 1783, 1776, 1779, 1780, 1772, 1777, 1779, 1780, 1780, 1776, 1775, 1785, 1777, 1783, 1783, 1779, 1775, 1781, 1774, 1779, 1781, 1776, 1779, 1776, 1782, 1775, 1775, 1777, 1784, 1777, 1778, 1779, 1775, 1778, 1777, 1773, 1784, 1778, 1776, 1777, 1775, 1778, 1772, 1778, 1779, 1775, 1776, 1773, 1776, 1779, 1778, 1774, 1778, 1782, 1781, 1786, 1776, 1776, 1776, 1780, 1778, 1771, 1781, 1781, 1786, 1778, 1778, 1781, 1779, 1778, 1774, 1778, 1778, 1781, 1781, 1782, 1773, 1779, 1787, 1781, 1782, 1780, 1773, 1778, 1781, 1786, 1779, 1778, 1775, 1778, 1778, 1784, 1777, 1773, 1780, 1775, 1772, 1783, 1775, 1777, 1779, 1776, 1784, 1779, 1773, 1776, 1774, 1778, 1778, 1777, 1781, 1782, 1776, 1773, 1776, 1784, 1777, 1776, 1778, 1781, 1779, 1776, 1781, 1777, 1778, 1772, 1784, 1780, 1775, 1773, 1780, 1774, 1776, 1777, 1782, 1782, 1774, 1774, 1780, 1777, 1781, 1775, 1782, 1775, 1776, 1783, 1775, 1783, 1779, 1774, 1775],
      "WindowCenter": [880.0, 880.0, 880.0, 880.0, 880.0, 880.0, 880.0, 880.0, 880.0, 880.0, 880.0, 880.0, 880.0, 880.0, 880.0, 880.0, 880.0, 880.0, 880.0, 880.0, 880.0, 880.0, 880.0, 880.0, 880.0, 880.0, 880.0, 880.0, 880.0, 880.0, 880.0, 880.0, 880.0, 880.0, 880.0, 880.0, 880.0, 880.0, 880.0, 880.0, 880.0, 880.0, 880.0, 880.0, 880.0, 880.0, 880.0, 880.0, 880.0, 880.0, 880.0, 881.0, 880.0, 880.0, 880.0, 880.0, 880.0, 880.0, 880.0, 880.0, 880.0, 880.0, 880.0, 881.0, 880.0, 880.0, 880.0, 880.0, 880.0, 880.0, 881.0, 880.0, 880.0, 880.0, 881.0, 880.0, 880.0, 880.0, 880.0, 880.0, 880.0, 880.0, 880.0, 880.0, 880.0, 880.0, 880.0, 880.0, 880.0, 881.0, 880.0, 880.0, 880.0, 880.0, 880.0, 880.0, 880.0, 880.0, 880.0, 880.0, 880.0, 880.0, 880.0, 880.0, 880.0, 880.0, 880.0, 880.0, 880.0, 880.0, 880.0, 880.0, 880.0, 880.0, 880.0, 880.0, 880.0, 880.0, 880.0, 880.0, 880.0, 880.0, 880.0, 880.0, 880.0, 881.0, 880.0, 880.0, 880.0, 880.0, 880.0, 880.0, 880.0, 880.0, 880.0, 880.0, 880.0, 880.0, 880.0, 880.0, 880.0, 881.0, 880.0, 880.0, 880.0, 880.0, 880.0, 880.0, 880.0, 880.0, 880.0, 881.0, 880.0, 880.0, 880.0, 880.0, 880.0, 880.0, 880.0, 880.0, 880.0, 880.0, 880.0, 880.0, 880.0, 880.0, 880.0, 880.0, 880.0, 880.0, 880.0, 880.0, 880.0, 880.0, 880.0, 880.0, 881.0, 880.0, 880.0, 880.0, 880.0, 880.0, 880.0, 880.0, 880.0, 880.0, 880.0, 880.0, 880.0, 880.0, 880.0, 880.0, 880.0, 880.0, 881.0, 880.0, 880.0, 880.0, 880.0, 880.0],
      "WindowWidth": [1960.0, 1960.0, 1960.0, 1960.0, 1960.0, 1960.0, 1960.0, 1959.0, 1959.0, 1960.0, 1960.0, 1960.0, 1959.0, 1959.0, 1960.0, 1959.0, 1959.0, 1960.0, 1960.0, 1959.0, 1960.0, 1960.0, 1959.0, 1960.0, 1960.0, 1960.0, 1960.0, 1960.0, 1960.0, 1960.0, 1960.0, 1960.0, 1960.0, 1960.0, 1960.0, 1960.0, 1960.0, 1960.0, 1960.0, 1960.0, 1960.0, 1960.0, 1960.0, 1960.0, 1960.0, 1960.0, 1960.0, 1960.0, 1960.0, 1960.0, 1960.0, 1960.0, 1960.0, 1960.0, 1960.0, 1960.0, 1960.0, 1960.0, 1960.0, 1960.0, 1960.0, 1960.0, 1960.0, 1961.0, 1960.0, 1960.0, 1960.0, 1960.0, 1960.0, 1960.0, 1961.0, 1960.0, 1960.0, 1960.0, 1961.0, 1960.0, 1960.0, 1960.0, 1960.0, 1960.0, 1960.0, 1960.0, 1960.0, 1960.0, 1960.0, 1960.0, 1960.0, 1960.0, 1960.0, 1961.0, 1960.0, 1960.0, 1960.0, 1961.0, 1960.0, 1960.0, 1960.0, 1960.0, 1960.0, 1960.0, 1960.0, 1960.0, 1960.0, 1960.0, 1960.0, 1960.0, 1960.0, 1960.0, 1960.0, 1961.0, 1960.0, 1960.0, 1960.0, 1960.0, 1960.0, 1960.0, 1960.0, 1960.0, 1960.0, 1960.0, 1960.0, 1960.0, 1961.0, 1960.0, 1960.0, 1961.0, 1960.0, 1960.0, 1960.0, 1960.0, 1960.0, 1960.0, 1960.0, 1960.0, 1960.0, 1960.0, 1960.0, 1960.0, 1960.0, 1960.0, 1960.0, 1961.0, 1960.0, 1960.0, 1960.0, 1960.0, 1960.0, 1960.0, 1960.0, 1960.0, 1960.0, 1961.0, 1960.0, 1960.0, 1960.0, 1960.0, 1960.0, 1960.0, 1960.0, 1960.0, 1960.0, 1960.0, 1960.0, 1960.0, 1960.0, 1960.0, 1960.0, 1960.0, 1960.0, 1960.0, 1960.0, 1960.0, 1960.0, 1960.0, 1960.0, 1960.0, 1961.0, 1960.0, 1960.0, 1960.0, 1960.0, 1960.0, 1960.0, 1960.0, 1960.0, 1960.0, 1960.0, 1960.0, 1960.0, 1960.0, 1960.0, 1960.0, 1961.0, 1960.0, 1961.0, 1961.0, 1960.0, 1960.0, 1960.0, 1960.0]
    },
    "slices": {}
  }
}