{
  "AcquisitionMatrixPE": 80,
  "AcquisitionNumber": 1,
  "AcquisitionTime": "09:07:11.200000",
  "BandwidthPerPixelPhaseEncode": 48.077,
  "BaseResolution": 80,
  "BodyPartExamined": "BRAIN",
  "CoilCombinationMethod": "Sum of Squares",
  "ConsistencyInfo": "N4_VE11C_LATEST_20160120",
  "ConversionSoftware": "dcm2niix",
  "ConversionSoftwareVersion": "v1.0.20220720",
  "DerivedVendorReportedEchoSpacing": 0.000519999,
  "DeviceSerialNumber": "66112",
  "DwellTime": 2.7e-06,
  "EchoTime": 0.035,
  "EchoTrainLength": 39,
  "EffectiveEchoSpacing": 0.00026,
  "FlipAngle": 90,
  "HeudiconvVersion": "0.13.1",
  "ImageOrientationPatientDICOM": [0.982781, 0.184156, 0.0151204, -0.180197, 0.937111, 0.298919],
  "ImageOrientationText": "Tra>Cor(17.3)>Sag(-2.3)",
  "ImageType": [
    "ORIGINAL",
    "PRIMARY",
    "M",
    "ND",
    "NORM",
    "MOSAIC"
],
  "ImagingFrequency": 123.252,
  "InPlanePhaseEncodingDirectionDICOM": "COL",
  "InstitutionAddress": "Maynard 3,Hanover,NH,US,03755",
  "InstitutionName": "Dartmouth College - PBS",
  "InstitutionalDepartmentName": "Department",
  "MRAcquisitionType": "2D",
  "MagneticFieldStrength": 3,
  "Manufacturer": "Siemens",
  "ManufacturersModelName": "Prisma",
  "MatrixCoilMode": "GRAPPA",
  "Modality": "MR",
  "NonlinearGradientCorrection": false,
  "ParallelReductionFactorInPlane": 2,
  "PartialFourier": 1,
  "PatientPosition": "HFS",
  "PercentPhaseFOV": 100,
  "PercentSampling": 100,
  "PhaseEncodingDirection": "j-",
  "PhaseEncodingSteps": 79,
  "PhaseResolution": 1,
  "PixelBandwidth": 2315,
  "ProcedureStepDescription": "dbic^QA",
  "ProtocolName": "func-bold_task-rest_acq-p2",
  "PulseSequenceDetails": "%SiemensSeq%\\ep2d_bold",
  "ReceiveCoilActiveElements": "HEA;HEP",
  "ReceiveCoilName": "Head_32",
  "ReconMatrixPE": 80,
  "RefLinesPE": 24,
  "RepetitionTime": 2,
  "SAR": 0.0556603,
  "ScanOptions": "FS",
  "ScanningSequence": "EP",
  "SequenceName": "*epfid2d1_80",
  "SequenceVariant": "SK",
  "SeriesDescription": "func-bold_task-rest_acq-p2",
  "SeriesNumber": 5,
  "ShimSetting": [4143, -7699, -7526, 327, -25, -155, -26, 41],
  "SliceThickness": 3.5,
  "SliceTiming": [0.99, 0, 1.055, 0.065, 1.12, 0.13, 1.1875, 0.1975, 1.2525, 0.2625, 1.32, 0.33, 1.385, 0.395, 1.45, 0.46, 1.5175, 0.5275, 1.5825, 0.5925, 1.65, 0.66, 1.715, 0.725, 1.78, 0.79, 1.8475, 0.8575, 1.9125, 0.9225],
  "SoftwareVersions": "syngo MR E11",
  "SpacingBetweenSlices": 3.99,
  "StationName": "AWP66112",
  "TaskName": "rest",
  "TotalReadoutTime": 0.02054,
  "TxRefAmp": 229.223,
  "dcmmeta_affine": [
    [-2.9483423233032227, -0.540590226650238, -0.163103848695755, 149.05126953125],
    [-0.552466630935669, 2.8113319873809814, 1.183022379875183, -102.13844299316406],
    [0.04536122828722, -0.8967580199241638, 3.8070926666259766, -31.742733001708984],
    [0.0, 0.0, 0.0, 1.0]
],
  "dcmmeta_reorient_transform": [
    [0.0, -1.0, 0.0, 79.0],
    [1.0, 0.0, 0.0, 0.0],
    [0.0, 0.0, 1.0, 0.0],
    [0.0, 0.0, 0.0, 1.0]
],
  "dcmmeta_shape": [80, 80, 30, 200],
  "dcmmeta_slice_dim": 2,
  "dcmmeta_version": 0.6,
  "global": {
    "const": {
      "AccessionNumber": "qa",
      "AcquisitionMatrix": [80, 0, 0, 80],
      "AngioFlag": "N",
      "BitsAllocated": 16,
      "BitsStored": 12,
      "BodyPartExamined": "BRAIN",
      "Columns": 480,
      "EchoNumbers": 1,
      "EchoTime": 35.0,
      "EchoTrainLength": 39,
      "FlipAngle": 90.0,
      "HighBit": 11,
      "ImageOrientationPatient": [0.98278080329271, 0.18415554808353, 0.01512040969679, -0.1801967501643, 0.9371106419645, 0.29891934689328],
      "ImagePositionPatient": [-587.8950679656, -792.71649444292, -291.01047258421],
      "ImageType": [
        "ORIGINAL",
        "PRIMARY",
        "M",
        "ND",
        "NORM",
        "MOSAIC"
],
      "ImagedNucleus": "1H",
      "ImagingFrequency": 123.252478,
      "InPlanePhaseEncodingDirection": "COL",
      "MRAcquisitionType": "2D",
      "MagneticFieldStrength": 3.0,
      "Manufacturer": "SIEMENS",
      "ManufacturerModelName": "Prisma",
      "Modality": "MR",
      "NumberOfAverages": 1.0,
      "NumberOfPhaseEncodingSteps": 79,
      "PercentPhaseFieldOfView": 100.0,
      "PercentSampling": 100.0,
      "PerformedProcedureStepStartTime": "090113.396000",
      "PhotometricInterpretation": "MONOCHROME2",
      "PixelBandwidth": 2315.0,
      "PixelRepresentation": 0,
      "PixelSpacing": [3.0, 3.0],
      "ProtocolName": "func-bold_task-rest_acq-p2",
      "RepetitionTime": 2000.0,
      "Rows": 480,
      "SAR": 0.05566028133058,
      "SamplesPerPixel": 1,
      "ScanOptions": "FS",
      "ScanningSequence": "EP",
      "SequenceName": "*epfid2d1_80",
      "SequenceVariant": "SK",
      "SeriesDescription": "func-bold_task-rest_acq-p2",
      "SeriesNumber": 5,
      "SeriesTime": "090752.140000",
      "SliceLocation": -66.664268540664,
      "SliceThickness": 3.5,
      "SmallestImagePixelValue": 0,
      "SoftwareVersions": "syngo MR E11",
      "SpacingBetweenSlices": 3.9899998756429,
      "SpecificCharacterSet": "ISO_IR 100",
      "StudyID": "34",
      "StudyTime": "090113.295000",
      "TransmitCoilName": "Body",
      "VariableFlipAngleFlag": "N",
      "WindowCenterWidthExplanation": "Algo1",
      "dBdt": 0.0},
    "slices": {}
  },
  "time": {
    "samples": {
      "AcquisitionNumber": [1, 2, 3, 4, 5, 6, 7, 8, 9, 10, 11, 12, 13, 14, 15, 16, 17, 18, 19, 20, 21, 22, 23, 24, 25, 26, 27, 28, 29, 30, 31, 32, 33, 34, 35, 36, 37, 38, 39, 40, 41, 42, 43, 44, 45, 46, 47, 48, 49, 50, 51, 52, 53, 54, 55, 56, 57, 58, 59, 60, 61, 62, 63, 64, 65, 66, 67, 68, 69, 70, 71, 72, 73, 74, 75, 76, 77, 78, 79, 80, 81, 82, 83, 84, 85, 86, 87, 88, 89, 90, 91, 92, 93, 94, 95, 96, 97, 98, 99, 100, 101, 102, 103, 104, 105, 106, 107, 108, 109, 110, 111, 112, 113, 114, 115, 116, 117, 118, 119, 120, 121, 122, 123, 124, 125, 126, 127, 128, 129, 130, 131, 132, 133, 134, 135, 136, 137, 138, 139, 140, 141, 142, 143, 144, 145, 146, 147, 148, 149, 150, 151, 152, 153, 154, 155, 156, 157, 158, 159, 160, 161, 162, 163, 164, 165, 166, 167, 168, 169, 170, 171, 172, 173, 174, 175, 176, 177, 178, 179, 180, 181, 182, 183, 184, 185, 186, 187, 188, 189, 190, 191, 192, 193, 194, 195, 196, 197, 198, 199, 200],
      "AcquisitionTime": ["090711.200000", "090713.200000", "090715.200000", "090717.200000", "090719.200000", "090721.200000", "090723.200000", "090725.200000", "090727.200000", "090729.200000", "090731.200000", "090733.200000", "090735.200000", "090737.200000", "090739.200000", "090741.200000", "090743.200000", "090745.200000", "090747.200000", "090749.200000", "090751.200000", "090753.200000", "090755.200000", "090757.200000", "090759.200000", "090801.200000", "090803.200000", "090805.200000", "090807.200000", "090809.200000", "090811.200000", "090813.200000", "090815.200000", "090817.200000", "090819.200000", "090821.200000", "090823.200000", "090825.200000", "090827.200000", "090829.200000", "090831.200000", "090833.200000", "090835.200000", "090837.200000", "090839.200000", "090841.200000", "090843.200000", "090845.200000", "090847.200000", "090849.200000", "090851.200000", "090853.200000", "090855.200000", "090857.200000", "090859.200000", "090901.200000", "090903.200000", "090905.200000", "090907.200000", "090909.200000", "090911.200000", "090913.200000", "090915.200000", "090917.200000", "090919.200000", "090921.200000", "090923.200000", "090925.200000", "090927.200000", "090929.200000", "090931.200000", "090933.200000", "090935.200000", "090937.200000", "090939.200000", "090941.200000", "090943.200000", "090945.200000", "090947.200000", "090949.200000", "090951.200000", "090953.200000", "090955.200000", "090957.200000", "090959.200000", "091001.200000", "091003.200000", "091005.200000", "091007.200000", "091009.200000", "091011.200000", "091013.200000", "091015.200000", "091017.200000", "091019.200000", "091021.200000", "091023.200000", "091025.200000", "091027.200000", "091029.200000", "091031.200000", "091033.200000", "091035.200000", "091037.200000", "091039.200000", "091041.200000", "091043.200000", "091045.200000", "091047.200000", "091049.200000", "091051.200000", "091053.200000", "091055.200000", "091057.200000", "091059.200000", "091101.200000", "091103.200000", "091105.200000", "091107.200000", "091109.200000", "091111.200000", "091113.200000", "091115.200000", "091117.200000", "091119.200000", "091121.200000", "091123.200000", "091125.200000", "091127.200000", "091129.200000", "091131.200000", "091133.200000", "091135.200000", "091137.200000", "091139.200000", "091141.200000", "091143.200000", "091145.200000", "091147.200000", "091149.200000", "091151.200000", "091153.200000", "091155.200000", "091157.200000", "091159.200000", "091201.200000", "091203.200000", "091205.200000", "091207.200000", "091209.200000", "091211.200000", "091213.200000", "091215.200000", "091217.200000", "091219.200000", "091221.200000", "091223.200000", "091225.200000", "091227.200000", "091229.200000", "091231.200000", "091233.200000", "091235.200000", "091237.200000", "091239.200000", "091241.200000", "091243.200000", "091245.200000", "091247.200000", "091249.200000", "091251.200000", "091253.200000", "091255.200000", "091257.200000", "091259.200000", "091301.200000", "091303.200000", "091305.200000", "091307.200000", "091309.200000", "091311.200000", "091313.200000", "091315.200000", "091317.200000", "091319.200000", "091321.200000", "091323.200000", "091325.200000", "091327.200000", "091329.200000", "091331.200000", "091333.200000", "091335.200000", "091337.200000", "091339.200000", "091341.200000", "091343.200000", "091345.200000", "091347.200000", "091349.200000"],
      "ContentTime": ["090752.145000", "090752.149000", "090752.151000", "090752.154000", "090752.157000", "090752.159000", "090752.179000", "090752.181000", "090752.184000", "090752.195000", "090752.198000", "090752.201000", "090752.203000", "090752.206000", "090752.208000", "090752.211000", "090752.214000", "090752.216000", "090752.225000", "090752.228000", "090832.138000", "090832.141000", "090832.144000", "090832.147000", "090832.149000", "090832.152000", "090832.155000", "090832.157000", "090832.160000", "090832.163000", "090832.165000", "090832.168000", "090832.170000", "090832.173000", "090832.176000", "090832.178000", "090832.181000", "090832.184000", "090832.186000", "090832.189000", "090912.137000", "090912.140000", "090912.143000", "090912.151000", "090912.154000", "090912.156000", "090912.159000", "090912.162000", "090912.164000", "090912.167000", "090912.178000", "090912.181000", "090912.183000", "090912.186000", "090912.188000", "090912.191000", "090912.194000", "090912.196000", "090912.199000", "090912.203000", "090952.138000", "090952.141000", "090952.151000", "090952.154000", "090952.156000", "090952.159000", "090952.162000", "090952.164000", "090952.167000", "090952.170000", "090952.172000", "090952.175000", "090952.178000", "090952.180000", "090952.183000", "090952.186000", "090952.188000", "090952.191000", "090952.193000", "090952.196000", "091032.138000", "091032.141000", "091032.144000", "091032.147000", "091032.155000", "091032.158000", "091032.160000", "091032.163000", "091032.165000", "091032.168000", "091032.171000", "091032.173000", "091032.176000", "091032.178000", "091032.181000", "091032.183000", "091032.186000", "091032.189000", "091032.191000", "091032.194000", "091112.137000", "091112.140000", "091112.143000", "091112.145000", "091112.148000", "091112.150000", "091112.153000", "091112.155000", "091112.158000", "091112.161000", "091112.168000", "091112.171000", "091112.193000", "091112.195000", "091112.198000", "091112.200000", "091112.203000", "091112.206000", "091112.208000", "091112.211000", "091152.138000", "091152.141000", "091152.144000", "091152.146000", "091152.149000", "091152.152000", "091152.154000", "091152.157000", "091152.159000", "091152.162000", "091152.165000", "091152.167000", "091152.170000", "091152.172000", "091152.175000", "091152.178000", "091152.180000", "091152.183000", "091152.186000", "091152.188000", "091232.138000", "091232.141000", "091232.144000", "091232.146000", "091232.149000", "091232.152000", "091232.154000", "091232.157000", "091232.163000", "091232.166000", "091232.168000", "091232.171000", "091232.173000", "091232.176000", "091232.179000", "091232.181000", "091232.184000", "091232.187000", "091232.189000", "091232.192000", "091312.138000", "091312.141000", "091312.144000", "091312.146000", "091312.149000", "091312.152000", "091312.154000", "091312.157000", "091312.159000", "091312.162000", "091312.165000", "091312.167000", "091312.170000", "091312.172000", "091312.175000", "091312.178000", "091312.180000", "091312.183000", "091312.185000", "091312.188000", "091350.737000", "091350.740000", "091350.742000", "091350.745000", "091350.752000", "091350.754000", "091350.757000", "091350.759000", "091350.774000", "091350.781000", "091350.790000", "091350.793000", "091350.804000", "091350.808000", "091350.811000", "091350.814000", "091350.817000", "091350.819000", "091350.823000", "091350.826000"],
      "InstanceCreationTime": ["090752.145000", "090752.149000", "090752.151000", "090752.154000", "090752.157000", "090752.159000", "090752.179000", "090752.181000", "090752.184000", "090752.195000", "090752.198000", "090752.201000", "090752.203000", "090752.206000", "090752.208000", "090752.211000", "090752.214000", "090752.216000", "090752.225000", "090752.228000", "090832.138000", "090832.141000", "090832.144000", "090832.147000", "090832.149000", "090832.152000", "090832.155000", "090832.157000", "090832.160000", "090832.163000", "090832.165000", "090832.168000", "090832.170000", "090832.173000", "090832.176000", "090832.178000", "090832.181000", "090832.184000", "090832.186000", "090832.189000", "090912.137000", "090912.140000", "090912.143000", "090912.151000", "090912.154000", "090912.156000", "090912.159000", "090912.162000", "090912.164000", "090912.167000", "090912.178000", "090912.181000", "090912.183000", "090912.186000", "090912.188000", "090912.191000", "090912.194000", "090912.196000", "090912.199000", "090912.203000", "090952.138000", "090952.141000", "090952.151000", "090952.154000", "090952.156000", "090952.159000", "090952.162000", "090952.164000", "090952.167000", "090952.170000", "090952.172000", "090952.175000", "090952.178000", "090952.180000", "090952.183000", "090952.186000", "090952.188000", "090952.191000", "090952.193000", "090952.196000", "091032.138000", "091032.141000", "091032.144000", "091032.147000", "091032.155000", "091032.158000", "091032.160000", "091032.163000", "091032.165000", "091032.168000", "091032.171000", "091032.173000", "091032.176000", "091032.178000", "091032.181000", "091032.183000", "091032.186000", "091032.189000", "091032.191000", "091032.194000", "091112.137000", "091112.140000", "091112.143000", "091112.145000", "091112.148000", "091112.150000", "091112.153000", "091112.155000", "091112.158000", "091112.161000", "091112.168000", "091112.171000", "091112.193000", "091112.195000", "091112.198000", "091112.200000", "091112.203000", "091112.206000", "091112.208000", "091112.211000", "091152.138000", "091152.141000", "091152.144000", "091152.146000", "091152.149000", "091152.152000", "091152.154000", "091152.157000", "091152.159000", "091152.162000", "091152.165000", "091152.167000", "091152.170000", "091152.172000", "091152.175000", "091152.178000", "091152.180000", "091152.183000", "091152.186000", "091152.188000", "091232.138000", "091232.141000", "091232.144000", "091232.146000", "091232.149000", "091232.152000", "091232.154000", "091232.157000", "091232.163000", "091232.166000", "091232.168000", "091232.171000", "091232.173000", "091232.176000", "091232.179000", "091232.181000", "091232.184000", "091232.187000", "091232.189000", "091232.192000", "091312.138000", "091312.141000", "091312.144000", "091312.146000", "091312.149000", "091312.152000", "091312.154000", "091312.157000", "091312.159000", "091312.162000", "091312.165000", "091312.167000", "091312.170000", "091312.172000", "091312.175000", "091312.178000", "091312.180000", "091312.183000", "091312.185000", "091312.188000", "091350.737000", "091350.740000", "091350.742000", "091350.745000", "091350.752000", "091350.754000", "091350.757000", "091350.759000", "091350.774000", "091350.781000", "091350.790000", "091350.793000", "091350.804000", "091350.808000", "091350.811000", "091350.814000", "091350.817000", "091350.819000", "091350.823000", "091350.826000"],
      "InstanceNumber": [1, 2, 3, 4, 5, 6, 7, 8, 9, 10, 11, 12, 13, 14, 15, 16, 17, 18, 19, 20, 21, 22, 23, 24, 25, 26, 27, 28, 29, 30, 31, 32, 33, 34, 35, 36, 37, 38, 39, 40, 41, 42, 43, 44, 45, 46, 47, 48, 49, 50, 51, 52, 53, 54, 55, 56, 57, 58, 59, 60, 61, 62, 63, 64, 65, 66, 67, 68, 69, 70, 71, 72, 73, 74, 75, 76, 77, 78, 79, 80, 81, 82, 83, 84, 85, 86, 87, 88, 89, 90, 91, 92, 93, 94, 95, 96, 97, 98, 99, 100, 101, 102, 103, 104, 105, 106, 107, 108, 109, 110, 111, 112, 113, 114, 115, 116, 117, 118, 119, 120, 121, 122, 123, 124, 125, 126, 127, 128, 129, 130, 131, 132, 133, 134, 135, 136, 137, 138, 139, 140, 141, 142, 143, 144, 145, 146, 147, 148, 149, 150, 151, 152, 153, 154, 155, 156, 157, 158, 159, 160, 161, 162, 163, 164, 165, 166, 167, 168, 169, 170, 171, 172, 173, 174, 175, 176, 177, 178, 179, 180, 181, 182, 183, 184, 185, 186, 187, 188, 189, 190, 191, 192, 193, 194, 195, 196, 197, 198, 199, 200],
      "LargestImagePixelValue": [2293, 2287, 2291, 2298, 2307, 2307, 2290, 2295, 2294, 2299, 2299, 2290, 2291, 2296, 2286, 2293, 2289, 2287, 2298, 2295, 2297, 2302, 2292, 2299, 2291, 2298, 2292, 2293, 2290, 2298, 2287, 2291, 2298, 2295, 2292, 2292, 2287, 2298, 2286, 2292, 2287, 2297, 2292, 2289, 2296, 2294, 2294, 2278, 2293, 2293, 2295, 2283, 2287, 2291, 2285, 2287, 2289, 2283, 2284, 2284, 2285, 2287, 2283, 2285, 2290, 2297, 2289, 2286, 2283, 2286, 2286, 2286, 2291, 2293, 2290, 2282, 2283, 2285, 2294, 2281, 2289, 2285, 2292, 2281, 2279, 2285, 2283, 2277, 2284, 2284, 2287, 2284, 2283, 2286, 2284, 2279, 2288, 2284, 2276, 2285, 2282, 2285, 2284, 2280, 2283, 2284, 2280, 2288, 2281, 2282, 2286, 2278, 2286, 2279, 2279, 2284, 2281, 2276, 2285, 2284, 2284, 2278, 2277, 2273, 2274, 2284, 2277, 2281, 2275, 2280, 2279, 2280, 2286, 2284, 2279, 2278, 2276, 2280, 2287, 2285, 2274, 2281, 2277, 2283, 2285, 2288, 2289, 2276, 2277, 2282, 2289, 2283, 2274, 2283, 2273, 2276, 2280, 2283, 2281, 2283, 2274, 2282, 2280, 2276, 2279, 2274, 2273, 2278, 2278, 2267, 2276, 2275, 2279, 2276, 2277, 2280, 2278, 2271, 2277, 2276, 2276, 2281, 2277, 2282, 2270, 2276, 2282, 2273, 2276, 2273, 2277, 2280, 2279, 2276, 2278, 2277, 2275, 2282, 2279, 2271],
      "WindowCenter": [1023.0, 1022.0, 1022.0, 1022.0, 1022.0, 1022.0, 1022.0, 1022.0, 1022.0, 1022.0, 1022.0, 1023.0, 1022.0, 1022.0, 1022.0, 1022.0, 1022.0, 1022.0, 1022.0, 1022.0, 1022.0, 1022.0, 1022.0, 1022.0, 1023.0, 1023.0, 1022.0, 1022.0, 1022.0, 1022.0, 1023.0, 1022.0, 1022.0, 1022.0, 1022.0, 1022.0, 1022.0, 1023.0, 1022.0, 1022.0, 1022.0, 1022.0, 1023.0, 1022.0, 1022.0, 1022.0, 1022.0, 1022.0, 1022.0, 1022.0, 1022.0, 1022.0, 1022.0, 1022.0, 1022.0, 1022.0, 1022.0, 1022.0, 1022.0, 1022.0, 1022.0, 1022.0, 1022.0, 1022.0, 1022.0, 1022.0, 1022.0, 1022.0, 1022.0, 1022.0, 1022.0, 1022.0, 1022.0, 1022.0, 1022.0, 1022.0, 1022.0, 1022.0, 1022.0, 1022.0, 1022.0, 1022.0, 1022.0, 1022.0, 1022.0, 1022.0, 1022.0, 1022.0, 1022.0, 1021.0, 1021.0, 1021.0, 1021.0, 1022.0, 1021.0, 1021.0, 1022.0, 1021.0, 1021.0, 1021.0, 1021.0, 1021.0, 1021.0, 1022.0, 1021.0, 1021.0, 1021.0, 1021.0, 1021.0, 1021.0, 1021.0, 1021.0, 1021.0, 1021.0, 1021.0, 1021.0, 1021.0, 1021.0, 1021.0, 1021.0, 1021.0, 1021.0, 1021.0, 1021.0, 1021.0, 1021.0, 1021.0, 1021.0, 1021.0, 1021.0, 1021.0, 1021.0, 1021.0, 1021.0, 1021.0, 1021.0, 1021.0, 1021.0, 1021.0, 1021.0, 1021.0, 1021.0, 1021.0, 1021.0, 1021.0, 1021.0, 1021.0, 1021.0, 1021.0, 1021.0, 1021.0, 1021.0, 1021.0, 1021.0, 1021.0, 1021.0, 1021.0, 1021.0, 1021.0, 1021.0, 1021.0, 1021.0, 1021.0, 1021.0, 1021.0, 1021.0, 1021.0, 1021.0, 1021.0, 1021.0, 1021.0, 1021.0, 1021.0, 1021.0, 1021.0, 1021.0, 1021.0, 1021.0, 1021.0, 1021.0, 1022.0, 1021.0, 1021.0, 1021.0, 1021.0, 1021.0, 1021.0, 1021.0, 1021.0, 1021.0, 1021.0, 1021.0, 1021.0, 1021.0, 1021.0, 1021.0, 1021.0, 1021.0, 1021.0, 1021.0],
      "WindowWidth": [2264.0, 2264.0, 2264.0, 2264.0, 2264.0, 2264.0, 2264.0, 2264.0, 2264.0, 2264.0, 2264.0, 2264.0, 2263.0, 2264.0, 2263.0, 2263.0, 2263.0, 2263.0, 2263.0, 2263.0, 2263.0, 2263.0, 2263.0, 2263.0, 2264.0, 2264.0, 2263.0, 2263.0, 2263.0, 2263.0, 2264.0, 2263.0, 2263.0, 2263.0, 2263.0, 2263.0, 2263.0, 2263.0, 2263.0, 2263.0, 2262.0, 2263.0, 2263.0, 2263.0, 2263.0, 2263.0, 2263.0, 2263.0, 2263.0, 2263.0, 2263.0, 2262.0, 2262.0, 2262.0, 2262.0, 2262.0, 2262.0, 2262.0, 2262.0, 2262.0, 2262.0, 2262.0, 2262.0, 2262.0, 2262.0, 2262.0, 2262.0, 2262.0, 2262.0, 2262.0, 2262.0, 2262.0, 2262.0, 2262.0, 2262.0, 2262.0, 2262.0, 2262.0, 2262.0, 2262.0, 2261.0, 2261.0, 2261.0, 2261.0, 2261.0, 2261.0, 2261.0, 2261.0, 2261.0, 2261.0, 2261.0, 2261.0, 2261.0, 2261.0, 2261.0, 2261.0, 2261.0, 2261.0, 2261.0, 2261.0, 2261.0, 2261.0, 2261.0, 2261.0, 2261.0, 2261.0, 2261.0, 2261.0, 2261.0, 2260.0, 2261.0, 2261.0, 2260.0, 2261.0, 2261.0, 2261.0, 2261.0, 2261.0, 2260.0, 2261.0, 2261.0, 2260.0, 2260.0, 2260.0, 2260.0, 2260.0, 2260.0, 2260.0, 2260.0, 2260.0, 2260.0, 2260.0, 2260.0, 2260.0, 2260.0, 2260.0, 2260.0, 2260.0, 2260.0, 2260.0, 2260.0, 2260.0, 2260.0, 2260.0, 2260.0, 2260.0, 2260.0, 2260.0, 2260.0, 2260.0, 2260.0, 2260.0, 2260.0, 2260.0, 2260.0, 2260.0, 2260.0, 2260.0, 2260.0, 2260.0, 2260.0, 2260.0, 2260.0, 2260.0, 2260.0, 2260.0, 2260.0, 2260.0, 2260.0, 2260.0, 2260.0, 2259.0, 2260.0, 2259.0, 2259.0, 2260.0, 2260.0, 2259.0, 2259.0, 2259.0, 2260.0, 2259.0, 2259.0, 2259.0, 2259.0, 2259.0, 2259.0, 2259.0, 2259.0, 2259.0, 2259.0, 2259.0, 2259.0, 2259.0, 2259.0, 2259.0, 2259.0, 2259.0, 2259.0, 2259.0]
    },
    "slices": {}
  }
}