{
  "AcquisitionMatrixPE": 80,
  "AcquisitionNumber": 1,
  "AcquisitionTime": "09:52:36.752500",
  "BandwidthPerPixelPhaseEncode": 48.077,
  "BaseResolution": 80,
  "BodyPartExamined": "BRAIN",
  "CoilCombinationMethod": "Sum of Squares",
  "ConsistencyInfo": "N4_VE11E_LATEST_20181129",
  "ConversionSoftware": "dcm2niix",
  "ConversionSoftwareVersion": "v1.0.20220720",
  "DerivedVendorReportedEchoSpacing": 0.000519999,
  "DeviceSerialNumber": "66112",
  "DwellTime": 2.7e-06,
  "EchoTime": 0.035,
  "EchoTrainLength": 39,
  "EffectiveEchoSpacing": 0.00026,
  "FlipAngle": 90,
  "HeudiconvVersion": "0.13.1",
  "ImageOrientationPatientDICOM": [0.98433, -0.176298, 0.00376163, 0.167017, 0.938931, 0.300856],
  "ImageOrientationText": "Tra>Cor(17.2)>Sag(3.2)",
  "ImageType": [
    "ORIGINAL",
    "PRIMARY",
    "M",
    "ND",
    "NORM",
    "MOSAIC"
],
  "ImagingFrequency": 123.259,
  "InPlanePhaseEncodingDirectionDICOM": "COL",
  "InstitutionAddress": "Maynard 3,Hanover,NH,US,03755",
  "InstitutionName": "Dartmouth College - PBS",
  "InstitutionalDepartmentName": "Department",
  "MRAcquisitionType": "2D",
  "MagneticFieldStrength": 3,
  "Manufacturer": "Siemens",
  "ManufacturersModelName": "Prisma",
  "MatrixCoilMode": "GRAPPA",
  "Modality": "MR",
  "NonlinearGradientCorrection": false,
  "ParallelReductionFactorInPlane": 2,
  "PartialFourier": 1,
  "PatientPosition": "HFS",
  "PercentPhaseFOV": 100,
  "PercentSampling": 100,
  "PhaseEncodingDirection": "j-",
  "PhaseEncodingSteps": 79,
  "PhaseResolution": 1,
  "PixelBandwidth": 2315,
  "ProcedureStepDescription": "dbic^QA",
  "ProtocolName": "func-bold_task-rest_acq-p2",
  "PulseSequenceDetails": "%SiemensSeq%\\ep2d_bold",
  "ReceiveCoilActiveElements": "HEA;HEP",
  "ReceiveCoilName": "Head_32",
  "ReconMatrixPE": 80,
  "RefLinesPE": 24,
  "RepetitionTime": 2,
  "SAR": 0.0720368,
  "ScanOptions": "FS",
  "ScanningSequence": "EP",
  "SequenceName": "*epfid2d1_80",
  "SequenceVariant": "SK",
  "SeriesDescription": "func-bold_task-rest_acq-p2",
  "SeriesNumber": 5,
  "ShimSetting": [4217, -7743, -7497, -42, -156, -41, -17, 65],
  "SliceThickness": 3.5,
  "SliceTiming": [0.99, 0, 1.055, 0.065, 1.12, 0.13, 1.1875, 0.1975, 1.2525, 0.2625, 1.32, 0.33, 1.385, 0.395, 1.45, 0.46, 1.5175, 0.5275, 1.5825, 0.5925, 1.65, 0.66, 1.715, 0.725, 1.78, 0.79, 1.8475, 0.8575, 1.9125, 0.9225],
  "SoftwareVersions": "syngo MR E11",
  "SpacingBetweenSlices": 3.99,
  "StationName": "AWP66112",
  "TaskName": "rest",
  "TotalReadoutTime": 0.02054,
  "TxRefAmp": 221.453,
  "dcmmeta_affine": [
    [-2.952989101409912, 0.5010511875152588, 0.2257228046655655, 94.23104858398438],
    [0.528893768787384, 2.8167927265167236, 1.1790963411331177, -149.19921875],
    [0.011284900829195976, -0.9025668501853943, 3.805112600326538, -28.041908264160156],
    [0.0, 0.0, 0.0, 1.0]
],
  "dcmmeta_reorient_transform": [
    [0.0, -1.0, 0.0, 79.0],
    [1.0, 0.0, 0.0, 0.0],
    [0.0, 0.0, 1.0, 0.0],
    [0.0, 0.0, 0.0, 1.0]
],
  "dcmmeta_shape": [80, 80, 30, 200],
  "dcmmeta_slice_dim": 2,
  "dcmmeta_version": 0.6,
  "global": {
    "const": {
      "AccessionNumber": "qa",
      "AcquisitionMatrix": [80, 0, 0, 80],
      "AngioFlag": "N",
      "BitsAllocated": 16,
      "BitsStored": 12,
      "BodyPartExamined": "BRAIN",
      "Columns": 480,
      "EchoNumbers": 1,
      "EchoTime": 35.0,
      "EchoTrainLength": 39,
      "FlipAngle": 90.0,
      "HighBit": 11,
      "ImageOrientationPatient": [0.98432966803541, -0.1762979147296, 0.00376163359323, 0.16701706055878, 0.93893088087006, 0.30085561725],
      "ImagePositionPatient": [-824.62213043529, -530.90718467202, -282.11503950361],
      "ImageType": [
        "ORIGINAL",
        "PRIMARY",
        "M",
        "ND",
        "NORM",
        "MOSAIC"
],
      "ImagedNucleus": "1H",
      "ImagingFrequency": 123.259172,
      "InPlanePhaseEncodingDirection": "COL",
      "MRAcquisitionType": "2D",
      "MagneticFieldStrength": 3.0,
      "Manufacturer": "SIEMENS",
      "ManufacturerModelName": "Prisma",
      "Modality": "MR",
      "NumberOfAverages": 1.0,
      "NumberOfPhaseEncodingSteps": 79,
      "PercentPhaseFieldOfView": 100.0,
      "PercentSampling": 100.0,
      "PerformedProcedureStepStartTime": "093654.614000",
      "PhotometricInterpretation": "MONOCHROME2",
      "PixelBandwidth": 2315.0,
      "PixelRepresentation": 0,
      "PixelSpacing": [3.0, 3.0],
      "ProtocolName": "func-bold_task-rest_acq-p2",
      "RepetitionTime": 2000.0,
      "Rows": 480,
      "SAR": 0.07203682670331,
      "SamplesPerPixel": 1,
      "ScanOptions": "FS",
      "ScanningSequence": "EP",
      "SequenceName": "*epfid2d1_80",
      "SequenceVariant": "SK",
      "SeriesDescription": "func-bold_task-rest_acq-p2",
      "SeriesNumber": 5,
      "SeriesTime": "095253.631000",
      "SliceLocation": -65.50194361552,
      "SliceThickness": 3.5,
      "SmallestImagePixelValue": 0,
      "SoftwareVersions": "syngo MR E11",
      "SpacingBetweenSlices": 3.9900000072111,
      "SpecificCharacterSet": "ISO_IR 100",
      "StudyID": "32",
      "StudyTime": "093654.578000",
      "TransmitCoilName": "Body",
      "VariableFlipAngleFlag": "N",
      "WindowCenterWidthExplanation": "Algo1"
    },
    "slices": {}
  },
  "time": {
    "samples": {
      "AcquisitionNumber": [1, 2, 3, 4, 5, 6, 7, 8, 9, 10, 11, 12, 13, 14, 15, 16, 17, 18, 19, 20, 21, 22, 23, 24, 25, 26, 27, 28, 29, 30, 31, 32, 33, 34, 35, 36, 37, 38, 39, 40, 41, 42, 43, 44, 45, 46, 47, 48, 49, 50, 51, 52, 53, 54, 55, 56, 57, 58, 59, 60, 61, 62, 63, 64, 65, 66, 67, 68, 69, 70, 71, 72, 73, 74, 75, 76, 77, 78, 79, 80, 81, 82, 83, 84, 85, 86, 87, 88, 89, 90, 91, 92, 93, 94, 95, 96, 97, 98, 99, 100, 101, 102, 103, 104, 105, 106, 107, 108, 109, 110, 111, 112, 113, 114, 115, 116, 117, 118, 119, 120, 121, 122, 123, 124, 125, 126, 127, 128, 129, 130, 131, 132, 133, 134, 135, 136, 137, 138, 139, 140, 141, 142, 143, 144, 145, 146, 147, 148, 149, 150, 151, 152, 153, 154, 155, 156, 157, 158, 159, 160, 161, 162, 163, 164, 165, 166, 167, 168, 169, 170, 171, 172, 173, 174, 175, 176, 177, 178, 179, 180, 181, 182, 183, 184, 185, 186, 187, 188, 189, 190, 191, 192, 193, 194, 195, 196, 197, 198, 199, 200],
      "AcquisitionTime": ["095236.752500", "095238.752500", "095240.752500", "095242.752500", "095244.752500", "095246.752500", "095248.752500", "095250.752500", "095252.752500", "095254.752500", "095256.752500", "095258.752500", "095300.752500", "095302.752500", "095304.752500", "095306.752500", "095308.752500", "095310.752500", "095312.752500", "095314.752500", "095316.752500", "095318.752500", "095320.752500", "095322.752500", "095324.752500", "095326.752500", "095328.752500", "095330.752500", "095332.752500", "095334.752500", "095336.752500", "095338.752500", "095340.752500", "095342.752500", "095344.752500", "095346.752500", "095348.752500", "095350.752500", "095352.752500", "095354.752500", "095356.752500", "095358.752500", "095400.752500", "095402.752500", "095404.752500", "095406.752500", "095408.752500", "095410.752500", "095412.752500", "095414.752500", "095416.752500", "095418.752500", "095420.752500", "095422.752500", "095424.752500", "095426.752500", "095428.752500", "095430.752500", "095432.752500", "095434.752500", "095436.752500", "095438.752500", "095440.752500", "095442.752500", "095444.752500", "095446.752500", "095448.752500", "095450.752500", "095452.752500", "095454.752500", "095456.752500", "095458.752500", "095500.752500", "095502.752500", "095504.752500", "095506.752500", "095508.752500", "095510.752500", "095512.752500", "095514.752500", "095516.752500", "095518.752500", "095520.752500", "095522.752500", "095524.752500", "095526.752500", "095528.752500", "095530.752500", "095532.752500", "095534.752500", "095536.752500", "095538.752500", "095540.752500", "095542.752500", "095544.752500", "095546.752500", "095548.752500", "095550.752500", "095552.752500", "095554.752500", "095556.752500", "095558.752500", "095600.752500", "095602.752500", "095604.752500", "095606.752500", "095608.752500", "095610.752500", "095612.752500", "095614.752500", "095616.752500", "095618.752500", "095620.752500", "095622.752500", "095624.752500", "095626.752500", "095628.752500", "095630.752500", "095632.752500", "095634.752500", "095636.752500", "095638.752500", "095640.752500", "095642.752500", "095644.752500", "095646.752500", "095648.752500", "095650.752500", "095652.752500", "095654.752500", "095656.752500", "095658.752500", "095700.752500", "095702.752500", "095704.752500", "095706.752500", "095708.752500", "095710.752500", "095712.752500", "095714.752500", "095716.752500", "095718.752500", "095720.752500", "095722.752500", "095724.752500", "095726.752500", "095728.752500", "095730.752500", "095732.752500", "095734.752500", "095736.752500", "095738.752500", "095740.752500", "095742.752500", "095744.752500", "095746.752500", "095748.752500", "095750.752500", "095752.752500", "095754.752500", "095756.752500", "095758.752500", "095800.752500", "095802.752500", "095804.752500", "095806.752500", "095808.752500", "095810.752500", "095812.752500", "095814.752500", "095816.752500", "095818.752500", "095820.752500", "095822.752500", "095824.752500", "095826.752500", "095828.752500", "095830.752500", "095832.752500", "095834.752500", "095836.752500", "095838.752500", "095840.752500", "095842.752500", "095844.752500", "095846.752500", "095848.752500", "095850.752500", "095852.752500", "095854.752500", "095856.752500", "095858.752500", "095900.752500", "095902.752500", "095904.752500", "095906.752500", "095908.752500", "095910.752500", "095912.752500", "095914.752500"],
      "ContentTime": ["095253.634000", "095253.637000", "095253.640000", "095253.642000", "095253.644000", "095253.646000", "095253.649000", "095253.651000", "095333.628000", "095333.631000", "095333.646000", "095333.649000", "095333.651000", "095333.653000", "095333.656000", "095333.658000", "095333.660000", "095333.663000", "095333.665000", "095333.667000", "095333.669000", "095333.672000", "095333.674000", "095333.676000", "095333.679000", "095333.681000", "095333.683000", "095333.686000", "095413.629000", "095413.632000", "095413.634000", "095413.636000", "095413.639000", "095413.641000", "095413.643000", "095413.646000", "095413.648000", "095413.650000", "095413.652000", "095413.655000", "095413.657000", "095413.659000", "095413.662000", "095413.664000", "095413.666000", "095413.677000", "095413.680000", "095413.682000", "095453.629000", "095453.632000", "095453.634000", "095453.637000", "095453.639000", "095453.642000", "095453.644000", "095453.646000", "095453.648000", "095453.651000", "095453.653000", "095453.656000", "095453.658000", "095453.660000", "095453.663000", "095453.665000", "095453.667000", "095453.670000", "095453.672000", "095453.674000", "095533.629000", "095533.632000", "095533.634000", "095533.637000", "095533.639000", "095533.641000", "095533.644000", "095533.646000", "095533.648000", "095533.651000", "095533.653000", "095533.655000", "095533.658000", "095533.660000", "095533.662000", "095533.665000", "095533.667000", "095533.670000", "095533.672000", "095533.684000", "095613.628000", "095613.631000", "095613.633000", "095613.635000", "095613.638000", "095613.640000", "095613.642000", "095613.645000", "095613.647000", "095613.649000", "095613.652000", "095613.654000", "095613.657000", "095613.659000", "095613.661000", "095613.664000", "095613.666000", "095613.668000", "095613.671000", "095613.673000", "095653.629000", "095653.632000", "095653.634000", "095653.637000", "095653.639000", "095653.642000", "095653.644000", "095653.646000", "095653.649000", "095653.651000", "095653.653000", "095653.656000", "095653.658000", "095653.660000", "095653.663000", "095653.665000", "095653.667000", "095653.669000", "095653.672000", "095653.674000", "095733.629000", "095733.632000", "095733.634000", "095733.636000", "095733.639000", "095733.641000", "095733.643000", "095733.646000", "095733.648000", "095733.650000", "095733.652000", "095733.655000", "095733.657000", "095733.659000", "095733.662000", "095733.664000", "095733.666000", "095733.669000", "095733.671000", "095733.673000", "095813.628000", "095813.631000", "095813.633000", "095813.635000", "095813.638000", "095813.640000", "095813.642000", "095813.645000", "095813.647000", "095813.649000", "095813.652000", "095813.654000", "095813.656000", "095813.659000", "095813.661000", "095813.663000", "095813.666000", "095813.668000", "095813.670000", "095813.673000", "095853.629000", "095853.632000", "095853.634000", "095853.636000", "095853.639000", "095853.641000", "095853.644000", "095853.646000", "095853.648000", "095853.650000", "095853.653000", "095853.655000", "095853.657000", "095853.660000", "095853.662000", "095853.664000", "095853.667000", "095853.669000", "095853.671000", "095853.674000", "095916.428000", "095916.430000", "095916.433000", "095916.435000", "095916.438000", "095916.440000", "095916.442000", "095916.445000", "095916.448000", "095916.450000", "095916.453000", "095916.455000"],
      "InstanceCreationTime": ["095253.634000", "095253.637000", "095253.640000", "095253.642000", "095253.644000", "095253.646000", "095253.649000", "095253.651000", "095333.628000", "095333.631000", "095333.646000", "095333.649000", "095333.651000", "095333.653000", "095333.656000", "095333.658000", "095333.660000", "095333.663000", "095333.665000", "095333.667000", "095333.669000", "095333.672000", "095333.674000", "095333.676000", "095333.679000", "095333.681000", "095333.683000", "095333.686000", "095413.629000", "095413.632000", "095413.634000", "095413.636000", "095413.639000", "095413.641000", "095413.643000", "095413.646000", "095413.648000", "095413.650000", "095413.652000", "095413.655000", "095413.657000", "095413.659000", "095413.662000", "095413.664000", "095413.666000", "095413.677000", "095413.680000", "095413.682000", "095453.629000", "095453.632000", "095453.634000", "095453.637000", "095453.639000", "095453.642000", "095453.644000", "095453.646000", "095453.648000", "095453.651000", "095453.653000", "095453.656000", "095453.658000", "095453.660000", "095453.663000", "095453.665000", "095453.667000", "095453.670000", "095453.672000", "095453.674000", "095533.629000", "095533.632000", "095533.634000", "095533.637000", "095533.639000", "095533.641000", "095533.644000", "095533.646000", "095533.648000", "095533.651000", "095533.653000", "095533.655000", "095533.658000", "095533.660000", "095533.662000", "095533.665000", "095533.667000", "095533.670000", "095533.672000", "095533.684000", "095613.628000", "095613.631000", "095613.633000", "095613.635000", "095613.638000", "095613.640000", "095613.642000", "095613.645000", "095613.647000", "095613.649000", "095613.652000", "095613.654000", "095613.657000", "095613.659000", "095613.661000", "095613.664000", "095613.666000", "095613.668000", "095613.671000", "095613.673000", "095653.629000", "095653.632000", "095653.634000", "095653.637000", "095653.639000", "095653.642000", "095653.644000", "095653.646000", "095653.649000", "095653.651000", "095653.653000", "095653.656000", "095653.658000", "095653.660000", "095653.663000", "095653.665000", "095653.667000", "095653.669000", "095653.672000", "095653.674000", "095733.629000", "095733.632000", "095733.634000", "095733.636000", "095733.639000", "095733.641000", "095733.643000", "095733.646000", "095733.648000", "095733.650000", "095733.652000", "095733.655000", "095733.657000", "095733.659000", "095733.662000", "095733.664000", "095733.666000", "095733.669000", "095733.671000", "095733.673000", "095813.628000", "095813.631000", "095813.633000", "095813.635000", "095813.638000", "095813.640000", "095813.642000", "095813.645000", "095813.647000", "095813.649000", "095813.652000", "095813.654000", "095813.656000", "095813.659000", "095813.661000", "095813.663000", "095813.666000", "095813.668000", "095813.670000", "095813.673000", "095853.629000", "095853.632000", "095853.634000", "095853.636000", "095853.639000", "095853.641000", "095853.644000", "095853.646000", "095853.648000", "095853.650000", "095853.653000", "095853.655000", "095853.657000", "095853.660000", "095853.662000", "095853.664000", "095853.667000", "095853.669000", "095853.671000", "095853.674000", "095916.428000", "095916.430000", "095916.433000", "095916.435000", "095916.438000", "095916.440000", "095916.442000", "095916.445000", "095916.448000", "095916.450000", "095916.453000", "095916.455000"],
      "InstanceNumber": [1, 2, 3, 4, 5, 6, 7, 8, 9, 10, 11, 12, 13, 14, 15, 16, 17, 18, 19, 20, 21, 22, 23, 24, 25, 26, 27, 28, 29, 30, 31, 32, 33, 34, 35, 36, 37, 38, 39, 40, 41, 42, 43, 44, 45, 46, 47, 48, 49, 50, 51, 52, 53, 54, 55, 56, 57, 58, 59, 60, 61, 62, 63, 64, 65, 66, 67, 68, 69, 70, 71, 72, 73, 74, 75, 76, 77, 78, 79, 80, 81, 82, 83, 84, 85, 86, 87, 88, 89, 90, 91, 92, 93, 94, 95, 96, 97, 98, 99, 100, 101, 102, 103, 104, 105, 106, 107, 108, 109, 110, 111, 112, 113, 114, 115, 116, 117, 118, 119, 120, 121, 122, 123, 124, 125, 126, 127, 128, 129, 130, 131, 132, 133, 134, 135, 136, 137, 138, 139, 140, 141, 142, 143, 144, 145, 146, 147, 148, 149, 150, 151, 152, 153, 154, 155, 156, 157, 158, 159, 160, 161, 162, 163, 164, 165, 166, 167, 168, 169, 170, 171, 172, 173, 174, 175, 176, 177, 178, 179, 180, 181, 182, 183, 184, 185, 186, 187, 188, 189, 190, 191, 192, 193, 194, 195, 196, 197, 198, 199, 200],
      "LargestImagePixelValue": [2145, 2142, 2142, 2136, 2138, 2139, 2133, 2135, 2142, 2138, 2136, 2140, 2139, 2142, 2136, 2137, 2140, 2140, 2142, 2140, 2144, 2138, 2144, 2141, 2146, 2143, 2137, 2139, 2141, 2141, 2147, 2140, 2140, 2140, 2143, 2139, 2136, 2141, 2140, 2134, 2141, 2137, 2134, 2140, 2142, 2140, 2142, 2136, 2139, 2138, 2140, 2141, 2138, 2146, 2145, 2142, 2142, 2143, 2140, 2142, 2142, 2144, 2142, 2141, 2138, 2140, 2138, 2137, 2144, 2139, 2139, 2140, 2140, 2145, 2138, 2142, 2140, 2141, 2136, 2142, 2144, 2138, 2143, 2144, 2139, 2146, 2143, 2145, 2139, 2144, 2144, 2142, 2142, 2140, 2143, 2143, 2140, 2143, 2138, 2141, 2143, 2143, 2143, 2143, 2143, 2140, 2139, 2142, 2141, 2140, 2146, 2142, 2141, 2137, 2144, 2143, 2144, 2145, 2141, 2144, 2146, 2143, 2145, 2143, 2145, 2141, 2141, 2142, 2146, 2144, 2146, 2144, 2145, 2143, 2140, 2143, 2145, 2148, 2142, 2144, 2143, 2142, 2145, 2143, 2141, 2146, 2144, 2140, 2142, 2138, 2139, 2144, 2143, 2143, 2143, 2140, 2140, 2142, 2143, 2143, 2141, 2143, 2141, 2145, 2144, 2141, 2142, 2143, 2144, 2145, 2142, 2143, 2138, 2141, 2143, 2146, 2143, 2142, 2146, 2143, 2141, 2141, 2144, 2147, 2148, 2141, 2142, 2145, 2146, 2144, 2146, 2140, 2144, 2142, 2146, 2144, 2143, 2143, 2144, 2145],
      "WindowCenter": [1027.0, 1026.0, 1027.0, 1026.0, 1026.0, 1027.0, 1027.0, 1026.0, 1026.0, 1026.0, 1026.0, 1026.0, 1027.0, 1027.0, 1027.0, 1027.0, 1027.0, 1027.0, 1027.0, 1027.0, 1027.0, 1027.0, 1027.0, 1026.0, 1026.0, 1026.0, 1027.0, 1026.0, 1026.0, 1026.0, 1026.0, 1026.0, 1026.0, 1027.0, 1026.0, 1026.0, 1026.0, 1026.0, 1026.0, 1027.0, 1026.0, 1026.0, 1026.0, 1026.0, 1026.0, 1026.0, 1026.0, 1026.0, 1026.0, 1026.0, 1026.0, 1026.0, 1026.0, 1026.0, 1026.0, 1026.0, 1026.0, 1026.0, 1026.0, 1026.0, 1026.0, 1026.0, 1026.0, 1026.0, 1026.0, 1026.0, 1026.0, 1026.0, 1026.0, 1026.0, 1026.0, 1026.0, 1026.0, 1026.0, 1026.0, 1026.0, 1026.0, 1026.0, 1026.0, 1026.0, 1026.0, 1026.0, 1026.0, 1026.0, 1026.0, 1026.0, 1026.0, 1026.0, 1026.0, 1026.0, 1026.0, 1026.0, 1026.0, 1026.0, 1026.0, 1026.0, 1026.0, 1026.0, 1026.0, 1026.0, 1026.0, 1026.0, 1026.0, 1026.0, 1026.0, 1026.0, 1026.0, 1026.0, 1026.0, 1026.0, 1026.0, 1026.0, 1026.0, 1026.0, 1026.0, 1026.0, 1026.0, 1026.0, 1026.0, 1026.0, 1026.0, 1026.0, 1026.0, 1026.0, 1026.0, 1026.0, 1026.0, 1026.0, 1026.0, 1026.0, 1026.0, 1026.0, 1026.0, 1026.0, 1026.0, 1026.0, 1026.0, 1026.0, 1026.0, 1026.0, 1026.0, 1026.0, 1026.0, 1026.0, 1026.0, 1026.0, 1026.0, 1026.0, 1026.0, 1026.0, 1026.0, 1026.0, 1026.0, 1026.0, 1026.0, 1026.0, 1026.0, 1026.0, 1026.0, 1026.0, 1026.0, 1026.0, 1026.0, 1026.0, 1026.0, 1026.0, 1026.0, 1026.0, 1026.0, 1026.0, 1026.0, 1026.0, 1026.0, 1026.0, 1026.0, 1026.0, 1026.0, 1026.0, 1026.0, 1027.0, 1026.0, 1026.0, 1026.0, 1026.0, 1026.0, 1026.0, 1026.0, 1026.0, 1026.0, 1026.0, 1026.0, 1026.0, 1026.0, 1026.0, 1026.0, 1026.0, 1026.0, 1026.0, 1026.0, 1026.0],
      "WindowWidth": [2288.0, 2287.0, 2287.0, 2287.0, 2287.0, 2287.0, 2287.0, 2287.0, 2287.0, 2287.0, 2287.0, 2287.0, 2287.0, 2287.0, 2287.0, 2287.0, 2287.0, 2287.0, 2287.0, 2287.0, 2287.0, 2287.0, 2287.0, 2287.0, 2287.0, 2287.0, 2287.0, 2287.0, 2287.0, 2287.0, 2287.0, 2287.0, 2287.0, 2287.0, 2287.0, 2287.0, 2287.0, 2287.0, 2287.0, 2287.0, 2287.0, 2287.0, 2287.0, 2287.0, 2287.0, 2287.0, 2287.0, 2287.0, 2287.0, 2287.0, 2287.0, 2287.0, 2287.0, 2287.0, 2287.0, 2287.0, 2287.0, 2287.0, 2287.0, 2287.0, 2287.0, 2287.0, 2287.0, 2287.0, 2287.0, 2287.0, 2286.0, 2287.0, 2287.0, 2286.0, 2287.0, 2287.0, 2287.0, 2286.0, 2287.0, 2287.0, 2287.0, 2287.0, 2287.0, 2287.0, 2286.0, 2286.0, 2286.0, 2287.0, 2286.0, 2286.0, 2286.0, 2286.0, 2286.0, 2286.0, 2286.0, 2287.0, 2286.0, 2287.0, 2286.0, 2286.0, 2286.0, 2286.0, 2286.0, 2286.0, 2286.0, 2286.0, 2286.0, 2286.0, 2286.0, 2286.0, 2286.0, 2286.0, 2286.0, 2286.0, 2286.0, 2286.0, 2286.0, 2286.0, 2286.0, 2286.0, 2286.0, 2286.0, 2286.0, 2286.0, 2286.0, 2286.0, 2286.0, 2286.0, 2286.0, 2286.0, 2286.0, 2286.0, 2286.0, 2286.0, 2286.0, 2286.0, 2286.0, 2286.0, 2286.0, 2286.0, 2286.0, 2286.0, 2286.0, 2286.0, 2286.0, 2286.0, 2286.0, 2286.0, 2286.0, 2286.0, 2286.0, 2286.0, 2286.0, 2286.0, 2286.0, 2286.0, 2286.0, 2286.0, 2286.0, 2286.0, 2286.0, 2286.0, 2286.0, 2286.0, 2286.0, 2286.0, 2285.0, 2286.0, 2286.0, 2286.0, 2285.0, 2286.0, 2286.0, 2285.0, 2286.0, 2285.0, 2285.0, 2285.0, 2286.0, 2285.0, 2286.0, 2286.0, 2286.0, 2287.0, 2286.0, 2286.0, 2286.0, 2286.0, 2286.0, 2286.0, 2286.0, 2286.0, 2286.0, 2286.0, 2286.0, 2286.0, 2286.0, 2286.0, 2286.0, 2286.0, 2286.0, 2286.0, 2286.0, 2286.0]
    },
    "slices": {}
  }
}