{
  "AcquisitionMatrixPE": 80,
  "AcquisitionNumber": 1,
  "AcquisitionTime": "10:13:7.465000",
  "BandwidthPerPixelPhaseEncode": 25,
  "BaseResolution": 80,
  "BodyPartExamined": "BRAIN",
  "CoilCombinationMethod": "Sum of Squares",
  "ConsistencyInfo": "N4_VE11E_LATEST_20181129",
  "ConversionSoftware": "dcm2niix",
  "ConversionSoftwareVersion": "v1.0.20220720",
  "DerivedVendorReportedEchoSpacing": 0.0005,
  "DeviceSerialNumber": "66112",
  "DwellTime": 2.7e-06,
  "EchoTime": 0.03,
  "EchoTrainLength": 80,
  "EffectiveEchoSpacing": 0.0005,
  "FlipAngle": 10,
  "HeudiconvVersion": "0.13.1",
  "ImageOrientationPatientDICOM": [0.98433, -0.176298, 0.00376163, 0.167017, 0.938931, 0.300856],
  "ImageOrientationText": "Tra>Cor(17.2)>Sag(3.2)",
  "ImageType": [
    "ORIGINAL",
    "PRIMARY",
    "M",
    "ND",
    "NORM",
    "MOSAIC"
],
  "ImagingFrequency": 123.259,
  "InPlanePhaseEncodingDirectionDICOM": "COL",
  "InstitutionAddress": "Maynard 3,Hanover,NH,US,03755",
  "InstitutionName": "Dartmouth College - PBS",
  "InstitutionalDepartmentName": "Department",
  "MRAcquisitionType": "2D",
  "MagneticFieldStrength": 3,
  "Manufacturer": "Siemens",
  "ManufacturersModelName": "Prisma",
  "MatrixCoilMode": "SENSE",
  "Modality": "MR",
  "NonlinearGradientCorrection": false,
  "PartialFourier": 1,
  "PatientPosition": "HFS",
  "PercentPhaseFOV": 100,
  "PercentSampling": 100,
  "PhaseEncodingDirection": "j-",
  "PhaseEncodingSteps": 80,
  "PhaseResolution": 1,
  "PixelBandwidth": 2315,
  "ProcedureStepDescription": "dbic^QA",
  "ProtocolName": "func-bold_fa-10",
  "PulseSequenceDetails": "%SiemensSeq%\\ep2d_bold",
  "ReceiveCoilActiveElements": "HEA;HEP",
  "ReceiveCoilName": "Head_32",
  "ReconMatrixPE": 80,
  "RepetitionTime": 2,
  "SAR": 0.0151856,
  "ScanOptions": "FS",
  "ScanningSequence": "EP",
  "SequenceName": "*epfid2d1_80",
  "SequenceVariant": "SK",
  "SeriesDescription": "func-bold_fa-10",
  "SeriesNumber": 8,
  "ShimSetting": [4217, -7743, -7497, -41, -156, -41, -16, 65],
  "SliceThickness": 3.5,
  "SliceTiming": [0.99, 0, 1.055, 0.065, 1.12, 0.13, 1.1875, 0.1975, 1.2525, 0.2625, 1.3175, 0.33, 1.385, 0.395, 1.45, 0.46, 1.5175, 0.5275, 1.5825, 0.5925, 1.6475, 0.66, 1.715, 0.725, 1.78, 0.79, 1.8475, 0.8575, 1.9125, 0.9225],
  "SoftwareVersions": "syngo MR E11",
  "SpacingBetweenSlices": 3.99,
  "StationName": "AWP66112",
  "TotalReadoutTime": 0.0395,
  "TxRefAmp": 221.453,
  "dcmmeta_affine": [
    [-2.952989101409912, 0.5010511875152588, 0.2257228046655655, 94.90867614746094],
    [0.528893768787384, 2.8167927265167236, 1.1790963411331177, -145.4054412841797],
    [0.011284900829195976, -0.9025668501853943, 3.805112600326538, -28.57958221435547],
    [0.0, 0.0, 0.0, 1.0]
],
  "dcmmeta_reorient_transform": [
    [0.0, -1.0, 0.0, 79.0],
    [1.0, 0.0, 0.0, 0.0],
    [0.0, 0.0, 1.0, 0.0],
    [0.0, 0.0, 0.0, 1.0]
],
  "dcmmeta_shape": [80, 80, 30, 200],
  "dcmmeta_slice_dim": 2,
  "dcmmeta_version": 0.6,
  "global": {
    "const": {
      "AccessionNumber": "qa",
      "AcquisitionMatrix": [80, 0, 0, 80],
      "AngioFlag": "N",
      "BitsAllocated": 16,
      "BitsStored": 12,
      "BodyPartExamined": "BRAIN",
      "Columns": 480,
      "EchoNumbers": 1,
      "EchoTime": 30.0,
      "EchoTrainLength": 80,
      "FlipAngle": 10.0,
      "HighBit": 11,
      "ImageOrientationPatient": [0.98432966803541, -0.1762979147296, 0.00376163359323, 0.16701706055878, 0.93893088087006, 0.30085561725],
      "ImagePositionPatient": [-825.29976038295, -534.70095832314, -282.65271345381],
      "ImageType": [
        "ORIGINAL",
        "PRIMARY",
        "M",
        "ND",
        "NORM",
        "MOSAIC"
],
      "ImagedNucleus": "1H",
      "ImagingFrequency": 123.259173,
      "InPlanePhaseEncodingDirection": "COL",
      "MRAcquisitionType": "2D",
      "MagneticFieldStrength": 3.0,
      "Manufacturer": "SIEMENS",
      "ManufacturerModelName": "Prisma",
      "Modality": "MR",
      "NumberOfAverages": 1.0,
      "NumberOfPhaseEncodingSteps": 80,
      "PercentPhaseFieldOfView": 100.0,
      "PercentSampling": 100.0,
      "PerformedProcedureStepStartTime": "093654.614000",
      "PhotometricInterpretation": "MONOCHROME2",
      "PixelBandwidth": 2315.0,
      "PixelRepresentation": 0,
      "PixelSpacing": [3.0, 3.0],
      "ProtocolName": "func-bold_fa-10",
      "RepetitionTime": 2000.0,
      "Rows": 480,
      "SAR": 0.01518561725972,
      "SamplesPerPixel": 1,
      "ScanOptions": "FS",
      "ScanningSequence": "EP",
      "SequenceName": "*epfid2d1_80",
      "SequenceVariant": "SK",
      "SeriesDescription": "func-bold_fa-10",
      "SeriesNumber": 8,
      "SeriesTime": "101353.631000",
      "SliceLocation": -64.855259136156,
      "SliceThickness": 3.5,
      "SmallestImagePixelValue": 0,
      "SoftwareVersions": "syngo MR E11",
      "SpacingBetweenSlices": 3.9900000076762,
      "SpecificCharacterSet": "ISO_IR 100",
      "StudyID": "32",
      "StudyTime": "093654.578000",
      "TransmitCoilName": "Body",
      "VariableFlipAngleFlag": "N",
      "WindowCenterWidthExplanation": "Algo1"
    },
    "slices": {}
  },
  "time": {
    "samples": {
      "AcquisitionNumber": [1, 2, 3, 4, 5, 6, 7, 8, 9, 10, 11, 12, 13, 14, 15, 16, 17, 18, 19, 20, 21, 22, 23, 24, 25, 26, 27, 28, 29, 30, 31, 32, 33, 34, 35, 36, 37, 38, 39, 40, 41, 42, 43, 44, 45, 46, 47, 48, 49, 50, 51, 52, 53, 54, 55, 56, 57, 58, 59, 60, 61, 62, 63, 64, 65, 66, 67, 68, 69, 70, 71, 72, 73, 74, 75, 76, 77, 78, 79, 80, 81, 82, 83, 84, 85, 86, 87, 88, 89, 90, 91, 92, 93, 94, 95, 96, 97, 98, 99, 100, 101, 102, 103, 104, 105, 106, 107, 108, 109, 110, 111, 112, 113, 114, 115, 116, 117, 118, 119, 120, 121, 122, 123, 124, 125, 126, 127, 128, 129, 130, 131, 132, 133, 134, 135, 136, 137, 138, 139, 140, 141, 142, 143, 144, 145, 146, 147, 148, 149, 150, 151, 152, 153, 154, 155, 156, 157, 158, 159, 160, 161, 162, 163, 164, 165, 166, 167, 168, 169, 170, 171, 172, 173, 174, 175, 176, 177, 178, 179, 180, 181, 182, 183, 184, 185, 186, 187, 188, 189, 190, 191, 192, 193, 194, 195, 196, 197, 198, 199, 200],
      "AcquisitionTime": ["101307.465000", "101309.465000", "101311.465000", "101313.465000", "101315.465000", "101317.465000", "101319.465000", "101321.465000", "101323.465000", "101325.465000", "101327.465000", "101329.465000", "101331.465000", "101333.465000", "101335.465000", "101337.465000", "101339.465000", "101341.465000", "101343.465000", "101345.465000", "101347.465000", "101349.465000", "101351.465000", "101353.465000", "101355.465000", "101357.465000", "101359.465000", "101401.465000", "101403.465000", "101405.465000", "101407.465000", "101409.465000", "101411.465000", "101413.465000", "101415.465000", "101417.465000", "101419.465000", "101421.465000", "101423.465000", "101425.465000", "101427.465000", "101429.465000", "101431.465000", "101433.465000", "101435.465000", "101437.465000", "101439.465000", "101441.465000", "101443.465000", "101445.465000", "101447.465000", "101449.465000", "101451.465000", "101453.465000", "101455.465000", "101457.465000", "101459.465000", "101501.465000", "101503.465000", "101505.465000", "101507.465000", "101509.465000", "101511.465000", "101513.465000", "101515.465000", "101517.465000", "101519.465000", "101521.465000", "101523.465000", "101525.465000", "101527.465000", "101529.465000", "101531.465000", "101533.465000", "101535.465000", "101537.465000", "101539.465000", "101541.465000", "101543.465000", "101545.465000", "101547.465000", "101549.465000", "101551.465000", "101553.465000", "101555.465000", "101557.465000", "101559.465000", "101601.465000", "101603.465000", "101605.465000", "101607.465000", "101609.465000", "101611.465000", "101613.465000", "101615.465000", "101617.465000", "101619.465000", "101621.465000", "101623.465000", "101625.465000", "101627.465000", "101629.465000", "101631.465000", "101633.465000", "101635.465000", "101637.465000", "101639.465000", "101641.465000", "101643.465000", "101645.465000", "101647.465000", "101649.465000", "101651.465000", "101653.465000", "101655.465000", "101657.465000", "101659.465000", "101701.465000", "101703.465000", "101705.465000", "101707.465000", "101709.465000", "101711.465000", "101713.465000", "101715.465000", "101717.465000", "101719.465000", "101721.465000", "101723.465000", "101725.465000", "101727.465000", "101729.465000", "101731.465000", "101733.465000", "101735.465000", "101737.465000", "101739.465000", "101741.465000", "101743.465000", "101745.465000", "101747.465000", "101749.465000", "101751.465000", "101753.465000", "101755.465000", "101757.465000", "101759.465000", "101801.465000", "101803.465000", "101805.465000", "101807.465000", "101809.465000", "101811.465000", "101813.465000", "101815.465000", "101817.465000", "101819.465000", "101821.465000", "101823.465000", "101825.465000", "101827.465000", "101829.465000", "101831.465000", "101833.465000", "101835.465000", "101837.465000", "101839.465000", "101841.465000", "101843.465000", "101845.465000", "101847.465000", "101849.465000", "101851.465000", "101853.465000", "101855.465000", "101857.465000", "101859.465000", "101901.465000", "101903.465000", "101905.465000", "101907.465000", "101909.465000", "101911.465000", "101913.465000", "101915.465000", "101917.465000", "101919.465000", "101921.465000", "101923.465000", "101925.465000", "101927.465000", "101929.465000", "101931.465000", "101933.465000", "101935.465000", "101937.465000", "101939.465000", "101941.465000", "101943.465000", "101945.465000"],
      "ContentTime": ["101353.634000", "101353.637000", "101353.640000", "101353.642000", "101353.645000", "101353.647000", "101353.649000", "101353.651000", "101353.654000", "101353.656000", "101353.658000", "101353.661000", "101353.663000", "101353.665000", "101353.668000", "101353.670000", "101353.672000", "101353.674000", "101353.687000", "101353.689000", "101353.691000", "101353.694000", "101353.696000", "101433.628000", "101433.631000", "101433.633000", "101433.636000", "101433.638000", "101433.640000", "101433.643000", "101433.645000", "101433.647000", "101433.650000", "101433.652000", "101433.654000", "101433.656000", "101433.659000", "101433.661000", "101433.663000", "101433.666000", "101433.668000", "101433.670000", "101433.673000", "101513.629000", "101513.632000", "101513.634000", "101513.644000", "101513.646000", "101513.648000", "101513.651000", "101513.653000", "101513.655000", "101513.658000", "101513.660000", "101513.662000", "101513.665000", "101513.667000", "101513.669000", "101513.672000", "101513.674000", "101513.683000", "101513.685000", "101513.688000", "101553.629000", "101553.632000", "101553.634000", "101553.637000", "101553.639000", "101553.641000", "101553.644000", "101553.646000", "101553.648000", "101553.651000", "101553.653000", "101553.655000", "101553.658000", "101553.660000", "101553.662000", "101553.665000", "101553.667000", "101553.669000", "101553.672000", "101553.674000", "101633.629000", "101633.632000", "101633.634000", "101633.636000", "101633.639000", "101633.641000", "101633.643000", "101633.646000", "101633.648000", "101633.651000", "101633.653000", "101633.655000", "101633.658000", "101633.660000", "101633.662000", "101633.664000", "101633.667000", "101633.669000", "101633.671000", "101633.674000", "101713.628000", "101713.631000", "101713.633000", "101713.635000", "101713.638000", "101713.640000", "101713.642000", "101713.645000", "101713.647000", "101713.649000", "101713.652000", "101713.654000", "101713.656000", "101713.659000", "101713.661000", "101713.663000", "101713.666000", "101713.668000", "101713.670000", "101713.673000", "101753.629000", "101753.632000", "101753.634000", "101753.642000", "101753.645000", "101753.647000", "101753.649000", "101753.652000", "101753.654000", "101753.656000", "101753.659000", "101753.661000", "101753.663000", "101753.666000", "101753.668000", "101753.670000", "101753.673000", "101753.675000", "101753.677000", "101753.680000", "101833.629000", "101833.632000", "101833.634000", "101833.636000", "101833.639000", "101833.641000", "101833.643000", "101833.646000", "101833.648000", "101833.651000", "101833.653000", "101833.655000", "101833.658000", "101833.660000", "101833.662000", "101833.664000", "101833.667000", "101833.669000", "101833.671000", "101833.674000", "101913.628000", "101913.631000", "101913.633000", "101913.635000", "101913.638000", "101913.640000", "101913.643000", "101913.645000", "101913.647000", "101913.649000", "101913.652000", "101913.659000", "101913.661000", "101913.664000", "101913.666000", "101913.668000", "101913.671000", "101913.673000", "101913.675000", "101913.677000", "101946.715000", "101946.718000", "101946.720000", "101946.723000", "101946.725000", "101946.728000", "101946.731000", "101946.733000", "101946.735000", "101946.738000", "101946.740000", "101946.743000", "101946.746000", "101946.749000", "101946.755000", "101946.757000", "101946.760000"],
      "InstanceCreationTime": ["101353.634000", "101353.637000", "101353.640000", "101353.642000", "101353.645000", "101353.647000", "101353.649000", "101353.651000", "101353.654000", "101353.656000", "101353.658000", "101353.661000", "101353.663000", "101353.665000", "101353.668000", "101353.670000", "101353.672000", "101353.674000", "101353.687000", "101353.689000", "101353.691000", "101353.694000", "101353.696000", "101433.628000", "101433.631000", "101433.633000", "101433.636000", "101433.638000", "101433.640000", "101433.643000", "101433.645000", "101433.647000", "101433.650000", "101433.652000", "101433.654000", "101433.656000", "101433.659000", "101433.661000", "101433.663000", "101433.666000", "101433.668000", "101433.670000", "101433.673000", "101513.629000", "101513.632000", "101513.634000", "101513.644000", "101513.646000", "101513.648000", "101513.651000", "101513.653000", "101513.655000", "101513.658000", "101513.660000", "101513.662000", "101513.665000", "101513.667000", "101513.669000", "101513.672000", "101513.674000", "101513.683000", "101513.685000", "101513.688000", "101553.629000", "101553.632000", "101553.634000", "101553.637000", "101553.639000", "101553.641000", "101553.644000", "101553.646000", "101553.648000", "101553.651000", "101553.653000", "101553.655000", "101553.658000", "101553.660000", "101553.662000", "101553.665000", "101553.667000", "101553.669000", "101553.672000", "101553.674000", "101633.629000", "101633.632000", "101633.634000", "101633.636000", "101633.639000", "101633.641000", "101633.643000", "101633.646000", "101633.648000", "101633.651000", "101633.653000", "101633.655000", "101633.658000", "101633.660000", "101633.662000", "101633.664000", "101633.667000", "101633.669000", "101633.671000", "101633.674000", "101713.628000", "101713.631000", "101713.633000", "101713.635000", "101713.638000", "101713.640000", "101713.642000", "101713.645000", "101713.647000", "101713.649000", "101713.652000", "101713.654000", "101713.656000", "101713.659000", "101713.661000", "101713.663000", "101713.666000", "101713.668000", "101713.670000", "101713.673000", "101753.629000", "101753.632000", "101753.634000", "101753.642000", "101753.645000", "101753.647000", "101753.649000", "101753.652000", "101753.654000", "101753.656000", "101753.659000", "101753.661000", "101753.663000", "101753.666000", "101753.668000", "101753.670000", "101753.673000", "101753.675000", "101753.677000", "101753.680000", "101833.629000", "101833.632000", "101833.634000", "101833.636000", "101833.639000", "101833.641000", "101833.643000", "101833.646000", "101833.648000", "101833.651000", "101833.653000", "101833.655000", "101833.658000", "101833.660000", "101833.662000", "101833.664000", "101833.667000", "101833.669000", "101833.671000", "101833.674000", "101913.628000", "101913.631000", "101913.633000", "101913.635000", "101913.638000", "101913.640000", "101913.643000", "101913.645000", "101913.647000", "101913.649000", "101913.652000", "101913.659000", "101913.661000", "101913.664000", "101913.666000", "101913.668000", "101913.671000", "101913.673000", "101913.675000", "101913.677000", "101946.715000", "101946.718000", "101946.720000", "101946.723000", "101946.725000", "101946.728000", "101946.731000", "101946.733000", "101946.735000", "101946.738000", "101946.740000", "101946.743000", "101946.746000", "101946.749000", "101946.755000", "101946.757000", "101946.760000"],
      "InstanceNumber": [1, 2, 3, 4, 5, 6, 7, 8, 9, 10, 11, 12, 13, 14, 15, 16, 17, 18, 19, 20, 21, 22, 23, 24, 25, 26, 27, 28, 29, 30, 31, 32, 33, 34, 35, 36, 37, 38, 39, 40, 41, 42, 43, 44, 45, 46, 47, 48, 49, 50, 51, 52, 53, 54, 55, 56, 57, 58, 59, 60, 61, 62, 63, 64, 65, 66, 67, 68, 69, 70, 71, 72, 73, 74, 75, 76, 77, 78, 79, 80, 81, 82, 83, 84, 85, 86, 87, 88, 89, 90, 91, 92, 93, 94, 95, 96, 97, 98, 99, 100, 101, 102, 103, 104, 105, 106, 107, 108, 109, 110, 111, 112, 113, 114, 115, 116, 117, 118, 119, 120, 121, 122, 123, 124, 125, 126, 127, 128, 129, 130, 131, 132, 133, 134, 135, 136, 137, 138, 139, 140, 141, 142, 143, 144, 145, 146, 147, 148, 149, 150, 151, 152, 153, 154, 155, 156, 157, 158, 159, 160, 161, 162, 163, 164, 165, 166, 167, 168, 169, 170, 171, 172, 173, 174, 175, 176, 177, 178, 179, 180, 181, 182, 183, 184, 185, 186, 187, 188, 189, 190, 191, 192, 193, 194, 195, 196, 197, 198, 199, 200],
      "LargestImagePixelValue": [374, 374, 373, 374, 375, 376, 375, 376, 376, 375, 374, 375, 375, 376, 376, 377, 374, 375, 374, 377, 375, 373, 373, 375, 373, 373, 375, 375, 373, 373, 376, 375, 376, 375, 375, 375, 374, 377, 375, 376, 374, 376, 375, 377, 376, 377, 375, 375, 376, 373, 375, 372, 372, 374, 375, 372, 373, 374, 373, 376, 375, 377, 373, 375, 375, 375, 373, 375, 375, 376, 373, 375, 376, 375, 376, 376, 375, 375, 376, 374, 374, 373, 375, 373, 375, 375, 375, 376, 374, 374, 376, 373, 375, 374, 374, 375, 375, 375, 375, 377, 376, 376, 376, 374, 375, 374, 373, 376, 373, 373, 375, 375, 373, 375, 375, 374, 373, 373, 373, 374, 374, 374, 375, 374, 374, 375, 375, 375, 376, 375, 373, 375, 374, 376, 376, 376, 375, 375, 374, 373, 374, 374, 374, 374, 374, 374, 375, 370, 375, 373, 373, 374, 372, 372, 374, 374, 375, 372, 374, 376, 374, 375, 375, 376, 373, 374, 376, 375, 376, 376, 376, 376, 377, 376, 375, 373, 374, 374, 373, 375, 375, 374, 373, 372, 374, 375, 374, 374, 374, 373, 378, 375, 375, 375, 374, 375, 374, 376, 376, 375],
      "WindowCenter": [298.0, 298.0, 298.0, 298.0, 297.0, 298.0, 298.0, 298.0, 298.0, 298.0, 298.0, 298.0, 298.0, 298.0, 297.0, 299.0, 298.0, 298.0, 298.0, 298.0, 298.0, 297.0, 298.0, 298.0, 298.0, 298.0, 297.0, 297.0, 297.0, 298.0, 298.0, 298.0, 298.0, 298.0, 297.0, 298.0, 298.0, 298.0, 298.0, 298.0, 298.0, 298.0, 298.0, 297.0, 298.0, 297.0, 298.0, 298.0, 298.0, 297.0, 297.0, 298.0, 297.0, 298.0, 298.0, 298.0, 298.0, 298.0, 298.0, 297.0, 298.0, 298.0, 298.0, 298.0, 297.0, 298.0, 297.0, 298.0, 298.0, 298.0, 297.0, 297.0, 298.0, 297.0, 298.0, 297.0, 298.0, 297.0, 298.0, 298.0, 297.0, 298.0, 297.0, 298.0, 298.0, 298.0, 298.0, 298.0, 298.0, 297.0, 297.0, 298.0, 298.0, 298.0, 297.0, 298.0, 297.0, 298.0, 298.0, 298.0, 297.0, 297.0, 298.0, 297.0, 298.0, 298.0, 297.0, 298.0, 297.0, 298.0, 297.0, 297.0, 298.0, 298.0, 298.0, 297.0, 298.0, 297.0, 298.0, 298.0, 298.0, 298.0, 298.0, 298.0, 297.0, 298.0, 297.0, 298.0, 298.0, 298.0, 297.0, 297.0, 298.0, 298.0, 297.0, 298.0, 297.0, 298.0, 298.0, 298.0, 297.0, 297.0, 298.0, 297.0, 298.0, 298.0, 298.0, 297.0, 297.0, 298.0, 297.0, 298.0, 297.0, 297.0, 297.0, 297.0, 298.0, 298.0, 297.0, 297.0, 298.0, 298.0, 297.0, 298.0, 297.0, 298.0, 298.0, 298.0, 298.0, 298.0, 298.0, 298.0, 297.0, 298.0, 298.0, 297.0, 297.0, 298.0, 297.0, 298.0, 298.0, 298.0, 298.0, 298.0, 297.0, 298.0, 298.0, 298.0, 298.0, 297.0, 297.0, 297.0, 298.0, 298.0, 297.0, 298.0, 297.0, 297.0, 298.0, 298.0],
      "WindowWidth": [647.0, 646.0, 646.0, 646.0, 646.0, 647.0, 646.0, 647.0, 646.0, 647.0, 647.0, 646.0, 647.0, 646.0, 646.0, 647.0, 647.0, 647.0, 647.0, 647.0, 647.0, 646.0, 647.0, 646.0, 646.0, 646.0, 645.0, 646.0, 646.0, 647.0, 646.0, 647.0, 646.0, 646.0, 646.0, 646.0, 646.0, 646.0, 646.0, 646.0, 646.0, 646.0, 647.0, 646.0, 646.0, 646.0, 646.0, 647.0, 646.0, 646.0, 646.0, 646.0, 646.0, 646.0, 646.0, 647.0, 647.0, 647.0, 646.0, 646.0, 646.0, 646.0, 646.0, 646.0, 646.0, 646.0, 645.0, 646.0, 646.0, 646.0, 646.0, 646.0, 646.0, 646.0, 646.0, 646.0, 646.0, 646.0, 646.0, 646.0, 646.0, 646.0, 645.0, 646.0, 646.0, 646.0, 646.0, 646.0, 646.0, 645.0, 645.0, 646.0, 646.0, 646.0, 646.0, 646.0, 645.0, 646.0, 646.0, 646.0, 645.0, 645.0, 646.0, 645.0, 646.0, 646.0, 645.0, 646.0, 645.0, 646.0, 646.0, 646.0, 646.0, 646.0, 646.0, 645.0, 646.0, 645.0, 646.0, 646.0, 646.0, 646.0, 646.0, 646.0, 645.0, 646.0, 645.0, 646.0, 646.0, 646.0, 646.0, 645.0, 646.0, 646.0, 645.0, 646.0, 645.0, 646.0, 646.0, 646.0, 645.0, 645.0, 646.0, 646.0, 646.0, 646.0, 646.0, 646.0, 645.0, 646.0, 645.0, 646.0, 645.0, 645.0, 645.0, 645.0, 646.0, 646.0, 645.0, 645.0, 646.0, 646.0, 645.0, 646.0, 645.0, 646.0, 646.0, 646.0, 646.0, 646.0, 646.0, 646.0, 645.0, 646.0, 646.0, 645.0, 645.0, 646.0, 646.0, 646.0, 646.0, 646.0, 646.0, 646.0, 645.0, 646.0, 646.0, 646.0, 646.0, 645.0, 645.0, 645.0, 646.0, 646.0, 645.0, 646.0, 645.0, 646.0, 646.0, 646.0]
    },
    "slices": {}
  }
}