{
  "AcquisitionMatrixPE": 80,
  "AcquisitionNumber": 1,
  "AcquisitionTime": "09:44:28.422500",
  "BandwidthPerPixelPhaseEncode": 25,
  "BaseResolution": 80,
  "BodyPartExamined": "BRAIN",
  "CoilCombinationMethod": "Sum of Squares",
  "ConsistencyInfo": "N4_VE11E_LATEST_20181129",
  "ConversionSoftware": "dcm2niix",
  "ConversionSoftwareVersion": "v1.0.20220720",
  "DerivedVendorReportedEchoSpacing": 0.0005,
  "DeviceSerialNumber": "66112",
  "DwellTime": 2.7e-06,
  "EchoTime": 0.03,
  "EchoTrainLength": 80,
  "EffectiveEchoSpacing": 0.0005,
  "FlipAngle": 77,
  "HeudiconvVersion": "0.13.1",
  "ImageOrientationPatientDICOM": [0.989232, -0.146334, 0.00242964, 0.138675, 0.942509, 0.304048],
  "ImageOrientationText": "Tra>Cor(17.5)>Sag(2.7)",
  "ImageType": [
    "ORIGINAL",
    "PRIMARY",
    "M",
    "ND",
    "NORM",
    "MOSAIC"
],
  "ImagingFrequency": 123.259,
  "InPlanePhaseEncodingDirectionDICOM": "COL",
  "InstitutionAddress": "Maynard 3,Hanover,NH,US,03755",
  "InstitutionName": "Dartmouth College - PBS",
  "InstitutionalDepartmentName": "Department",
  "MRAcquisitionType": "2D",
  "MagneticFieldStrength": 3,
  "Manufacturer": "Siemens",
  "ManufacturersModelName": "Prisma",
  "MatrixCoilMode": "SENSE",
  "Modality": "MR",
  "NonlinearGradientCorrection": false,
  "PartialFourier": 1,
  "PatientPosition": "HFS",
  "PercentPhaseFOV": 100,
  "PercentSampling": 100,
  "PhaseEncodingDirection": "j-",
  "PhaseEncodingSteps": 80,
  "PhaseResolution": 1,
  "PixelBandwidth": 2315,
  "ProcedureStepDescription": "dbic^QA",
  "ProtocolName": "func-bold_fa-77",
  "PulseSequenceDetails": "%SiemensSeq%\\ep2d_bold",
  "ReceiveCoilActiveElements": "HEA;HEP",
  "ReceiveCoilName": "Head_32",
  "ReconMatrixPE": 80,
  "RepetitionTime": 2,
  "SAR": 0.0427332,
  "ScanOptions": "FS",
  "ScanningSequence": "EP",
  "SequenceName": "*epfid2d1_80",
  "SequenceVariant": "SK",
  "SeriesDescription": "func-bold_fa-77",
  "SeriesNumber": 8,
  "ShimSetting": [4237, -7740, -7484, 3, -116, 11, 19, 85],
  "SliceThickness": 3.5,
  "SliceTiming": [0.99, 0, 1.055, 0.065, 1.1225, 0.1325, 1.1875, 0.1975, 1.2525, 0.2625, 1.32, 0.33, 1.385, 0.395, 1.4525, 0.4625, 1.5175, 0.5275, 1.5825, 0.5925, 1.65, 0.66, 1.715, 0.725, 1.7825, 0.7925, 1.8475, 0.8575, 1.9125, 0.9225],
  "SoftwareVersions": "syngo MR E11",
  "SpacingBetweenSlices": 3.99,
  "StationName": "AWP66112",
  "TotalReadoutTime": 0.0395,
  "TxRefAmp": 232.631,
  "dcmmeta_affine": [
    [-2.9676969051361084, 0.41602638363838196, 0.1866617649793625, 98.01605987548828],
    [0.43900132179260254, 2.827528476715088, 1.1987427473068237, -140.9320526123047],
    [0.007288928609341383, -0.9121428728103638, 3.801088333129883, 1.8034234046936035],
    [0.0, 0.0, 0.0, 1.0]
],
  "dcmmeta_reorient_transform": [
    [0.0, -1.0, 0.0, 79.0],
    [1.0, 0.0, 0.0, 0.0],
    [0.0, 0.0, 1.0, 0.0],
    [0.0, 0.0, 0.0, 1.0]
],
  "dcmmeta_shape": [80, 80, 30, 200],
  "dcmmeta_slice_dim": 2,
  "dcmmeta_version": 0.6,
  "global": {
    "const": {
      "AccessionNumber": "qa",
      "AcquisitionMatrix": [80, 0, 0, 80],
      "AngioFlag": "N",
      "BitsAllocated": 16,
      "BitsStored": 12,
      "BodyPartExamined": "BRAIN",
      "Columns": 480,
      "EchoNumbers": 1,
      "EchoTime": 30.0,
      "EchoTrainLength": 80,
      "FlipAngle": 77.0,
      "HighBit": 11,
      "ImageOrientationPatient": [0.98923229013761, -0.1463337725357, 0.00242964288919, 0.13867546065119, 0.94250949930595, 0.30404762839272],
      "ImagePositionPatient": [-807.62679799805, -560.14813078801, -254.14222724192],
      "ImageType": [
        "ORIGINAL",
        "PRIMARY",
        "M",
        "ND",
        "NORM",
        "MOSAIC"
],
      "ImagedNucleus": "1H",
      "ImagingFrequency": 123.259459,
      "InPlanePhaseEncodingDirection": "COL",
      "MRAcquisitionType": "2D",
      "MagneticFieldStrength": 3.0,
      "Manufacturer": "SIEMENS",
      "ManufacturerModelName": "Prisma",
      "Modality": "MR",
      "NumberOfAverages": 1.0,
      "NumberOfPhaseEncodingSteps": 80,
      "PercentPhaseFieldOfView": 100.0,
      "PercentSampling": 100.0,
      "PerformedProcedureStepStartTime": "092641.984000",
      "PhotometricInterpretation": "MONOCHROME2",
      "PixelBandwidth": 2315.0,
      "PixelRepresentation": 0,
      "PixelSpacing": [3.0, 3.0],
      "ProtocolName": "func-bold_fa-77",
      "RepetitionTime": 2000.0,
      "Rows": 480,
      "SAR": 0.04273322057452,
      "SamplesPerPixel": 1,
      "ScanOptions": "FS",
      "ScanningSequence": "EP",
      "SequenceName": "*epfid2d1_80",
      "SequenceVariant": "SK",
      "SeriesDescription": "func-bold_fa-77",
      "SeriesNumber": 8,
      "SeriesTime": "094514.824000",
      "SliceLocation": -36.037711516051,
      "SliceThickness": 3.5,
      "SmallestImagePixelValue": 0,
      "SoftwareVersions": "syngo MR E11",
      "SpacingBetweenSlices": 3.9899998741881,
      "SpecificCharacterSet": "ISO_IR 100",
      "StudyID": "20",
      "StudyTime": "092641.926000",
      "TransmitCoilName": "Body",
      "VariableFlipAngleFlag": "N",
      "WindowCenterWidthExplanation": "Algo1"
    },
    "slices": {}
  },
  "time": {
    "samples": {
      "AcquisitionNumber": [1, 2, 3, 4, 5, 6, 7, 8, 9, 10, 11, 12, 13, 14, 15, 16, 17, 18, 19, 20, 21, 22, 23, 24, 25, 26, 27, 28, 29, 30, 31, 32, 33, 34, 35, 36, 37, 38, 39, 40, 41, 42, 43, 44, 45, 46, 47, 48, 49, 50, 51, 52, 53, 54, 55, 56, 57, 58, 59, 60, 61, 62, 63, 64, 65, 66, 67, 68, 69, 70, 71, 72, 73, 74, 75, 76, 77, 78, 79, 80, 81, 82, 83, 84, 85, 86, 87, 88, 89, 90, 91, 92, 93, 94, 95, 96, 97, 98, 99, 100, 101, 102, 103, 104, 105, 106, 107, 108, 109, 110, 111, 112, 113, 114, 115, 116, 117, 118, 119, 120, 121, 122, 123, 124, 125, 126, 127, 128, 129, 130, 131, 132, 133, 134, 135, 136, 137, 138, 139, 140, 141, 142, 143, 144, 145, 146, 147, 148, 149, 150, 151, 152, 153, 154, 155, 156, 157, 158, 159, 160, 161, 162, 163, 164, 165, 166, 167, 168, 169, 170, 171, 172, 173, 174, 175, 176, 177, 178, 179, 180, 181, 182, 183, 184, 185, 186, 187, 188, 189, 190, 191, 192, 193, 194, 195, 196, 197, 198, 199, 200],
      "AcquisitionTime": ["094428.422500", "094430.422500", "094432.422500", "094434.422500", "094436.422500", "094438.422500", "094440.422500", "094442.422500", "094444.422500", "094446.422500", "094448.422500", "094450.422500", "094452.422500", "094454.422500", "094456.422500", "094458.422500", "094500.422500", "094502.422500", "094504.422500", "094506.422500", "094508.422500", "094510.422500", "094512.422500", "094514.422500", "094516.422500", "094518.422500", "094520.422500", "094522.422500", "094524.422500", "094526.422500", "094528.422500", "094530.422500", "094532.422500", "094534.422500", "094536.422500", "094538.422500", "094540.422500", "094542.422500", "094544.422500", "094546.422500", "094548.422500", "094550.422500", "094552.422500", "094554.422500", "094556.422500", "094558.422500", "094600.422500", "094602.422500", "094604.422500", "094606.422500", "094608.422500", "094610.422500", "094612.422500", "094614.422500", "094616.422500", "094618.422500", "094620.422500", "094622.422500", "094624.422500", "094626.422500", "094628.422500", "094630.422500", "094632.422500", "094634.422500", "094636.422500", "094638.422500", "094640.422500", "094642.422500", "094644.422500", "094646.422500", "094648.422500", "094650.422500", "094652.422500", "094654.422500", "094656.422500", "094658.422500", "094700.422500", "094702.422500", "094704.422500", "094706.422500", "094708.422500", "094710.422500", "094712.422500", "094714.422500", "094716.422500", "094718.422500", "094720.422500", "094722.422500", "094724.422500", "094726.422500", "094728.422500", "094730.422500", "094732.422500", "094734.422500", "094736.422500", "094738.422500", "094740.422500", "094742.422500", "094744.422500", "094746.422500", "094748.422500", "094750.422500", "094752.422500", "094754.422500", "094756.422500", "094758.422500", "094800.422500", "094802.422500", "094804.422500", "094806.422500", "094808.422500", "094810.422500", "094812.422500", "094814.422500", "094816.422500", "094818.422500", "094820.422500", "094822.422500", "094824.422500", "094826.422500", "094828.422500", "094830.422500", "094832.422500", "094834.422500", "094836.422500", "094838.422500", "094840.422500", "094842.422500", "094844.422500", "094846.422500", "094848.422500", "094850.422500", "094852.422500", "094854.422500", "094856.422500", "094858.422500", "094900.422500", "094902.422500", "094904.422500", "094906.422500", "094908.422500", "094910.422500", "094912.422500", "094914.422500", "094916.422500", "094918.422500", "094920.422500", "094922.422500", "094924.422500", "094926.422500", "094928.422500", "094930.422500", "094932.422500", "094934.422500", "094936.422500", "094938.422500", "094940.422500", "094942.422500", "094944.422500", "094946.422500", "094948.422500", "094950.422500", "094952.422500", "094954.422500", "094956.422500", "094958.422500", "095000.422500", "095002.422500", "095004.422500", "095006.422500", "095008.422500", "095010.422500", "095012.422500", "095014.422500", "095016.422500", "095018.422500", "095020.422500", "095022.422500", "095024.422500", "095026.422500", "095028.422500", "095030.422500", "095032.422500", "095034.422500", "095036.422500", "095038.422500", "095040.422500", "095042.422500", "095044.422500", "095046.422500", "095048.422500", "095050.422500", "095052.422500", "095054.422500", "095056.422500", "095058.422500", "095100.422500", "095102.422500", "095104.422500", "095106.422500"],
      "ContentTime": ["094514.827000", "094514.830000", "094514.833000", "094514.835000", "094514.837000", "094514.839000", "094514.842000", "094514.844000", "094514.846000", "094514.849000", "094514.851000", "094514.853000", "094514.856000", "094514.858000", "094514.860000", "094514.863000", "094514.865000", "094514.867000", "094514.870000", "094514.872000", "094514.874000", "094514.877000", "094514.879000", "094554.822000", "094554.825000", "094554.827000", "094554.829000", "094554.832000", "094554.834000", "094554.836000", "094554.839000", "094554.841000", "094554.843000", "094554.845000", "094554.848000", "094554.850000", "094554.852000", "094554.855000", "094554.857000", "094554.859000", "094554.862000", "094554.864000", "094554.866000", "094634.822000", "094634.825000", "094634.827000", "094634.829000", "094634.832000", "094634.834000", "094634.836000", "094634.839000", "094634.841000", "094634.843000", "094634.846000", "094634.848000", "094634.850000", "094634.852000", "094634.855000", "094634.857000", "094634.859000", "094634.861000", "094634.864000", "094634.866000", "094714.822000", "094714.825000", "094714.827000", "094714.829000", "094714.832000", "094714.834000", "094714.836000", "094714.839000", "094714.841000", "094714.843000", "094714.845000", "094714.848000", "094714.850000", "094714.852000", "094714.855000", "094714.857000", "094714.859000", "094714.862000", "094714.864000", "094714.866000", "094754.822000", "094754.825000", "094754.827000", "094754.829000", "094754.832000", "094754.834000", "094754.836000", "094754.838000", "094754.841000", "094754.843000", "094754.845000", "094754.847000", "094754.850000", "094754.852000", "094754.854000", "094754.857000", "094754.859000", "094754.861000", "094754.863000", "094754.866000", "094834.822000", "094834.825000", "094834.827000", "094834.829000", "094834.832000", "094834.834000", "094834.836000", "094834.838000", "094834.841000", "094834.843000", "094834.845000", "094834.848000", "094834.850000", "094834.852000", "094834.854000", "094834.857000", "094834.859000", "094834.861000", "094834.864000", "094834.866000", "094914.822000", "094914.825000", "094914.827000", "094914.829000", "094914.831000", "094914.834000", "094914.836000", "094914.838000", "094914.841000", "094914.843000", "094914.845000", "094914.848000", "094914.850000", "094914.852000", "094914.854000", "094914.857000", "094914.859000", "094914.861000", "094914.864000", "094914.866000", "094954.822000", "094954.825000", "094954.827000", "094954.829000", "094954.831000", "094954.834000", "094954.836000", "094954.838000", "094954.840000", "094954.843000", "094954.845000", "094954.847000", "094954.850000", "094954.852000", "094954.854000", "094954.856000", "094954.859000", "094954.861000", "094954.863000", "094954.865000", "095034.822000", "095034.825000", "095034.827000", "095034.829000", "095034.832000", "095034.834000", "095034.836000", "095034.839000", "095034.841000", "095034.843000", "095034.846000", "095034.848000", "095034.850000", "095034.852000", "095034.855000", "095034.857000", "095034.859000", "095034.862000", "095034.864000", "095034.866000", "095108.082000", "095108.084000", "095108.087000", "095108.089000", "095108.092000", "095108.094000", "095108.096000", "095108.098000", "095108.101000", "095108.103000", "095108.105000", "095108.108000", "095108.110000", "095108.113000", "095108.116000", "095108.120000", "095108.123000"],
      "InstanceCreationTime": ["094514.827000", "094514.830000", "094514.833000", "094514.835000", "094514.837000", "094514.839000", "094514.842000", "094514.844000", "094514.846000", "094514.849000", "094514.851000", "094514.853000", "094514.856000", "094514.858000", "094514.860000", "094514.863000", "094514.865000", "094514.867000", "094514.870000", "094514.872000", "094514.874000", "094514.877000", "094514.879000", "094554.822000", "094554.825000", "094554.827000", "094554.829000", "094554.832000", "094554.834000", "094554.836000", "094554.839000", "094554.841000", "094554.843000", "094554.845000", "094554.848000", "094554.850000", "094554.852000", "094554.855000", "094554.857000", "094554.859000", "094554.862000", "094554.864000", "094554.866000", "094634.822000", "094634.825000", "094634.827000", "094634.829000", "094634.832000", "094634.834000", "094634.836000", "094634.839000", "094634.841000", "094634.843000", "094634.846000", "094634.848000", "094634.850000", "094634.852000", "094634.855000", "094634.857000", "094634.859000", "094634.861000", "094634.864000", "094634.866000", "094714.822000", "094714.825000", "094714.827000", "094714.829000", "094714.832000", "094714.834000", "094714.836000", "094714.839000", "094714.841000", "094714.843000", "094714.845000", "094714.848000", "094714.850000", "094714.852000", "094714.855000", "094714.857000", "094714.859000", "094714.862000", "094714.864000", "094714.866000", "094754.822000", "094754.825000", "094754.827000", "094754.829000", "094754.832000", "094754.834000", "094754.836000", "094754.838000", "094754.841000", "094754.843000", "094754.845000", "094754.847000", "094754.850000", "094754.852000", "094754.854000", "094754.857000", "094754.859000", "094754.861000", "094754.863000", "094754.866000", "094834.822000", "094834.825000", "094834.827000", "094834.829000", "094834.832000", "094834.834000", "094834.836000", "094834.838000", "094834.841000", "094834.843000", "094834.845000", "094834.848000", "094834.850000", "094834.852000", "094834.854000", "094834.857000", "094834.859000", "094834.861000", "094834.864000", "094834.866000", "094914.822000", "094914.825000", "094914.827000", "094914.829000", "094914.831000", "094914.834000", "094914.836000", "094914.838000", "094914.841000", "094914.843000", "094914.845000", "094914.848000", "094914.850000", "094914.852000", "094914.854000", "094914.857000", "094914.859000", "094914.861000", "094914.864000", "094914.866000", "094954.822000", "094954.825000", "094954.827000", "094954.829000", "094954.831000", "094954.834000", "094954.836000", "094954.838000", "094954.840000", "094954.843000", "094954.845000", "094954.847000", "094954.850000", "094954.852000", "094954.854000", "094954.856000", "094954.859000", "094954.861000", "094954.863000", "094954.865000", "095034.822000", "095034.825000", "095034.827000", "095034.829000", "095034.832000", "095034.834000", "095034.836000", "095034.839000", "095034.841000", "095034.843000", "095034.846000", "095034.848000", "095034.850000", "095034.852000", "095034.855000", "095034.857000", "095034.859000", "095034.862000", "095034.864000", "095034.866000", "095108.082000", "095108.084000", "095108.087000", "095108.089000", "095108.092000", "095108.094000", "095108.096000", "095108.098000", "095108.101000", "095108.103000", "095108.105000", "095108.108000", "095108.110000", "095108.113000", "095108.116000", "095108.120000", "095108.123000"],
      "InstanceNumber": [1, 2, 3, 4, 5, 6, 7, 8, 9, 10, 11, 12, 13, 14, 15, 16, 17, 18, 19, 20, 21, 22, 23, 24, 25, 26, 27, 28, 29, 30, 31, 32, 33, 34, 35, 36, 37, 38, 39, 40, 41, 42, 43, 44, 45, 46, 47, 48, 49, 50, 51, 52, 53, 54, 55, 56, 57, 58, 59, 60, 61, 62, 63, 64, 65, 66, 67, 68, 69, 70, 71, 72, 73, 74, 75, 76, 77, 78, 79, 80, 81, 82, 83, 84, 85, 86, 87, 88, 89, 90, 91, 92, 93, 94, 95, 96, 97, 98, 99, 100, 101, 102, 103, 104, 105, 106, 107, 108, 109, 110, 111, 112, 113, 114, 115, 116, 117, 118, 119, 120, 121, 122, 123, 124, 125, 126, 127, 128, 129, 130, 131, 132, 133, 134, 135, 136, 137, 138, 139, 140, 141, 142, 143, 144, 145, 146, 147, 148, 149, 150, 151, 152, 153, 154, 155, 156, 157, 158, 159, 160, 161, 162, 163, 164, 165, 166, 167, 168, 169, 170, 171, 172, 173, 174, 175, 176, 177, 178, 179, 180, 181, 182, 183, 184, 185, 186, 187, 188, 189, 190, 191, 192, 193, 194, 195, 196, 197, 198, 199, 200],
      "LargestImagePixelValue": [2262, 2263, 2268, 2270, 2270, 2275, 2279, 2282, 2283, 2280, 2273, 2276, 2274, 2275, 2268, 2266, 2265, 2258, 2259, 2266, 2270, 2269, 2267, 2268, 2272, 2279, 2274, 2270, 2271, 2269, 2272, 2277, 2278, 2280, 2273, 2270, 2270, 2271, 2273, 2269, 2268, 2269, 2268, 2264, 2267, 2269, 2269, 2267, 2262, 2264, 2264, 2267, 2269, 2267, 2265, 2266, 2265, 2266, 2270, 2274, 2274, 2273, 2273, 2279, 2275, 2272, 2269, 2273, 2276, 2278, 2273, 2269, 2269, 2268, 2267, 2263, 2269, 2271, 2274, 2273, 2271, 2272, 2273, 2272, 2271, 2268, 2265, 2263, 2264, 2266, 2269, 2269, 2264, 2263, 2262, 2268, 2273, 2276, 2274, 2273, 2271, 2272, 2277, 2280, 2280, 2277, 2280, 2281, 2275, 2273, 2270, 2265, 2267, 2268, 2272, 2276, 2279, 2276, 2277, 2278, 2280, 2277, 2275, 2274, 2275, 2279, 2278, 2277, 2276, 2271, 2270, 2268, 2267, 2266, 2267, 2273, 2276, 2277, 2271, 2262, 2258, 2256, 2257, 2256, 2255, 2255, 2256, 2260, 2261, 2266, 2273, 2273, 2274, 2268, 2264, 2266, 2268, 2271, 2270, 2271, 2270, 2269, 2272, 2275, 2272, 2268, 2271, 2270, 2269, 2266, 2266, 2270, 2272, 2270, 2273, 2277, 2277, 2274, 2274, 2273, 2273, 2271, 2273, 2268, 2267, 2262, 2261, 2261, 2265, 2264, 2262, 2266, 2266, 2266, 2269, 2267, 2266, 2269, 2268, 2275],
      "WindowCenter": [1041.0, 1042.0, 1041.0, 1041.0, 1041.0, 1042.0, 1042.0, 1041.0, 1041.0, 1042.0, 1042.0, 1043.0, 1043.0, 1041.0, 1041.0, 1041.0, 1041.0, 1042.0, 1042.0, 1041.0, 1041.0, 1042.0, 1042.0, 1042.0, 1043.0, 1042.0, 1041.0, 1041.0, 1042.0, 1041.0, 1041.0, 1041.0, 1041.0, 1041.0, 1042.0, 1043.0, 1043.0, 1042.0, 1041.0, 1043.0, 1042.0, 1041.0, 1041.0, 1042.0, 1043.0, 1041.0, 1043.0, 1042.0, 1042.0, 1041.0, 1041.0, 1042.0, 1041.0, 1041.0, 1041.0, 1042.0, 1042.0, 1041.0, 1042.0, 1041.0, 1042.0, 1041.0, 1042.0, 1041.0, 1041.0, 1041.0, 1041.0, 1041.0, 1041.0, 1041.0, 1041.0, 1041.0, 1041.0, 1043.0, 1042.0, 1041.0, 1042.0, 1042.0, 1042.0, 1042.0, 1041.0, 1042.0, 1041.0, 1041.0, 1041.0, 1042.0, 1042.0, 1041.0, 1043.0, 1042.0, 1041.0, 1042.0, 1041.0, 1041.0, 1041.0, 1041.0, 1041.0, 1041.0, 1042.0, 1043.0, 1041.0, 1042.0, 1043.0, 1042.0, 1043.0, 1041.0, 1041.0, 1041.0, 1043.0, 1041.0, 1042.0, 1043.0, 1041.0, 1041.0, 1043.0, 1042.0, 1042.0, 1040.0, 1041.0, 1044.0, 1042.0, 1041.0, 1041.0, 1041.0, 1041.0, 1042.0, 1040.0, 1041.0, 1040.0, 1040.0, 1041.0, 1041.0, 1041.0, 1040.0, 1040.0, 1041.0, 1043.0, 1041.0, 1043.0, 1041.0, 1041.0, 1041.0, 1040.0, 1040.0, 1044.0, 1041.0, 1040.0, 1041.0, 1041.0, 1041.0, 1040.0, 1041.0, 1040.0, 1041.0, 1041.0, 1040.0, 1041.0, 1040.0, 1041.0, 1042.0, 1041.0, 1041.0, 1042.0, 1040.0, 1040.0, 1040.0, 1042.0, 1040.0, 1041.0, 1041.0, 1043.0, 1040.0, 1041.0, 1040.0, 1041.0, 1040.0, 1040.0, 1041.0, 1042.0, 1040.0, 1041.0, 1041.0, 1040.0, 1041.0, 1041.0, 1040.0, 1040.0, 1041.0, 1041.0, 1040.0, 1040.0, 1040.0, 1040.0, 1040.0, 1040.0, 1041.0, 1040.0, 1041.0, 1041.0, 1041.0],
      "WindowWidth": [2349.0, 2350.0, 2349.0, 2349.0, 2349.0, 2350.0, 2350.0, 2349.0, 2349.0, 2350.0, 2350.0, 2351.0, 2351.0, 2349.0, 2349.0, 2349.0, 2349.0, 2350.0, 2350.0, 2349.0, 2350.0, 2350.0, 2350.0, 2350.0, 2351.0, 2350.0, 2349.0, 2349.0, 2350.0, 2349.0, 2349.0, 2349.0, 2349.0, 2349.0, 2350.0, 2350.0, 2350.0, 2350.0, 2349.0, 2351.0, 2350.0, 2349.0, 2349.0, 2350.0, 2350.0, 2349.0, 2350.0, 2350.0, 2350.0, 2349.0, 2349.0, 2350.0, 2349.0, 2349.0, 2349.0, 2350.0, 2350.0, 2349.0, 2350.0, 2349.0, 2350.0, 2349.0, 2350.0, 2349.0, 2349.0, 2349.0, 2349.0, 2349.0, 2349.0, 2349.0, 2349.0, 2349.0, 2349.0, 2350.0, 2349.0, 2349.0, 2349.0, 2350.0, 2350.0, 2350.0, 2349.0, 2349.0, 2349.0, 2349.0, 2349.0, 2350.0, 2350.0, 2349.0, 2350.0, 2349.0, 2349.0, 2349.0, 2349.0, 2349.0, 2349.0, 2349.0, 2349.0, 2349.0, 2349.0, 2350.0, 2349.0, 2349.0, 2350.0, 2349.0, 2350.0, 2349.0, 2349.0, 2349.0, 2350.0, 2349.0, 2349.0, 2350.0, 2349.0, 2349.0, 2350.0, 2349.0, 2349.0, 2349.0, 2349.0, 2351.0, 2349.0, 2349.0, 2349.0, 2349.0, 2348.0, 2349.0, 2348.0, 2349.0, 2348.0, 2348.0, 2349.0, 2349.0, 2349.0, 2348.0, 2348.0, 2349.0, 2351.0, 2349.0, 2350.0, 2349.0, 2349.0, 2349.0, 2348.0, 2348.0, 2350.0, 2349.0, 2348.0, 2349.0, 2349.0, 2349.0, 2348.0, 2349.0, 2348.0, 2349.0, 2349.0, 2348.0, 2349.0, 2348.0, 2349.0, 2350.0, 2349.0, 2349.0, 2350.0, 2348.0, 2348.0, 2348.0, 2350.0, 2348.0, 2348.0, 2349.0, 2350.0, 2348.0, 2348.0, 2348.0, 2349.0, 2348.0, 2348.0, 2349.0, 2350.0, 2348.0, 2349.0, 2349.0, 2348.0, 2349.0, 2349.0, 2348.0, 2348.0, 2349.0, 2348.0, 2348.0, 2348.0, 2348.0, 2348.0, 2348.0, 2348.0, 2349.0, 2347.0, 2348.0, 2348.0, 2348.0]
    },
    "slices": {}
  }
}