{
  "AcquisitionMatrixPE": 80,
  "AcquisitionNumber": 1,
  "AcquisitionTime": "09:30:47.765000",
  "BandwidthPerPixelPhaseEncode": 48.077,
  "BaseResolution": 80,
  "BodyPartExamined": "BRAIN",
  "CoilCombinationMethod": "Sum of Squares",
  "ConsistencyInfo": "N4_VE11E_LATEST_20181129",
  "ConversionSoftware": "dcm2niix",
  "ConversionSoftwareVersion": "v1.0.20220720",
  "DerivedVendorReportedEchoSpacing": 0.000519999,
  "DeviceSerialNumber": "66112",
  "DwellTime": 2.7e-06,
  "EchoTime": 0.035,
  "EchoTrainLength": 39,
  "EffectiveEchoSpacing": 0.00026,
  "FlipAngle": 90,
  "HeudiconvVersion": "0.13.1",
  "ImageOrientationPatientDICOM": [0.989232, -0.146334, 0.00242964, 0.138675, 0.942509, 0.304048],
  "ImageOrientationText": "Tra>Cor(17.5)>Sag(2.7)",
  "ImageType": [
    "ORIGINAL",
    "PRIMARY",
    "M",
    "ND",
    "NORM",
    "MOSAIC"
],
  "ImagingFrequency": 123.259,
  "InPlanePhaseEncodingDirectionDICOM": "COL",
  "InstitutionAddress": "Maynard 3,Hanover,NH,US,03755",
  "InstitutionName": "Dartmouth College - PBS",
  "InstitutionalDepartmentName": "Department",
  "MRAcquisitionType": "2D",
  "MagneticFieldStrength": 3,
  "Manufacturer": "Siemens",
  "ManufacturersModelName": "Prisma",
  "MatrixCoilMode": "GRAPPA",
  "Modality": "MR",
  "NonlinearGradientCorrection": false,
  "ParallelReductionFactorInPlane": 2,
  "PartialFourier": 1,
  "PatientPosition": "HFS",
  "PercentPhaseFOV": 100,
  "PercentSampling": 100,
  "PhaseEncodingDirection": "j-",
  "PhaseEncodingSteps": 79,
  "PhaseResolution": 1,
  "PixelBandwidth": 2315,
  "ProcedureStepDescription": "dbic^QA",
  "ProtocolName": "func-bold_task-rest_acq-p2",
  "PulseSequenceDetails": "%SiemensSeq%\\ep2d_bold",
  "ReceiveCoilActiveElements": "HEA;HEP",
  "ReceiveCoilName": "Head_32",
  "ReconMatrixPE": 80,
  "RefLinesPE": 24,
  "RepetitionTime": 2,
  "SAR": 0.0543783,
  "ScanOptions": "FS",
  "ScanningSequence": "EP",
  "SequenceName": "*epfid2d1_80",
  "SequenceVariant": "SK",
  "SeriesDescription": "func-bold_task-rest_acq-p2",
  "SeriesNumber": 5,
  "ShimSetting": [4236, -7740, -7484, 2, -118, 11, 19, 86],
  "SliceThickness": 3.5,
  "SliceTiming": [0.99, 0, 1.0575, 0.0675, 1.1225, 0.1325, 1.1875, 0.1975, 1.255, 0.265, 1.32, 0.33, 1.3875, 0.3975, 1.4525, 0.4625, 1.5175, 0.5275, 1.585, 0.595, 1.65, 0.66, 1.715, 0.7275, 1.7825, 0.7925, 1.8475, 0.8575, 1.915, 0.925],
  "SoftwareVersions": "syngo MR E11",
  "SpacingBetweenSlices": 3.99,
  "StationName": "AWP66112",
  "TaskName": "rest",
  "TotalReadoutTime": 0.02054,
  "TxRefAmp": 232.631,
  "dcmmeta_affine": [
    [-2.9676969051361084, 0.41602638363838196, 0.1866617649793625, 97.80866241455078],
    [0.43900132179260254, 2.827528476715088, 1.1987427473068237, -142.33023071289062],
    [0.007288928609341383, -0.9121428728103638, 3.801088333129883, 1.5781426429748535],
    [0.0, 0.0, 0.0, 1.0]
],
  "dcmmeta_reorient_transform": [
    [0.0, -1.0, 0.0, 79.0],
    [1.0, 0.0, 0.0, 0.0],
    [0.0, 0.0, 1.0, 0.0],
    [0.0, 0.0, 0.0, 1.0]
],
  "dcmmeta_shape": [80, 80, 30, 200],
  "dcmmeta_slice_dim": 2,
  "dcmmeta_version": 0.6,
  "global": {
    "const": {
      "AccessionNumber": "qa",
      "AcquisitionMatrix": [80, 0, 0, 80],
      "AngioFlag": "N",
      "BitsAllocated": 16,
      "BitsStored": 12,
      "BodyPartExamined": "BRAIN",
      "Columns": 480,
      "EchoNumbers": 1,
      "EchoTime": 35.0,
      "EchoTrainLength": 39,
      "FlipAngle": 90.0,
      "HighBit": 11,
      "ImageOrientationPatient": [0.98923229013761, -0.1463337725357, 0.00242964288919, 0.13867546065119, 0.94250949930595, 0.30404762839272],
      "ImagePositionPatient": [-807.41939433823, -558.7499612705, -254.36750800364],
      "ImageType": [
        "ORIGINAL",
        "PRIMARY",
        "M",
        "ND",
        "NORM",
        "MOSAIC"
],
      "ImagedNucleus": "1H",
      "ImagingFrequency": 123.259458,
      "InPlanePhaseEncodingDirection": "COL",
      "MRAcquisitionType": "2D",
      "MagneticFieldStrength": 3.0,
      "Manufacturer": "SIEMENS",
      "ManufacturerModelName": "Prisma",
      "Modality": "MR",
      "NumberOfAverages": 1.0,
      "NumberOfPhaseEncodingSteps": 79,
      "PercentPhaseFieldOfView": 100.0,
      "PercentSampling": 100.0,
      "PerformedProcedureStepStartTime": "092641.984000",
      "PhotometricInterpretation": "MONOCHROME2",
      "PixelBandwidth": 2315.0,
      "PixelRepresentation": 0,
      "PixelSpacing": [3.0, 3.0],
      "ProtocolName": "func-bold_task-rest_acq-p2",
      "RepetitionTime": 2000.0,
      "Rows": 480,
      "SAR": 0.05437834496058,
      "SamplesPerPixel": 1,
      "ScanOptions": "FS",
      "ScanningSequence": "EP",
      "SequenceName": "*epfid2d1_80",
      "SequenceVariant": "SK",
      "SeriesDescription": "func-bold_task-rest_acq-p2",
      "SeriesNumber": 5,
      "SeriesTime": "093134.909000",
      "SliceLocation": -36.682090490972,
      "SliceThickness": 3.5,
      "SmallestImagePixelValue": 0,
      "SoftwareVersions": "syngo MR E11",
      "SpacingBetweenSlices": 3.9899998842603,
      "SpecificCharacterSet": "ISO_IR 100",
      "StudyID": "20",
      "StudyTime": "092641.926000",
      "TransmitCoilName": "Body",
      "VariableFlipAngleFlag": "N",
      "WindowCenterWidthExplanation": "Algo1"
    },
    "slices": {}
  },
  "time": {
    "samples": {
      "AcquisitionNumber": [1, 2, 3, 4, 5, 6, 7, 8, 9, 10, 11, 12, 13, 14, 15, 16, 17, 18, 19, 20, 21, 22, 23, 24, 25, 26, 27, 28, 29, 30, 31, 32, 33, 34, 35, 36, 37, 38, 39, 40, 41, 42, 43, 44, 45, 46, 47, 48, 49, 50, 51, 52, 53, 54, 55, 56, 57, 58, 59, 60, 61, 62, 63, 64, 65, 66, 67, 68, 69, 70, 71, 72, 73, 74, 75, 76, 77, 78, 79, 80, 81, 82, 83, 84, 85, 86, 87, 88, 89, 90, 91, 92, 93, 94, 95, 96, 97, 98, 99, 100, 101, 102, 103, 104, 105, 106, 107, 108, 109, 110, 111, 112, 113, 114, 115, 116, 117, 118, 119, 120, 121, 122, 123, 124, 125, 126, 127, 128, 129, 130, 131, 132, 133, 134, 135, 136, 137, 138, 139, 140, 141, 142, 143, 144, 145, 146, 147, 148, 149, 150, 151, 152, 153, 154, 155, 156, 157, 158, 159, 160, 161, 162, 163, 164, 165, 166, 167, 168, 169, 170, 171, 172, 173, 174, 175, 176, 177, 178, 179, 180, 181, 182, 183, 184, 185, 186, 187, 188, 189, 190, 191, 192, 193, 194, 195, 196, 197, 198, 199, 200],
      "AcquisitionTime": ["093047.765000", "093049.765000", "093051.765000", "093053.765000", "093055.765000", "093057.765000", "093059.765000", "093101.765000", "093103.765000", "093105.765000", "093107.765000", "093109.765000", "093111.765000", "093113.765000", "093115.765000", "093117.765000", "093119.765000", "093121.765000", "093123.765000", "093125.765000", "093127.765000", "093129.765000", "093131.765000", "093133.765000", "093135.765000", "093137.765000", "093139.765000", "093141.765000", "093143.765000", "093145.765000", "093147.765000", "093149.765000", "093151.765000", "093153.765000", "093155.765000", "093157.765000", "093159.765000", "093201.765000", "093203.765000", "093205.765000", "093207.765000", "093209.765000", "093211.765000", "093213.765000", "093215.765000", "093217.765000", "093219.765000", "093221.765000", "093223.765000", "093225.765000", "093227.765000", "093229.765000", "093231.765000", "093233.765000", "093235.765000", "093237.765000", "093239.765000", "093241.765000", "093243.765000", "093245.765000", "093247.765000", "093249.765000", "093251.765000", "093253.765000", "093255.765000", "093257.765000", "093259.765000", "093301.765000", "093303.765000", "093305.765000", "093307.765000", "093309.765000", "093311.765000", "093313.765000", "093315.765000", "093317.765000", "093319.765000", "093321.765000", "093323.765000", "093325.765000", "093327.765000", "093329.765000", "093331.765000", "093333.765000", "093335.765000", "093337.765000", "093339.765000", "093341.765000", "093343.765000", "093345.765000", "093347.765000", "093349.765000", "093351.765000", "093353.765000", "093355.765000", "093357.765000", "093359.765000", "093401.765000", "093403.765000", "093405.765000", "093407.765000", "093409.765000", "093411.765000", "093413.765000", "093415.765000", "093417.765000", "093419.765000", "093421.765000", "093423.765000", "093425.765000", "093427.765000", "093429.765000", "093431.765000", "093433.765000", "093435.765000", "093437.765000", "093439.765000", "093441.765000", "093443.765000", "093445.765000", "093447.765000", "093449.765000", "093451.765000", "093453.765000", "093455.765000", "093457.765000", "093459.765000", "093501.765000", "093503.765000", "093505.765000", "093507.765000", "093509.765000", "093511.765000", "093513.765000", "093515.765000", "093517.765000", "093519.765000", "093521.765000", "093523.765000", "093525.765000", "093527.765000", "093529.765000", "093531.765000", "093533.765000", "093535.765000", "093537.765000", "093539.765000", "093541.765000", "093543.765000", "093545.765000", "093547.765000", "093549.765000", "093551.765000", "093553.765000", "093555.765000", "093557.765000", "093559.765000", "093601.765000", "093603.765000", "093605.765000", "093607.765000", "093609.765000", "093611.765000", "093613.765000", "093615.765000", "093617.765000", "093619.765000", "093621.765000", "093623.765000", "093625.765000", "093627.765000", "093629.765000", "093631.765000", "093633.765000", "093635.765000", "093637.765000", "093639.765000", "093641.765000", "093643.765000", "093645.765000", "093647.765000", "093649.765000", "093651.765000", "093653.765000", "093655.765000", "093657.765000", "093659.765000", "093701.765000", "093703.765000", "093705.765000", "093707.765000", "093709.765000", "093711.765000", "093713.765000", "093715.765000", "093717.765000", "093719.765000", "093721.765000", "093723.765000", "093725.765000"],
      "ContentTime": ["093134.912000", "093134.915000", "093134.917000", "093134.920000", "093134.922000", "093134.925000", "093134.927000", "093134.936000", "093134.938000", "093134.941000", "093134.943000", "093134.945000", "093134.948000", "093134.950000", "093134.952000", "093134.955000", "093134.957000", "093134.959000", "093134.962000", "093134.964000", "093134.967000", "093134.969000", "093134.971000", "093214.907000", "093214.910000", "093214.912000", "093214.915000", "093214.917000", "093214.919000", "093214.922000", "093214.924000", "093214.926000", "093214.929000", "093214.931000", "093214.933000", "093214.936000", "093214.938000", "093214.940000", "093214.943000", "093214.945000", "093214.947000", "093214.950000", "093214.952000", "093254.907000", "093254.910000", "093254.920000", "093254.922000", "093254.925000", "093254.927000", "093254.929000", "093254.932000", "093254.934000", "093254.936000", "093254.939000", "093254.941000", "093254.943000", "093254.946000", "093254.948000", "093254.950000", "093254.953000", "093254.955000", "093254.957000", "093254.960000", "093334.907000", "093334.910000", "093334.912000", "093334.915000", "093334.917000", "093334.920000", "093334.922000", "093334.924000", "093334.927000", "093334.929000", "093334.932000", "093334.934000", "093334.936000", "093334.939000", "093334.941000", "093334.944000", "093334.946000", "093334.948000", "093334.950000", "093334.953000", "093414.907000", "093414.910000", "093414.912000", "093414.915000", "093414.917000", "093414.920000", "093414.922000", "093414.924000", "093414.927000", "093414.929000", "093414.931000", "093414.934000", "093414.936000", "093414.939000", "093414.941000", "093414.944000", "093414.946000", "093414.948000", "093414.951000", "093414.953000", "093454.907000", "093454.910000", "093454.912000", "093454.914000", "093454.917000", "093454.919000", "093454.922000", "093454.924000", "093454.926000", "093454.929000", "093454.931000", "093454.934000", "093454.936000", "093454.938000", "093454.940000", "093454.943000", "093454.945000", "093454.947000", "093454.950000", "093454.952000", "093534.907000", "093534.910000", "093534.912000", "093534.915000", "093534.917000", "093534.920000", "093534.922000", "093534.924000", "093534.927000", "093534.929000", "093534.931000", "093534.934000", "093534.936000", "093534.939000", "093534.941000", "093534.943000", "093534.946000", "093534.948000", "093534.950000", "093534.953000", "093614.907000", "093614.910000", "093614.912000", "093614.915000", "093614.917000", "093614.919000", "093614.922000", "093614.924000", "093614.927000", "093614.929000", "093614.931000", "093614.963000", "093614.966000", "093614.968000", "093614.970000", "093614.973000", "093614.975000", "093614.978000", "093614.980000", "093614.982000", "093654.907000", "093654.910000", "093654.912000", "093654.915000", "093654.917000", "093654.919000", "093654.922000", "093654.924000", "093654.927000", "093654.929000", "093654.931000", "093654.934000", "093654.936000", "093654.938000", "093654.941000", "093654.943000", "093654.945000", "093654.948000", "093654.950000", "093654.952000", "093727.163000", "093727.170000", "093727.174000", "093727.177000", "093727.185000", "093727.188000", "093727.191000", "093727.193000", "093727.196000", "093727.199000", "093727.201000", "093727.204000", "093727.207000", "093727.209000", "093727.212000", "093727.215000", "093727.218000"],
      "InstanceCreationTime": ["093134.912000", "093134.915000", "093134.917000", "093134.920000", "093134.922000", "093134.925000", "093134.927000", "093134.936000", "093134.938000", "093134.941000", "093134.943000", "093134.945000", "093134.948000", "093134.950000", "093134.952000", "093134.955000", "093134.957000", "093134.959000", "093134.962000", "093134.964000", "093134.967000", "093134.969000", "093134.971000", "093214.907000", "093214.910000", "093214.912000", "093214.915000", "093214.917000", "093214.919000", "093214.922000", "093214.924000", "093214.926000", "093214.929000", "093214.931000", "093214.933000", "093214.936000", "093214.938000", "093214.940000", "093214.943000", "093214.945000", "093214.947000", "093214.950000", "093214.952000", "093254.907000", "093254.910000", "093254.920000", "093254.922000", "093254.925000", "093254.927000", "093254.929000", "093254.932000", "093254.934000", "093254.936000", "093254.939000", "093254.941000", "093254.943000", "093254.946000", "093254.948000", "093254.950000", "093254.953000", "093254.955000", "093254.957000", "093254.960000", "093334.907000", "093334.910000", "093334.912000", "093334.915000", "093334.917000", "093334.920000", "093334.922000", "093334.924000", "093334.927000", "093334.929000", "093334.932000", "093334.934000", "093334.936000", "093334.939000", "093334.941000", "093334.944000", "093334.946000", "093334.948000", "093334.950000", "093334.953000", "093414.907000", "093414.910000", "093414.912000", "093414.915000", "093414.917000", "093414.920000", "093414.922000", "093414.924000", "093414.927000", "093414.929000", "093414.931000", "093414.934000", "093414.936000", "093414.939000", "093414.941000", "093414.944000", "093414.946000", "093414.948000", "093414.951000", "093414.953000", "093454.907000", "093454.910000", "093454.912000", "093454.914000", "093454.917000", "093454.919000", "093454.922000", "093454.924000", "093454.926000", "093454.929000", "093454.931000", "093454.934000", "093454.936000", "093454.938000", "093454.940000", "093454.943000", "093454.945000", "093454.947000", "093454.950000", "093454.952000", "093534.907000", "093534.910000", "093534.912000", "093534.915000", "093534.917000", "093534.920000", "093534.922000", "093534.924000", "093534.927000", "093534.929000", "093534.931000", "093534.934000", "093534.936000", "093534.939000", "093534.941000", "093534.943000", "093534.946000", "093534.948000", "093534.950000", "093534.953000", "093614.907000", "093614.910000", "093614.912000", "093614.915000", "093614.917000", "093614.919000", "093614.922000", "093614.924000", "093614.927000", "093614.929000", "093614.931000", "093614.963000", "093614.966000", "093614.968000", "093614.970000", "093614.973000", "093614.975000", "093614.978000", "093614.980000", "093614.982000", "093654.907000", "093654.910000", "093654.912000", "093654.915000", "093654.917000", "093654.919000", "093654.922000", "093654.924000", "093654.927000", "093654.929000", "093654.931000", "093654.934000", "093654.936000", "093654.938000", "093654.941000", "093654.943000", "093654.945000", "093654.948000", "093654.950000", "093654.952000", "093727.163000", "093727.170000", "093727.174000", "093727.177000", "093727.185000", "093727.188000", "093727.191000", "093727.193000", "093727.196000", "093727.199000", "093727.201000", "093727.204000", "093727.207000", "093727.209000", "093727.212000", "093727.215000", "093727.218000"],
      "InstanceNumber": [1, 2, 3, 4, 5, 6, 7, 8, 9, 10, 11, 12, 13, 14, 15, 16, 17, 18, 19, 20, 21, 22, 23, 24, 25, 26, 27, 28, 29, 30, 31, 32, 33, 34, 35, 36, 37, 38, 39, 40, 41, 42, 43, 44, 45, 46, 47, 48, 49, 50, 51, 52, 53, 54, 55, 56, 57, 58, 59, 60, 61, 62, 63, 64, 65, 66, 67, 68, 69, 70, 71, 72, 73, 74, 75, 76, 77, 78, 79, 80, 81, 82, 83, 84, 85, 86, 87, 88, 89, 90, 91, 92, 93, 94, 95, 96, 97, 98, 99, 100, 101, 102, 103, 104, 105, 106, 107, 108, 109, 110, 111, 112, 113, 114, 115, 116, 117, 118, 119, 120, 121, 122, 123, 124, 125, 126, 127, 128, 129, 130, 131, 132, 133, 134, 135, 136, 137, 138, 139, 140, 141, 142, 143, 144, 145, 146, 147, 148, 149, 150, 151, 152, 153, 154, 155, 156, 157, 158, 159, 160, 161, 162, 163, 164, 165, 166, 167, 168, 169, 170, 171, 172, 173, 174, 175, 176, 177, 178, 179, 180, 181, 182, 183, 184, 185, 186, 187, 188, 189, 190, 191, 192, 193, 194, 195, 196, 197, 198, 199, 200],
      "LargestImagePixelValue": [2317, 2332, 2333, 2325, 2324, 2320, 2331, 2333, 2320, 2330, 2332, 2322, 2328, 2327, 2333, 2316, 2332, 2319, 2321, 2321, 2319, 2323, 2322, 2322, 2335, 2325, 2336, 2323, 2324, 2323, 2325, 2324, 2314, 2323, 2330, 2324, 2322, 2327, 2324, 2322, 2324, 2313, 2320, 2315, 2322, 2313, 2318, 2333, 2323, 2330, 2319, 2317, 2320, 2323, 2323, 2317, 2318, 2321, 2322, 2317, 2313, 2325, 2322, 2323, 2318, 2334, 2317, 2328, 2311, 2323, 2324, 2322, 2317, 2320, 2314, 2314, 2323, 2323, 2319, 2325, 2326, 2328, 2318, 2328, 2325, 2317, 2315, 2315, 2326, 2329, 2327, 2318, 2323, 2320, 2316, 2323, 2309, 2320, 2312, 2324, 2326, 2323, 2321, 2320, 2331, 2323, 2321, 2318, 2331, 2320, 2318, 2322, 2322, 2320, 2320, 2325, 2330, 2325, 2320, 2319, 2326, 2315, 2320, 2322, 2314, 2323, 2318, 2323, 2320, 2323, 2322, 2321, 2334, 2315, 2322, 2331, 2323, 2326, 2323, 2337, 2327, 2333, 2324, 2325, 2340, 2330, 2332, 2330, 2324, 2324, 2337, 2317, 2328, 2332, 2317, 2321, 2322, 2323, 2326, 2323, 2321, 2320, 2324, 2324, 2321, 2320, 2332, 2326, 2315, 2326, 2312, 2311, 2315, 2322, 2314, 2323, 2321, 2321, 2321, 2322, 2319, 2317, 2317, 2322, 2324, 2321, 2323, 2326, 2327, 2320, 2313, 2320, 2327, 2324, 2322, 2332, 2326, 2327, 2331, 2324],
      "WindowCenter": [1058.0, 1058.0, 1058.0, 1058.0, 1058.0, 1058.0, 1058.0, 1057.0, 1058.0, 1057.0, 1057.0, 1057.0, 1057.0, 1057.0, 1057.0, 1057.0, 1057.0, 1057.0, 1057.0, 1057.0, 1057.0, 1057.0, 1057.0, 1057.0, 1057.0, 1057.0, 1057.0, 1057.0, 1057.0, 1057.0, 1057.0, 1057.0, 1057.0, 1057.0, 1057.0, 1057.0, 1057.0, 1057.0, 1057.0, 1057.0, 1057.0, 1057.0, 1057.0, 1057.0, 1057.0, 1057.0, 1057.0, 1057.0, 1057.0, 1057.0, 1057.0, 1057.0, 1057.0, 1057.0, 1057.0, 1057.0, 1057.0, 1057.0, 1057.0, 1057.0, 1057.0, 1057.0, 1057.0, 1057.0, 1057.0, 1057.0, 1057.0, 1057.0, 1057.0, 1057.0, 1057.0, 1057.0, 1057.0, 1057.0, 1057.0, 1057.0, 1057.0, 1057.0, 1057.0, 1057.0, 1057.0, 1057.0, 1057.0, 1057.0, 1057.0, 1057.0, 1057.0, 1057.0, 1057.0, 1057.0, 1057.0, 1057.0, 1057.0, 1057.0, 1057.0, 1057.0, 1057.0, 1057.0, 1057.0, 1057.0, 1056.0, 1056.0, 1057.0, 1056.0, 1057.0, 1057.0, 1057.0, 1056.0, 1056.0, 1056.0, 1057.0, 1056.0, 1056.0, 1056.0, 1056.0, 1056.0, 1056.0, 1056.0, 1056.0, 1056.0, 1056.0, 1056.0, 1056.0, 1056.0, 1056.0, 1056.0, 1056.0, 1056.0, 1056.0, 1056.0, 1056.0, 1056.0, 1056.0, 1056.0, 1056.0, 1056.0, 1056.0, 1056.0, 1056.0, 1056.0, 1056.0, 1056.0, 1056.0, 1056.0, 1057.0, 1056.0, 1056.0, 1056.0, 1056.0, 1056.0, 1056.0, 1056.0, 1056.0, 1056.0, 1056.0, 1056.0, 1056.0, 1056.0, 1056.0, 1056.0, 1056.0, 1056.0, 1056.0, 1056.0, 1056.0, 1056.0, 1056.0, 1056.0, 1056.0, 1056.0, 1056.0, 1056.0, 1056.0, 1056.0, 1056.0, 1056.0, 1056.0, 1056.0, 1056.0, 1056.0, 1056.0, 1056.0, 1056.0, 1056.0, 1056.0, 1056.0, 1056.0, 1056.0, 1056.0, 1056.0, 1056.0, 1056.0, 1056.0, 1056.0, 1056.0, 1056.0, 1056.0, 1056.0, 1056.0, 1056.0],
      "WindowWidth": [2368.0, 2368.0, 2367.0, 2367.0, 2367.0, 2367.0, 2367.0, 2367.0, 2367.0, 2367.0, 2367.0, 2367.0, 2367.0, 2367.0, 2367.0, 2367.0, 2367.0, 2367.0, 2367.0, 2367.0, 2367.0, 2367.0, 2367.0, 2366.0, 2367.0, 2367.0, 2367.0, 2366.0, 2367.0, 2366.0, 2366.0, 2367.0, 2366.0, 2366.0, 2367.0, 2366.0, 2366.0, 2366.0, 2366.0, 2366.0, 2366.0, 2366.0, 2366.0, 2366.0, 2366.0, 2366.0, 2366.0, 2366.0, 2366.0, 2366.0, 2366.0, 2366.0, 2366.0, 2366.0, 2366.0, 2366.0, 2366.0, 2366.0, 2366.0, 2366.0, 2366.0, 2366.0, 2366.0, 2366.0, 2366.0, 2366.0, 2366.0, 2366.0, 2365.0, 2366.0, 2366.0, 2365.0, 2366.0, 2365.0, 2366.0, 2365.0, 2365.0, 2365.0, 2365.0, 2365.0, 2365.0, 2365.0, 2366.0, 2366.0, 2365.0, 2365.0, 2365.0, 2365.0, 2365.0, 2365.0, 2365.0, 2365.0, 2365.0, 2365.0, 2365.0, 2365.0, 2365.0, 2365.0, 2365.0, 2365.0, 2365.0, 2365.0, 2365.0, 2365.0, 2365.0, 2365.0, 2365.0, 2364.0, 2365.0, 2365.0, 2365.0, 2365.0, 2365.0, 2365.0, 2365.0, 2364.0, 2365.0, 2365.0, 2365.0, 2365.0, 2364.0, 2364.0, 2365.0, 2365.0, 2364.0, 2364.0, 2365.0, 2365.0, 2364.0, 2364.0, 2364.0, 2365.0, 2364.0, 2364.0, 2364.0, 2364.0, 2364.0, 2364.0, 2364.0, 2364.0, 2364.0, 2364.0, 2363.0, 2364.0, 2365.0, 2364.0, 2364.0, 2364.0, 2364.0, 2364.0, 2364.0, 2363.0, 2364.0, 2364.0, 2364.0, 2364.0, 2363.0, 2364.0, 2364.0, 2364.0, 2364.0, 2364.0, 2364.0, 2363.0, 2363.0, 2363.0, 2364.0, 2363.0, 2363.0, 2364.0, 2364.0, 2363.0, 2363.0, 2363.0, 2363.0, 2363.0, 2363.0, 2363.0, 2363.0, 2363.0, 2363.0, 2363.0, 2363.0, 2364.0, 2363.0, 2363.0, 2363.0, 2363.0, 2363.0, 2363.0, 2362.0, 2363.0, 2363.0, 2363.0, 2362.0, 2363.0, 2363.0, 2363.0, 2363.0, 2362.0]
    },
    "slices": {}
  }
}