{
  "AcquisitionMatrixPE": 80,
  "AcquisitionNumber": 1,
  "AcquisitionTime": "09:02:22.160000",
  "BandwidthPerPixelPhaseEncode": 44.643,
  "BaseResolution": 80,
  "BodyPartExamined": "BRAIN",
  "CoilCombinationMethod": "Sum of Squares",
  "ConsistencyInfo": "N4_VE11C_LATEST_20160120",
  "ConversionSoftware": "dcm2niix",
  "ConversionSoftwareVersion": "v1.0.20220720",
  "DerivedVendorReportedEchoSpacing": 0.000559998,
  "DeviceSerialNumber": "66112",
  "DwellTime": 2.7e-06,
  "EchoTime": 0.035,
  "EchoTrainLength": 39,
  "EffectiveEchoSpacing": 0.000279999,
  "FlipAngle": 90,
  "HeudiconvVersion": "0.13.1",
  "ImageOrientationPatientDICOM": [0.978106, 0.207907, 0.00909286, -0.200776, 0.931266, 0.304028],
  "ImageOrientationText": "Tra>Cor(17.4)>Sag(-3.1)",
  "ImageType": [
    "ORIGINAL",
    "PRIMARY",
    "M",
    "ND",
    "NORM",
    "MOSAIC"
],
  "ImagingFrequency": 123.252,
  "InPlanePhaseEncodingDirectionDICOM": "COL",
  "InstitutionAddress": "Maynard 3,Hanover,NH,US,03755",
  "InstitutionName": "Dartmouth College - PBS",
  "InstitutionalDepartmentName": "Department",
  "MRAcquisitionType": "2D",
  "MagneticFieldStrength": 3,
  "Manufacturer": "Siemens",
  "ManufacturersModelName": "Prisma",
  "Modality": "MR",
  "MultibandAccelerationFactor": 4,
  "NonlinearGradientCorrection": false,
  "ParallelReductionFactorInPlane": 2,
  "PartialFourier": 1,
  "PatientPosition": "HFS",
  "PercentPhaseFOV": 100,
  "PercentSampling": 100,
  "PhaseEncodingDirection": "j-",
  "PhaseEncodingSteps": 79,
  "PhaseResolution": 1,
  "PixelBandwidth": 2315,
  "ProcedureStepDescription": "dbic^QA",
  "ProtocolName": "func-bold_task-rest_acq-p2-s4-3.5mm",
  "PulseSequenceDetails": "%SiemensSeq%\\ep2d_bold",
  "ReceiveCoilActiveElements": "HEA;HEP",
  "ReceiveCoilName": "Head_32",
  "ReconMatrixPE": 80,
  "RefLinesPE": 24,
  "RepetitionTime": 2,
  "SAR": 0.0209638,
  "ScanOptions": "FS",
  "ScanningSequence": "EP",
  "SequenceName": "*epfid2d1_80",
  "SequenceVariant": "SK",
  "SeriesDescription": "func-bold_task-rest_acq-p2-s4-3.5mm",
  "SeriesNumber": 7,
  "ShimSetting": [4148, -7699, -7524, 291, -30, -118, -71, 22],
  "SliceThickness": 3.5,
  "SliceTiming": [1.485, 0, 0.99, 0.2475, 1.2375, 0.7425, 1.7325, 0.495, 1.485, 0, 0.99, 0.2475, 1.2375, 0.7425, 1.7325, 0.495, 1.485, 0, 0.99, 0.2475, 1.2375, 0.7425, 1.7325, 0.495, 1.485, 0, 0.99, 0.2475, 1.2375, 0.7425, 1.7325, 0.495],
  "SoftwareVersions": "syngo MR E11",
  "SpacingBetweenSlices": 3.99,
  "StationName": "AWP66112",
  "TaskName": "rest",
  "TotalReadoutTime": 0.0221199,
  "TxRefAmp": 232.82,
  "dcmmeta_affine": [
    [-2.934319257736206, -0.6023291945457458, -0.21841862797737122, 153.00779724121094],
    [-0.6237195134162903, 2.793797254562378, 1.1937971115112305, -100.4147720336914],
    [0.027278566733002663, -0.912083625793457, 3.800952672958374, -41.65502166748047],
    [0.0, 0.0, 0.0, 1.0]
],
  "dcmmeta_reorient_transform": [
    [0.0, -1.0, 0.0, 79.0],
    [1.0, 0.0, 0.0, 0.0],
    [0.0, 0.0, 1.0, 0.0],
    [0.0, 0.0, 0.0, 1.0]
],
  "dcmmeta_shape": [80, 80, 32, 200],
  "dcmmeta_slice_dim": 2,
  "dcmmeta_version": 0.6,
  "global": {
    "const": {
      "AccessionNumber": "qa",
      "AcquisitionMatrix": [80, 0, 0, 80],
      "AngioFlag": "N",
      "BitsAllocated": 16,
      "BitsStored": 12,
      "BodyPartExamined": "BRAIN",
      "Columns": 480,
      "EchoNumbers": 1,
      "EchoTime": 35.0,
      "EchoTrainLength": 39,
      "FlipAngle": 90.0,
      "HighBit": 11,
      "ImageOrientationPatient": [0.97810643675682, 0.20790651348472, 0.00909285573988, -0.2007764060673, 0.93126574150973, 0.3040278826967],
      "ImagePositionPatient": [-571.82180334799, -803.79856514569, -301.58207113967],
      "ImageType": [
        "ORIGINAL",
        "PRIMARY",
        "M",
        "ND",
        "NORM",
        "MOSAIC"
],
      "ImagedNucleus": "1H",
      "ImagingFrequency": 123.252479,
      "InPlanePhaseEncodingDirection": "COL",
      "MRAcquisitionType": "2D",
      "MagneticFieldStrength": 3.0,
      "Manufacturer": "SIEMENS",
      "ManufacturerModelName": "Prisma",
      "Modality": "MR",
      "NumberOfAverages": 1.0,
      "NumberOfPhaseEncodingSteps": 79,
      "PercentPhaseFieldOfView": 100.0,
      "PercentSampling": 100.0,
      "PerformedProcedureStepStartTime": "085129.141000",
      "PhotometricInterpretation": "MONOCHROME2",
      "PixelBandwidth": 2315.0,
      "PixelRepresentation": 0,
      "PixelSpacing": [3.0, 3.0],
      "ProtocolName": "func-bold_task-rest_acq-p2-s4-3.5mm",
      "RepetitionTime": 2000.0,
      "Rows": 480,
      "SAR": 0.02096379796866,
      "SamplesPerPixel": 1,
      "ScanOptions": "FS",
      "ScanningSequence": "EP",
      "SequenceName": "*epfid2d1_80",
      "SequenceVariant": "SK",
      "SeriesDescription": "func-bold_task-rest_acq-p2-s4-3.5mm",
      "SeriesNumber": 7,
      "SeriesTime": "090307.153000",
      "SliceLocation": -78.101095721936,
      "SliceThickness": 3.5,
      "SmallestImagePixelValue": 0,
      "SoftwareVersions": "syngo MR E11",
      "SpacingBetweenSlices": 3.9900000166741,
      "SpecificCharacterSet": "ISO_IR 100",
      "StudyID": "32",
      "StudyTime": "085129.037000",
      "TransmitCoilName": "Body",
      "VariableFlipAngleFlag": "N",
      "WindowCenterWidthExplanation": "Algo1",
      "dBdt": 0.0},
    "slices": {}
  },
  "time": {
    "samples": {
      "AcquisitionNumber": [1, 2, 3, 4, 5, 6, 7, 8, 9, 10, 11, 12, 13, 14, 15, 16, 17, 18, 19, 20, 21, 22, 23, 24, 25, 26, 27, 28, 29, 30, 31, 32, 33, 34, 35, 36, 37, 38, 39, 40, 41, 42, 43, 44, 45, 46, 47, 48, 49, 50, 51, 52, 53, 54, 55, 56, 57, 58, 59, 60, 61, 62, 63, 64, 65, 66, 67, 68, 69, 70, 71, 72, 73, 74, 75, 76, 77, 78, 79, 80, 81, 82, 83, 84, 85, 86, 87, 88, 89, 90, 91, 92, 93, 94, 95, 96, 97, 98, 99, 100, 101, 102, 103, 104, 105, 106, 107, 108, 109, 110, 111, 112, 113, 114, 115, 116, 117, 118, 119, 120, 121, 122, 123, 124, 125, 126, 127, 128, 129, 130, 131, 132, 133, 134, 135, 136, 137, 138, 139, 140, 141, 142, 143, 144, 145, 146, 147, 148, 149, 150, 151, 152, 153, 154, 155, 156, 157, 158, 159, 160, 161, 162, 163, 164, 165, 166, 167, 168, 169, 170, 171, 172, 173, 174, 175, 176, 177, 178, 179, 180, 181, 182, 183, 184, 185, 186, 187, 188, 189, 190, 191, 192, 193, 194, 195, 196, 197, 198, 199, 200],
      "AcquisitionTime": ["090222.160000", "090224.160000", "090226.160000", "090228.160000", "090230.160000", "090232.160000", "090234.160000", "090236.160000", "090238.160000", "090240.160000", "090242.160000", "090244.160000", "090246.160000", "090248.160000", "090250.160000", "090252.160000", "090254.160000", "090256.160000", "090258.160000", "090300.160000", "090302.160000", "090304.160000", "090306.160000", "090308.160000", "090310.160000", "090312.160000", "090314.160000", "090316.160000", "090318.160000", "090320.160000", "090322.160000", "090324.160000", "090326.160000", "090328.160000", "090330.160000", "090332.160000", "090334.160000", "090336.160000", "090338.160000", "090340.160000", "090342.160000", "090344.160000", "090346.160000", "090348.160000", "090350.160000", "090352.160000", "090354.160000", "090356.160000", "090358.160000", "090400.160000", "090402.160000", "090404.160000", "090406.160000", "090408.160000", "090410.160000", "090412.160000", "090414.160000", "090416.160000", "090418.160000", "090420.160000", "090422.160000", "090424.160000", "090426.160000", "090428.160000", "090430.160000", "090432.160000", "090434.160000", "090436.160000", "090438.160000", "090440.160000", "090442.160000", "090444.160000", "090446.160000", "090448.160000", "090450.160000", "090452.160000", "090454.160000", "090456.160000", "090458.160000", "090500.160000", "090502.160000", "090504.160000", "090506.160000", "090508.160000", "090510.160000", "090512.160000", "090514.160000", "090516.160000", "090518.160000", "090520.160000", "090522.160000", "090524.160000", "090526.160000", "090528.160000", "090530.160000", "090532.160000", "090534.160000", "090536.160000", "090538.160000", "090540.160000", "090542.160000", "090544.160000", "090546.160000", "090548.160000", "090550.160000", "090552.160000", "090554.160000", "090556.160000", "090558.160000", "090600.160000", "090602.160000", "090604.160000", "090606.160000", "090608.160000", "090610.160000", "090612.160000", "090614.160000", "090616.160000", "090618.160000", "090620.160000", "090622.160000", "090624.160000", "090626.160000", "090628.160000", "090630.160000", "090632.160000", "090634.160000", "090636.160000", "090638.160000", "090640.160000", "090642.160000", "090644.160000", "090646.160000", "090648.160000", "090650.160000", "090652.160000", "090654.160000", "090656.160000", "090658.160000", "090700.160000", "090702.160000", "090704.160000", "090706.160000", "090708.160000", "090710.160000", "090712.160000", "090714.160000", "090716.160000", "090718.160000", "090720.160000", "090722.160000", "090724.160000", "090726.160000", "090728.160000", "090730.160000", "090732.160000", "090734.160000", "090736.160000", "090738.160000", "090740.160000", "090742.160000", "090744.160000", "090746.160000", "090748.160000", "090750.160000", "090752.160000", "090754.160000", "090756.160000", "090758.160000", "090800.160000", "090802.160000", "090804.160000", "090806.160000", "090808.160000", "090810.160000", "090812.160000", "090814.160000", "090816.160000", "090818.160000", "090820.160000", "090822.160000", "090824.160000", "090826.160000", "090828.160000", "090830.160000", "090832.160000", "090834.160000", "090836.160000", "090838.160000", "090840.160000", "090842.160000", "090844.160000", "090846.160000", "090848.160000", "090850.160000", "090852.160000", "090854.160000", "090856.160000", "090858.160000", "090900.160000"],
      "ContentTime": ["090307.161000", "090307.165000", "090307.168000", "090307.170000", "090307.173000", "090307.182000", "090307.185000", "090307.187000", "090307.190000", "090307.192000", "090307.195000", "090307.197000", "090307.200000", "090307.202000", "090307.210000", "090307.212000", "090307.215000", "090307.225000", "090307.227000", "090307.229000", "090307.232000", "090307.235000", "090307.237000", "090347.150000", "090347.154000", "090347.157000", "090347.159000", "090347.162000", "090347.165000", "090347.167000", "090347.170000", "090347.173000", "090347.176000", "090347.178000", "090347.181000", "090347.183000", "090347.186000", "090347.189000", "090347.192000", "090347.195000", "090347.197000", "090347.200000", "090347.203000", "090427.151000", "090427.154000", "090427.157000", "090427.159000", "090427.162000", "090427.164000", "090427.167000", "090427.169000", "090427.172000", "090427.174000", "090427.177000", "090427.179000", "090427.182000", "090427.184000", "090427.187000", "090427.189000", "090427.192000", "090427.194000", "090427.197000", "090427.200000", "090507.151000", "090507.154000", "090507.157000", "090507.160000", "090507.162000", "090507.165000", "090507.168000", "090507.170000", "090507.173000", "090507.175000", "090507.178000", "090507.180000", "090507.183000", "090507.185000", "090507.188000", "090507.190000", "090507.193000", "090507.195000", "090507.198000", "090507.201000", "090547.150000", "090547.153000", "090547.155000", "090547.158000", "090547.160000", "090547.163000", "090547.165000", "090547.168000", "090547.170000", "090547.173000", "090547.175000", "090547.178000", "090547.180000", "090547.183000", "090547.185000", "090547.188000", "090547.190000", "090547.193000", "090547.195000", "090547.198000", "090627.150000", "090627.167000", "090627.169000", "090627.172000", "090627.174000", "090627.177000", "090627.179000", "090627.182000", "090627.184000", "090627.187000", "090627.189000", "090627.192000", "090627.194000", "090627.197000", "090627.199000", "090627.202000", "090627.204000", "090627.207000", "090627.209000", "090627.212000", "090707.151000", "090707.154000", "090707.157000", "090707.159000", "090707.162000", "090707.164000", "090707.167000", "090707.169000", "090707.172000", "090707.174000", "090707.177000", "090707.179000", "090707.182000", "090707.184000", "090707.187000", "090707.189000", "090707.192000", "090707.194000", "090707.197000", "090707.199000", "090747.151000", "090747.154000", "090747.157000", "090747.159000", "090747.162000", "090747.164000", "090747.167000", "090747.169000", "090747.172000", "090747.174000", "090747.177000", "090747.180000", "090747.182000", "090747.184000", "090747.187000", "090747.189000", "090747.192000", "090747.194000", "090747.197000", "090747.200000", "090827.150000", "090827.153000", "090827.156000", "090827.158000", "090827.161000", "090827.163000", "090827.166000", "090827.168000", "090827.171000", "090827.173000", "090827.176000", "090827.178000", "090827.195000", "090827.197000", "090827.200000", "090827.202000", "090827.205000", "090827.207000", "090827.210000", "090827.212000", "090900.847000", "090900.850000", "090900.852000", "090900.855000", "090900.858000", "090900.861000", "090900.863000", "090900.866000", "090900.869000", "090900.872000", "090900.875000", "090900.886000", "090900.889000", "090900.892000", "090900.894000", "090900.897000", "090900.901000"],
      "InstanceCreationTime": ["090307.161000", "090307.165000", "090307.168000", "090307.170000", "090307.173000", "090307.182000", "090307.185000", "090307.187000", "090307.190000", "090307.192000", "090307.195000", "090307.197000", "090307.200000", "090307.202000", "090307.210000", "090307.212000", "090307.215000", "090307.225000", "090307.227000", "090307.229000", "090307.232000", "090307.235000", "090307.237000", "090347.150000", "090347.154000", "090347.157000", "090347.159000", "090347.162000", "090347.165000", "090347.167000", "090347.170000", "090347.173000", "090347.176000", "090347.178000", "090347.181000", "090347.183000", "090347.186000", "090347.189000", "090347.192000", "090347.195000", "090347.197000", "090347.200000", "090347.203000", "090427.151000", "090427.154000", "090427.157000", "090427.159000", "090427.162000", "090427.164000", "090427.167000", "090427.169000", "090427.172000", "090427.174000", "090427.177000", "090427.179000", "090427.182000", "090427.184000", "090427.187000", "090427.189000", "090427.192000", "090427.194000", "090427.197000", "090427.200000", "090507.151000", "090507.154000", "090507.157000", "090507.160000", "090507.162000", "090507.165000", "090507.168000", "090507.170000", "090507.173000", "090507.175000", "090507.178000", "090507.180000", "090507.183000", "090507.185000", "090507.188000", "090507.190000", "090507.193000", "090507.195000", "090507.198000", "090507.201000", "090547.150000", "090547.153000", "090547.155000", "090547.158000", "090547.160000", "090547.163000", "090547.165000", "090547.168000", "090547.170000", "090547.173000", "090547.175000", "090547.178000", "090547.180000", "090547.183000", "090547.185000", "090547.188000", "090547.190000", "090547.193000", "090547.195000", "090547.198000", "090627.150000", "090627.167000", "090627.169000", "090627.172000", "090627.174000", "090627.177000", "090627.179000", "090627.182000", "090627.184000", "090627.187000", "090627.189000", "090627.192000", "090627.194000", "090627.197000", "090627.199000", "090627.202000", "090627.204000", "090627.207000", "090627.209000", "090627.212000", "090707.151000", "090707.154000", "090707.157000", "090707.159000", "090707.162000", "090707.164000", "090707.167000", "090707.169000", "090707.172000", "090707.174000", "090707.177000", "090707.179000", "090707.182000", "090707.184000", "090707.187000", "090707.189000", "090707.192000", "090707.194000", "090707.197000", "090707.199000", "090747.151000", "090747.154000", "090747.157000", "090747.159000", "090747.162000", "090747.164000", "090747.167000", "090747.169000", "090747.172000", "090747.174000", "090747.177000", "090747.180000", "090747.182000", "090747.184000", "090747.187000", "090747.189000", "090747.192000", "090747.194000", "090747.197000", "090747.200000", "090827.150000", "090827.153000", "090827.156000", "090827.158000", "090827.161000", "090827.163000", "090827.166000", "090827.168000", "090827.171000", "090827.173000", "090827.176000", "090827.178000", "090827.195000", "090827.197000", "090827.200000", "090827.202000", "090827.205000", "090827.207000", "090827.210000", "090827.212000", "090900.847000", "090900.850000", "090900.852000", "090900.855000", "090900.858000", "090900.861000", "090900.863000", "090900.866000", "090900.869000", "090900.872000", "090900.875000", "090900.886000", "090900.889000", "090900.892000", "090900.894000", "090900.897000", "090900.901000"],
      "InstanceNumber": [1, 2, 3, 4, 5, 6, 7, 8, 9, 10, 11, 12, 13, 14, 15, 16, 17, 18, 19, 20, 21, 22, 23, 24, 25, 26, 27, 28, 29, 30, 31, 32, 33, 34, 35, 36, 37, 38, 39, 40, 41, 42, 43, 44, 45, 46, 47, 48, 49, 50, 51, 52, 53, 54, 55, 56, 57, 58, 59, 60, 61, 62, 63, 64, 65, 66, 67, 68, 69, 70, 71, 72, 73, 74, 75, 76, 77, 78, 79, 80, 81, 82, 83, 84, 85, 86, 87, 88, 89, 90, 91, 92, 93, 94, 95, 96, 97, 98, 99, 100, 101, 102, 103, 104, 105, 106, 107, 108, 109, 110, 111, 112, 113, 114, 115, 116, 117, 118, 119, 120, 121, 122, 123, 124, 125, 126, 127, 128, 129, 130, 131, 132, 133, 134, 135, 136, 137, 138, 139, 140, 141, 142, 143, 144, 145, 146, 147, 148, 149, 150, 151, 152, 153, 154, 155, 156, 157, 158, 159, 160, 161, 162, 163, 164, 165, 166, 167, 168, 169, 170, 171, 172, 173, 174, 175, 176, 177, 178, 179, 180, 181, 182, 183, 184, 185, 186, 187, 188, 189, 190, 191, 192, 193, 194, 195, 196, 197, 198, 199, 200],
      "LargestImagePixelValue": [2083, 2084, 2089, 2090, 2084, 2087, 2086, 2088, 2086, 2089, 2083, 2083, 2083, 2083, 2084, 2086, 2088, 2089, 2085, 2087, 2083, 2088, 2086, 2087, 2088, 2089, 2089, 2090, 2090, 2086, 2089, 2086, 2087, 2089, 2090, 2086, 2087, 2085, 2091, 2090, 2086, 2086, 2089, 2084, 2083, 2092, 2087, 2084, 2084, 2086, 2087, 2086, 2090, 2087, 2087, 2084, 2088, 2085, 2084, 2092, 2086, 2089, 2088, 2088, 2088, 2089, 2088, 2090, 2092, 2088, 2087, 2091, 2085, 2083, 2086, 2084, 2087, 2090, 2085, 2086, 2087, 2085, 2090, 2082, 2084, 2082, 2082, 2086, 2080, 2086, 2089, 2085, 2084, 2085, 2088, 2082, 2087, 2088, 2083, 2086, 2088, 2082, 2088, 2084, 2081, 2080, 2088, 2085, 2083, 2086, 2082, 2082, 2084, 2081, 2083, 2082, 2084, 2083, 2082, 2087, 2082, 2084, 2089, 2082, 2083, 2080, 2082, 2086, 2087, 2080, 2083, 2084, 2082, 2085, 2083, 2089, 2080, 2083, 2085, 2086, 2081, 2090, 2082, 2087, 2090, 2082, 2087, 2084, 2088, 2087, 2082, 2086, 2085, 2084, 2083, 2085, 2083, 2087, 2086, 2081, 2085, 2089, 2083, 2087, 2081, 2084, 2082, 2087, 2080, 2082, 2081, 2079, 2083, 2080, 2089, 2079, 2080, 2091, 2079, 2079, 2082, 2079, 2083, 2082, 2078, 2082, 2082, 2079, 2082, 2085, 2083, 2086, 2082, 2084, 2080, 2080, 2087, 2085, 2090, 2080],
      "WindowCenter": [919.0, 919.0, 919.0, 919.0, 919.0, 919.0, 919.0, 918.0, 919.0, 919.0, 919.0, 919.0, 919.0, 919.0, 919.0, 919.0, 919.0, 919.0, 919.0, 919.0, 919.0, 919.0, 919.0, 919.0, 919.0, 919.0, 919.0, 919.0, 919.0, 919.0, 919.0, 919.0, 919.0, 919.0, 919.0, 919.0, 919.0, 919.0, 919.0, 919.0, 919.0, 919.0, 919.0, 919.0, 919.0, 919.0, 919.0, 919.0, 919.0, 919.0, 919.0, 919.0, 919.0, 919.0, 919.0, 919.0, 919.0, 919.0, 919.0, 919.0, 919.0, 919.0, 919.0, 919.0, 919.0, 919.0, 919.0, 919.0, 919.0, 919.0, 919.0, 919.0, 919.0, 919.0, 919.0, 919.0, 919.0, 919.0, 919.0, 919.0, 919.0, 919.0, 919.0, 919.0, 919.0, 919.0, 919.0, 919.0, 919.0, 919.0, 919.0, 919.0, 919.0, 919.0, 919.0, 919.0, 919.0, 919.0, 919.0, 919.0, 919.0, 919.0, 919.0, 919.0, 919.0, 919.0, 919.0, 919.0, 919.0, 919.0, 919.0, 919.0, 919.0, 919.0, 919.0, 919.0, 919.0, 919.0, 919.0, 919.0, 919.0, 919.0, 919.0, 919.0, 919.0, 919.0, 919.0, 919.0, 919.0, 919.0, 919.0, 919.0, 919.0, 919.0, 919.0, 919.0, 919.0, 919.0, 919.0, 919.0, 919.0, 919.0, 919.0, 919.0, 919.0, 919.0, 919.0, 919.0, 919.0, 919.0, 919.0, 919.0, 919.0, 919.0, 919.0, 919.0, 919.0, 919.0, 919.0, 919.0, 919.0, 919.0, 919.0, 919.0, 919.0, 919.0, 919.0, 919.0, 919.0, 919.0, 919.0, 919.0, 919.0, 919.0, 919.0, 919.0, 919.0, 919.0, 919.0, 919.0, 919.0, 919.0, 919.0, 919.0, 919.0, 919.0, 919.0, 919.0, 919.0, 919.0, 919.0, 919.0, 919.0, 919.0, 919.0, 919.0, 919.0, 919.0, 919.0, 919.0],
      "WindowWidth": [2086.0, 2086.0, 2086.0, 2086.0, 2086.0, 2086.0, 2086.0, 2085.0, 2086.0, 2086.0, 2086.0, 2086.0, 2086.0, 2086.0, 2086.0, 2086.0, 2086.0, 2086.0, 2086.0, 2085.0, 2086.0, 2086.0, 2086.0, 2086.0, 2086.0, 2086.0, 2086.0, 2086.0, 2086.0, 2086.0, 2086.0, 2086.0, 2086.0, 2086.0, 2086.0, 2086.0, 2086.0, 2086.0, 2086.0, 2086.0, 2086.0, 2086.0, 2086.0, 2086.0, 2086.0, 2086.0, 2086.0, 2087.0, 2086.0, 2086.0, 2086.0, 2086.0, 2086.0, 2086.0, 2086.0, 2086.0, 2086.0, 2086.0, 2086.0, 2086.0, 2087.0, 2086.0, 2086.0, 2087.0, 2086.0, 2086.0, 2087.0, 2087.0, 2087.0, 2086.0, 2086.0, 2086.0, 2087.0, 2086.0, 2087.0, 2086.0, 2087.0, 2087.0, 2086.0, 2087.0, 2087.0, 2087.0, 2086.0, 2086.0, 2087.0, 2086.0, 2086.0, 2087.0, 2087.0, 2087.0, 2086.0, 2086.0, 2086.0, 2087.0, 2086.0, 2087.0, 2087.0, 2087.0, 2087.0, 2087.0, 2087.0, 2086.0, 2087.0, 2087.0, 2086.0, 2087.0, 2087.0, 2086.0, 2087.0, 2087.0, 2087.0, 2087.0, 2087.0, 2086.0, 2086.0, 2086.0, 2087.0, 2087.0, 2087.0, 2087.0, 2086.0, 2086.0, 2087.0, 2087.0, 2086.0, 2087.0, 2087.0, 2086.0, 2086.0, 2086.0, 2087.0, 2087.0, 2087.0, 2086.0, 2087.0, 2087.0, 2087.0, 2087.0, 2086.0, 2087.0, 2087.0, 2087.0, 2087.0, 2087.0, 2087.0, 2087.0, 2087.0, 2087.0, 2087.0, 2087.0, 2087.0, 2087.0, 2087.0, 2087.0, 2086.0, 2086.0, 2087.0, 2087.0, 2087.0, 2087.0, 2087.0, 2087.0, 2087.0, 2087.0, 2087.0, 2087.0, 2086.0, 2086.0, 2086.0, 2086.0, 2087.0, 2086.0, 2087.0, 2086.0, 2087.0, 2087.0, 2087.0, 2087.0, 2086.0, 2087.0, 2086.0, 2086.0, 2087.0, 2086.0, 2087.0, 2086.0, 2087.0, 2086.0, 2087.0, 2087.0, 2086.0, 2086.0, 2087.0, 2086.0, 2087.0, 2086.0, 2087.0, 2087.0, 2087.0, 2086.0]
    },
    "slices": {}
  }
}