{
  "AcquisitionMatrixPE": 80,
  "AcquisitionNumber": 1,
  "AcquisitionTime": "09:58:40.205000",
  "BandwidthPerPixelPhaseEncode": 48.077,
  "BaseResolution": 80,
  "BodyPartExamined": "BRAIN",
  "CoilCombinationMethod": "Sum of Squares",
  "ConsistencyInfo": "N4_VE11C_LATEST_20160120",
  "ConversionSoftware": "dcm2niix",
  "ConversionSoftwareVersion": "v1.0.20220720",
  "DerivedVendorReportedEchoSpacing": 0.000519999,
  "DeviceSerialNumber": "66112",
  "DwellTime": 2.7e-06,
  "EchoTime": 0.035,
  "EchoTrainLength": 39,
  "EffectiveEchoSpacing": 0.00026,
  "FlipAngle": 90,
  "HeudiconvVersion": "0.13.1",
  "ImageOrientationPatientDICOM": [0.986317, 0.164539, 0.0103101, -0.159925, 0.939717, 0.302251],
  "ImageOrientationText": "Tra>Cor(17.5)>Sag(-2.3)",
  "ImageType": [
    "ORIGINAL",
    "PRIMARY",
    "M",
    "ND",
    "NORM",
    "MOSAIC"
],
  "ImagingFrequency": 123.252,
  "InPlanePhaseEncodingDirectionDICOM": "COL",
  "InstitutionAddress": "Maynard 3,Hanover,NH,US,03755",
  "InstitutionName": "Dartmouth College - PBS",
  "InstitutionalDepartmentName": "Department",
  "MRAcquisitionType": "2D",
  "MagneticFieldStrength": 3,
  "Manufacturer": "Siemens",
  "ManufacturersModelName": "Prisma",
  "MatrixCoilMode": "GRAPPA",
  "Modality": "MR",
  "NonlinearGradientCorrection": false,
  "ParallelReductionFactorInPlane": 2,
  "PartialFourier": 1,
  "PatientPosition": "HFS",
  "PercentPhaseFOV": 100,
  "PercentSampling": 100,
  "PhaseEncodingDirection": "j-",
  "PhaseEncodingSteps": 79,
  "PhaseResolution": 1,
  "PixelBandwidth": 2315,
  "ProcedureStepDescription": "dbic^QA",
  "ProtocolName": "func-bold_task-rest_acq-p2",
  "PulseSequenceDetails": "%SiemensSeq%\\ep2d_bold",
  "ReceiveCoilActiveElements": "HEA;HEP",
  "ReceiveCoilName": "Head_32",
  "ReconMatrixPE": 80,
  "RefLinesPE": 24,
  "RepetitionTime": 2,
  "SAR": 0.0554712,
  "ScanOptions": "FS",
  "ScanningSequence": "EP",
  "SequenceName": "*epfid2d1_80",
  "SequenceVariant": "SK",
  "SeriesDescription": "func-bold_task-rest_acq-p2",
  "SeriesNumber": 5,
  "ShimSetting": [4145, -7681, -7510, 349, -30, -239, -75, 59],
  "SliceThickness": 3.5,
  "SliceTiming": [0.99, 0, 1.055, 0.065, 1.1225, 0.1325, 1.1875, 0.1975, 1.255, 0.265, 1.32, 0.33, 1.385, 0.395, 1.4525, 0.4625, 1.5175, 0.5275, 1.585, 0.595, 1.65, 0.66, 1.715, 0.725, 1.7825, 0.7925, 1.8475, 0.8575, 1.9125, 0.925],
  "SoftwareVersions": "syngo MR E11",
  "SpacingBetweenSlices": 3.99,
  "StationName": "AWP66112",
  "TaskName": "rest",
  "TotalReadoutTime": 0.02054,
  "TxRefAmp": 227.07,
  "dcmmeta_affine": [
    [-2.9589498043060303, -0.4797753691673279, -0.15977422893047333, 143.2430877685547],
    [-0.4936184585094452, 2.8191511631011963, 1.196058988571167, -107.40685272216797],
    [0.030930306762456894, -0.906753420829773, 3.8031585216522217, -26.521846771240234],
    [0.0, 0.0, 0.0, 1.0]
],
  "dcmmeta_reorient_transform": [
    [0.0, -1.0, 0.0, 79.0],
    [1.0, 0.0, 0.0, 0.0],
    [0.0, 0.0, 1.0, 0.0],
    [0.0, 0.0, 0.0, 1.0]
],
  "dcmmeta_shape": [80, 80, 30, 200],
  "dcmmeta_slice_dim": 2,
  "dcmmeta_version": 0.6,
  "global": {
    "const": {
      "AccessionNumber": "qa",
      "AcquisitionMatrix": [80, 0, 0, 80],
      "AngioFlag": "N",
      "BitsAllocated": 16,
      "BitsStored": 12,
      "BodyPartExamined": "BRAIN",
      "Columns": 480,
      "EchoNumbers": 1,
      "EchoTime": 35.0,
      "EchoTrainLength": 39,
      "FlipAngle": 90.0,
      "HighBit": 11,
      "ImageOrientationPatient": [0.98631661199551, 0.16453948672285, 0.01031010236007, -0.1599251250704, 0.93971708847568, 0.30225113398963],
      "ImagePositionPatient": [-601.17572159929, -777.86004130237, -285.69210805508],
      "ImageType": [
        "ORIGINAL",
        "PRIMARY",
        "M",
        "ND",
        "NORM",
        "MOSAIC"
],
      "ImagedNucleus": "1H",
      "ImagingFrequency": 123.252447,
      "InPlanePhaseEncodingDirection": "COL",
      "MRAcquisitionType": "2D",
      "MagneticFieldStrength": 3.0,
      "Manufacturer": "SIEMENS",
      "ManufacturerModelName": "Prisma",
      "Modality": "MR",
      "NumberOfAverages": 1.0,
      "NumberOfPhaseEncodingSteps": 79,
      "PercentPhaseFieldOfView": 100.0,
      "PercentSampling": 100.0,
      "PerformedProcedureStepStartTime": "094054.650000",
      "PhotometricInterpretation": "MONOCHROME2",
      "PixelBandwidth": 2315.0,
      "PixelRepresentation": 0,
      "PixelSpacing": [3.0, 3.0],
      "ProtocolName": "func-bold_task-rest_acq-p2",
      "RepetitionTime": 2000.0,
      "Rows": 480,
      "SAR": 0.05547123467684,
      "SamplesPerPixel": 1,
      "ScanOptions": "FS",
      "ScanningSequence": "EP",
      "SequenceName": "*epfid2d1_80",
      "SequenceVariant": "SK",
      "SeriesDescription": "func-bold_task-rest_acq-p2",
      "SeriesNumber": 5,
      "SeriesTime": "095924.385000",
      "SliceLocation": -63.212601161414,
      "SliceThickness": 3.5,
      "SmallestImagePixelValue": 0,
      "SoftwareVersions": "syngo MR E11",
      "SpacingBetweenSlices": 3.9900000075244,
      "SpecificCharacterSet": "ISO_IR 100",
      "StudyID": "15",
      "StudyTime": "094054.562000",
      "TransmitCoilName": "Body",
      "VariableFlipAngleFlag": "N",
      "WindowCenterWidthExplanation": "Algo1",
      "dBdt": 0.0},
    "slices": {}
  },
  "time": {
    "samples": {
      "AcquisitionNumber": [1, 2, 3, 4, 5, 6, 7, 8, 9, 10, 11, 12, 13, 14, 15, 16, 17, 18, 19, 20, 21, 22, 23, 24, 25, 26, 27, 28, 29, 30, 31, 32, 33, 34, 35, 36, 37, 38, 39, 40, 41, 42, 43, 44, 45, 46, 47, 48, 49, 50, 51, 52, 53, 54, 55, 56, 57, 58, 59, 60, 61, 62, 63, 64, 65, 66, 67, 68, 69, 70, 71, 72, 73, 74, 75, 76, 77, 78, 79, 80, 81, 82, 83, 84, 85, 86, 87, 88, 89, 90, 91, 92, 93, 94, 95, 96, 97, 98, 99, 100, 101, 102, 103, 104, 105, 106, 107, 108, 109, 110, 111, 112, 113, 114, 115, 116, 117, 118, 119, 120, 121, 122, 123, 124, 125, 126, 127, 128, 129, 130, 131, 132, 133, 134, 135, 136, 137, 138, 139, 140, 141, 142, 143, 144, 145, 146, 147, 148, 149, 150, 151, 152, 153, 154, 155, 156, 157, 158, 159, 160, 161, 162, 163, 164, 165, 166, 167, 168, 169, 170, 171, 172, 173, 174, 175, 176, 177, 178, 179, 180, 181, 182, 183, 184, 185, 186, 187, 188, 189, 190, 191, 192, 193, 194, 195, 196, 197, 198, 199, 200],
      "AcquisitionTime": ["095840.205000", "095842.205000", "095844.205000", "095846.205000", "095848.205000", "095850.205000", "095852.205000", "095854.205000", "095856.205000", "095858.205000", "095900.205000", "095902.205000", "095904.205000", "095906.205000", "095908.205000", "095910.205000", "095912.205000", "095914.205000", "095916.205000", "095918.205000", "095920.205000", "095922.205000", "095924.205000", "095926.205000", "095928.205000", "095930.205000", "095932.205000", "095934.205000", "095936.205000", "095938.205000", "095940.205000", "095942.205000", "095944.205000", "095946.205000", "095948.205000", "095950.205000", "095952.205000", "095954.205000", "095956.205000", "095958.205000", "100000.205000", "100002.205000", "100004.205000", "100006.205000", "100008.205000", "100010.205000", "100012.205000", "100014.205000", "100016.205000", "100018.205000", "100020.205000", "100022.205000", "100024.205000", "100026.205000", "100028.205000", "100030.205000", "100032.205000", "100034.205000", "100036.205000", "100038.205000", "100040.205000", "100042.205000", "100044.205000", "100046.205000", "100048.205000", "100050.205000", "100052.205000", "100054.205000", "100056.205000", "100058.205000", "100100.205000", "100102.205000", "100104.205000", "100106.205000", "100108.205000", "100110.205000", "100112.205000", "100114.205000", "100116.205000", "100118.205000", "100120.205000", "100122.205000", "100124.205000", "100126.205000", "100128.205000", "100130.205000", "100132.205000", "100134.205000", "100136.205000", "100138.205000", "100140.205000", "100142.205000", "100144.205000", "100146.205000", "100148.205000", "100150.205000", "100152.205000", "100154.205000", "100156.205000", "100158.205000", "100200.205000", "100202.205000", "100204.205000", "100206.205000", "100208.205000", "100210.205000", "100212.205000", "100214.205000", "100216.205000", "100218.205000", "100220.205000", "100222.205000", "100224.205000", "100226.205000", "100228.205000", "100230.205000", "100232.205000", "100234.205000", "100236.205000", "100238.205000", "100240.205000", "100242.205000", "100244.205000", "100246.205000", "100248.205000", "100250.205000", "100252.205000", "100254.205000", "100256.205000", "100258.205000", "100300.205000", "100302.205000", "100304.205000", "100306.205000", "100308.205000", "100310.205000", "100312.205000", "100314.205000", "100316.205000", "100318.205000", "100320.205000", "100322.205000", "100324.205000", "100326.205000", "100328.205000", "100330.205000", "100332.205000", "100334.205000", "100336.205000", "100338.205000", "100340.205000", "100342.205000", "100344.205000", "100346.205000", "100348.205000", "100350.205000", "100352.205000", "100354.205000", "100356.205000", "100358.205000", "100400.205000", "100402.205000", "100404.205000", "100406.205000", "100408.205000", "100410.205000", "100412.205000", "100414.205000", "100416.205000", "100418.205000", "100420.205000", "100422.205000", "100424.205000", "100426.205000", "100428.205000", "100430.205000", "100432.205000", "100434.205000", "100436.205000", "100438.205000", "100440.205000", "100442.205000", "100444.205000", "100446.205000", "100448.205000", "100450.205000", "100452.205000", "100454.205000", "100456.205000", "100458.205000", "100500.205000", "100502.205000", "100504.205000", "100506.205000", "100508.205000", "100510.205000", "100512.205000", "100514.205000", "100516.205000", "100518.205000"],
      "ContentTime": ["095924.389000", "095924.392000", "095924.398000", "095924.400000", "095924.403000", "095924.405000", "095924.408000", "095924.411000", "095924.413000", "095924.416000", "095924.418000", "095924.421000", "095924.424000", "095924.426000", "095924.429000", "095924.431000", "095924.434000", "095924.437000", "095924.439000", "095924.448000", "095924.451000", "095924.478000", "100004.382000", "100004.385000", "100004.388000", "100004.391000", "100004.393000", "100004.396000", "100004.398000", "100004.401000", "100004.403000", "100004.406000", "100004.409000", "100004.411000", "100004.414000", "100004.416000", "100004.419000", "100004.422000", "100004.424000", "100004.427000", "100004.429000", "100004.432000", "100024.383000", "100024.385000", "100024.388000", "100024.391000", "100024.393000", "100024.396000", "100024.398000", "100024.401000", "100024.403000", "100024.406000", "100104.383000", "100104.385000", "100104.388000", "100104.391000", "100104.393000", "100104.396000", "100104.411000", "100104.414000", "100104.416000", "100104.419000", "100104.421000", "100104.424000", "100104.432000", "100104.435000", "100104.438000", "100104.440000", "100104.443000", "100104.446000", "100104.448000", "100104.451000", "100144.384000", "100144.386000", "100144.389000", "100144.392000", "100144.394000", "100144.397000", "100144.400000", "100144.402000", "100144.405000", "100144.407000", "100144.410000", "100144.412000", "100144.415000", "100144.418000", "100144.420000", "100144.423000", "100144.426000", "100144.428000", "100144.431000", "100144.434000", "100224.382000", "100224.385000", "100224.388000", "100224.390000", "100224.393000", "100224.396000", "100224.398000", "100224.401000", "100224.404000", "100224.406000", "100224.409000", "100224.412000", "100224.414000", "100224.417000", "100224.419000", "100224.422000", "100224.424000", "100224.427000", "100224.430000", "100224.432000", "100304.382000", "100304.385000", "100304.388000", "100304.391000", "100304.393000", "100304.396000", "100304.398000", "100304.401000", "100304.404000", "100304.407000", "100304.409000", "100304.412000", "100304.414000", "100304.417000", "100304.419000", "100304.422000", "100304.424000", "100304.427000", "100304.430000", "100304.432000", "100344.383000", "100344.385000", "100344.388000", "100344.391000", "100344.393000", "100344.396000", "100344.398000", "100344.401000", "100344.403000", "100344.406000", "100344.409000", "100344.411000", "100344.414000", "100344.416000", "100344.419000", "100344.422000", "100344.424000", "100344.427000", "100344.429000", "100344.432000", "100424.383000", "100424.386000", "100424.389000", "100424.391000", "100424.394000", "100424.397000", "100424.399000", "100424.402000", "100424.404000", "100424.407000", "100424.409000", "100424.412000", "100424.414000", "100424.417000", "100424.420000", "100424.422000", "100424.425000", "100424.427000", "100424.430000", "100424.433000", "100504.382000", "100504.385000", "100504.388000", "100504.390000", "100504.393000", "100504.396000", "100504.398000", "100504.401000", "100504.403000", "100504.406000", "100504.409000", "100504.411000", "100504.414000", "100504.416000", "100504.419000", "100504.421000", "100504.424000", "100504.427000", "100504.429000", "100504.432000", "100519.896000", "100519.899000", "100519.901000", "100519.904000", "100519.907000", "100519.909000", "100519.912000", "100519.914000"],
      "InstanceCreationTime": ["095924.389000", "095924.392000", "095924.398000", "095924.400000", "095924.403000", "095924.405000", "095924.408000", "095924.411000", "095924.413000", "095924.416000", "095924.418000", "095924.421000", "095924.424000", "095924.426000", "095924.429000", "095924.431000", "095924.434000", "095924.437000", "095924.439000", "095924.448000", "095924.451000", "095924.478000", "100004.382000", "100004.385000", "100004.388000", "100004.391000", "100004.393000", "100004.396000", "100004.398000", "100004.401000", "100004.403000", "100004.406000", "100004.409000", "100004.411000", "100004.414000", "100004.416000", "100004.419000", "100004.422000", "100004.424000", "100004.427000", "100004.429000", "100004.432000", "100024.383000", "100024.385000", "100024.388000", "100024.391000", "100024.393000", "100024.396000", "100024.398000", "100024.401000", "100024.403000", "100024.406000", "100104.383000", "100104.385000", "100104.388000", "100104.391000", "100104.393000", "100104.396000", "100104.411000", "100104.414000", "100104.416000", "100104.419000", "100104.421000", "100104.424000", "100104.432000", "100104.435000", "100104.438000", "100104.440000", "100104.443000", "100104.446000", "100104.448000", "100104.451000", "100144.384000", "100144.386000", "100144.389000", "100144.392000", "100144.394000", "100144.397000", "100144.400000", "100144.402000", "100144.405000", "100144.407000", "100144.410000", "100144.412000", "100144.415000", "100144.418000", "100144.420000", "100144.423000", "100144.426000", "100144.428000", "100144.431000", "100144.434000", "100224.382000", "100224.385000", "100224.388000", "100224.390000", "100224.393000", "100224.396000", "100224.398000", "100224.401000", "100224.404000", "100224.406000", "100224.409000", "100224.412000", "100224.414000", "100224.417000", "100224.419000", "100224.422000", "100224.424000", "100224.427000", "100224.430000", "100224.432000", "100304.382000", "100304.385000", "100304.388000", "100304.391000", "100304.393000", "100304.396000", "100304.398000", "100304.401000", "100304.404000", "100304.407000", "100304.409000", "100304.412000", "100304.414000", "100304.417000", "100304.419000", "100304.422000", "100304.424000", "100304.427000", "100304.430000", "100304.432000", "100344.383000", "100344.385000", "100344.388000", "100344.391000", "100344.393000", "100344.396000", "100344.398000", "100344.401000", "100344.403000", "100344.406000", "100344.409000", "100344.411000", "100344.414000", "100344.416000", "100344.419000", "100344.422000", "100344.424000", "100344.427000", "100344.429000", "100344.432000", "100424.383000", "100424.386000", "100424.389000", "100424.391000", "100424.394000", "100424.397000", "100424.399000", "100424.402000", "100424.404000", "100424.407000", "100424.409000", "100424.412000", "100424.414000", "100424.417000", "100424.420000", "100424.422000", "100424.425000", "100424.427000", "100424.430000", "100424.433000", "100504.382000", "100504.385000", "100504.388000", "100504.390000", "100504.393000", "100504.396000", "100504.398000", "100504.401000", "100504.403000", "100504.406000", "100504.409000", "100504.411000", "100504.414000", "100504.416000", "100504.419000", "100504.421000", "100504.424000", "100504.427000", "100504.429000", "100504.432000", "100519.896000", "100519.899000", "100519.901000", "100519.904000", "100519.907000", "100519.909000", "100519.912000", "100519.914000"],
      "InstanceNumber": [1, 2, 3, 4, 5, 6, 7, 8, 9, 10, 11, 12, 13, 14, 15, 16, 17, 18, 19, 20, 21, 22, 23, 24, 25, 26, 27, 28, 29, 30, 31, 32, 33, 34, 35, 36, 37, 38, 39, 40, 41, 42, 43, 44, 45, 46, 47, 48, 49, 50, 51, 52, 53, 54, 55, 56, 57, 58, 59, 60, 61, 62, 63, 64, 65, 66, 67, 68, 69, 70, 71, 72, 73, 74, 75, 76, 77, 78, 79, 80, 81, 82, 83, 84, 85, 86, 87, 88, 89, 90, 91, 92, 93, 94, 95, 96, 97, 98, 99, 100, 101, 102, 103, 104, 105, 106, 107, 108, 109, 110, 111, 112, 113, 114, 115, 116, 117, 118, 119, 120, 121, 122, 123, 124, 125, 126, 127, 128, 129, 130, 131, 132, 133, 134, 135, 136, 137, 138, 139, 140, 141, 142, 143, 144, 145, 146, 147, 148, 149, 150, 151, 152, 153, 154, 155, 156, 157, 158, 159, 160, 161, 162, 163, 164, 165, 166, 167, 168, 169, 170, 171, 172, 173, 174, 175, 176, 177, 178, 179, 180, 181, 182, 183, 184, 185, 186, 187, 188, 189, 190, 191, 192, 193, 194, 195, 196, 197, 198, 199, 200],
      "LargestImagePixelValue": [2157, 2149, 2155, 2151, 2158, 2149, 2145, 2150, 2141, 2155, 2152, 2155, 2150, 2144, 2147, 2146, 2155, 2151, 2155, 2148, 2148, 2155, 2144, 2150, 2152, 2149, 2150, 2148, 2151, 2146, 2148, 2150, 2147, 2150, 2156, 2160, 2147, 2146, 2152, 2152, 2153, 2152, 2152, 2145, 2150, 2153, 2148, 2146, 2154, 2148, 2150, 2162, 2149, 2144, 2151, 2150, 2145, 2154, 2151, 2147, 2141, 2151, 2149, 2152, 2156, 2151, 2148, 2154, 2151, 2153, 2148, 2156, 2150, 2145, 2145, 2155, 2147, 2144, 2152, 2152, 2145, 2150, 2154, 2142, 2148, 2153, 2148, 2155, 2138, 2146, 2145, 2149, 2147, 2142, 2148, 2148, 2151, 2146, 2147, 2151, 2147, 2150, 2149, 2147, 2151, 2148, 2151, 2153, 2156, 2150, 2144, 2150, 2150, 2149, 2148, 2147, 2155, 2158, 2145, 2156, 2144, 2158, 2148, 2148, 2154, 2151, 2147, 2153, 2147, 2146, 2148, 2145, 2151, 2153, 2148, 2154, 2154, 2152, 2160, 2148, 2146, 2151, 2148, 2154, 2157, 2154, 2153, 2154, 2154, 2146, 2155, 2155, 2147, 2147, 2151, 2152, 2154, 2157, 2150, 2154, 2145, 2146, 2148, 2156, 2145, 2149, 2148, 2150, 2148, 2148, 2148, 2150, 2157, 2155, 2153, 2160, 2145, 2147, 2151, 2155, 2145, 2157, 2152, 2149, 2151, 2150, 2144, 2144, 2153, 2152, 2153, 2150, 2149, 2155, 2153, 2152, 2147, 2154, 2154, 2149],
      "WindowCenter": [988.0, 988.0, 988.0, 988.0, 988.0, 988.0, 988.0, 988.0, 988.0, 988.0, 988.0, 988.0, 988.0, 988.0, 988.0, 988.0, 988.0, 988.0, 989.0, 988.0, 988.0, 988.0, 988.0, 988.0, 988.0, 988.0, 988.0, 988.0, 988.0, 988.0, 988.0, 988.0, 988.0, 988.0, 988.0, 988.0, 988.0, 988.0, 988.0, 988.0, 988.0, 988.0, 988.0, 988.0, 988.0, 988.0, 988.0, 988.0, 988.0, 988.0, 989.0, 988.0, 988.0, 988.0, 988.0, 988.0, 988.0, 988.0, 988.0, 988.0, 988.0, 988.0, 988.0, 988.0, 988.0, 988.0, 988.0, 988.0, 988.0, 988.0, 988.0, 988.0, 988.0, 988.0, 988.0, 988.0, 988.0, 988.0, 988.0, 988.0, 988.0, 988.0, 988.0, 988.0, 988.0, 988.0, 988.0, 988.0, 988.0, 988.0, 988.0, 988.0, 988.0, 988.0, 988.0, 988.0, 988.0, 988.0, 988.0, 988.0, 988.0, 988.0, 988.0, 988.0, 988.0, 988.0, 988.0, 988.0, 988.0, 988.0, 988.0, 988.0, 988.0, 988.0, 988.0, 988.0, 988.0, 988.0, 988.0, 988.0, 988.0, 988.0, 988.0, 988.0, 988.0, 988.0, 988.0, 987.0, 987.0, 987.0, 988.0, 988.0, 987.0, 988.0, 987.0, 987.0, 987.0, 988.0, 988.0, 987.0, 988.0, 988.0, 987.0, 987.0, 987.0, 987.0, 987.0, 987.0, 987.0, 988.0, 987.0, 987.0, 987.0, 987.0, 987.0, 987.0, 987.0, 987.0, 987.0, 988.0, 987.0, 987.0, 987.0, 987.0, 987.0, 987.0, 987.0, 987.0, 987.0, 988.0, 988.0, 987.0, 987.0, 987.0, 987.0, 987.0, 987.0, 987.0, 987.0, 987.0, 987.0, 987.0, 987.0, 987.0, 987.0, 987.0, 987.0, 987.0, 987.0, 987.0, 987.0, 987.0, 987.0, 987.0, 987.0, 987.0, 987.0, 987.0, 987.0, 987.0],
      "WindowWidth": [2169.0, 2168.0, 2168.0, 2168.0, 2168.0, 2168.0, 2168.0, 2168.0, 2168.0, 2168.0, 2168.0, 2168.0, 2168.0, 2168.0, 2168.0, 2168.0, 2168.0, 2168.0, 2168.0, 2168.0, 2168.0, 2168.0, 2168.0, 2168.0, 2168.0, 2168.0, 2168.0, 2168.0, 2168.0, 2168.0, 2168.0, 2168.0, 2168.0, 2168.0, 2168.0, 2168.0, 2168.0, 2168.0, 2168.0, 2168.0, 2168.0, 2168.0, 2167.0, 2168.0, 2167.0, 2168.0, 2167.0, 2167.0, 2167.0, 2167.0, 2168.0, 2167.0, 2167.0, 2167.0, 2167.0, 2167.0, 2167.0, 2167.0, 2167.0, 2167.0, 2167.0, 2167.0, 2167.0, 2167.0, 2167.0, 2167.0, 2167.0, 2167.0, 2167.0, 2167.0, 2167.0, 2167.0, 2167.0, 2167.0, 2167.0, 2167.0, 2167.0, 2167.0, 2167.0, 2167.0, 2167.0, 2167.0, 2167.0, 2167.0, 2167.0, 2167.0, 2167.0, 2167.0, 2167.0, 2167.0, 2167.0, 2167.0, 2167.0, 2167.0, 2167.0, 2167.0, 2167.0, 2167.0, 2167.0, 2167.0, 2167.0, 2167.0, 2167.0, 2167.0, 2167.0, 2167.0, 2167.0, 2167.0, 2167.0, 2167.0, 2167.0, 2166.0, 2167.0, 2167.0, 2166.0, 2167.0, 2166.0, 2167.0, 2167.0, 2167.0, 2167.0, 2166.0, 2166.0, 2166.0, 2166.0, 2167.0, 2166.0, 2166.0, 2166.0, 2166.0, 2166.0, 2166.0, 2166.0, 2167.0, 2166.0, 2166.0, 2166.0, 2166.0, 2167.0, 2166.0, 2166.0, 2168.0, 2166.0, 2166.0, 2166.0, 2166.0, 2166.0, 2166.0, 2166.0, 2166.0, 2166.0, 2166.0, 2166.0, 2166.0, 2166.0, 2166.0, 2166.0, 2166.0, 2166.0, 2166.0, 2166.0, 2166.0, 2166.0, 2166.0, 2166.0, 2166.0, 2166.0, 2166.0, 2166.0, 2167.0, 2167.0, 2166.0, 2166.0, 2166.0, 2166.0, 2166.0, 2166.0, 2166.0, 2166.0, 2166.0, 2166.0, 2166.0, 2166.0, 2166.0, 2166.0, 2166.0, 2166.0, 2166.0, 2166.0, 2166.0, 2166.0, 2166.0, 2166.0, 2166.0, 2166.0, 2166.0, 2166.0, 2166.0, 2166.0, 2166.0]
    },
    "slices": {}
  }
}