{
  "AcquisitionMatrixPE": 80,
  "AcquisitionNumber": 1,
  "AcquisitionTime": "10:05:35.132500",
  "BandwidthPerPixelPhaseEncode": 44.643,
  "BaseResolution": 80,
  "BodyPartExamined": "BRAIN",
  "ConsistencyInfo": "N4_VE11C_LATEST_20160120",
  "ConversionSoftware": "dcm2niix",
  "ConversionSoftwareVersion": "v1.0.20170923 (OpenJPEG build) GCC6.3.0",
  "DerivedVendorReportedEchoSpacing": 0.000559998,
  "DeviceSerialNumber": "66112",
  "DwellTime": 2.7e-06,
  "EchoTime": 0.035,
  "EchoTrainLength": 39,
  "EffectiveEchoSpacing": 0.000279999,
  "FlipAngle": 90,
  "ImageType": [
    "ORIGINAL",
    "PRIMARY",
    "M",
    "ND",
    "NORM",
    "MOSAIC"
],
  "InstitutionAddress": "Maynard_3_Hanover_NH_US_03755",
  "InstitutionName": "Dartmouth_College_-_PBS",
  "MagneticFieldStrength": 3,
  "Manufacturer": "Siemens",
  "ManufacturersModelName": "Prisma",
  "Modality": "MR",
  "MultibandAccelerationFactor": 4,
  "ParallelReductionFactorInPlane": 2,
  "PartialFourier": 1,
  "PercentPhaseFOV": 100,
  "PhaseEncodingDirection": "j-",
  "PhaseEncodingSteps": 79,
  "PhaseResolution": 1,
  "ProcedureStepDescription": "dbic_QA",
  "ProtocolName": "func-bold_task-rest_acq-p2-s4-3.5mm",
  "PulseSequenceDetails": "%SiemensSeq%_ep2d_bold",
  "ReceiveCoilActiveElements": "HEA;HEP",
  "ReceiveCoilName": "Head_32",
  "ReconMatrixPE": 80,
  "RepetitionTime": 2,
  "ScanOptions": "FS",
  "ScanningSequence": "EP",
  "SequenceName": "_epfid2d1_80",
  "SequenceVariant": "SK",
  "SeriesDescription": "func-bold_task-rest_acq-p2-s4-3.5mm",
  "SliceTiming": [1.485, 0, 0.99, 0.2475, 1.2375, 0.7425, 1.7325, 0.495, 1.485, 0, 0.99, 0.2475, 1.2375, 0.7425, 1.7325, 0.495, 1.485, 0, 0.99, 0.2475, 1.2375, 0.7425, 1.7325, 0.495, 1.485, 0, 0.99, 0.2475, 1.2375, 0.7425, 1.7325, 0.495],
  "SoftwareVersions": "syngo_MR_E11",
  "StationName": "AWP66112",
  "TaskName": "rest",
  "TotalReadoutTime": 0.0221199,
  "dcmmeta_affine": [
    [-2.9589498043060303, -0.4797753691673279, -0.15977422893047333, 143.40286254882812],
    [-0.4936184585094452, 2.8191511631011963, 1.196058988571167, -108.60291290283203],
    [0.030930306762456894, -0.906753420829773, 3.803158760070801, -30.325008392333984],
    [0.0, 0.0, 0.0, 1.0]
],
  "dcmmeta_reorient_transform": [
    [0.0, -1.0, 0.0, 79.0],
    [1.0, 0.0, 0.0, 0.0],
    [0.0, 0.0, 1.0, 0.0],
    [0.0, 0.0, 0.0, 1.0]
],
  "dcmmeta_shape": [80, 80, 32, 200],
  "dcmmeta_slice_dim": 2,
  "dcmmeta_version": 0.6,
  "global": {
    "const": {
      "AccessionNumber": "qa",
      "AcquisitionMatrix": [80, 0, 0, 80],
      "AngioFlag": "N",
      "BitsAllocated": 16,
      "BitsStored": 12,
      "BodyPartExamined": "BRAIN",
      "Columns": 480,
      "EchoNumbers": 1,
      "EchoTime": 35.0,
      "EchoTrainLength": 39,
      "FlipAngle": 90.0,
      "HighBit": 11,
      "ImageOrientationPatient": [0.98631661199551, 0.16453948672285, 0.01031010236007, -0.1599251250704, 0.93971708847568, 0.30225113398963],
      "ImagePositionPatient": [-601.33549590273, -776.6639811217, -289.49526967618],
      "ImageType": [
        "ORIGINAL",
        "PRIMARY",
        "M",
        "ND",
        "NORM",
        "MOSAIC"
],
      "ImagedNucleus": "1H",
      "ImagingFrequency": 123.252447,
      "InPlanePhaseEncodingDirection": "COL",
      "MRAcquisitionType": "2D",
      "MagneticFieldStrength": 3.0,
      "Manufacturer": "SIEMENS",
      "ManufacturerModelName": "Prisma",
      "Modality": "MR",
      "NumberOfAverages": 1.0,
      "NumberOfPhaseEncodingSteps": 79,
      "PercentPhaseFieldOfView": 100.0,
      "PercentSampling": 100.0,
      "PerformedProcedureStepStartTime": "094054.650000",
      "PhotometricInterpretation": "MONOCHROME2",
      "PixelBandwidth": 2315.0,
      "PixelRepresentation": 0,
      "PixelSpacing": [3.0, 3.0],
      "PositionReferenceIndicator": "",
      "ProtocolName": "func-bold_task-rest_acq-p2-s4-3.5mm",
      "RepetitionTime": 2000.0,
      "Rows": 480,
      "SAR": 0.02085879874155,
      "SamplesPerPixel": 1,
      "ScanOptions": "FS",
      "ScanningSequence": "EP",
      "SequenceName": "*epfid2d1_80",
      "SequenceVariant": "SK",
      "SeriesDescription": "func-bold_task-rest_acq-p2-s4-3.5mm",
      "SeriesNumber": 7,
      "SeriesTime": "100624.454000",
      "SliceLocation": -67.202604432085,
      "SliceThickness": 3.5,
      "SmallestImagePixelValue": 0,
      "SoftwareVersions": "syngo MR E11",
      "SpacingBetweenSlices": 3.9900001006036,
      "SpecificCharacterSet": "ISO_IR 100",
      "StudyID": "15",
      "StudyTime": "094054.562000",
      "TransmitCoilName": "Body",
      "VariableFlipAngleFlag": "N",
      "WindowCenterWidthExplanation": "Algo1",
      "dBdt": 0.0},
    "slices": {}
  },
  "time": {
    "samples": {
      "AcquisitionNumber": [1, 2, 3, 4, 5, 6, 7, 8, 9, 10, 11, 12, 13, 14, 15, 16, 17, 18, 19, 20, 21, 22, 23, 24, 25, 26, 27, 28, 29, 30, 31, 32, 33, 34, 35, 36, 37, 38, 39, 40, 41, 42, 43, 44, 45, 46, 47, 48, 49, 50, 51, 52, 53, 54, 55, 56, 57, 58, 59, 60, 61, 62, 63, 64, 65, 66, 67, 68, 69, 70, 71, 72, 73, 74, 75, 76, 77, 78, 79, 80, 81, 82, 83, 84, 85, 86, 87, 88, 89, 90, 91, 92, 93, 94, 95, 96, 97, 98, 99, 100, 101, 102, 103, 104, 105, 106, 107, 108, 109, 110, 111, 112, 113, 114, 115, 116, 117, 118, 119, 120, 121, 122, 123, 124, 125, 126, 127, 128, 129, 130, 131, 132, 133, 134, 135, 136, 137, 138, 139, 140, 141, 142, 143, 144, 145, 146, 147, 148, 149, 150, 151, 152, 153, 154, 155, 156, 157, 158, 159, 160, 161, 162, 163, 164, 165, 166, 167, 168, 169, 170, 171, 172, 173, 174, 175, 176, 177, 178, 179, 180, 181, 182, 183, 184, 185, 186, 187, 188, 189, 190, 191, 192, 193, 194, 195, 196, 197, 198, 199, 200],
      "AcquisitionTime": ["100535.132500", "100537.132500", "100539.132500", "100541.132500", "100543.132500", "100545.132500", "100547.132500", "100549.132500", "100551.132500", "100553.132500", "100555.132500", "100557.132500", "100559.132500", "100601.132500", "100603.132500", "100605.132500", "100607.132500", "100609.132500", "100611.132500", "100613.132500", "100615.132500", "100617.132500", "100619.132500", "100621.132500", "100623.132500", "100625.132500", "100627.132500", "100629.132500", "100631.132500", "100633.132500", "100635.132500", "100637.132500", "100639.132500", "100641.132500", "100643.132500", "100645.132500", "100647.132500", "100649.132500", "100651.132500", "100653.132500", "100655.132500", "100657.132500", "100659.132500", "100701.132500", "100703.132500", "100705.132500", "100707.132500", "100709.132500", "100711.132500", "100713.132500", "100715.132500", "100717.132500", "100719.132500", "100721.132500", "100723.132500", "100725.132500", "100727.132500", "100729.132500", "100731.132500", "100733.132500", "100735.132500", "100737.132500", "100739.132500", "100741.132500", "100743.132500", "100745.132500", "100747.132500", "100749.132500", "100751.132500", "100753.132500", "100755.132500", "100757.132500", "100759.132500", "100801.132500", "100803.132500", "100805.132500", "100807.132500", "100809.132500", "100811.132500", "100813.132500", "100815.132500", "100817.132500", "100819.132500", "100821.132500", "100823.132500", "100825.132500", "100827.132500", "100829.132500", "100831.132500", "100833.132500", "100835.132500", "100837.132500", "100839.132500", "100841.132500", "100843.132500", "100845.132500", "100847.132500", "100849.132500", "100851.132500", "100853.132500", "100855.132500", "100857.132500", "100859.132500", "100901.132500", "100903.132500", "100905.132500", "100907.132500", "100909.132500", "100911.132500", "100913.132500", "100915.132500", "100917.132500", "100919.132500", "100921.132500", "100923.132500", "100925.132500", "100927.132500", "100929.132500", "100931.132500", "100933.132500", "100935.132500", "100937.132500", "100939.132500", "100941.132500", "100943.132500", "100945.132500", "100947.132500", "100949.132500", "100951.132500", "100953.132500", "100955.132500", "100957.132500", "100959.132500", "101001.132500", "101003.132500", "101005.132500", "101007.132500", "101009.132500", "101011.132500", "101013.132500", "101015.132500", "101017.132500", "101019.132500", "101021.132500", "101023.132500", "101025.132500", "101027.132500", "101029.132500", "101031.132500", "101033.132500", "101035.132500", "101037.132500", "101039.132500", "101041.132500", "101043.132500", "101045.132500", "101047.132500", "101049.132500", "101051.132500", "101053.132500", "101055.132500", "101057.132500", "101059.132500", "101101.132500", "101103.132500", "101105.132500", "101107.132500", "101109.132500", "101111.132500", "101113.132500", "101115.132500", "101117.132500", "101119.132500", "101121.132500", "101123.132500", "101125.132500", "101127.132500", "101129.132500", "101131.132500", "101133.132500", "101135.132500", "101137.132500", "101139.132500", "101141.132500", "101143.132500", "101145.132500", "101147.132500", "101149.132500", "101151.132500", "101153.132500", "101155.132500", "101157.132500", "101159.132500", "101201.132500", "101203.132500", "101205.132500", "101207.132500", "101209.132500", "101211.132500", "101213.132500"],
      "ContentTime": ["100624.465000", "100624.468000", "100624.471000", "100624.474000", "100624.476000", "100624.479000", "100624.492000", "100624.495000", "100624.498000", "100624.500000", "100624.503000", "100624.505000", "100624.508000", "100624.514000", "100624.520000", "100624.523000", "100624.525000", "100624.528000", "100624.531000", "100624.533000", "100624.536000", "100624.538000", "100624.541000", "100624.544000", "100624.546000", "100704.451000", "100704.454000", "100704.457000", "100704.459000", "100704.462000", "100704.465000", "100704.467000", "100704.470000", "100704.472000", "100704.475000", "100704.477000", "100704.480000", "100704.483000", "100704.485000", "100704.498000", "100704.500000", "100704.503000", "100704.505000", "100704.508000", "100704.511000", "100744.452000", "100744.454000", "100744.457000", "100744.460000", "100744.462000", "100744.465000", "100744.467000", "100744.470000", "100744.472000", "100744.475000", "100744.478000", "100744.480000", "100744.483000", "100744.485000", "100744.488000", "100744.490000", "100744.493000", "100744.496000", "100744.498000", "100744.501000", "100824.452000", "100824.455000", "100824.458000", "100824.461000", "100824.463000", "100824.466000", "100824.468000", "100824.471000", "100824.473000", "100824.476000", "100824.479000", "100824.481000", "100824.484000", "100824.486000", "100824.489000", "100824.491000", "100824.494000", "100824.496000", "100824.499000", "100824.502000", "100904.452000", "100904.455000", "100904.458000", "100904.461000", "100904.463000", "100904.466000", "100904.468000", "100904.471000", "100904.473000", "100904.476000", "100904.479000", "100904.481000", "100904.484000", "100904.486000", "100904.489000", "100904.492000", "100904.494000", "100904.497000", "100904.499000", "100904.502000", "100944.451000", "100944.454000", "100944.457000", "100944.467000", "100944.470000", "100944.472000", "100944.475000", "100944.477000", "100944.480000", "100944.482000", "100944.485000", "100944.487000", "100944.490000", "100944.493000", "100944.495000", "100944.498000", "100944.500000", "100944.503000", "100944.505000", "100944.508000", "101024.452000", "101024.454000", "101024.467000", "101024.470000", "101024.473000", "101024.475000", "101024.478000", "101024.480000", "101024.483000", "101024.485000", "101024.488000", "101024.491000", "101024.493000", "101024.496000", "101024.498000", "101024.501000", "101024.503000", "101024.506000", "101024.509000", "101024.511000", "101104.452000", "101104.455000", "101104.458000", "101104.461000", "101104.463000", "101104.466000", "101104.468000", "101104.471000", "101104.473000", "101104.476000", "101104.479000", "101104.481000", "101104.484000", "101104.487000", "101104.489000", "101104.492000", "101104.494000", "101104.497000", "101104.500000", "101104.502000", "101144.451000", "101144.454000", "101144.457000", "101144.460000", "101144.462000", "101144.465000", "101144.468000", "101144.470000", "101144.473000", "101144.475000", "101144.478000", "101144.481000", "101144.483000", "101144.486000", "101144.488000", "101144.491000", "101144.494000", "101144.496000", "101144.499000", "101144.501000", "101213.802000", "101213.805000", "101213.807000", "101213.810000", "101213.813000", "101213.815000", "101213.818000", "101213.821000", "101213.823000", "101213.826000", "101213.828000", "101213.831000", "101213.839000", "101213.842000", "101213.850000"],
      "InstanceCreationTime": ["100624.465000", "100624.468000", "100624.471000", "100624.474000", "100624.476000", "100624.479000", "100624.492000", "100624.495000", "100624.498000", "100624.500000", "100624.503000", "100624.505000", "100624.508000", "100624.514000", "100624.520000", "100624.523000", "100624.525000", "100624.528000", "100624.531000", "100624.533000", "100624.536000", "100624.538000", "100624.541000", "100624.544000", "100624.546000", "100704.451000", "100704.454000", "100704.457000", "100704.459000", "100704.462000", "100704.465000", "100704.467000", "100704.470000", "100704.472000", "100704.475000", "100704.477000", "100704.480000", "100704.483000", "100704.485000", "100704.498000", "100704.500000", "100704.503000", "100704.505000", "100704.508000", "100704.511000", "100744.452000", "100744.454000", "100744.457000", "100744.460000", "100744.462000", "100744.465000", "100744.467000", "100744.470000", "100744.472000", "100744.475000", "100744.478000", "100744.480000", "100744.483000", "100744.485000", "100744.488000", "100744.490000", "100744.493000", "100744.496000", "100744.498000", "100744.501000", "100824.452000", "100824.455000", "100824.458000", "100824.461000", "100824.463000", "100824.466000", "100824.468000", "100824.471000", "100824.473000", "100824.476000", "100824.479000", "100824.481000", "100824.484000", "100824.486000", "100824.489000", "100824.491000", "100824.494000", "100824.496000", "100824.499000", "100824.502000", "100904.452000", "100904.455000", "100904.458000", "100904.461000", "100904.463000", "100904.466000", "100904.468000", "100904.471000", "100904.473000", "100904.476000", "100904.479000", "100904.481000", "100904.484000", "100904.486000", "100904.489000", "100904.492000", "100904.494000", "100904.497000", "100904.499000", "100904.502000", "100944.451000", "100944.454000", "100944.457000", "100944.467000", "100944.470000", "100944.472000", "100944.475000", "100944.477000", "100944.480000", "100944.482000", "100944.485000", "100944.487000", "100944.490000", "100944.493000", "100944.495000", "100944.498000", "100944.500000", "100944.503000", "100944.505000", "100944.508000", "101024.452000", "101024.454000", "101024.467000", "101024.470000", "101024.473000", "101024.475000", "101024.478000", "101024.480000", "101024.483000", "101024.485000", "101024.488000", "101024.491000", "101024.493000", "101024.496000", "101024.498000", "101024.501000", "101024.503000", "101024.506000", "101024.509000", "101024.511000", "101104.452000", "101104.455000", "101104.458000", "101104.461000", "101104.463000", "101104.466000", "101104.468000", "101104.471000", "101104.473000", "101104.476000", "101104.479000", "101104.481000", "101104.484000", "101104.487000", "101104.489000", "101104.492000", "101104.494000", "101104.497000", "101104.500000", "101104.502000", "101144.451000", "101144.454000", "101144.457000", "101144.460000", "101144.462000", "101144.465000", "101144.468000", "101144.470000", "101144.473000", "101144.475000", "101144.478000", "101144.481000", "101144.483000", "101144.486000", "101144.488000", "101144.491000", "101144.494000", "101144.496000", "101144.499000", "101144.501000", "101213.802000", "101213.805000", "101213.807000", "101213.810000", "101213.813000", "101213.815000", "101213.818000", "101213.821000", "101213.823000", "101213.826000", "101213.828000", "101213.831000", "101213.839000", "101213.842000", "101213.850000"],
      "InstanceNumber": [1, 2, 3, 4, 5, 6, 7, 8, 9, 10, 11, 12, 13, 14, 15, 16, 17, 18, 19, 20, 21, 22, 23, 24, 25, 26, 27, 28, 29, 30, 31, 32, 33, 34, 35, 36, 37, 38, 39, 40, 41, 42, 43, 44, 45, 46, 47, 48, 49, 50, 51, 52, 53, 54, 55, 56, 57, 58, 59, 60, 61, 62, 63, 64, 65, 66, 67, 68, 69, 70, 71, 72, 73, 74, 75, 76, 77, 78, 79, 80, 81, 82, 83, 84, 85, 86, 87, 88, 89, 90, 91, 92, 93, 94, 95, 96, 97, 98, 99, 100, 101, 102, 103, 104, 105, 106, 107, 108, 109, 110, 111, 112, 113, 114, 115, 116, 117, 118, 119, 120, 121, 122, 123, 124, 125, 126, 127, 128, 129, 130, 131, 132, 133, 134, 135, 136, 137, 138, 139, 140, 141, 142, 143, 144, 145, 146, 147, 148, 149, 150, 151, 152, 153, 154, 155, 156, 157, 158, 159, 160, 161, 162, 163, 164, 165, 166, 167, 168, 169, 170, 171, 172, 173, 174, 175, 176, 177, 178, 179, 180, 181, 182, 183, 184, 185, 186, 187, 188, 189, 190, 191, 192, 193, 194, 195, 196, 197, 198, 199, 200],
      "LargestImagePixelValue": [2168, 2163, 2166, 2168, 2172, 2168, 2168, 2162, 2170, 2170, 2171, 2171, 2170, 2172, 2165, 2166, 2166, 2165, 2168, 2167, 2162, 2165, 2163, 2166, 2175, 2169, 2162, 2165, 2171, 2172, 2165, 2167, 2171, 2165, 2165, 2172, 2170, 2168, 2168, 2171, 2168, 2168, 2170, 2168, 2170, 2172, 2164, 2160, 2168, 2172, 2168, 2168, 2175, 2174, 2168, 2171, 2168, 2169, 2168, 2166, 2170, 2168, 2168, 2163, 2166, 2166, 2163, 2169, 2173, 2164, 2166, 2168, 2170, 2169, 2167, 2175, 2166, 2171, 2162, 2166, 2171, 2166, 2168, 2159, 2165, 2173, 2172, 2172, 2169, 2170, 2167, 2171, 2170, 2166, 2168, 2169, 2168, 2168, 2164, 2166, 2171, 2163, 2174, 2171, 2169, 2167, 2168, 2165, 2167, 2172, 2169, 2168, 2167, 2165, 2168, 2168, 2171, 2167, 2169, 2169, 2172, 2163, 2169, 2168, 2163, 2163, 2167, 2170, 2163, 2167, 2163, 2162, 2169, 2171, 2166, 2168, 2169, 2167, 2170, 2169, 2167, 2166, 2168, 2166, 2164, 2162, 2173, 2170, 2168, 2163, 2165, 2165, 2171, 2172, 2172, 2169, 2167, 2164, 2166, 2166, 2172, 2163, 2166, 2166, 2167, 2166, 2165, 2163, 2167, 2155, 2163, 2161, 2165, 2158, 2164, 2166, 2169, 2166, 2169, 2167, 2165, 2165, 2163, 2162, 2166, 2161, 2168, 2166, 2163, 2165, 2161, 2164, 2162, 2161, 2167, 2164, 2161, 2161, 2158, 2165],
      "WindowCenter": [921.0, 921.0, 920.0, 921.0, 920.0, 921.0, 921.0, 921.0, 921.0, 921.0, 921.0, 921.0, 921.0, 921.0, 921.0, 921.0, 921.0, 921.0, 921.0, 921.0, 921.0, 921.0, 921.0, 921.0, 921.0, 921.0, 921.0, 921.0, 921.0, 921.0, 921.0, 921.0, 921.0, 921.0, 921.0, 921.0, 921.0, 921.0, 921.0, 921.0, 921.0, 921.0, 921.0, 921.0, 921.0, 921.0, 921.0, 921.0, 921.0, 921.0, 921.0, 921.0, 921.0, 921.0, 921.0, 921.0, 921.0, 921.0, 921.0, 921.0, 921.0, 921.0, 921.0, 921.0, 921.0, 921.0, 921.0, 921.0, 921.0, 921.0, 921.0, 921.0, 921.0, 921.0, 921.0, 921.0, 921.0, 921.0, 921.0, 921.0, 921.0, 921.0, 921.0, 921.0, 921.0, 921.0, 921.0, 921.0, 921.0, 921.0, 921.0, 921.0, 921.0, 921.0, 921.0, 921.0, 921.0, 921.0, 921.0, 921.0, 921.0, 921.0, 921.0, 921.0, 921.0, 921.0, 921.0, 921.0, 921.0, 921.0, 921.0, 921.0, 921.0, 921.0, 921.0, 921.0, 921.0, 921.0, 921.0, 921.0, 921.0, 921.0, 921.0, 921.0, 921.0, 921.0, 921.0, 921.0, 921.0, 921.0, 921.0, 921.0, 921.0, 921.0, 921.0, 921.0, 921.0, 921.0, 921.0, 921.0, 921.0, 921.0, 921.0, 921.0, 921.0, 921.0, 921.0, 921.0, 921.0, 921.0, 921.0, 921.0, 921.0, 921.0, 921.0, 921.0, 921.0, 921.0, 921.0, 921.0, 921.0, 921.0, 921.0, 921.0, 921.0, 921.0, 921.0, 921.0, 921.0, 921.0, 921.0, 921.0, 921.0, 921.0, 921.0, 921.0, 921.0, 921.0, 921.0, 921.0, 921.0, 921.0, 921.0, 921.0, 921.0, 921.0, 921.0, 921.0, 921.0, 921.0, 921.0, 921.0, 921.0, 921.0, 921.0, 921.0, 921.0, 921.0, 921.0, 921.0],
      "WindowWidth": [2098.0, 2097.0, 2098.0, 2097.0, 2098.0, 2097.0, 2098.0, 2097.0, 2098.0, 2098.0, 2098.0, 2098.0, 2098.0, 2098.0, 2098.0, 2098.0, 2098.0, 2098.0, 2098.0, 2097.0, 2098.0, 2098.0, 2098.0, 2098.0, 2098.0, 2098.0, 2098.0, 2098.0, 2098.0, 2098.0, 2098.0, 2098.0, 2098.0, 2098.0, 2098.0, 2098.0, 2098.0, 2098.0, 2098.0, 2098.0, 2098.0, 2098.0, 2098.0, 2098.0, 2098.0, 2098.0, 2098.0, 2098.0, 2098.0, 2098.0, 2098.0, 2098.0, 2098.0, 2098.0, 2098.0, 2097.0, 2098.0, 2098.0, 2098.0, 2098.0, 2098.0, 2098.0, 2098.0, 2098.0, 2098.0, 2098.0, 2098.0, 2098.0, 2098.0, 2098.0, 2098.0, 2098.0, 2098.0, 2098.0, 2098.0, 2098.0, 2098.0, 2098.0, 2098.0, 2098.0, 2098.0, 2098.0, 2098.0, 2098.0, 2098.0, 2098.0, 2098.0, 2098.0, 2098.0, 2098.0, 2098.0, 2098.0, 2098.0, 2098.0, 2098.0, 2098.0, 2097.0, 2098.0, 2098.0, 2098.0, 2098.0, 2098.0, 2098.0, 2098.0, 2098.0, 2098.0, 2097.0, 2098.0, 2098.0, 2098.0, 2098.0, 2098.0, 2098.0, 2098.0, 2098.0, 2098.0, 2098.0, 2098.0, 2098.0, 2098.0, 2098.0, 2098.0, 2097.0, 2098.0, 2098.0, 2098.0, 2098.0, 2098.0, 2098.0, 2098.0, 2098.0, 2097.0, 2098.0, 2097.0, 2098.0, 2098.0, 2098.0, 2097.0, 2098.0, 2098.0, 2098.0, 2098.0, 2098.0, 2098.0, 2098.0, 2098.0, 2098.0, 2098.0, 2098.0, 2098.0, 2098.0, 2097.0, 2098.0, 2098.0, 2098.0, 2098.0, 2098.0, 2097.0, 2098.0, 2098.0, 2098.0, 2097.0, 2098.0, 2098.0, 2098.0, 2098.0, 2098.0, 2098.0, 2098.0, 2098.0, 2098.0, 2098.0, 2098.0, 2098.0, 2098.0, 2098.0, 2098.0, 2098.0, 2098.0, 2098.0, 2098.0, 2098.0, 2097.0, 2098.0, 2098.0, 2098.0, 2098.0, 2098.0, 2098.0, 2098.0, 2098.0, 2098.0, 2097.0, 2098.0, 2097.0, 2098.0, 2098.0, 2098.0, 2098.0, 2098.0]
    },
    "slices": {}
  }
}