{
  "AcquisitionMatrixPE": 122,
  "AcquisitionNumber": 1,
  "AcquisitionTime": "10:18:21.467500",
  "BandwidthPerPixelPhaseEncode": 27.785,
  "BaseResolution": 122,
  "BodyPartExamined": "BRAIN",
  "CoilCombinationMethod": "Adaptive Combine",
  "ConsistencyInfo": "N4_VE11C_LATEST_20160120",
  "ConversionSoftware": "dcm2niix",
  "ConversionSoftwareVersion": "v1.0.20220720",
  "DerivedVendorReportedEchoSpacing": 0.000590011,
  "DeviceSerialNumber": "66112",
  "DiffusionScheme": "Monopolar",
  "DwellTime": 2e-06,
  "EchoTime": 0.068,
  "EchoTrainLength": 61,
  "EffectiveEchoSpacing": 0.000295005,
  "FlipAngle": 90,
  "HeudiconvVersion": "0.13.1",
  "ImageOrientationPatientDICOM": [0.984959, 0.172453, 0.0107224, -0.167478, 0.937595, 0.304741],
  "ImageOrientationText": "Tra>Cor(17.6)>Sag(-2.4)",
  "ImageType": [
    "ORIGINAL",
    "PRIMARY",
    "DIFFUSION",
    "NONE",
    "ND",
    "NORM"
],
  "ImagingFrequency": 123.252,
  "InPlanePhaseEncodingDirectionDICOM": "COL",
  "InstitutionAddress": "Maynard 3,Hanover,NH,US,03755",
  "InstitutionName": "Dartmouth College - PBS",
  "InstitutionalDepartmentName": "Department",
  "MRAcquisitionType": "2D",
  "MagneticFieldStrength": 3,
  "Manufacturer": "Siemens",
  "ManufacturersModelName": "Prisma",
  "Modality": "MR",
  "MultibandAccelerationFactor": 4,
  "NonlinearGradientCorrection": false,
  "ParallelReductionFactorInPlane": 2,
  "PartialFourier": 1,
  "PatientPosition": "HFS",
  "PercentPhaseFOV": 100,
  "PercentSampling": 100,
  "PhaseEncodingDirection": "j-",
  "PhaseEncodingSteps": 122,
  "PhaseResolution": 1,
  "PixelBandwidth": 2050,
  "ProcedureStepDescription": "dbic^QA",
  "ProtocolName": "dwi_acq-DTI-30-p2-s4",
  "PulseSequenceDetails": "%SiemensSeq%\\ep2d_diff",
  "ReceiveCoilActiveElements": "HEA;HEP",
  "ReceiveCoilName": "Head_32",
  "ReconMatrixPE": 122,
  "RefLinesPE": 38,
  "RepetitionTime": 3.6,
  "SAR": 0.15921,
  "ScanOptions": "FS",
  "ScanningSequence": "EP",
  "SequenceName": "*ep_b0",
  "SequenceVariant": "SK\\SP",
  "SeriesDescription": "dwi_acq-DTI-30-p2-s4",
  "SeriesNumber": 13,
  "ShimSetting": [4155, -7706, -7516, 264, -39, -119, -2, 65],
  "SliceThickness": 2,
  "SliceTiming": [2.58594, 0, 1.78906, 0.19531, 1.98438, 0.39844, 2.1875, 0.59375, 2.38281, 0.99219, 2.78125, 1.19531, 2.98438, 1.39062, 3.17969, 1.58594, 3.38281, 0.79688, 2.58594, 0, 1.78906, 0.19531, 1.98438, 0.39844, 2.1875, 0.59375, 2.38281, 0.99219, 2.78125, 1.19531, 2.98438, 1.39062, 3.17969, 1.58594, 3.38281, 0.79688, 2.58594, 0, 1.78906, 0.19531, 1.98438, 0.39844, 2.1875, 0.59375, 2.38281, 0.99219, 2.78125, 1.19531, 2.98438, 1.39062, 3.17969, 1.58594, 3.38281, 0.79688, 2.58594, 0, 1.78906, 0.19531, 1.98438, 0.39844, 2.1875, 0.59375, 2.38281, 0.99219, 2.78125, 1.19531, 2.98438, 1.39062, 3.17969, 1.58594, 3.38281, 0.79688],
  "SoftwareVersions": "syngo MR E11",
  "SpacingBetweenSlices": 2,
  "SpoilingState": true,
  "StationName": "AWP66112",
  "TotalReadoutTime": 0.0356956,
  "TxRefAmp": 224.68,
  "dcmmeta_affine": [
    [-1.9376250505447388, -0.3294641375541687, -0.08500051498413086, 143.7078399658203],
    [-0.33925187587738037, 1.8444490432739258, 0.6039066314697266, -102.69850158691406],
    [0.02109324187040329, -0.5994904637336731, 1.904754638671875, -20.360321044921875],
    [0.0, 0.0, 0.0, 1.0]
],
  "dcmmeta_reorient_transform": [
    [0.0, -1.0, 0.0, 121.0],
    [1.0, 0.0, 0.0, 0.0],
    [0.0, 0.0, -1.0, 71.0],
    [0.0, 0.0, 0.0, 1.0]
],
  "dcmmeta_shape": [122, 122, 72, 31],
  "dcmmeta_slice_dim": 2,
  "dcmmeta_version": 0.6,
  "global": {
    "const": {
      "AccessionNumber": "qa",
      "AcquisitionMatrix": [122, 0, 0, 122],
      "AngioFlag": "N",
      "BitsAllocated": 16,
      "BitsStored": 12,
      "BodyPartExamined": "BRAIN",
      "Columns": 122,
      "EchoNumbers": 1,
      "EchoTime": 68.0,
      "EchoTrainLength": 61,
      "FlipAngle": 90.0,
      "HighBit": 11,
      "ImageOrientationPatient": [0.9849593811247, 0.17245303045502, 0.01072239811485, -0.1674776019765, 0.93759489564025, 0.30474097936701],
      "ImageType": [
        "ORIGINAL",
        "PRIMARY",
        "DIFFUSION",
        "NONE",
        "ND",
        "NORM"
],
      "ImagedNucleus": "1H",
      "ImagingFrequency": 123.25232,
      "InPlanePhaseEncodingDirection": "COL",
      "MRAcquisitionType": "2D",
      "MagneticFieldStrength": 3.0,
      "Manufacturer": "SIEMENS",
      "ManufacturerModelName": "Prisma",
      "Modality": "MR",
      "NumberOfAverages": 1.0,
      "NumberOfPhaseEncodingSteps": 122,
      "PercentPhaseFieldOfView": 100.0,
      "PercentSampling": 100.0,
      "PerformedProcedureStepStartTime": "093645.894000",
      "PhotometricInterpretation": "MONOCHROME2",
      "PixelBandwidth": 2050.0,
      "PixelRepresentation": 0,
      "PixelSpacing": [1.9672131538391, 1.9672131538391],
      "ProtocolName": "dwi_acq-DTI-30-p2-s4",
      "RepetitionTime": 3600.0,
      "Rows": 122,
      "SAR": 0.15921003961367,
      "SamplesPerPixel": 1,
      "ScanOptions": "FS",
      "ScanningSequence": "EP",
      "SequenceVariant": [
        "SK",
        "SP"
],
      "SeriesDescription": "dwi_acq-DTI-30-p2-s4",
      "SeriesNumber": 13,
      "SeriesTime": "101827.529000",
      "SliceThickness": 2.0,
      "SmallestImagePixelValue": 0,
      "SoftwareVersions": "syngo MR E11",
      "SpacingBetweenSlices": 2.0,
      "SpecificCharacterSet": "ISO_IR 100",
      "StudyID": "6",
      "StudyTime": "093645.843000",
      "TransmitCoilName": "Body",
      "VariableFlipAngleFlag": "N",
      "WindowCenterWidthExplanation": "Algo1",
      "dBdt": 0.0},
    "slices": {
      "AcquisitionTime": ["101821.467500", "101818.882500", "101820.672500", "101819.080000", "101820.870000", "101819.280000", "101821.070000", "101819.477500", "101821.267500", "101819.875000", "101821.665000", "101820.075000", "101821.865000", "101820.275000", "101822.062500", "101820.472500", "101822.262500", "101819.677500", "101821.467500", "101818.882500", "101820.672500", "101819.080000", "101820.870000", "101819.280000", "101821.070000", "101819.477500", "101821.267500", "101819.875000", "101821.665000", "101820.075000", "101821.865000", "101820.275000", "101822.062500", "101820.472500", "101822.262500", "101819.677500", "101821.467500", "101818.882500", "101820.672500", "101819.080000", "101820.870000", "101819.280000", "101821.070000", "101819.477500", "101821.267500", "101819.875000", "101821.665000", "101820.075000", "101821.865000", "101820.275000", "101822.062500", "101820.472500", "101822.262500", "101819.677500", "101821.467500", "101818.882500", "101820.672500", "101819.080000", "101820.870000", "101819.280000", "101821.070000", "101819.477500", "101821.267500", "101819.875000", "101821.665000", "101820.075000", "101821.865000", "101820.275000", "101822.062500", "101820.472500", "101822.262500", "101819.677500", "101825.067500", "101822.482500", "101824.272500", "101822.680000", "101824.470000", "101822.880000", "101824.670000", "101823.077500", "101824.867500", "101823.475000", "101825.265000", "101823.675000", "101825.465000", "101823.875000", "101825.662500", "101824.072500", "101825.862500", "101823.277500", "101825.067500", "101822.482500", "101824.272500", "101822.680000", "101824.470000", "101822.880000", "101824.670000", "101823.077500", "101824.867500", "101823.475000", "101825.265000", "101823.675000", "101825.465000", "101823.875000", "101825.662500", "101824.072500", "101825.862500", "101823.277500", "101825.067500", "101822.482500", "101824.272500", "101822.680000", "101824.470000", "101822.880000", "101824.670000", "101823.077500", "101824.867500", "101823.475000", "101825.265000", "101823.675000", "101825.465000", "101823.875000", "101825.662500", "101824.072500", "101825.862500", "101823.277500", "101825.067500", "101822.482500", "101824.272500", "101822.680000", "101824.470000", "101822.880000", "101824.670000", "101823.077500", "101824.867500", "101823.475000", "101825.265000", "101823.675000", "101825.465000", "101823.875000", "101825.662500", "101824.072500", "101825.862500", "101823.277500", "101828.667500", "101826.082500", "101827.872500", "101826.280000", "101828.070000", "101826.480000", "101828.270000", "101826.677500", "101828.467500", "101827.075000", "101828.865000", "101827.275000", "101829.065000", "101827.475000", "101829.262500", "101827.672500", "101829.462500", "101826.877500", "101828.667500", "101826.082500", "101827.872500", "101826.280000", "101828.070000", "101826.480000", "101828.270000", "101826.677500", "101828.467500", "101827.075000", "101828.865000", "101827.275000", "101829.065000", "101827.475000", "101829.262500", "101827.672500", "101829.462500", "101826.877500", "101828.667500", "101826.082500", "101827.872500", "101826.280000", "101828.070000", "101826.480000", "101828.270000", "101826.677500", "101828.467500", "101827.075000", "101828.865000", "101827.275000", "101829.065000", "101827.475000", "101829.262500", "101827.672500", "101829.462500", "101826.877500", "101828.667500", "101826.082500", "101827.872500", "101826.280000", "101828.070000", "101826.480000", "101828.270000", "101826.677500", "101828.467500", "101827.075000", "101828.865000", "101827.275000", "101829.065000", "101827.475000", "101829.262500", "101827.672500", "101829.462500", "101826.877500", "101832.267500", "101829.682500", "101831.472500", "101829.880000", "101831.670000", "101830.080000", "101831.870000", "101830.277500", "101832.067500", "101830.675000", "101832.465000", "101830.875000", "101832.665000", "101831.075000", "101832.862500", "101831.272500", "101833.062500", "101830.477500", "101832.267500", "101829.682500", "101831.472500", "101829.880000", "101831.670000", "101830.080000", "101831.870000", "101830.277500", "101832.067500", "101830.675000", "101832.465000", "101830.875000", "101832.665000", "101831.075000", "101832.862500", "101831.272500", "101833.062500", "101830.477500", "101832.267500", "101829.682500", "101831.472500", "101829.880000", "101831.670000", "101830.080000", "101831.870000", "101830.277500", "101832.067500", "101830.675000", "101832.465000", "101830.875000", "101832.665000", "101831.075000", "101832.862500", "101831.272500", "101833.062500", "101830.477500", "101832.267500", "101829.682500", "101831.472500", "101829.880000", "101831.670000", "101830.080000", "101831.870000", "101830.277500", "101832.067500", "101830.675000", "101832.465000", "101830.875000", "101832.665000", "101831.075000", "101832.862500", "101831.272500", "101833.062500", "101830.477500", "101835.867500", "101833.282500", "101835.072500", "101833.480000", "101835.270000", "101833.680000", "101835.470000", "101833.877500", "101835.667500", "101834.275000", "101836.065000", "101834.475000", "101836.265000", "101834.675000", "101836.462500", "101834.872500", "101836.662500", "101834.077500", "101835.867500", "101833.282500", "101835.072500", "101833.480000", "101835.270000", "101833.680000", "101835.470000", "101833.877500", "101835.667500", "101834.275000", "101836.065000", "101834.475000", "101836.265000", "101834.675000", "101836.462500", "101834.872500", "101836.662500", "101834.077500", "101835.867500", "101833.282500", "101835.072500", "101833.480000", "101835.270000", "101833.680000", "101835.470000", "101833.877500", "101835.667500", "101834.275000", "101836.065000", "101834.475000", "101836.265000", "101834.675000", "101836.462500", "101834.872500", "101836.662500", "101834.077500", "101835.867500", "101833.282500", "101835.072500", "101833.480000", "101835.270000", "101833.680000", "101835.470000", "101833.877500", "101835.667500", "101834.275000", "101836.065000", "101834.475000", "101836.265000", "101834.675000", "101836.462500", "101834.872500", "101836.662500", "101834.077500", "101839.467500", "101836.882500", "101838.672500", "101837.080000", "101838.870000", "101837.280000", "101839.070000", "101837.477500", "101839.267500", "101837.875000", "101839.665000", "101838.075000", "101839.865000", "101838.275000", "101840.062500", "101838.472500", "101840.262500", "101837.677500", "101839.467500", "101836.882500", "101838.672500", "101837.080000", "101838.870000", "101837.280000", "101839.070000", "101837.477500", "101839.267500", "101837.875000", "101839.665000", "101838.075000", "101839.865000", "101838.275000", "101840.062500", "101838.472500", "101840.262500", "101837.677500", "101839.467500", "101836.882500", "101838.672500", "101837.080000", "101838.870000", "101837.280000", "101839.070000", "101837.477500", "101839.267500", "101837.875000", "101839.665000", "101838.075000", "101839.865000", "101838.275000", "101840.062500", "101838.472500", "101840.262500", "101837.677500", "101839.467500", "101836.882500", "101838.672500", "101837.080000", "101838.870000", "101837.280000", "101839.070000", "101837.477500", "101839.267500", "101837.875000", "101839.665000", "101838.075000", "101839.865000", "101838.275000", "101840.062500", "101838.472500", "101840.262500", "101837.677500", "101843.067500", "101840.482500", "101842.272500", "101840.680000", "101842.470000", "101840.880000", "101842.670000", "101841.077500", "101842.867500", "101841.475000", "101843.265000", "101841.675000", "101843.465000", "101841.875000", "101843.662500", "101842.072500", "101843.862500", "101841.277500", "101843.067500", "101840.482500", "101842.272500", "101840.680000", "101842.470000", "101840.880000", "101842.670000", "101841.077500", "101842.867500", "101841.475000", "101843.265000", "101841.675000", "101843.465000", "101841.875000", "101843.662500", "101842.072500", "101843.862500", "101841.277500", "101843.067500", "101840.482500", "101842.272500", "101840.680000", "101842.470000", "101840.880000", "101842.670000", "101841.077500", "101842.867500", "101841.475000", "101843.265000", "101841.675000", "101843.465000", "101841.875000", "101843.662500", "101842.072500", "101843.862500", "101841.277500", "101843.067500", "101840.482500", "101842.272500", "101840.680000", "101842.470000", "101840.880000", "101842.670000", "101841.077500", "101842.867500", "101841.475000", "101843.265000", "101841.675000", "101843.465000", "101841.875000", "101843.662500", "101842.072500", "101843.862500", "101841.277500", "101846.667500", "101844.082500", "101845.872500", "101844.280000", "101846.070000", "101844.480000", "101846.270000", "101844.677500", "101846.467500", "101845.075000", "101846.865000", "101845.275000", "101847.065000", "101845.475000", "101847.262500", "101845.672500", "101847.462500", "101844.877500", "101846.667500", "101844.082500", "101845.872500", "101844.280000", "101846.070000", "101844.480000", "101846.270000", "101844.677500", "101846.467500", "101845.075000", "101846.865000", "101845.275000", "101847.065000", "101845.475000", "101847.262500", "101845.672500", "101847.462500", "101844.877500", "101846.667500", "101844.082500", "101845.872500", "101844.280000", "101846.070000", "101844.480000", "101846.270000", "101844.677500", "101846.467500", "101845.075000", "101846.865000", "101845.275000", "101847.065000", "101845.475000", "101847.262500", "101845.672500", "101847.462500", "101844.877500", "101846.667500", "101844.082500", "101845.872500", "101844.280000", "101846.070000", "101844.480000", "101846.270000", "101844.677500", "101846.467500", "101845.075000", "101846.865000", "101845.275000", "101847.065000", "101845.475000", "101847.262500", "101845.672500", "101847.462500", "101844.877500", "101850.267500", "101847.682500", "101849.472500", "101847.880000", "101849.670000", "101848.080000", "101849.870000", "101848.277500", "101850.067500", "101848.675000", "101850.465000", "101848.875000", "101850.665000", "101849.075000", "101850.862500", "101849.272500", "101851.062500", "101848.477500", "101850.267500", "101847.682500", "101849.472500", "101847.880000", "101849.670000", "101848.080000", "101849.870000", "101848.277500", "101850.067500", "101848.675000", "101850.465000", "101848.875000", "101850.665000", "101849.075000", "101850.862500", "101849.272500", "101851.062500", "101848.477500", "101850.267500", "101847.682500", "101849.472500", "101847.880000", "101849.670000", "101848.080000", "101849.870000", "101848.277500", "101850.067500", "101848.675000", "101850.465000", "101848.875000", "101850.665000", "101849.075000", "101850.862500", "101849.272500", "101851.062500", "101848.477500", "101850.267500", "101847.682500", "101849.472500", "101847.880000", "101849.670000", "101848.080000", "101849.870000", "101848.277500", "101850.067500", "101848.675000", "101850.465000", "101848.875000", "101850.665000", "101849.075000", "101850.862500", "101849.272500", "101851.062500", "101848.477500", "101853.867500", "101851.282500", "101853.072500", "101851.480000", "101853.270000", "101851.680000", "101853.470000", "101851.877500", "101853.667500", "101852.275000", "101854.065000", "101852.475000", "101854.265000", "101852.675000", "101854.462500", "101852.872500", "101854.662500", "101852.077500", "101853.867500", "101851.282500", "101853.072500", "101851.480000", "101853.270000", "101851.680000", "101853.470000", "101851.877500", "101853.667500", "101852.275000", "101854.065000", "101852.475000", "101854.265000", "101852.675000", "101854.462500", "101852.872500", "101854.662500", "101852.077500", "101853.867500", "101851.282500", "101853.072500", "101851.480000", "101853.270000", "101851.680000", "101853.470000", "101851.877500", "101853.667500", "101852.275000", "101854.065000", "101852.475000", "101854.265000", "101852.675000", "101854.462500", "101852.872500", "101854.662500", "101852.077500", "101853.867500", "101851.282500", "101853.072500", "101851.480000", "101853.270000", "101851.680000", "101853.470000", "101851.877500", "101853.667500", "101852.275000", "101854.065000", "101852.475000", "101854.265000", "101852.675000", "101854.462500", "101852.872500", "101854.662500", "101852.077500", "101857.467500", "101854.882500", "101856.672500", "101855.080000", "101856.870000", "101855.280000", "101857.070000", "101855.477500", "101857.267500", "101855.875000", "101857.665000", "101856.075000", "101857.865000", "101856.275000", "101858.062500", "101856.472500", "101858.262500", "101855.677500", "101857.467500", "101854.882500", "101856.672500", "101855.080000", "101856.870000", "101855.280000", "101857.070000", "101855.477500", "101857.267500", "101855.875000", "101857.665000", "101856.075000", "101857.865000", "101856.275000", "101858.062500", "101856.472500", "101858.262500", "101855.677500", "101857.467500", "101854.882500", "101856.672500", "101855.080000", "101856.870000", "101855.280000", "101857.070000", "101855.477500", "101857.267500", "101855.875000", "101857.665000", "101856.075000", "101857.865000", "101856.275000", "101858.062500", "101856.472500", "101858.262500", "101855.677500", "101857.467500", "101854.882500", "101856.672500", "101855.080000", "101856.870000", "101855.280000", "101857.070000", "101855.477500", "101857.267500", "101855.875000", "101857.665000", "101856.075000", "101857.865000", "101856.275000", "101858.062500", "101856.472500", "101858.262500", "101855.677500", "101901.067500", "101858.482500", "101900.272500", "101858.680000", "101900.470000", "101858.880000", "101900.670000", "101859.077500", "101900.867500", "101859.475000", "101901.265000", "101859.675000", "101901.465000", "101859.875000", "101901.662500", "101900.072500", "101901.862500", "101859.277500", "101901.067500", "101858.482500", "101900.272500", "101858.680000", "101900.470000", "101858.880000", "101900.670000", "101859.077500", "101900.867500", "101859.475000", "101901.265000", "101859.675000", "101901.465000", "101859.875000", "101901.662500", "101900.072500", "101901.862500", "101859.277500", "101901.067500", "101858.482500", "101900.272500", "101858.680000", "101900.470000", "101858.880000", "101900.670000", "101859.077500", "101900.867500", "101859.475000", "101901.265000", "101859.675000", "101901.465000", "101859.875000", "101901.662500", "101900.072500", "101901.862500", "101859.277500", "101901.067500", "101858.482500", "101900.272500", "101858.680000", "101900.470000", "101858.880000", "101900.670000", "101859.077500", "101900.867500", "101859.475000", "101901.265000", "101859.675000", "101901.465000", "101859.875000", "101901.662500", "101900.072500", "101901.862500", "101859.277500", "101904.667500", "101902.082500", "101903.872500", "101902.280000", "101904.070000", "101902.480000", "101904.270000", "101902.677500", "101904.467500", "101903.075000", "101904.865000", "101903.275000", "101905.065000", "101903.475000", "101905.262500", "101903.672500", "101905.462500", "101902.877500", "101904.667500", "101902.082500", "101903.872500", "101902.280000", "101904.070000", "101902.480000", "101904.270000", "101902.677500", "101904.467500", "101903.075000", "101904.865000", "101903.275000", "101905.065000", "101903.475000", "101905.262500", "101903.672500", "101905.462500", "101902.877500", "101904.667500", "101902.082500", "101903.872500", "101902.280000", "101904.070000", "101902.480000", "101904.270000", "101902.677500", "101904.467500", "101903.075000", "101904.865000", "101903.275000", "101905.065000", "101903.475000", "101905.262500", "101903.672500", "101905.462500", "101902.877500", "101904.667500", "101902.082500", "101903.872500", "101902.280000", "101904.070000", "101902.480000", "101904.270000", "101902.677500", "101904.467500", "101903.075000", "101904.865000", "101903.275000", "101905.065000", "101903.475000", "101905.262500", "101903.672500", "101905.462500", "101902.877500", "101908.267500", "101905.682500", "101907.472500", "101905.880000", "101907.670000", "101906.080000", "101907.870000", "101906.277500", "101908.067500", "101906.675000", "101908.465000", "101906.875000", "101908.665000", "101907.075000", "101908.862500", "101907.272500", "101909.062500", "101906.477500", "101908.267500", "101905.682500", "101907.472500", "101905.880000", "101907.670000", "101906.080000", "101907.870000", "101906.277500", "101908.067500", "101906.675000", "101908.465000", "101906.875000", "101908.665000", "101907.075000", "101908.862500", "101907.272500", "101909.062500", "101906.477500", "101908.267500", "101905.682500", "101907.472500", "101905.880000", "101907.670000", "101906.080000", "101907.870000", "101906.277500", "101908.067500", "101906.675000", "101908.465000", "101906.875000", "101908.665000", "101907.075000", "101908.862500", "101907.272500", "101909.062500", "101906.477500", "101908.267500", "101905.682500", "101907.472500", "101905.880000", "101907.670000", "101906.080000", "101907.870000", "101906.277500", "101908.067500", "101906.675000", "101908.465000", "101906.875000", "101908.665000", "101907.075000", "101908.862500", "101907.272500", "101909.062500", "101906.477500", "101911.867500", "101909.282500", "101911.072500", "101909.480000", "101911.270000", "101909.680000", "101911.470000", "101909.877500", "101911.667500", "101910.275000", "101912.065000", "101910.475000", "101912.265000", "101910.675000", "101912.462500", "101910.872500", "101912.662500", "101910.077500", "101911.867500", "101909.282500", "101911.072500", "101909.480000", "101911.270000", "101909.680000", "101911.470000", "101909.877500", "101911.667500", "101910.275000", "101912.065000", "101910.475000", "101912.265000", "101910.675000", "101912.462500", "101910.872500", "101912.662500", "101910.077500", "101911.867500", "101909.282500", "101911.072500", "101909.480000", "101911.270000", "101909.680000", "101911.470000", "101909.877500", "101911.667500", "101910.275000", "101912.065000", "101910.475000", "101912.265000", "101910.675000", "101912.462500", "101910.872500", "101912.662500", "101910.077500", "101911.867500", "101909.282500", "101911.072500", "101909.480000", "101911.270000", "101909.680000", "101911.470000", "101909.877500", "101911.667500", "101910.275000", "101912.065000", "101910.475000", "101912.265000", "101910.675000", "101912.462500", "101910.872500", "101912.662500", "101910.077500", "101915.467500", "101912.882500", "101914.672500", "101913.080000", "101914.870000", "101913.280000", "101915.070000", "101913.477500", "101915.267500", "101913.875000", "101915.665000", "101914.075000", "101915.865000", "101914.275000", "101916.062500", "101914.472500", "101916.262500", "101913.677500", "101915.467500", "101912.882500", "101914.672500", "101913.080000", "101914.870000", "101913.280000", "101915.070000", "101913.477500", "101915.267500", "101913.875000", "101915.665000", "101914.075000", "101915.865000", "101914.275000", "101916.062500", "101914.472500", "101916.262500", "101913.677500", "101915.467500", "101912.882500", "101914.672500", "101913.080000", "101914.870000", "101913.280000", "101915.070000", "101913.477500", "101915.267500", "101913.875000", "101915.665000", "101914.075000", "101915.865000", "101914.275000", "101916.062500", "101914.472500", "101916.262500", "101913.677500", "101915.467500", "101912.882500", "101914.672500", "101913.080000", "101914.870000", "101913.280000", "101915.070000", "101913.477500", "101915.267500", "101913.875000", "101915.665000", "101914.075000", "101915.865000", "101914.275000", "101916.062500", "101914.472500", "101916.262500", "101913.677500", "101919.067500", "101916.482500", "101918.272500", "101916.680000", "101918.470000", "101916.880000", "101918.670000", "101917.077500", "101918.867500", "101917.475000", "101919.265000", "101917.675000", "101919.465000", "101917.875000", "101919.662500", "101918.072500", "101919.862500", "101917.277500", "101919.067500", "101916.482500", "101918.272500", "101916.680000", "101918.470000", "101916.880000", "101918.670000", "101917.077500", "101918.867500", "101917.475000", "101919.265000", "101917.675000", "101919.465000", "101917.875000", "101919.662500", "101918.072500", "101919.862500", "101917.277500", "101919.067500", "101916.482500", "101918.272500", "101916.680000", "101918.470000", "101916.880000", "101918.670000", "101917.077500", "101918.867500", "101917.475000", "101919.265000", "101917.675000", "101919.465000", "101917.875000", "101919.662500", "101918.072500", "101919.862500", "101917.277500", "101919.067500", "101916.482500", "101918.272500", "101916.680000", "101918.470000", "101916.880000", "101918.670000", "101917.077500", "101918.867500", "101917.475000", "101919.265000", "101917.675000", "101919.465000", "101917.875000", "101919.662500", "101918.072500", "101919.862500", "101917.277500", "101922.667500", "101920.082500", "101921.872500", "101920.280000", "101922.070000", "101920.480000", "101922.270000", "101920.677500", "101922.467500", "101921.075000", "101922.865000", "101921.275000", "101923.065000", "101921.475000", "101923.262500", "101921.672500", "101923.462500", "101920.877500", "101922.667500", "101920.082500", "101921.872500", "101920.280000", "101922.070000", "101920.480000", "101922.270000", "101920.677500", "101922.467500", "101921.075000", "101922.865000", "101921.275000", "101923.065000", "101921.475000", "101923.262500", "101921.672500", "101923.462500", "101920.877500", "101922.667500", "101920.082500", "101921.872500", "101920.280000", "101922.070000", "101920.480000", "101922.270000", "101920.677500", "101922.467500", "101921.075000", "101922.865000", "101921.275000", "101923.065000", "101921.475000", "101923.262500", "101921.672500", "101923.462500", "101920.877500", "101922.667500", "101920.082500", "101921.872500", "101920.280000", "101922.070000", "101920.480000", "101922.270000", "101920.677500", "101922.467500", "101921.075000", "101922.865000", "101921.275000", "101923.065000", "101921.475000", "101923.262500", "101921.672500", "101923.462500", "101920.877500", "101926.267500", "101923.682500", "101925.472500", "101923.880000", "101925.670000", "101924.080000", "101925.870000", "101924.277500", "101926.067500", "101924.675000", "101926.465000", "101924.875000", "101926.665000", "101925.075000", "101926.862500", "101925.272500", "101927.062500", "101924.477500", "101926.267500", "101923.682500", "101925.472500", "101923.880000", "101925.670000", "101924.080000", "101925.870000", "101924.277500", "101926.067500", "101924.675000", "101926.465000", "101924.875000", "101926.665000", "101925.075000", "101926.862500", "101925.272500", "101927.062500", "101924.477500", "101926.267500", "101923.682500", "101925.472500", "101923.880000", "101925.670000", "101924.080000", "101925.870000", "101924.277500", "101926.067500", "101924.675000", "101926.465000", "101924.875000", "101926.665000", "101925.075000", "101926.862500", "101925.272500", "101927.062500", "101924.477500", "101926.267500", "101923.682500", "101925.472500", "101923.880000", "101925.670000", "101924.080000", "101925.870000", "101924.277500", "101926.067500", "101924.675000", "101926.465000", "101924.875000", "101926.665000", "101925.075000", "101926.862500", "101925.272500", "101927.062500", "101924.477500", "101929.867500", "101927.282500", "101929.072500", "101927.480000", "101929.270000", "101927.680000", "101929.470000", "101927.877500", "101929.667500", "101928.275000", "101930.065000", "101928.475000", "101930.265000", "101928.675000", "101930.462500", "101928.872500", "101930.662500", "101928.077500", "101929.867500", "101927.282500", "101929.072500", "101927.480000", "101929.270000", "101927.680000", "101929.470000", "101927.877500", "101929.667500", "101928.275000", "101930.065000", "101928.475000", "101930.265000", "101928.675000", "101930.462500", "101928.872500", "101930.662500", "101928.077500", "101929.867500", "101927.282500", "101929.072500", "101927.480000", "101929.270000", "101927.680000", "101929.470000", "101927.877500", "101929.667500", "101928.275000", "101930.065000", "101928.475000", "101930.265000", "101928.675000", "101930.462500", "101928.872500", "101930.662500", "101928.077500", "101929.867500", "101927.282500", "101929.072500", "101927.480000", "101929.270000", "101927.680000", "101929.470000", "101927.877500", "101929.667500", "101928.275000", "101930.065000", "10192