{
  "AcquisitionMatrixPE": 80,
  "AcquisitionNumber": 1,
  "AcquisitionTime": "10:06:17.497500",
  "BandwidthPerPixelPhaseEncode": 25,
  "BaseResolution": 80,
  "BodyPartExamined": "BRAIN",
  "CoilCombinationMethod": "Sum of Squares",
  "ConsistencyInfo": "N4_VE11C_LATEST_20160120",
  "ConversionSoftware": "dcm2niix",
  "ConversionSoftwareVersion": "v1.0.20220720",
  "DerivedVendorReportedEchoSpacing": 0.0005,
  "DeviceSerialNumber": "66112",
  "DwellTime": 2.7e-06,
  "EchoTime": 0.03,
  "EchoTrainLength": 80,
  "EffectiveEchoSpacing": 0.0005,
  "FlipAngle": 77,
  "HeudiconvVersion": "0.13.1",
  "ImageOrientationPatientDICOM": [0.999931, 0.00979372, 0.00645009, -0.0111698, 0.962935, 0.269502],
  "ImageOrientationText": "Tra>Cor(15.6)>Sag(0.2)",
  "ImageType": [
    "ORIGINAL",
    "PRIMARY",
    "M",
    "ND",
    "NORM",
    "MOSAIC"
],
  "ImagingFrequency": 123.252,
  "InPlanePhaseEncodingDirectionDICOM": "COL",
  "InstitutionAddress": "Maynard 3,Hanover,NH,US,03755",
  "InstitutionName": "Dartmouth College - PBS",
  "InstitutionalDepartmentName": "Department",
  "MRAcquisitionType": "2D",
  "MagneticFieldStrength": 3,
  "Manufacturer": "Siemens",
  "ManufacturersModelName": "Prisma",
  "MatrixCoilMode": "SENSE",
  "Modality": "MR",
  "NonlinearGradientCorrection": false,
  "PartialFourier": 1,
  "PatientPosition": "HFS",
  "PercentPhaseFOV": 100,
  "PercentSampling": 100,
  "PhaseEncodingDirection": "j-",
  "PhaseEncodingSteps": 80,
  "PhaseResolution": 1,
  "PixelBandwidth": 2315,
  "ProcedureStepDescription": "dbic^QA",
  "ProtocolName": "func-bold_fa-77",
  "PulseSequenceDetails": "%SiemensSeq%\\ep2d_bold",
  "ReceiveCoilActiveElements": "HEA;HEP",
  "ReceiveCoilName": "Head_32",
  "ReconMatrixPE": 80,
  "RepetitionTime": 2,
  "SAR": 0.0376289,
  "ScanOptions": "FS",
  "ScanningSequence": "EP",
  "SequenceName": "*epfid2d1_80",
  "SequenceVariant": "SK",
  "SeriesDescription": "func-bold_fa-77",
  "SeriesNumber": 8,
  "ShimSetting": [4150, -7696, -7519, 281, -55, -178, -28, 45],
  "SliceThickness": 3.5,
  "SliceTiming": [0.99, 0, 1.055, 0.065, 1.1225, 0.1325, 1.1875, 0.1975, 1.255, 0.265, 1.32, 0.33, 1.385, 0.395, 1.4525, 0.4625, 1.5175, 0.5275, 1.585, 0.595, 1.65, 0.66, 1.715, 0.725, 1.7825, 0.7925, 1.8475, 0.8575, 1.915, 0.925],
  "SoftwareVersions": "syngo MR E11",
  "SpacingBetweenSlices": 3.99,
  "StationName": "AWP66112",
  "TotalReadoutTime": 0.0395,
  "TxRefAmp": 231.376,
  "dcmmeta_affine": [
    [-2.999793767929077, -0.03350939229130745, 0.014250615611672401, 121.56550598144531],
    [-0.029381163418293, 2.8888049125671387, 1.0755277872085571, -113.79168701171875],
    [0.019350256770849228, -0.8085069060325623, 3.842283010482788, -44.165626525878906],
    [0.0, 0.0, 0.0, 1.0]
],
  "dcmmeta_reorient_transform": [
    [0.0, -1.0, 0.0, 79.0],
    [1.0, 0.0, 0.0, 0.0],
    [0.0, 0.0, 1.0, 0.0],
    [0.0, 0.0, 0.0, 1.0]
],
  "dcmmeta_shape": [80, 80, 30, 200],
  "dcmmeta_slice_dim": 2,
  "dcmmeta_version": 0.6,
  "global": {
    "const": {
      "AccessionNumber": "qa",
      "AcquisitionMatrix": [80, 0, 0, 80],
      "AngioFlag": "N",
      "BitsAllocated": 16,
      "BitsStored": 12,
      "BodyPartExamined": "BRAIN",
      "Columns": 480,
      "EchoNumbers": 1,
      "EchoTime": 30.0,
      "EchoTrainLength": 80,
      "FlipAngle": 77.0,
      "HighBit": 11,
      "ImageOrientationPatient": [0.99993123734215, 0.00979372144265, 0.006450085868, -0.0111697978722, 0.9629349629697, 0.26950230556722],
      "ImagePositionPatient": [-712.17512840447, -698.06110777873, -273.60910745348],
      "ImageType": [
        "ORIGINAL",
        "PRIMARY",
        "M",
        "ND",
        "NORM",
        "MOSAIC"
],
      "ImagedNucleus": "1H",
      "ImagingFrequency": 123.252346,
      "InPlanePhaseEncodingDirection": "COL",
      "MRAcquisitionType": "2D",
      "MagneticFieldStrength": 3.0,
      "Manufacturer": "SIEMENS",
      "ManufacturerModelName": "Prisma",
      "Modality": "MR",
      "NumberOfAverages": 1.0,
      "NumberOfPhaseEncodingSteps": 80,
      "PercentPhaseFieldOfView": 100.0,
      "PercentSampling": 100.0,
      "PerformedProcedureStepStartTime": "094716.226000",
      "PhotometricInterpretation": "MONOCHROME2",
      "PixelBandwidth": 2315.0,
      "PixelRepresentation": 0,
      "PixelSpacing": [3.0, 3.0],
      "ProtocolName": "func-bold_fa-77",
      "RepetitionTime": 2000.0,
      "Rows": 480,
      "SAR": 0.03762894900084,
      "SamplesPerPixel": 1,
      "ScanOptions": "FS",
      "ScanningSequence": "EP",
      "SequenceName": "*epfid2d1_80",
      "SequenceVariant": "SK",
      "SeriesDescription": "func-bold_fa-77",
      "SeriesNumber": 8,
      "SeriesTime": "100703.190000",
      "SliceLocation": -72.769563477739,
      "SliceThickness": 3.5,
      "SmallestImagePixelValue": 0,
      "SoftwareVersions": "syngo MR E11",
      "SpacingBetweenSlices": 3.9900001238215,
      "SpecificCharacterSet": "ISO_IR 100",
      "StudyID": "4",
      "StudyTime": "094716.177000",
      "TransmitCoilName": "Body",
      "VariableFlipAngleFlag": "N",
      "WindowCenterWidthExplanation": "Algo1",
      "dBdt": 0.0},
    "slices": {}
  },
  "time": {
    "samples": {
      "AcquisitionNumber": [1, 2, 3, 4, 5, 6, 7, 8, 9, 10, 11, 12, 13, 14, 15, 16, 17, 18, 19, 20, 21, 22, 23, 24, 25, 26, 27, 28, 29, 30, 31, 32, 33, 34, 35, 36, 37, 38, 39, 40, 41, 42, 43, 44, 45, 46, 47, 48, 49, 50, 51, 52, 53, 54, 55, 56, 57, 58, 59, 60, 61, 62, 63, 64, 65, 66, 67, 68, 69, 70, 71, 72, 73, 74, 75, 76, 77, 78, 79, 80, 81, 82, 83, 84, 85, 86, 87, 88, 89, 90, 91, 92, 93, 94, 95, 96, 97, 98, 99, 100, 101, 102, 103, 104, 105, 106, 107, 108, 109, 110, 111, 112, 113, 114, 115, 116, 117, 118, 119, 120, 121, 122, 123, 124, 125, 126, 127, 128, 129, 130, 131, 132, 133, 134, 135, 136, 137, 138, 139, 140, 141, 142, 143, 144, 145, 146, 147, 148, 149, 150, 151, 152, 153, 154, 155, 156, 157, 158, 159, 160, 161, 162, 163, 164, 165, 166, 167, 168, 169, 170, 171, 172, 173, 174, 175, 176, 177, 178, 179, 180, 181, 182, 183, 184, 185, 186, 187, 188, 189, 190, 191, 192, 193, 194, 195, 196, 197, 198, 199, 200],
      "AcquisitionTime": ["100617.497500", "100619.497500", "100621.497500", "100623.497500", "100625.497500", "100627.497500", "100629.497500", "100631.497500", "100633.497500", "100635.497500", "100637.497500", "100639.497500", "100641.497500", "100643.497500", "100645.497500", "100647.497500", "100649.497500", "100651.497500", "100653.497500", "100655.497500", "100657.497500", "100659.497500", "100701.497500", "100703.497500", "100705.497500", "100707.497500", "100709.497500", "100711.497500", "100713.497500", "100715.497500", "100717.497500", "100719.497500", "100721.497500", "100723.497500", "100725.497500", "100727.497500", "100729.497500", "100731.497500", "100733.497500", "100735.497500", "100737.497500", "100739.497500", "100741.497500", "100743.497500", "100745.497500", "100747.497500", "100749.497500", "100751.497500", "100753.497500", "100755.497500", "100757.497500", "100759.497500", "100801.497500", "100803.497500", "100805.497500", "100807.497500", "100809.497500", "100811.497500", "100813.497500", "100815.497500", "100817.497500", "100819.497500", "100821.497500", "100823.497500", "100825.497500", "100827.497500", "100829.497500", "100831.497500", "100833.497500", "100835.497500", "100837.497500", "100839.497500", "100841.497500", "100843.497500", "100845.497500", "100847.497500", "100849.497500", "100851.497500", "100853.497500", "100855.497500", "100857.497500", "100859.497500", "100901.497500", "100903.497500", "100905.497500", "100907.497500", "100909.497500", "100911.497500", "100913.497500", "100915.497500", "100917.497500", "100919.497500", "100921.497500", "100923.497500", "100925.497500", "100927.497500", "100929.497500", "100931.497500", "100933.497500", "100935.497500", "100937.497500", "100939.497500", "100941.497500", "100943.497500", "100945.497500", "100947.497500", "100949.497500", "100951.497500", "100953.497500", "100955.497500", "100957.497500", "100959.497500", "101001.497500", "101003.497500", "101005.497500", "101007.497500", "101009.497500", "101011.497500", "101013.497500", "101015.497500", "101017.497500", "101019.497500", "101021.497500", "101023.497500", "101025.497500", "101027.497500", "101029.497500", "101031.497500", "101033.497500", "101035.497500", "101037.497500", "101039.497500", "101041.497500", "101043.497500", "101045.497500", "101047.497500", "101049.497500", "101051.497500", "101053.497500", "101055.497500", "101057.497500", "101059.497500", "101101.497500", "101103.497500", "101105.497500", "101107.497500", "101109.497500", "101111.497500", "101113.497500", "101115.497500", "101117.497500", "101119.497500", "101121.497500", "101123.497500", "101125.497500", "101127.497500", "101129.497500", "101131.497500", "101133.497500", "101135.497500", "101137.497500", "101139.497500", "101141.497500", "101143.497500", "101145.497500", "101147.497500", "101149.497500", "101151.497500", "101153.497500", "101155.497500", "101157.497500", "101159.497500", "101201.497500", "101203.497500", "101205.497500", "101207.497500", "101209.497500", "101211.497500", "101213.497500", "101215.497500", "101217.497500", "101219.497500", "101221.497500", "101223.497500", "101225.497500", "101227.497500", "101229.497500", "101231.497500", "101233.497500", "101235.497500", "101237.497500", "101239.497500", "101241.497500", "101243.497500", "101245.497500", "101247.497500", "101249.497500", "101251.497500", "101253.497500", "101255.497500"],
      "ContentTime": ["100703.194000", "100703.208000", "100703.211000", "100703.213000", "100703.216000", "100703.218000", "100703.221000", "100703.223000", "100703.226000", "100703.228000", "100703.231000", "100703.233000", "100703.236000", "100703.238000", "100703.241000", "100703.244000", "100703.246000", "100703.249000", "100703.253000", "100703.255000", "100703.258000", "100703.260000", "100743.175000", "100743.178000", "100743.181000", "100743.183000", "100743.186000", "100743.188000", "100743.191000", "100743.193000", "100743.195000", "100743.198000", "100743.200000", "100743.203000", "100743.205000", "100743.208000", "100743.210000", "100743.213000", "100743.215000", "100743.217000", "100743.220000", "100743.222000", "100823.176000", "100823.179000", "100823.181000", "100823.183000", "100823.186000", "100823.188000", "100823.191000", "100823.193000", "100823.196000", "100823.198000", "100823.201000", "100823.203000", "100823.206000", "100823.208000", "100823.210000", "100823.213000", "100823.222000", "100823.224000", "100823.227000", "100823.229000", "100903.176000", "100903.179000", "100903.182000", "100903.184000", "100903.187000", "100903.189000", "100903.192000", "100903.194000", "100903.197000", "100903.199000", "100903.201000", "100903.204000", "100903.206000", "100903.209000", "100903.211000", "100903.214000", "100903.216000", "100903.219000", "100903.221000", "100903.224000", "100943.175000", "100943.178000", "100943.181000", "100943.183000", "100943.186000", "100943.188000", "100943.191000", "100943.193000", "100943.196000", "100943.198000", "100943.201000", "100943.203000", "100943.206000", "100943.208000", "100943.210000", "100943.213000", "100943.215000", "100943.218000", "100943.220000", "100943.223000", "101023.175000", "101023.178000", "101023.181000", "101023.183000", "101023.186000", "101023.188000", "101023.191000", "101023.193000", "101023.196000", "101023.198000", "101023.201000", "101023.203000", "101023.206000", "101023.208000", "101023.211000", "101023.213000", "101023.216000", "101023.218000", "101023.221000", "101023.223000", "101103.175000", "101103.178000", "101103.181000", "101103.183000", "101103.186000", "101103.188000", "101103.190000", "101103.193000", "101103.195000", "101103.198000", "101103.200000", "101103.203000", "101103.205000", "101103.208000", "101103.210000", "101103.213000", "101103.215000", "101103.218000", "101103.220000", "101103.223000", "101143.175000", "101143.178000", "101143.181000", "101143.183000", "101143.186000", "101143.188000", "101143.191000", "101143.193000", "101143.195000", "101143.198000", "101143.200000", "101143.203000", "101143.205000", "101143.208000", "101143.210000", "101143.213000", "101143.215000", "101143.218000", "101143.220000", "101143.223000", "101223.176000", "101223.178000", "101223.181000", "101223.183000", "101223.186000", "101223.188000", "101223.191000", "101223.193000", "101223.196000", "101223.198000", "101223.200000", "101223.203000", "101223.205000", "101223.208000", "101223.210000", "101223.213000", "101223.215000", "101223.218000", "101223.220000", "101223.223000", "101257.294000", "101257.297000", "101257.299000", "101257.302000", "101257.304000", "101257.307000", "101257.309000", "101257.312000", "101257.314000", "101257.317000", "101257.319000", "101257.322000", "101257.324000", "101257.331000", "101257.334000", "101257.337000", "101257.339000", "101257.342000"],
      "InstanceCreationTime": ["100703.194000", "100703.208000", "100703.211000", "100703.213000", "100703.216000", "100703.218000", "100703.221000", "100703.223000", "100703.226000", "100703.228000", "100703.231000", "100703.233000", "100703.236000", "100703.238000", "100703.241000", "100703.244000", "100703.246000", "100703.249000", "100703.253000", "100703.255000", "100703.258000", "100703.260000", "100743.175000", "100743.178000", "100743.181000", "100743.183000", "100743.186000", "100743.188000", "100743.191000", "100743.193000", "100743.195000", "100743.198000", "100743.200000", "100743.203000", "100743.205000", "100743.208000", "100743.210000", "100743.213000", "100743.215000", "100743.217000", "100743.220000", "100743.222000", "100823.176000", "100823.179000", "100823.181000", "100823.183000", "100823.186000", "100823.188000", "100823.191000", "100823.193000", "100823.196000", "100823.198000", "100823.201000", "100823.203000", "100823.206000", "100823.208000", "100823.210000", "100823.213000", "100823.222000", "100823.224000", "100823.227000", "100823.229000", "100903.176000", "100903.179000", "100903.182000", "100903.184000", "100903.187000", "100903.189000", "100903.192000", "100903.194000", "100903.197000", "100903.199000", "100903.201000", "100903.204000", "100903.206000", "100903.209000", "100903.211000", "100903.214000", "100903.216000", "100903.219000", "100903.221000", "100903.224000", "100943.175000", "100943.178000", "100943.181000", "100943.183000", "100943.186000", "100943.188000", "100943.191000", "100943.193000", "100943.196000", "100943.198000", "100943.201000", "100943.203000", "100943.206000", "100943.208000", "100943.210000", "100943.213000", "100943.215000", "100943.218000", "100943.220000", "100943.223000", "101023.175000", "101023.178000", "101023.181000", "101023.183000", "101023.186000", "101023.188000", "101023.191000", "101023.193000", "101023.196000", "101023.198000", "101023.201000", "101023.203000", "101023.206000", "101023.208000", "101023.211000", "101023.213000", "101023.216000", "101023.218000", "101023.221000", "101023.223000", "101103.175000", "101103.178000", "101103.181000", "101103.183000", "101103.186000", "101103.188000", "101103.190000", "101103.193000", "101103.195000", "101103.198000", "101103.200000", "101103.203000", "101103.205000", "101103.208000", "101103.210000", "101103.213000", "101103.215000", "101103.218000", "101103.220000", "101103.223000", "101143.175000", "101143.178000", "101143.181000", "101143.183000", "101143.186000", "101143.188000", "101143.191000", "101143.193000", "101143.195000", "101143.198000", "101143.200000", "101143.203000", "101143.205000", "101143.208000", "101143.210000", "101143.213000", "101143.215000", "101143.218000", "101143.220000", "101143.223000", "101223.176000", "101223.178000", "101223.181000", "101223.183000", "101223.186000", "101223.188000", "101223.191000", "101223.193000", "101223.196000", "101223.198000", "101223.200000", "101223.203000", "101223.205000", "101223.208000", "101223.210000", "101223.213000", "101223.215000", "101223.218000", "101223.220000", "101223.223000", "101257.294000", "101257.297000", "101257.299000", "101257.302000", "101257.304000", "101257.307000", "101257.309000", "101257.312000", "101257.314000", "101257.317000", "101257.319000", "101257.322000", "101257.324000", "101257.331000", "101257.334000", "101257.337000", "101257.339000", "101257.342000"],
      "InstanceNumber": [1, 2, 3, 4, 5, 6, 7, 8, 9, 10, 11, 12, 13, 14, 15, 16, 17, 18, 19, 20, 21, 22, 23, 24, 25, 26, 27, 28, 29, 30, 31, 32, 33, 34, 35, 36, 37, 38, 39, 40, 41, 42, 43, 44, 45, 46, 47, 48, 49, 50, 51, 52, 53, 54, 55, 56, 57, 58, 59, 60, 61, 62, 63, 64, 65, 66, 67, 68, 69, 70, 71, 72, 73, 74, 75, 76, 77, 78, 79, 80, 81, 82, 83, 84, 85, 86, 87, 88, 89, 90, 91, 92, 93, 94, 95, 96, 97, 98, 99, 100, 101, 102, 103, 104, 105, 106, 107, 108, 109, 110, 111, 112, 113, 114, 115, 116, 117, 118, 119, 120, 121, 122, 123, 124, 125, 126, 127, 128, 129, 130, 131, 132, 133, 134, 135, 136, 137, 138, 139, 140, 141, 142, 143, 144, 145, 146, 147, 148, 149, 150, 151, 152, 153, 154, 155, 156, 157, 158, 159, 160, 161, 162, 163, 164, 165, 166, 167, 168, 169, 170, 171, 172, 173, 174, 175, 176, 177, 178, 179, 180, 181, 182, 183, 184, 185, 186, 187, 188, 189, 190, 191, 192, 193, 194, 195, 196, 197, 198, 199, 200],
      "LargestImagePixelValue": [1904, 1904, 1908, 1908, 1907, 1902, 1903, 1906, 1906, 1904, 1903, 1904, 1906, 1911, 1907, 1903, 1905, 1905, 1901, 1904, 1904, 1905, 1905, 1903, 1905, 1906, 1906, 1900, 1905, 1903, 1899, 1902, 1909, 1904, 1904, 1908, 1904, 1900, 1900, 1903, 1904, 1903, 1905, 1905, 1911, 1902, 1903, 1905, 1907, 1905, 1904, 1898, 1900, 1905, 1908, 1905, 1906, 1910, 1907, 1902, 1900, 1904, 1905, 1905, 1901, 1901, 1901, 1902, 1905, 1904, 1905, 1903, 1905, 1904, 1902, 1906, 1906, 1904, 1899, 1902, 1906, 1905, 1901, 1904, 1904, 1902, 1905, 1905, 1905, 1906, 1906, 1908, 1906, 1906, 1910, 1899, 1898, 1900, 1910, 1906, 1903, 1904, 1903, 1904, 1905, 1903, 1908, 1909, 1908, 1901, 1902, 1908, 1907, 1901, 1902, 1905, 1902, 1895, 1899, 1907, 1907, 1904, 1901, 1907, 1906, 1904, 1907, 1905, 1905, 1903, 1905, 1904, 1909, 1904, 1899, 1905, 1905, 1902, 1903, 1904, 1901, 1904, 1906, 1903, 1905, 1905, 1899, 1901, 1900, 1906, 1905, 1903, 1905, 1900, 1899, 1902, 1904, 1905, 1904, 1906, 1902, 1905, 1904, 1901, 1903, 1908, 1905, 1904, 1901, 1901, 1904, 1904, 1906, 1904, 1903, 1901, 1907, 1909, 1901, 1903, 1902, 1904, 1906, 1901, 1901, 1904, 1898, 1904, 1898, 1902, 1904, 1902, 1904, 1902, 1898, 1901, 1904, 1903, 1899, 1903],
      "WindowCenter": [964.0, 965.0, 964.0, 965.0, 965.0, 965.0, 964.0, 964.0, 965.0, 964.0, 965.0, 965.0, 965.0, 965.0, 964.0, 964.0, 964.0, 965.0, 964.0, 965.0, 965.0, 964.0, 965.0, 965.0, 964.0, 965.0, 965.0, 964.0, 964.0, 965.0, 964.0, 965.0, 965.0, 964.0, 965.0, 965.0, 965.0, 964.0, 965.0, 965.0, 964.0, 965.0, 964.0, 964.0, 965.0, 964.0, 964.0, 965.0, 965.0, 965.0, 965.0, 965.0, 965.0, 964.0, 965.0, 965.0, 965.0, 965.0, 965.0, 964.0, 965.0, 964.0, 965.0, 964.0, 964.0, 965.0, 965.0, 964.0, 965.0, 965.0, 964.0, 964.0, 965.0, 965.0, 965.0, 965.0, 964.0, 964.0, 964.0, 965.0, 965.0, 965.0, 965.0, 965.0, 964.0, 964.0, 964.0, 964.0, 965.0, 964.0, 964.0, 965.0, 965.0, 964.0, 965.0, 964.0, 964.0, 964.0, 964.0, 964.0, 964.0, 965.0, 965.0, 965.0, 965.0, 965.0, 965.0, 965.0, 964.0, 965.0, 965.0, 964.0, 964.0, 964.0, 965.0, 965.0, 964.0, 965.0, 964.0, 964.0, 965.0, 965.0, 964.0, 965.0, 964.0, 964.0, 965.0, 964.0, 965.0, 964.0, 965.0, 964.0, 965.0, 965.0, 964.0, 964.0, 965.0, 964.0, 965.0, 965.0, 965.0, 964.0, 965.0, 964.0, 964.0, 965.0, 964.0, 964.0, 964.0, 964.0, 965.0, 964.0, 964.0, 963.0, 964.0, 964.0, 964.0, 964.0, 963.0, 964.0, 964.0, 965.0, 964.0, 964.0, 964.0, 964.0, 964.0, 964.0, 964.0, 964.0, 964.0, 964.0, 964.0, 964.0, 964.0, 964.0, 964.0, 964.0, 964.0, 964.0, 964.0, 964.0, 964.0, 964.0, 964.0, 963.0, 964.0, 963.0, 964.0, 964.0, 964.0, 963.0, 964.0, 964.0, 964.0, 964.0, 964.0, 963.0, 964.0, 963.0],
      "WindowWidth": [2109.0, 2110.0, 2110.0, 2110.0, 2110.0, 2110.0, 2110.0, 2109.0, 2110.0, 2110.0, 2110.0, 2110.0, 2110.0, 2110.0, 2110.0, 2109.0, 2109.0, 2110.0, 2109.0, 2110.0, 2110.0, 2109.0, 2110.0, 2110.0, 2109.0, 2110.0, 2110.0, 2110.0, 2109.0, 2110.0, 2109.0, 2110.0, 2110.0, 2110.0, 2110.0, 2110.0, 2110.0, 2110.0, 2110.0, 2110.0, 2110.0, 2111.0, 2110.0, 2110.0, 2111.0, 2110.0, 2110.0, 2110.0, 2110.0, 2110.0, 2110.0, 2110.0, 2110.0, 2110.0, 2110.0, 2110.0, 2110.0, 2111.0, 2110.0, 2109.0, 2110.0, 2109.0, 2110.0, 2109.0, 2109.0, 2110.0, 2110.0, 2109.0, 2110.0, 2110.0, 2110.0, 2109.0, 2110.0, 2110.0, 2110.0, 2110.0, 2109.0, 2109.0, 2109.0, 2110.0, 2110.0, 2110.0, 2110.0, 2110.0, 2109.0, 2109.0, 2109.0, 2109.0, 2110.0, 2109.0, 2109.0, 2110.0, 2110.0, 2109.0, 2110.0, 2109.0, 2109.0, 2109.0, 2109.0, 2109.0, 2109.0, 2110.0, 2110.0, 2110.0, 2110.0, 2110.0, 2110.0, 2110.0, 2109.0, 2110.0, 2110.0, 2109.0, 2109.0, 2109.0, 2110.0, 2110.0, 2109.0, 2110.0, 2109.0, 2109.0, 2110.0, 2110.0, 2109.0, 2110.0, 2109.0, 2109.0, 2110.0, 2109.0, 2110.0, 2109.0, 2110.0, 2109.0, 2110.0, 2110.0, 2109.0, 2109.0, 2110.0, 2109.0, 2110.0, 2110.0, 2110.0, 2109.0, 2110.0, 2109.0, 2109.0, 2110.0, 2109.0, 2109.0, 2109.0, 2109.0, 2110.0, 2109.0, 2110.0, 2108.0, 2108.0, 2109.0, 2108.0, 2109.0, 2108.0, 2109.0, 2108.0, 2110.0, 2109.0, 2109.0, 2109.0, 2109.0, 2109.0, 2109.0, 2109.0, 2109.0, 2109.0, 2109.0, 2109.0, 2109.0, 2108.0, 2109.0, 2109.0, 2109.0, 2109.0, 2109.0, 2108.0, 2108.0, 2109.0, 2108.0, 2109.0, 2109.0, 2108.0, 2109.0, 2109.0, 2108.0, 2109.0, 2109.0, 2109.0, 2109.0, 2109.0, 2109.0, 2109.0, 2109.0, 2109.0, 2109.0]
    },
    "slices": {}
  }
}