{
  "AcquisitionMatrixPE": 80,
  "AcquisitionNumber": 1,
  "AcquisitionTime": "09:45:14.475000",
  "BandwidthPerPixelPhaseEncode": 25,
  "BaseResolution": 80,
  "BodyPartExamined": "BRAIN",
  "CoilCombinationMethod": "Sum of Squares",
  "ConsistencyInfo": "N4_VE11E_LATEST_20181129",
  "ConversionSoftware": "dcm2niix",
  "ConversionSoftwareVersion": "v1.0.20220720",
  "DerivedVendorReportedEchoSpacing": 0.0005,
  "DeviceSerialNumber": "66112",
  "DwellTime": 2.7e-06,
  "EchoTime": 0.03,
  "EchoTrainLength": 80,
  "EffectiveEchoSpacing": 0.0005,
  "FlipAngle": 10,
  "HeudiconvVersion": "0.13.1",
  "ImageOrientationPatientDICOM": [0.984527, 0.174863, 0.0113725, -0.169527, 0.934034, 0.314391],
  "ImageOrientationText": "Tra>Cor(18.2)>Sag(-2.5)",
  "ImageType": [
    "ORIGINAL",
    "PRIMARY",
    "M",
    "ND",
    "NORM",
    "MOSAIC"
],
  "ImagingFrequency": 123.252,
  "InPlanePhaseEncodingDirectionDICOM": "COL",
  "InstitutionAddress": "Maynard 3,Hanover,NH,US,03755",
  "InstitutionName": "Dartmouth College - PBS",
  "InstitutionalDepartmentName": "Department",
  "MRAcquisitionType": "2D",
  "MagneticFieldStrength": 3,
  "Manufacturer": "Siemens",
  "ManufacturersModelName": "Prisma",
  "MatrixCoilMode": "SENSE",
  "Modality": "MR",
  "NonlinearGradientCorrection": false,
  "PartialFourier": 1,
  "PatientPosition": "HFS",
  "PercentPhaseFOV": 100,
  "PercentSampling": 100,
  "PhaseEncodingDirection": "j-",
  "PhaseEncodingSteps": 80,
  "PhaseResolution": 1,
  "PixelBandwidth": 2315,
  "ProcedureStepDescription": "dbic^QA",
  "ProtocolName": "func-bold_fa-10",
  "PulseSequenceDetails": "%SiemensSeq%\\ep2d_bold",
  "ReceiveCoilActiveElements": "HEA;HEP",
  "ReceiveCoilName": "Head_32",
  "ReconMatrixPE": 80,
  "RepetitionTime": 2,
  "SAR": 0.0118061,
  "ScanOptions": "FS",
  "ScanningSequence": "EP",
  "SequenceName": "*epfid2d1_80",
  "SequenceVariant": "SK",
  "SeriesDescription": "func-bold_fa-10",
  "SeriesNumber": 10,
  "ShimSetting": [4144, -7700, -7520, 232, -74, -36, 0, 76],
  "SliceThickness": 3.5,
  "SliceTiming": [0.99, 0, 1.0575, 0.0675, 1.1225, 0.1325, 1.19, 0.2, 1.255, 0.265, 1.32, 0.33, 1.3875, 0.3975, 1.4525, 0.4625, 1.52, 0.53, 1.585, 0.595, 1.65, 0.66, 1.7175, 0.7275, 1.7825, 0.7925, 1.85, 0.86, 1.915, 0.925],
  "SoftwareVersions": "syngo MR E11",
  "SpacingBetweenSlices": 3.99,
  "StationName": "AWP66112",
  "TotalReadoutTime": 0.0395,
  "TxRefAmp": 234.633,
  "dcmmeta_affine": [
    [-2.9535810947418213, -0.5085797905921936, -0.1769687682390213, 140.29434204101562],
    [-0.5245895385742188, 2.8021016120910645, 1.242701768875122, -92.39048767089844],
    [0.03411742299795151, -0.943172037601471, 3.787410020828247, -12.998144149780273],
    [0.0, 0.0, 0.0, 1.0]
],
  "dcmmeta_reorient_transform": [
    [0.0, -1.0, 0.0, 79.0],
    [1.0, 0.0, 0.0, 0.0],
    [0.0, 0.0, 1.0, 0.0],
    [0.0, 0.0, 0.0, 1.0]
],
  "dcmmeta_shape": [80, 80, 30, 200],
  "dcmmeta_slice_dim": 2,
  "dcmmeta_version": 0.6,
  "global": {
    "const": {
      "AccessionNumber": "qa",
      "AcquisitionMatrix": [80, 0, 0, 80],
      "AngioFlag": "N",
      "BitsAllocated": 16,
      "BitsStored": 12,
      "BodyPartExamined": "BRAIN",
      "Columns": 480,
      "EchoNumbers": 1,
      "EchoTime": 30.0,
      "EchoTrainLength": 80,
      "FlipAngle": 10.0,
      "HighBit": 11,
      "ImageOrientationPatient": [0.98452706342526, 0.17486316996304, 0.01137247438831, -0.1695265942508, 0.9340338511911, 0.31439067840961],
      "ImagePositionPatient": [-589.11681391227, -794.31374745815, -282.96662623398],
      "ImageType": [
        "ORIGINAL",
        "PRIMARY",
        "M",
        "ND",
        "NORM",
        "MOSAIC"
],
      "ImagedNucleus": "1H",
      "ImagingFrequency": 123.252364,
      "InPlanePhaseEncodingDirection": "COL",
      "MRAcquisitionType": "2D",
      "MagneticFieldStrength": 3.0,
      "Manufacturer": "SIEMENS",
      "ManufacturerModelName": "Prisma",
      "Modality": "MR",
      "NumberOfAverages": 1.0,
      "NumberOfPhaseEncodingSteps": 80,
      "PercentPhaseFieldOfView": 100.0,
      "PercentSampling": 100.0,
      "PerformedProcedureStepStartTime": "091822.854000",
      "PhotometricInterpretation": "MONOCHROME2",
      "PixelBandwidth": 2315.0,
      "PixelRepresentation": 0,
      "PixelSpacing": [3.0, 3.0],
      "ProtocolName": "func-bold_fa-10",
      "RepetitionTime": 2000.0,
      "Rows": 480,
      "SAR": 0.01180614284171,
      "SamplesPerPixel": 1,
      "ScanOptions": "FS",
      "ScanningSequence": "EP",
      "SequenceName": "*epfid2d1_80",
      "SequenceVariant": "SK",
      "SeriesDescription": "func-bold_fa-10",
      "SeriesNumber": 10,
      "SeriesTime": "094602.556000",
      "SliceLocation": -47.336048789241,
      "SliceThickness": 3.5,
      "SmallestImagePixelValue": 0,
      "SoftwareVersions": "syngo MR E11",
      "SpacingBetweenSlices": 3.9899999627797,
      "SpecificCharacterSet": "ISO_IR 100",
      "StudyID": "4",
      "StudyTime": "091822.803000",
      "TransmitCoilName": "Body",
      "VariableFlipAngleFlag": "N",
      "WindowCenterWidthExplanation": "Algo1"
    },
    "slices": {}
  },
  "time": {
    "samples": {
      "AcquisitionNumber": [1, 2, 3, 4, 5, 6, 7, 8, 9, 10, 11, 12, 13, 14, 15, 16, 17, 18, 19, 20, 21, 22, 23, 24, 25, 26, 27, 28, 29, 30, 31, 32, 33, 34, 35, 36, 37, 38, 39, 40, 41, 42, 43, 44, 45, 46, 47, 48, 49, 50, 51, 52, 53, 54, 55, 56, 57, 58, 59, 60, 61, 62, 63, 64, 65, 66, 67, 68, 69, 70, 71, 72, 73, 74, 75, 76, 77, 78, 79, 80, 81, 82, 83, 84, 85, 86, 87, 88, 89, 90, 91, 92, 93, 94, 95, 96, 97, 98, 99, 100, 101, 102, 103, 104, 105, 106, 107, 108, 109, 110, 111, 112, 113, 114, 115, 116, 117, 118, 119, 120, 121, 122, 123, 124, 125, 126, 127, 128, 129, 130, 131, 132, 133, 134, 135, 136, 137, 138, 139, 140, 141, 142, 143, 144, 145, 146, 147, 148, 149, 150, 151, 152, 153, 154, 155, 156, 157, 158, 159, 160, 161, 162, 163, 164, 165, 166, 167, 168, 169, 170, 171, 172, 173, 174, 175, 176, 177, 178, 179, 180, 181, 182, 183, 184, 185, 186, 187, 188, 189, 190, 191, 192, 193, 194, 195, 196, 197, 198, 199, 200],
      "AcquisitionTime": ["094514.475000", "094516.475000", "094518.475000", "094520.475000", "094522.475000", "094524.475000", "094526.475000", "094528.475000", "094530.475000", "094532.475000", "094534.475000", "094536.475000", "094538.475000", "094540.475000", "094542.475000", "094544.475000", "094546.475000", "094548.475000", "094550.475000", "094552.475000", "094554.475000", "094556.475000", "094558.475000", "094600.475000", "094602.475000", "094604.475000", "094606.475000", "094608.475000", "094610.475000", "094612.475000", "094614.475000", "094616.475000", "094618.475000", "094620.475000", "094622.475000", "094624.475000", "094626.475000", "094628.475000", "094630.475000", "094632.475000", "094634.475000", "094636.475000", "094638.475000", "094640.475000", "094642.475000", "094644.475000", "094646.475000", "094648.475000", "094650.475000", "094652.475000", "094654.475000", "094656.475000", "094658.475000", "094700.475000", "094702.475000", "094704.475000", "094706.475000", "094708.475000", "094710.475000", "094712.475000", "094714.475000", "094716.475000", "094718.475000", "094720.475000", "094722.475000", "094724.475000", "094726.475000", "094728.475000", "094730.475000", "094732.475000", "094734.475000", "094736.475000", "094738.475000", "094740.475000", "094742.475000", "094744.475000", "094746.475000", "094748.475000", "094750.475000", "094752.475000", "094754.475000", "094756.475000", "094758.475000", "094800.475000", "094802.475000", "094804.475000", "094806.475000", "094808.475000", "094810.475000", "094812.475000", "094814.475000", "094816.475000", "094818.475000", "094820.475000", "094822.475000", "094824.475000", "094826.475000", "094828.475000", "094830.475000", "094832.475000", "094834.475000", "094836.475000", "094838.475000", "094840.475000", "094842.475000", "094844.475000", "094846.475000", "094848.475000", "094850.475000", "094852.475000", "094854.475000", "094856.475000", "094858.475000", "094900.475000", "094902.475000", "094904.475000", "094906.475000", "094908.475000", "094910.475000", "094912.475000", "094914.475000", "094916.475000", "094918.475000", "094920.475000", "094922.475000", "094924.475000", "094926.475000", "094928.475000", "094930.475000", "094932.475000", "094934.475000", "094936.475000", "094938.475000", "094940.475000", "094942.475000", "094944.475000", "094946.475000", "094948.475000", "094950.475000", "094952.475000", "094954.475000", "094956.475000", "094958.475000", "095000.475000", "095002.475000", "095004.475000", "095006.475000", "095008.475000", "095010.475000", "095012.475000", "095014.475000", "095016.475000", "095018.475000", "095020.475000", "095022.475000", "095024.475000", "095026.475000", "095028.475000", "095030.475000", "095032.475000", "095034.475000", "095036.475000", "095038.475000", "095040.475000", "095042.475000", "095044.475000", "095046.475000", "095048.475000", "095050.475000", "095052.475000", "095054.475000", "095056.475000", "095058.475000", "095100.475000", "095102.475000", "095104.475000", "095106.475000", "095108.475000", "095110.475000", "095112.475000", "095114.475000", "095116.475000", "095118.475000", "095120.475000", "095122.475000", "095124.475000", "095126.475000", "095128.475000", "095130.475000", "095132.475000", "095134.475000", "095136.475000", "095138.475000", "095140.475000", "095142.475000", "095144.475000", "095146.475000", "095148.475000", "095150.475000", "095152.475000"],
      "ContentTime": ["094602.559000", "094602.562000", "094602.564000", "094602.566000", "094602.569000", "094602.571000", "094602.573000", "094602.579000", "094602.581000", "094602.583000", "094602.585000", "094602.588000", "094602.590000", "094602.592000", "094602.595000", "094602.597000", "094602.599000", "094602.602000", "094602.604000", "094602.606000", "094602.609000", "094602.611000", "094602.613000", "094602.616000", "094642.544000", "094642.547000", "094642.549000", "094642.551000", "094642.554000", "094642.556000", "094642.558000", "094642.560000", "094642.563000", "094642.565000", "094642.567000", "094642.570000", "094642.572000", "094642.574000", "094642.576000", "094642.579000", "094642.581000", "094642.583000", "094642.586000", "094642.588000", "094722.544000", "094722.547000", "094722.549000", "094722.559000", "094722.561000", "094722.563000", "094722.565000", "094722.568000", "094722.570000", "094722.572000", "094722.575000", "094722.577000", "094722.579000", "094722.581000", "094722.584000", "094722.586000", "094722.588000", "094722.590000", "094722.593000", "094722.595000", "094802.543000", "094802.546000", "094802.548000", "094802.550000", "094802.553000", "094802.555000", "094802.557000", "094802.560000", "094802.562000", "094802.564000", "094802.566000", "094802.569000", "094802.571000", "094802.573000", "094802.576000", "094802.578000", "094802.580000", "094802.582000", "094802.585000", "094802.587000", "094842.544000", "094842.547000", "094842.549000", "094842.551000", "094842.554000", "094842.556000", "094842.558000", "094842.561000", "094842.563000", "094842.565000", "094842.568000", "094842.570000", "094842.572000", "094842.574000", "094842.577000", "094842.579000", "094842.581000", "094842.584000", "094842.586000", "094842.588000", "094922.544000", "094922.547000", "094922.549000", "094922.551000", "094922.553000", "094922.556000", "094922.558000", "094922.560000", "094922.563000", "094922.565000", "094922.567000", "094922.570000", "094922.572000", "094922.574000", "094922.577000", "094922.579000", "094922.581000", "094922.583000", "094922.586000", "094922.588000", "095002.543000", "095002.546000", "095002.548000", "095002.550000", "095002.553000", "095002.555000", "095002.557000", "095002.560000", "095002.562000", "095002.564000", "095002.566000", "095002.569000", "095002.571000", "095002.573000", "095002.576000", "095002.578000", "095002.580000", "095002.583000", "095002.585000", "095002.587000", "095042.543000", "095042.546000", "095042.548000", "095042.550000", "095042.553000", "095042.555000", "095042.557000", "095042.560000", "095042.562000", "095042.564000", "095042.566000", "095042.569000", "095042.571000", "095042.573000", "095042.576000", "095042.578000", "095042.580000", "095042.583000", "095042.585000", "095042.587000", "095122.544000", "095122.547000", "095122.549000", "095122.551000", "095122.564000", "095122.566000", "095122.568000", "095122.571000", "095122.573000", "095122.575000", "095122.578000", "095122.580000", "095122.582000", "095122.585000", "095122.587000", "095122.589000", "095122.592000", "095122.594000", "095122.596000", "095122.598000", "095154.468000", "095154.471000", "095154.473000", "095154.476000", "095154.478000", "095154.481000", "095154.483000", "095154.485000", "095154.488000", "095154.490000", "095154.492000", "095154.495000", "095154.497000", "095154.499000", "095154.501000", "095154.504000"],
      "InstanceCreationTime": ["094602.559000", "094602.562000", "094602.564000", "094602.566000", "094602.569000", "094602.571000", "094602.573000", "094602.579000", "094602.581000", "094602.583000", "094602.585000", "094602.588000", "094602.590000", "094602.592000", "094602.595000", "094602.597000", "094602.599000", "094602.602000", "094602.604000", "094602.606000", "094602.609000", "094602.611000", "094602.613000", "094602.616000", "094642.544000", "094642.547000", "094642.549000", "094642.551000", "094642.554000", "094642.556000", "094642.558000", "094642.560000", "094642.563000", "094642.565000", "094642.567000", "094642.570000", "094642.572000", "094642.574000", "094642.576000", "094642.579000", "094642.581000", "094642.583000", "094642.586000", "094642.588000", "094722.544000", "094722.547000", "094722.549000", "094722.559000", "094722.561000", "094722.563000", "094722.565000", "094722.568000", "094722.570000", "094722.572000", "094722.575000", "094722.577000", "094722.579000", "094722.581000", "094722.584000", "094722.586000", "094722.588000", "094722.590000", "094722.593000", "094722.595000", "094802.543000", "094802.546000", "094802.548000", "094802.550000", "094802.553000", "094802.555000", "094802.557000", "094802.560000", "094802.562000", "094802.564000", "094802.566000", "094802.569000", "094802.571000", "094802.573000", "094802.576000", "094802.578000", "094802.580000", "094802.582000", "094802.585000", "094802.587000", "094842.544000", "094842.547000", "094842.549000", "094842.551000", "094842.554000", "094842.556000", "094842.558000", "094842.561000", "094842.563000", "094842.565000", "094842.568000", "094842.570000", "094842.572000", "094842.574000", "094842.577000", "094842.579000", "094842.581000", "094842.584000", "094842.586000", "094842.588000", "094922.544000", "094922.547000", "094922.549000", "094922.551000", "094922.553000", "094922.556000", "094922.558000", "094922.560000", "094922.563000", "094922.565000", "094922.567000", "094922.570000", "094922.572000", "094922.574000", "094922.577000", "094922.579000", "094922.581000", "094922.583000", "094922.586000", "094922.588000", "095002.543000", "095002.546000", "095002.548000", "095002.550000", "095002.553000", "095002.555000", "095002.557000", "095002.560000", "095002.562000", "095002.564000", "095002.566000", "095002.569000", "095002.571000", "095002.573000", "095002.576000", "095002.578000", "095002.580000", "095002.583000", "095002.585000", "095002.587000", "095042.543000", "095042.546000", "095042.548000", "095042.550000", "095042.553000", "095042.555000", "095042.557000", "095042.560000", "095042.562000", "095042.564000", "095042.566000", "095042.569000", "095042.571000", "095042.573000", "095042.576000", "095042.578000", "095042.580000", "095042.583000", "095042.585000", "095042.587000", "095122.544000", "095122.547000", "095122.549000", "095122.551000", "095122.564000", "095122.566000", "095122.568000", "095122.571000", "095122.573000", "095122.575000", "095122.578000", "095122.580000", "095122.582000", "095122.585000", "095122.587000", "095122.589000", "095122.592000", "095122.594000", "095122.596000", "095122.598000", "095154.468000", "095154.471000", "095154.473000", "095154.476000", "095154.478000", "095154.481000", "095154.483000", "095154.485000", "095154.488000", "095154.490000", "095154.492000", "095154.495000", "095154.497000", "095154.499000", "095154.501000", "095154.504000"],
      "InstanceNumber": [1, 2, 3, 4, 5, 6, 7, 8, 9, 10, 11, 12, 13, 14, 15, 16, 17, 18, 19, 20, 21, 22, 23, 24, 25, 26, 27, 28, 29, 30, 31, 32, 33, 34, 35, 36, 37, 38, 39, 40, 41, 42, 43, 44, 45, 46, 47, 48, 49, 50, 51, 52, 53, 54, 55, 56, 57, 58, 59, 60, 61, 62, 63, 64, 65, 66, 67, 68, 69, 70, 71, 72, 73, 74, 75, 76, 77, 78, 79, 80, 81, 82, 83, 84, 85, 86, 87, 88, 89, 90, 91, 92, 93, 94, 95, 96, 97, 98, 99, 100, 101, 102, 103, 104, 105, 106, 107, 108, 109, 110, 111, 112, 113, 114, 115, 116, 117, 118, 119, 120, 121, 122, 123, 124, 125, 126, 127, 128, 129, 130, 131, 132, 133, 134, 135, 136, 137, 138, 139, 140, 141, 142, 143, 144, 145, 146, 147, 148, 149, 150, 151, 152, 153, 154, 155, 156, 157, 158, 159, 160, 161, 162, 163, 164, 165, 166, 167, 168, 169, 170, 171, 172, 173, 174, 175, 176, 177, 178, 179, 180, 181, 182, 183, 184, 185, 186, 187, 188, 189, 190, 191, 192, 193, 194, 195, 196, 197, 198, 199, 200],
      "LargestImagePixelValue": [345, 343, 344, 347, 345, 345, 346, 347, 345, 345, 346, 346, 345, 344, 344, 346, 345, 346, 344, 343, 343, 346, 344, 345, 346, 344, 343, 347, 347, 346, 347, 346, 346, 344, 348, 345, 344, 345, 346, 347, 346, 346, 346, 345, 345, 346, 345, 345, 346, 347, 348, 347, 347, 347, 346, 347, 348, 346, 347, 346, 347, 346, 346, 344, 345, 346, 348, 346, 348, 345, 346, 346, 347, 347, 348, 345, 345, 347, 344, 346, 347, 345, 344, 347, 348, 345, 345, 346, 345, 344, 346, 346, 344, 348, 348, 348, 346, 348, 346, 344, 344, 349, 347, 346, 347, 347, 346, 348, 345, 345, 346, 347, 346, 346, 347, 349, 346, 345, 348, 346, 347, 347, 345, 346, 344, 348, 348, 346, 346, 347, 347, 347, 346, 347, 348, 347, 346, 344, 347, 347, 345, 346, 348, 346, 346, 347, 347, 347, 345, 348, 346, 346, 345, 348, 346, 345, 345, 347, 346, 346, 347, 347, 346, 347, 348, 347, 348, 347, 347, 346, 347, 348, 345, 346, 347, 346, 346, 345, 347, 345, 346, 346, 345, 345, 347, 348, 346, 347, 347, 347, 346, 348, 349, 347, 345, 347, 346, 346, 346, 348],
      "WindowCenter": [282.0, 281.0, 282.0, 282.0, 282.0, 282.0, 282.0, 282.0, 282.0, 282.0, 282.0, 281.0, 282.0, 282.0, 281.0, 282.0, 282.0, 282.0, 282.0, 282.0, 282.0, 281.0, 281.0, 281.0, 281.0, 281.0, 282.0, 282.0, 282.0, 281.0, 282.0, 282.0, 282.0, 282.0, 282.0, 281.0, 281.0, 282.0, 281.0, 281.0, 281.0, 281.0, 281.0, 281.0, 281.0, 281.0, 281.0, 282.0, 282.0, 282.0, 281.0, 281.0, 282.0, 281.0, 282.0, 282.0, 281.0, 281.0, 282.0, 281.0, 281.0, 281.0, 281.0, 281.0, 281.0, 282.0, 281.0, 281.0, 282.0, 281.0, 281.0, 282.0, 281.0, 282.0, 281.0, 282.0, 282.0, 281.0, 281.0, 281.0, 281.0, 281.0, 281.0, 281.0, 281.0, 281.0, 281.0, 281.0, 281.0, 281.0, 282.0, 281.0, 281.0, 282.0, 281.0, 281.0, 281.0, 282.0, 281.0, 281.0, 282.0, 281.0, 281.0, 282.0, 281.0, 281.0, 281.0, 282.0, 282.0, 281.0, 281.0, 281.0, 281.0, 281.0, 281.0, 281.0, 281.0, 281.0, 281.0, 281.0, 281.0, 281.0, 281.0, 281.0, 282.0, 282.0, 281.0, 281.0, 281.0, 281.0, 281.0, 282.0, 281.0, 281.0, 281.0, 281.0, 281.0, 281.0, 281.0, 281.0, 281.0, 281.0, 281.0, 281.0, 281.0, 281.0, 282.0, 281.0, 281.0, 281.0, 281.0, 281.0, 281.0, 281.0, 281.0, 281.0, 281.0, 281.0, 281.0, 281.0, 281.0, 281.0, 281.0, 281.0, 281.0, 281.0, 281.0, 281.0, 281.0, 281.0, 281.0, 281.0, 281.0, 281.0, 281.0, 281.0, 281.0, 282.0, 281.0, 281.0, 281.0, 281.0, 281.0, 281.0, 281.0, 281.0, 281.0, 281.0, 281.0, 281.0, 281.0, 281.0, 280.0, 281.0, 281.0, 281.0, 281.0, 281.0, 281.0, 281.0],
      "WindowWidth": [615.0, 615.0, 616.0, 616.0, 616.0, 615.0, 616.0, 615.0, 615.0, 616.0, 616.0, 614.0, 615.0, 615.0, 614.0, 616.0, 615.0, 615.0, 615.0, 615.0, 616.0, 614.0, 615.0, 615.0, 615.0, 614.0, 615.0, 615.0, 615.0, 614.0, 615.0, 615.0, 616.0, 615.0, 616.0, 614.0, 614.0, 615.0, 615.0, 615.0, 614.0, 614.0, 614.0, 614.0, 615.0, 614.0, 614.0, 615.0, 615.0, 615.0, 614.0, 614.0, 615.0, 614.0, 615.0, 615.0, 614.0, 614.0, 615.0, 614.0, 614.0, 614.0, 615.0, 614.0, 614.0, 616.0, 614.0, 615.0, 615.0, 614.0, 614.0, 615.0, 614.0, 615.0, 614.0, 615.0, 615.0, 615.0, 614.0, 615.0, 614.0, 614.0, 614.0, 615.0, 614.0, 615.0, 614.0, 614.0, 614.0, 615.0, 616.0, 615.0, 614.0, 615.0, 614.0, 614.0, 615.0, 616.0, 614.0, 614.0, 615.0, 614.0, 614.0, 615.0, 614.0, 614.0, 614.0, 615.0, 615.0, 614.0, 615.0, 615.0, 614.0, 614.0, 614.0, 614.0, 614.0, 614.0, 615.0, 614.0, 614.0, 614.0, 615.0, 614.0, 615.0, 615.0, 614.0, 614.0, 614.0, 614.0, 614.0, 615.0, 614.0, 614.0, 614.0, 614.0, 614.0, 614.0, 614.0, 614.0, 614.0, 614.0, 615.0, 615.0, 614.0, 615.0, 615.0, 614.0, 614.0, 614.0, 614.0, 614.0, 614.0, 614.0, 614.0, 614.0, 614.0, 614.0, 614.0, 614.0, 615.0, 614.0, 614.0, 614.0, 614.0, 614.0, 615.0, 614.0, 614.0, 614.0, 614.0, 614.0, 614.0, 614.0, 614.0, 614.0, 614.0, 615.0, 614.0, 614.0, 614.0, 615.0, 614.0, 614.0, 614.0, 614.0, 614.0, 614.0, 614.0, 614.0, 614.0, 614.0, 613.0, 614.0, 614.0, 615.0, 614.0, 614.0, 615.0, 614.0]
    },
    "slices": {}
  }
}