{
  "AcquisitionMatrixPE": 80,
  "AcquisitionNumber": 1,
  "AcquisitionTime": "09:38:28.522500",
  "BandwidthPerPixelPhaseEncode": 25,
  "BaseResolution": 80,
  "BodyPartExamined": "BRAIN",
  "CoilCombinationMethod": "Sum of Squares",
  "ConsistencyInfo": "N4_VE11E_LATEST_20181129",
  "ConversionSoftware": "dcm2niix",
  "ConversionSoftwareVersion": "v1.0.20220720",
  "DerivedVendorReportedEchoSpacing": 0.0005,
  "DeviceSerialNumber": "66112",
  "DwellTime": 2.7e-06,
  "EchoTime": 0.03,
  "EchoTrainLength": 80,
  "EffectiveEchoSpacing": 0.0005,
  "FlipAngle": 77,
  "HeudiconvVersion": "0.13.1",
  "ImageOrientationPatientDICOM": [0.984527, 0.174863, 0.0113725, -0.169527, 0.934034, 0.314391],
  "ImageOrientationText": "Tra>Cor(18.2)>Sag(-2.5)",
  "ImageType": [
    "ORIGINAL",
    "PRIMARY",
    "M",
    "ND",
    "NORM",
    "MOSAIC"
],
  "ImagingFrequency": 123.252,
  "InPlanePhaseEncodingDirectionDICOM": "COL",
  "InstitutionAddress": "Maynard 3,Hanover,NH,US,03755",
  "InstitutionName": "Dartmouth College - PBS",
  "InstitutionalDepartmentName": "Department",
  "MRAcquisitionType": "2D",
  "MagneticFieldStrength": 3,
  "Manufacturer": "Siemens",
  "ManufacturersModelName": "Prisma",
  "MatrixCoilMode": "SENSE",
  "Modality": "MR",
  "NonlinearGradientCorrection": false,
  "PartialFourier": 1,
  "PatientPosition": "HFS",
  "PercentPhaseFOV": 100,
  "PercentSampling": 100,
  "PhaseEncodingDirection": "j-",
  "PhaseEncodingSteps": 80,
  "PhaseResolution": 1,
  "PixelBandwidth": 2315,
  "ProcedureStepDescription": "dbic^QA",
  "ProtocolName": "func-bold_fa-77",
  "PulseSequenceDetails": "%SiemensSeq%\\ep2d_bold",
  "ReceiveCoilActiveElements": "HEA;HEP",
  "ReceiveCoilName": "Head_32",
  "ReconMatrixPE": 80,
  "RepetitionTime": 2,
  "SAR": 0.0440119,
  "ScanOptions": "FS",
  "ScanningSequence": "EP",
  "SequenceName": "*epfid2d1_80",
  "SequenceVariant": "SK",
  "SeriesDescription": "func-bold_fa-77",
  "SeriesNumber": 8,
  "ShimSetting": [4144, -7700, -7520, 232, -74, -36, 0, 76],
  "SliceThickness": 3.5,
  "SliceTiming": [0.99, 0, 1.055, 0.065, 1.1225, 0.1325, 1.1875, 0.1975, 1.255, 0.265, 1.32, 0.33, 1.385, 0.395, 1.4525, 0.4625, 1.5175, 0.5275, 1.585, 0.595, 1.65, 0.66, 1.715, 0.725, 1.7825, 0.7925, 1.8475, 0.8575, 1.915, 0.925],
  "SoftwareVersions": "syngo MR E11",
  "SpacingBetweenSlices": 3.99,
  "StationName": "AWP66112",
  "TotalReadoutTime": 0.0395,
  "TxRefAmp": 234.633,
  "dcmmeta_affine": [
    [-2.9535810947418213, -0.5085797905921936, -0.1769687682390213, 140.29434204101562],
    [-0.5245895385742188, 2.8021016120910645, 1.242701768875122, -92.39048767089844],
    [0.03411742299795151, -0.943172037601471, 3.787410020828247, -12.998144149780273],
    [0.0, 0.0, 0.0, 1.0]
],
  "dcmmeta_reorient_transform": [
    [0.0, -1.0, 0.0, 79.0],
    [1.0, 0.0, 0.0, 0.0],
    [0.0, 0.0, 1.0, 0.0],
    [0.0, 0.0, 0.0, 1.0]
],
  "dcmmeta_shape": [80, 80, 30, 200],
  "dcmmeta_slice_dim": 2,
  "dcmmeta_version": 0.6,
  "global": {
    "const": {
      "AccessionNumber": "qa",
      "AcquisitionMatrix": [80, 0, 0, 80],
      "AngioFlag": "N",
      "BitsAllocated": 16,
      "BitsStored": 12,
      "BodyPartExamined": "BRAIN",
      "Columns": 480,
      "EchoNumbers": 1,
      "EchoTime": 30.0,
      "EchoTrainLength": 80,
      "FlipAngle": 77.0,
      "HighBit": 11,
      "ImageOrientationPatient": [0.98452706342526, 0.17486316996304, 0.01137247438831, -0.1695265942508, 0.9340338511911, 0.31439067840961],
      "ImagePositionPatient": [-589.11681391227, -794.31374745815, -282.96662623398],
      "ImageType": [
        "ORIGINAL",
        "PRIMARY",
        "M",
        "ND",
        "NORM",
        "MOSAIC"
],
      "ImagedNucleus": "1H",
      "ImagingFrequency": 123.252363,
      "InPlanePhaseEncodingDirection": "COL",
      "MRAcquisitionType": "2D",
      "MagneticFieldStrength": 3.0,
      "Manufacturer": "SIEMENS",
      "ManufacturerModelName": "Prisma",
      "Modality": "MR",
      "NumberOfAverages": 1.0,
      "NumberOfPhaseEncodingSteps": 80,
      "PercentPhaseFieldOfView": 100.0,
      "PercentSampling": 100.0,
      "PerformedProcedureStepStartTime": "091822.854000",
      "PhotometricInterpretation": "MONOCHROME2",
      "PixelBandwidth": 2315.0,
      "PixelRepresentation": 0,
      "PixelSpacing": [3.0, 3.0],
      "ProtocolName": "func-bold_fa-77",
      "RepetitionTime": 2000.0,
      "Rows": 480,
      "SAR": 0.04401186391556,
      "SamplesPerPixel": 1,
      "ScanOptions": "FS",
      "ScanningSequence": "EP",
      "SequenceName": "*epfid2d1_80",
      "SequenceVariant": "SK",
      "SeriesDescription": "func-bold_fa-77",
      "SeriesNumber": 8,
      "SeriesTime": "093902.717000",
      "SliceLocation": -47.336048789241,
      "SliceThickness": 3.5,
      "SmallestImagePixelValue": 0,
      "SoftwareVersions": "syngo MR E11",
      "SpacingBetweenSlices": 3.9899999627797,
      "SpecificCharacterSet": "ISO_IR 100",
      "StudyID": "4",
      "StudyTime": "091822.803000",
      "TransmitCoilName": "Body",
      "VariableFlipAngleFlag": "N",
      "WindowCenterWidthExplanation": "Algo1"
    },
    "slices": {}
  },
  "time": {
    "samples": {
      "AcquisitionNumber": [1, 2, 3, 4, 5, 6, 7, 8, 9, 10, 11, 12, 13, 14, 15, 16, 17, 18, 19, 20, 21, 22, 23, 24, 25, 26, 27, 28, 29, 30, 31, 32, 33, 34, 35, 36, 37, 38, 39, 40, 41, 42, 43, 44, 45, 46, 47, 48, 49, 50, 51, 52, 53, 54, 55, 56, 57, 58, 59, 60, 61, 62, 63, 64, 65, 66, 67, 68, 69, 70, 71, 72, 73, 74, 75, 76, 77, 78, 79, 80, 81, 82, 83, 84, 85, 86, 87, 88, 89, 90, 91, 92, 93, 94, 95, 96, 97, 98, 99, 100, 101, 102, 103, 104, 105, 106, 107, 108, 109, 110, 111, 112, 113, 114, 115, 116, 117, 118, 119, 120, 121, 122, 123, 124, 125, 126, 127, 128, 129, 130, 131, 132, 133, 134, 135, 136, 137, 138, 139, 140, 141, 142, 143, 144, 145, 146, 147, 148, 149, 150, 151, 152, 153, 154, 155, 156, 157, 158, 159, 160, 161, 162, 163, 164, 165, 166, 167, 168, 169, 170, 171, 172, 173, 174, 175, 176, 177, 178, 179, 180, 181, 182, 183, 184, 185, 186, 187, 188, 189, 190, 191, 192, 193, 194, 195, 196, 197, 198, 199, 200],
      "AcquisitionTime": ["093828.522500", "093830.522500", "093832.522500", "093834.522500", "093836.522500", "093838.522500", "093840.522500", "093842.522500", "093844.522500", "093846.522500", "093848.522500", "093850.522500", "093852.522500", "093854.522500", "093856.522500", "093858.522500", "093900.522500", "093902.522500", "093904.522500", "093906.522500", "093908.522500", "093910.522500", "093912.522500", "093914.522500", "093916.522500", "093918.522500", "093920.522500", "093922.522500", "093924.522500", "093926.522500", "093928.522500", "093930.522500", "093932.522500", "093934.522500", "093936.522500", "093938.522500", "093940.522500", "093942.522500", "093944.522500", "093946.522500", "093948.522500", "093950.522500", "093952.522500", "093954.522500", "093956.522500", "093958.522500", "094000.522500", "094002.522500", "094004.522500", "094006.522500", "094008.522500", "094010.522500", "094012.522500", "094014.522500", "094016.522500", "094018.522500", "094020.522500", "094022.522500", "094024.522500", "094026.522500", "094028.522500", "094030.522500", "094032.522500", "094034.522500", "094036.522500", "094038.522500", "094040.522500", "094042.522500", "094044.522500", "094046.522500", "094048.522500", "094050.522500", "094052.522500", "094054.522500", "094056.522500", "094058.522500", "094100.522500", "094102.522500", "094104.522500", "094106.522500", "094108.522500", "094110.522500", "094112.522500", "094114.522500", "094116.522500", "094118.522500", "094120.522500", "094122.522500", "094124.522500", "094126.522500", "094128.522500", "094130.522500", "094132.522500", "094134.522500", "094136.522500", "094138.522500", "094140.522500", "094142.522500", "094144.522500", "094146.522500", "094148.522500", "094150.522500", "094152.522500", "094154.522500", "094156.522500", "094158.522500", "094200.522500", "094202.522500", "094204.522500", "094206.522500", "094208.522500", "094210.522500", "094212.522500", "094214.522500", "094216.522500", "094218.522500", "094220.522500", "094222.522500", "094224.522500", "094226.522500", "094228.522500", "094230.522500", "094232.522500", "094234.522500", "094236.522500", "094238.522500", "094240.522500", "094242.522500", "094244.522500", "094246.522500", "094248.522500", "094250.522500", "094252.522500", "094254.522500", "094256.522500", "094258.522500", "094300.522500", "094302.522500", "094304.522500", "094306.522500", "094308.522500", "094310.522500", "094312.522500", "094314.522500", "094316.522500", "094318.522500", "094320.522500", "094322.522500", "094324.522500", "094326.522500", "094328.522500", "094330.522500", "094332.522500", "094334.522500", "094336.522500", "094338.522500", "094340.522500", "094342.522500", "094344.522500", "094346.522500", "094348.522500", "094350.522500", "094352.522500", "094354.522500", "094356.522500", "094358.522500", "094400.522500", "094402.522500", "094404.522500", "094406.522500", "094408.522500", "094410.522500", "094412.522500", "094414.522500", "094416.522500", "094418.522500", "094420.522500", "094422.522500", "094424.522500", "094426.522500", "094428.522500", "094430.522500", "094432.522500", "094434.522500", "094436.522500", "094438.522500", "094440.522500", "094442.522500", "094444.522500", "094446.522500", "094448.522500", "094450.522500", "094452.522500", "094454.522500", "094456.522500", "094458.522500", "094500.522500", "094502.522500", "094504.522500", "094506.522500"],
      "ContentTime": ["093902.720000", "093902.724000", "093902.726000", "093902.728000", "093902.730000", "093902.733000", "093902.735000", "093902.737000", "093902.740000", "093902.742000", "093902.744000", "093902.746000", "093902.749000", "093902.755000", "093902.758000", "093902.760000", "093902.762000", "093942.716000", "093942.719000", "093942.721000", "093942.723000", "093942.726000", "093942.728000", "093942.730000", "093942.733000", "093942.735000", "093942.737000", "093942.740000", "093942.742000", "093942.744000", "093942.746000", "093942.749000", "093942.751000", "093942.753000", "093942.756000", "093942.758000", "093942.760000", "094022.716000", "094022.719000", "094022.721000", "094022.723000", "094022.726000", "094022.728000", "094022.730000", "094022.733000", "094022.735000", "094022.737000", "094022.739000", "094022.742000", "094022.744000", "094022.746000", "094022.749000", "094022.751000", "094022.753000", "094022.756000", "094022.758000", "094022.760000", "094102.715000", "094102.718000", "094102.720000", "094102.722000", "094102.725000", "094102.727000", "094102.729000", "094102.732000", "094102.734000", "094102.736000", "094102.738000", "094102.741000", "094102.743000", "094102.745000", "094102.748000", "094102.750000", "094102.752000", "094102.754000", "094102.757000", "094102.759000", "094142.715000", "094142.718000", "094142.720000", "094142.722000", "094142.725000", "094142.727000", "094142.729000", "094142.732000", "094142.734000", "094142.736000", "094142.738000", "094142.741000", "094142.743000", "094142.745000", "094142.748000", "094142.750000", "094142.752000", "094142.754000", "094142.757000", "094142.759000", "094222.716000", "094222.719000", "094222.721000", "094222.723000", "094222.726000", "094222.728000", "094222.731000", "094222.733000", "094222.735000", "094222.738000", "094222.740000", "094222.742000", "094222.744000", "094222.747000", "094222.749000", "094222.751000", "094222.754000", "094222.756000", "094222.766000", "094222.768000", "094302.715000", "094302.718000", "094302.720000", "094302.722000", "094302.725000", "094302.727000", "094302.729000", "094302.739000", "094302.742000", "094302.744000", "094302.746000", "094302.748000", "094302.751000", "094302.753000", "094302.755000", "094302.758000", "094302.760000", "094302.762000", "094302.765000", "094302.767000", "094342.716000", "094342.718000", "094342.721000", "094342.723000", "094342.725000", "094342.728000", "094342.730000", "094342.732000", "094342.735000", "094342.737000", "094342.739000", "094342.742000", "094342.744000", "094342.746000", "094342.748000", "094342.751000", "094342.753000", "094342.755000", "094342.758000", "094342.760000", "094422.716000", "094422.719000", "094422.721000", "094422.724000", "094422.726000", "094422.728000", "094422.731000", "094422.733000", "094422.742000", "094422.745000", "094422.747000", "094422.749000", "094422.752000", "094422.754000", "094422.756000", "094422.758000", "094422.761000", "094422.763000", "094422.765000", "094422.768000", "094502.716000", "094502.719000", "094502.721000", "094502.723000", "094502.726000", "094502.728000", "094502.730000", "094502.733000", "094502.735000", "094502.737000", "094502.743000", "094502.745000", "094502.748000", "094502.750000", "094502.753000", "094502.755000", "094502.757000", "094502.760000", "094502.762000", "094502.764000", "094507.911000", "094507.914000", "094507.916000"],
      "InstanceCreationTime": ["093902.720000", "093902.724000", "093902.726000", "093902.728000", "093902.730000", "093902.733000", "093902.735000", "093902.737000", "093902.740000", "093902.742000", "093902.744000", "093902.746000", "093902.749000", "093902.755000", "093902.758000", "093902.760000", "093902.762000", "093942.716000", "093942.719000", "093942.721000", "093942.723000", "093942.726000", "093942.728000", "093942.730000", "093942.733000", "093942.735000", "093942.737000", "093942.740000", "093942.742000", "093942.744000", "093942.746000", "093942.749000", "093942.751000", "093942.753000", "093942.756000", "093942.758000", "093942.760000", "094022.716000", "094022.719000", "094022.721000", "094022.723000", "094022.726000", "094022.728000", "094022.730000", "094022.733000", "094022.735000", "094022.737000", "094022.739000", "094022.742000", "094022.744000", "094022.746000", "094022.749000", "094022.751000", "094022.753000", "094022.756000", "094022.758000", "094022.760000", "094102.715000", "094102.718000", "094102.720000", "094102.722000", "094102.725000", "094102.727000", "094102.729000", "094102.732000", "094102.734000", "094102.736000", "094102.738000", "094102.741000", "094102.743000", "094102.745000", "094102.748000", "094102.750000", "094102.752000", "094102.754000", "094102.757000", "094102.759000", "094142.715000", "094142.718000", "094142.720000", "094142.722000", "094142.725000", "094142.727000", "094142.729000", "094142.732000", "094142.734000", "094142.736000", "094142.738000", "094142.741000", "094142.743000", "094142.745000", "094142.748000", "094142.750000", "094142.752000", "094142.754000", "094142.757000", "094142.759000", "094222.716000", "094222.719000", "094222.721000", "094222.723000", "094222.726000", "094222.728000", "094222.731000", "094222.733000", "094222.735000", "094222.738000", "094222.740000", "094222.742000", "094222.744000", "094222.747000", "094222.749000", "094222.751000", "094222.754000", "094222.756000", "094222.766000", "094222.768000", "094302.715000", "094302.718000", "094302.720000", "094302.722000", "094302.725000", "094302.727000", "094302.729000", "094302.739000", "094302.742000", "094302.744000", "094302.746000", "094302.748000", "094302.751000", "094302.753000", "094302.755000", "094302.758000", "094302.760000", "094302.762000", "094302.765000", "094302.767000", "094342.716000", "094342.718000", "094342.721000", "094342.723000", "094342.725000", "094342.728000", "094342.730000", "094342.732000", "094342.735000", "094342.737000", "094342.739000", "094342.742000", "094342.744000", "094342.746000", "094342.748000", "094342.751000", "094342.753000", "094342.755000", "094342.758000", "094342.760000", "094422.716000", "094422.719000", "094422.721000", "094422.724000", "094422.726000", "094422.728000", "094422.731000", "094422.733000", "094422.742000", "094422.745000", "094422.747000", "094422.749000", "094422.752000", "094422.754000", "094422.756000", "094422.758000", "094422.761000", "094422.763000", "094422.765000", "094422.768000", "094502.716000", "094502.719000", "094502.721000", "094502.723000", "094502.726000", "094502.728000", "094502.730000", "094502.733000", "094502.735000", "094502.737000", "094502.743000", "094502.745000", "094502.748000", "094502.750000", "094502.753000", "094502.755000", "094502.757000", "094502.760000", "094502.762000", "094502.764000", "094507.911000", "094507.914000", "094507.916000"],
      "InstanceNumber": [1, 2, 3, 4, 5, 6, 7, 8, 9, 10, 11, 12, 13, 14, 15, 16, 17, 18, 19, 20, 21, 22, 23, 24, 25, 26, 27, 28, 29, 30, 31, 32, 33, 34, 35, 36, 37, 38, 39, 40, 41, 42, 43, 44, 45, 46, 47, 48, 49, 50, 51, 52, 53, 54, 55, 56, 57, 58, 59, 60, 61, 62, 63, 64, 65, 66, 67, 68, 69, 70, 71, 72, 73, 74, 75, 76, 77, 78, 79, 80, 81, 82, 83, 84, 85, 86, 87, 88, 89, 90, 91, 92, 93, 94, 95, 96, 97, 98, 99, 100, 101, 102, 103, 104, 105, 106, 107, 108, 109, 110, 111, 112, 113, 114, 115, 116, 117, 118, 119, 120, 121, 122, 123, 124, 125, 126, 127, 128, 129, 130, 131, 132, 133, 134, 135, 136, 137, 138, 139, 140, 141, 142, 143, 144, 145, 146, 147, 148, 149, 150, 151, 152, 153, 154, 155, 156, 157, 158, 159, 160, 161, 162, 163, 164, 165, 166, 167, 168, 169, 170, 171, 172, 173, 174, 175, 176, 177, 178, 179, 180, 181, 182, 183, 184, 185, 186, 187, 188, 189, 190, 191, 192, 193, 194, 195, 196, 197, 198, 199, 200],
      "LargestImagePixelValue": [2011, 2012, 2007, 2003, 1999, 2000, 2003, 2012, 2010, 2005, 2008, 2014, 2013, 2012, 2012, 2006, 2005, 2009, 2011, 2007, 2002, 2000, 2003, 2006, 2009, 2010, 2009, 2004, 2002, 2006, 2010, 2013, 2010, 2005, 2005, 2001, 1998, 2010, 2012, 2009, 2013, 2017, 2012, 2008, 2002, 1999, 2005, 2008, 2009, 2009, 2011, 2011, 2006, 2004, 2004, 2008, 2011, 2016, 2016, 2013, 2008, 2009, 2009, 2008, 2010, 2010, 2007, 2008, 2018, 2023, 2015, 2006, 2004, 2008, 2010, 2012, 2015, 2019, 2015, 2010, 2003, 2011, 2013, 2014, 2010, 2011, 2011, 2007, 2007, 2016, 2025, 2024, 2022, 2014, 2006, 2007, 2014, 2024, 2020, 2016, 2010, 2011, 2010, 2008, 2014, 2010, 2010, 2011, 2009, 2009, 2012, 2015, 2015, 2015, 2017, 2016, 2017, 2015, 2014, 2014, 2013, 2009, 2004, 2000, 2003, 2013, 2014, 2005, 1997, 1993, 1995, 2004, 2009, 2009, 2003, 2004, 2010, 2015, 2010, 2011, 2012, 2006, 2005, 2015, 2014, 2009, 2007, 2006, 2007, 2008, 2008, 2015, 2019, 2022, 2012, 2011, 2008, 2009, 2021, 2026, 2020, 2013, 2012, 2019, 2022, 2023, 2023, 2010, 2012, 2013, 2014, 2014, 2017, 2025, 2021, 2013, 2008, 2006, 2008, 2027, 2023, 2011, 2007, 2012, 2013, 2014, 2021, 2021, 2015, 2011, 2016, 2021, 2018, 2013, 2015, 2011, 2009, 2009, 2017, 2015],
      "WindowCenter": [977.0, 977.0, 975.0, 977.0, 977.0, 977.0, 977.0, 977.0, 977.0, 976.0, 977.0, 977.0, 977.0, 977.0, 977.0, 977.0, 977.0, 977.0, 976.0, 977.0, 976.0, 977.0, 977.0, 976.0, 977.0, 977.0, 977.0, 977.0, 977.0, 977.0, 977.0, 976.0, 976.0, 977.0, 977.0, 977.0, 976.0, 977.0, 976.0, 977.0, 977.0, 975.0, 977.0, 976.0, 977.0, 977.0, 977.0, 976.0, 976.0, 977.0, 977.0, 977.0, 977.0, 977.0, 977.0, 977.0, 977.0, 977.0, 975.0, 977.0, 977.0, 977.0, 976.0, 977.0, 977.0, 977.0, 975.0, 976.0, 976.0, 977.0, 977.0, 976.0, 977.0, 977.0, 976.0, 977.0, 977.0, 977.0, 977.0, 977.0, 976.0, 977.0, 977.0, 977.0, 976.0, 977.0, 976.0, 976.0, 977.0, 977.0, 977.0, 976.0, 977.0, 976.0, 976.0, 977.0, 977.0, 975.0, 977.0, 977.0, 977.0, 975.0, 977.0, 977.0, 977.0, 976.0, 976.0, 977.0, 976.0, 977.0, 977.0, 977.0, 977.0, 977.0, 977.0, 977.0, 977.0, 976.0, 977.0, 977.0, 977.0, 976.0, 976.0, 976.0, 976.0, 976.0, 976.0, 976.0, 976.0, 976.0, 976.0, 976.0, 976.0, 976.0, 976.0, 976.0, 976.0, 974.0, 976.0, 975.0, 976.0, 976.0, 976.0, 976.0, 976.0, 976.0, 976.0, 976.0, 975.0, 976.0, 975.0, 976.0, 976.0, 975.0, 976.0, 975.0, 976.0, 976.0, 976.0, 976.0, 976.0, 977.0, 977.0, 975.0, 975.0, 977.0, 974.0, 977.0, 977.0, 977.0, 975.0, 976.0, 977.0, 976.0, 977.0, 977.0, 975.0, 977.0, 977.0, 977.0, 976.0, 977.0, 977.0, 977.0, 976.0, 977.0, 977.0, 977.0, 976.0, 976.0, 977.0, 977.0, 976.0, 977.0, 977.0, 977.0, 977.0, 976.0, 977.0, 974.0],
      "WindowWidth": [2141.0, 2141.0, 2139.0, 2141.0, 2141.0, 2141.0, 2141.0, 2141.0, 2141.0, 2140.0, 2141.0, 2142.0, 2141.0, 2141.0, 2141.0, 2141.0, 2141.0, 2141.0, 2141.0, 2142.0, 2141.0, 2142.0, 2142.0, 2141.0, 2142.0, 2142.0, 2142.0, 2142.0, 2142.0, 2142.0, 2142.0, 2141.0, 2141.0, 2142.0, 2142.0, 2142.0, 2141.0, 2142.0, 2141.0, 2142.0, 2142.0, 2140.0, 2142.0, 2141.0, 2142.0, 2142.0, 2142.0, 2141.0, 2141.0, 2142.0, 2142.0, 2142.0, 2142.0, 2142.0, 2142.0, 2142.0, 2142.0, 2142.0, 2140.0, 2142.0, 2142.0, 2142.0, 2141.0, 2142.0, 2142.0, 2142.0, 2140.0, 2141.0, 2141.0, 2142.0, 2142.0, 2141.0, 2142.0, 2142.0, 2141.0, 2142.0, 2142.0, 2142.0, 2142.0, 2142.0, 2141.0, 2142.0, 2142.0, 2142.0, 2142.0, 2142.0, 2142.0, 2141.0, 2142.0, 2142.0, 2142.0, 2142.0, 2142.0, 2142.0, 2142.0, 2142.0, 2142.0, 2141.0, 2142.0, 2142.0, 2142.0, 2141.0, 2142.0, 2142.0, 2142.0, 2142.0, 2142.0, 2142.0, 2142.0, 2142.0, 2142.0, 2142.0, 2142.0, 2142.0, 2142.0, 2142.0, 2141.0, 2141.0, 2142.0, 2142.0, 2142.0, 2141.0, 2141.0, 2141.0, 2141.0, 2141.0, 2140.0, 2141.0, 2141.0, 2141.0, 2141.0, 2140.0, 2140.0, 2141.0, 2141.0, 2140.0, 2141.0, 2139.0, 2140.0, 2140.0, 2140.0, 2141.0, 2141.0, 2141.0, 2141.0, 2140.0, 2141.0, 2141.0, 2140.0, 2141.0, 2140.0, 2141.0, 2141.0, 2140.0, 2141.0, 2140.0, 2141.0, 2141.0, 2141.0, 2141.0, 2141.0, 2142.0, 2142.0, 2141.0, 2141.0, 2142.0, 2140.0, 2142.0, 2142.0, 2142.0, 2141.0, 2141.0, 2142.0, 2141.0, 2142.0, 2142.0, 2141.0, 2142.0, 2142.0, 2142.0, 2141.0, 2142.0, 2142.0, 2142.0, 2141.0, 2142.0, 2142.0, 2142.0, 2142.0, 2141.0, 2142.0, 2142.0, 2141.0, 2142.0, 2142.0, 2142.0, 2142.0, 2142.0, 2142.0, 2139.0]
    },
    "slices": {}
  }
}