{
  "AcquisitionMatrixPE": 80,
  "AcquisitionNumber": 1,
  "AcquisitionTime": "09:23:20.945000",
  "BandwidthPerPixelPhaseEncode": 48.077,
  "BaseResolution": 80,
  "BodyPartExamined": "BRAIN",
  "CoilCombinationMethod": "Sum of Squares",
  "ConsistencyInfo": "N4_VE11E_LATEST_20181129",
  "ConversionSoftware": "dcm2niix",
  "ConversionSoftwareVersion": "v1.0.20220720",
  "DerivedVendorReportedEchoSpacing": 0.000519999,
  "DeviceSerialNumber": "66112",
  "DwellTime": 2.7e-06,
  "EchoTime": 0.035,
  "EchoTrainLength": 39,
  "EffectiveEchoSpacing": 0.00026,
  "FlipAngle": 90,
  "HeudiconvVersion": "0.13.1",
  "ImageOrientationPatientDICOM": [0.984527, 0.174863, 0.0113725, -0.169527, 0.934034, 0.314391],
  "ImageOrientationText": "Tra>Cor(18.2)>Sag(-2.5)",
  "ImageType": [
    "ORIGINAL",
    "PRIMARY",
    "M",
    "ND",
    "NORM",
    "MOSAIC"
],
  "ImagingFrequency": 123.252,
  "InPlanePhaseEncodingDirectionDICOM": "COL",
  "InstitutionAddress": "Maynard 3,Hanover,NH,US,03755",
  "InstitutionName": "Dartmouth College - PBS",
  "InstitutionalDepartmentName": "Department",
  "MRAcquisitionType": "2D",
  "MagneticFieldStrength": 3,
  "Manufacturer": "Siemens",
  "ManufacturersModelName": "Prisma",
  "MatrixCoilMode": "GRAPPA",
  "Modality": "MR",
  "NonlinearGradientCorrection": false,
  "ParallelReductionFactorInPlane": 2,
  "PartialFourier": 1,
  "PatientPosition": "HFS",
  "PercentPhaseFOV": 100,
  "PercentSampling": 100,
  "PhaseEncodingDirection": "j-",
  "PhaseEncodingSteps": 79,
  "PhaseResolution": 1,
  "PixelBandwidth": 2315,
  "ProcedureStepDescription": "dbic^QA",
  "ProtocolName": "func-bold_task-rest_acq-p2",
  "PulseSequenceDetails": "%SiemensSeq%\\ep2d_bold",
  "ReceiveCoilActiveElements": "HEA;HEP",
  "ReceiveCoilName": "Head_32",
  "ReconMatrixPE": 80,
  "RefLinesPE": 24,
  "RepetitionTime": 2,
  "SAR": 0.0560054,
  "ScanOptions": "FS",
  "ScanningSequence": "EP",
  "SequenceName": "*epfid2d1_80",
  "SequenceVariant": "SK",
  "SeriesDescription": "func-bold_task-rest_acq-p2",
  "SeriesNumber": 5,
  "ShimSetting": [4144, -7702, -7520, 243, -85, -53, -5, 82],
  "SliceThickness": 3.5,
  "SliceTiming": [0.99, 0, 1.055, 0.0675, 1.1225, 0.1325, 1.1875, 0.1975, 1.255, 0.265, 1.32, 0.33, 1.385, 0.3975, 1.4525, 0.4625, 1.5175, 0.5275, 1.585, 0.595, 1.65, 0.66, 1.715, 0.7275, 1.7825, 0.7925, 1.8475, 0.8575, 1.915, 0.925],
  "SoftwareVersions": "syngo MR E11",
  "SpacingBetweenSlices": 3.99,
  "StationName": "AWP66112",
  "TaskName": "rest",
  "TotalReadoutTime": 0.02054,
  "TxRefAmp": 234.633,
  "dcmmeta_affine": [
    [-2.9535810947418213, -0.5085797905921936, -0.1769687682390213, 141.20606994628906],
    [-0.5245895385742188, 2.8021016120910645, 1.242701768875122, -97.97061157226562],
    [0.03411742299795151, -0.943172037601471, 3.787410020828247, -19.890077590942383],
    [0.0, 0.0, 0.0, 1.0]
],
  "dcmmeta_reorient_transform": [
    [0.0, -1.0, 0.0, 79.0],
    [1.0, 0.0, 0.0, 0.0],
    [0.0, 0.0, 1.0, 0.0],
    [0.0, 0.0, 0.0, 1.0]
],
  "dcmmeta_shape": [80, 80, 30, 200],
  "dcmmeta_slice_dim": 2,
  "dcmmeta_version": 0.6,
  "global": {
    "const": {
      "AccessionNumber": "qa",
      "AcquisitionMatrix": [80, 0, 0, 80],
      "AngioFlag": "N",
      "BitsAllocated": 16,
      "BitsStored": 12,
      "BodyPartExamined": "BRAIN",
      "Columns": 480,
      "EchoNumbers": 1,
      "EchoTime": 35.0,
      "EchoTrainLength": 39,
      "FlipAngle": 90.0,
      "HighBit": 11,
      "ImageOrientationPatient": [0.98452706342526, 0.17486316996304, 0.01137247438831, -0.1695265942508, 0.9340338511911, 0.31439067840961],
      "ImagePositionPatient": [-590.02854587066, -788.73362451046, -289.85855967515],
      "ImageType": [
        "ORIGINAL",
        "PRIMARY",
        "M",
        "ND",
        "NORM",
        "MOSAIC"
],
      "ImagedNucleus": "1H",
      "ImagingFrequency": 123.252364,
      "InPlanePhaseEncodingDirection": "COL",
      "MRAcquisitionType": "2D",
      "MagneticFieldStrength": 3.0,
      "Manufacturer": "SIEMENS",
      "ManufacturerModelName": "Prisma",
      "Modality": "MR",
      "NumberOfAverages": 1.0,
      "NumberOfPhaseEncodingSteps": 79,
      "PercentPhaseFieldOfView": 100.0,
      "PercentSampling": 100.0,
      "PerformedProcedureStepStartTime": "091822.854000",
      "PhotometricInterpretation": "MONOCHROME2",
      "PixelBandwidth": 2315.0,
      "PixelRepresentation": 0,
      "PixelSpacing": [3.0, 3.0],
      "ProtocolName": "func-bold_task-rest_acq-p2",
      "RepetitionTime": 2000.0,
      "Rows": 480,
      "SAR": 0.05600542997623,
      "SamplesPerPixel": 1,
      "ScanOptions": "FS",
      "ScanningSequence": "EP",
      "SequenceName": "*epfid2d1_80",
      "SequenceVariant": "SK",
      "SeriesDescription": "func-bold_task-rest_acq-p2",
      "SeriesNumber": 5,
      "SeriesTime": "092402.546000",
      "SliceLocation": -55.656438294233,
      "SliceThickness": 3.5,
      "SmallestImagePixelValue": 0,
      "SoftwareVersions": "syngo MR E11",
      "SpacingBetweenSlices": 3.9899999525375,
      "SpecificCharacterSet": "ISO_IR 100",
      "StudyID": "4",
      "StudyTime": "091822.803000",
      "TransmitCoilName": "Body",
      "VariableFlipAngleFlag": "N",
      "WindowCenterWidthExplanation": "Algo1"
    },
    "slices": {}
  },
  "time": {
    "samples": {
      "AcquisitionNumber": [1, 2, 3, 4, 5, 6, 7, 8, 9, 10, 11, 12, 13, 14, 15, 16, 17, 18, 19, 20, 21, 22, 23, 24, 25, 26, 27, 28, 29, 30, 31, 32, 33, 34, 35, 36, 37, 38, 39, 40, 41, 42, 43, 44, 45, 46, 47, 48, 49, 50, 51, 52, 53, 54, 55, 56, 57, 58, 59, 60, 61, 62, 63, 64, 65, 66, 67, 68, 69, 70, 71, 72, 73, 74, 75, 76, 77, 78, 79, 80, 81, 82, 83, 84, 85, 86, 87, 88, 89, 90, 91, 92, 93, 94, 95, 96, 97, 98, 99, 100, 101, 102, 103, 104, 105, 106, 107, 108, 109, 110, 111, 112, 113, 114, 115, 116, 117, 118, 119, 120, 121, 122, 123, 124, 125, 126, 127, 128, 129, 130, 131, 132, 133, 134, 135, 136, 137, 138, 139, 140, 141, 142, 143, 144, 145, 146, 147, 148, 149, 150, 151, 152, 153, 154, 155, 156, 157, 158, 159, 160, 161, 162, 163, 164, 165, 166, 167, 168, 169, 170, 171, 172, 173, 174, 175, 176, 177, 178, 179, 180, 181, 182, 183, 184, 185, 186, 187, 188, 189, 190, 191, 192, 193, 194, 195, 196, 197, 198, 199, 200],
      "AcquisitionTime": ["092320.945000", "092322.945000", "092324.945000", "092326.945000", "092328.945000", "092330.945000", "092332.945000", "092334.945000", "092336.945000", "092338.945000", "092340.945000", "092342.945000", "092344.945000", "092346.945000", "092348.945000", "092350.945000", "092352.945000", "092354.945000", "092356.945000", "092358.945000", "092400.945000", "092402.945000", "092404.945000", "092406.945000", "092408.945000", "092410.945000", "092412.945000", "092414.945000", "092416.945000", "092418.945000", "092420.945000", "092422.945000", "092424.945000", "092426.945000", "092428.945000", "092430.945000", "092432.945000", "092434.945000", "092436.945000", "092438.945000", "092440.945000", "092442.945000", "092444.945000", "092446.945000", "092448.945000", "092450.945000", "092452.945000", "092454.945000", "092456.945000", "092458.945000", "092500.945000", "092502.945000", "092504.945000", "092506.945000", "092508.945000", "092510.945000", "092512.945000", "092514.945000", "092516.945000", "092518.945000", "092520.945000", "092522.945000", "092524.945000", "092526.945000", "092528.945000", "092530.945000", "092532.945000", "092534.945000", "092536.945000", "092538.945000", "092540.945000", "092542.945000", "092544.945000", "092546.945000", "092548.945000", "092550.945000", "092552.945000", "092554.945000", "092556.945000", "092558.945000", "092600.945000", "092602.945000", "092604.945000", "092606.945000", "092608.945000", "092610.945000", "092612.945000", "092614.945000", "092616.945000", "092618.945000", "092620.945000", "092622.945000", "092624.945000", "092626.945000", "092628.945000", "092630.945000", "092632.945000", "092634.945000", "092636.945000", "092638.945000", "092640.945000", "092642.945000", "092644.945000", "092646.945000", "092648.945000", "092650.945000", "092652.945000", "092654.945000", "092656.945000", "092658.945000", "092700.945000", "092702.945000", "092704.945000", "092706.945000", "092708.945000", "092710.945000", "092712.945000", "092714.945000", "092716.945000", "092718.945000", "092720.945000", "092722.945000", "092724.945000", "092726.945000", "092728.945000", "092730.945000", "092732.945000", "092734.945000", "092736.945000", "092738.945000", "092740.945000", "092742.945000", "092744.945000", "092746.945000", "092748.945000", "092750.945000", "092752.945000", "092754.945000", "092756.945000", "092758.945000", "092800.945000", "092802.945000", "092804.945000", "092806.945000", "092808.945000", "092810.945000", "092812.945000", "092814.945000", "092816.945000", "092818.945000", "092820.945000", "092822.945000", "092824.945000", "092826.945000", "092828.945000", "092830.945000", "092832.945000", "092834.945000", "092836.945000", "092838.945000", "092840.945000", "092842.945000", "092844.945000", "092846.945000", "092848.945000", "092850.945000", "092852.945000", "092854.945000", "092856.945000", "092858.945000", "092900.945000", "092902.945000", "092904.945000", "092906.945000", "092908.945000", "092910.945000", "092912.945000", "092914.945000", "092916.945000", "092918.945000", "092920.945000", "092922.945000", "092924.945000", "092926.945000", "092928.945000", "092930.945000", "092932.945000", "092934.945000", "092936.945000", "092938.945000", "092940.945000", "092942.945000", "092944.945000", "092946.945000", "092948.945000", "092950.945000", "092952.945000", "092954.945000", "092956.945000", "092958.945000"],
      "ContentTime": ["092402.549000", "092402.552000", "092402.555000", "092402.557000", "092402.559000", "092402.562000", "092402.564000", "092402.566000", "092402.569000", "092402.571000", "092402.573000", "092402.576000", "092402.578000", "092402.580000", "092402.583000", "092402.585000", "092402.587000", "092402.589000", "092402.592000", "092402.594000", "092402.596000", "092442.543000", "092442.551000", "092442.554000", "092442.556000", "092442.558000", "092442.561000", "092442.563000", "092442.565000", "092442.568000", "092442.570000", "092442.572000", "092442.575000", "092442.577000", "092442.579000", "092442.581000", "092442.590000", "092442.593000", "092442.595000", "092442.597000", "092442.600000", "092522.543000", "092522.546000", "092522.578000", "092522.580000", "092522.582000", "092522.585000", "092522.587000", "092522.589000", "092522.592000", "092522.594000", "092522.596000", "092522.599000", "092522.601000", "092522.603000", "092522.606000", "092522.611000", "092522.613000", "092522.615000", "092522.618000", "092522.620000", "092602.544000", "092602.547000", "092602.549000", "092602.551000", "092602.554000", "092602.556000", "092602.558000", "092602.561000", "092602.563000", "092602.566000", "092602.568000", "092602.570000", "092602.573000", "092602.575000", "092602.577000", "092602.580000", "092602.582000", "092602.584000", "092602.587000", "092602.589000", "092642.543000", "092642.546000", "092642.548000", "092642.551000", "092642.553000", "092642.556000", "092642.558000", "092642.561000", "092642.563000", "092642.565000", "092642.568000", "092642.570000", "092642.572000", "092642.575000", "092642.577000", "092642.579000", "092642.582000", "092642.584000", "092642.586000", "092642.589000", "092722.543000", "092722.546000", "092722.555000", "092722.557000", "092722.559000", "092722.562000", "092722.564000", "092722.566000", "092722.569000", "092722.571000", "092722.573000", "092722.576000", "092722.578000", "092722.580000", "092722.583000", "092722.585000", "092722.587000", "092722.590000", "092722.592000", "092722.594000", "092802.544000", "092802.547000", "092802.549000", "092802.551000", "092802.554000", "092802.556000", "092802.559000", "092802.561000", "092802.563000", "092802.566000", "092802.568000", "092802.570000", "092802.573000", "092802.575000", "092802.577000", "092802.580000", "092802.582000", "092802.584000", "092802.587000", "092802.589000", "092842.544000", "092842.547000", "092842.549000", "092842.552000", "092842.554000", "092842.556000", "092842.559000", "092842.561000", "092842.563000", "092842.566000", "092842.568000", "092842.570000", "092842.572000", "092842.575000", "092842.577000", "092842.579000", "092842.582000", "092842.584000", "092842.586000", "092842.589000", "092922.543000", "092922.546000", "092922.548000", "092922.551000", "092922.553000", "092922.555000", "092922.558000", "092922.560000", "092922.562000", "092922.565000", "092922.567000", "092922.569000", "092922.572000", "092922.574000", "092922.576000", "092922.579000", "092922.581000", "092922.583000", "092922.586000", "092922.588000", "093000.301000", "093000.311000", "093000.314000", "093000.317000", "093000.327000", "093000.330000", "093000.333000", "093000.336000", "093000.339000", "093000.342000", "093000.344000", "093000.346000", "093000.349000", "093000.351000", "093000.354000", "093000.357000", "093000.360000", "093000.363000", "093000.366000"],
      "InstanceCreationTime": ["092402.549000", "092402.552000", "092402.555000", "092402.557000", "092402.559000", "092402.562000", "092402.564000", "092402.566000", "092402.569000", "092402.571000", "092402.573000", "092402.576000", "092402.578000", "092402.580000", "092402.583000", "092402.585000", "092402.587000", "092402.589000", "092402.592000", "092402.594000", "092402.596000", "092442.543000", "092442.551000", "092442.554000", "092442.556000", "092442.558000", "092442.561000", "092442.563000", "092442.565000", "092442.568000", "092442.570000", "092442.572000", "092442.575000", "092442.577000", "092442.579000", "092442.581000", "092442.590000", "092442.593000", "092442.595000", "092442.597000", "092442.600000", "092522.543000", "092522.546000", "092522.578000", "092522.580000", "092522.582000", "092522.585000", "092522.587000", "092522.589000", "092522.592000", "092522.594000", "092522.596000", "092522.599000", "092522.601000", "092522.603000", "092522.606000", "092522.611000", "092522.613000", "092522.615000", "092522.618000", "092522.620000", "092602.544000", "092602.547000", "092602.549000", "092602.551000", "092602.554000", "092602.556000", "092602.558000", "092602.561000", "092602.563000", "092602.566000", "092602.568000", "092602.570000", "092602.573000", "092602.575000", "092602.577000", "092602.580000", "092602.582000", "092602.584000", "092602.587000", "092602.589000", "092642.543000", "092642.546000", "092642.548000", "092642.551000", "092642.553000", "092642.556000", "092642.558000", "092642.561000", "092642.563000", "092642.565000", "092642.568000", "092642.570000", "092642.572000", "092642.575000", "092642.577000", "092642.579000", "092642.582000", "092642.584000", "092642.586000", "092642.589000", "092722.543000", "092722.546000", "092722.555000", "092722.557000", "092722.559000", "092722.562000", "092722.564000", "092722.566000", "092722.569000", "092722.571000", "092722.573000", "092722.576000", "092722.578000", "092722.580000", "092722.583000", "092722.585000", "092722.587000", "092722.590000", "092722.592000", "092722.594000", "092802.544000", "092802.547000", "092802.549000", "092802.551000", "092802.554000", "092802.556000", "092802.559000", "092802.561000", "092802.563000", "092802.566000", "092802.568000", "092802.570000", "092802.573000", "092802.575000", "092802.577000", "092802.580000", "092802.582000", "092802.584000", "092802.587000", "092802.589000", "092842.544000", "092842.547000", "092842.549000", "092842.552000", "092842.554000", "092842.556000", "092842.559000", "092842.561000", "092842.563000", "092842.566000", "092842.568000", "092842.570000", "092842.572000", "092842.575000", "092842.577000", "092842.579000", "092842.582000", "092842.584000", "092842.586000", "092842.589000", "092922.543000", "092922.546000", "092922.548000", "092922.551000", "092922.553000", "092922.555000", "092922.558000", "092922.560000", "092922.562000", "092922.565000", "092922.567000", "092922.569000", "092922.572000", "092922.574000", "092922.576000", "092922.579000", "092922.581000", "092922.583000", "092922.586000", "092922.588000", "093000.301000", "093000.311000", "093000.314000", "093000.317000", "093000.327000", "093000.330000", "093000.333000", "093000.336000", "093000.339000", "093000.342000", "093000.344000", "093000.346000", "093000.349000", "093000.351000", "093000.354000", "093000.357000", "093000.360000", "093000.363000", "093000.366000"],
      "InstanceNumber": [1, 2, 3, 4, 5, 6, 7, 8, 9, 10, 11, 12, 13, 14, 15, 16, 17, 18, 19, 20, 21, 22, 23, 24, 25, 26, 27, 28, 29, 30, 31, 32, 33, 34, 35, 36, 37, 38, 39, 40, 41, 42, 43, 44, 45, 46, 47, 48, 49, 50, 51, 52, 53, 54, 55, 56, 57, 58, 59, 60, 61, 62, 63, 64, 65, 66, 67, 68, 69, 70, 71, 72, 73, 74, 75, 76, 77, 78, 79, 80, 81, 82, 83, 84, 85, 86, 87, 88, 89, 90, 91, 92, 93, 94, 95, 96, 97, 98, 99, 100, 101, 102, 103, 104, 105, 106, 107, 108, 109, 110, 111, 112, 113, 114, 115, 116, 117, 118, 119, 120, 121, 122, 123, 124, 125, 126, 127, 128, 129, 130, 131, 132, 133, 134, 135, 136, 137, 138, 139, 140, 141, 142, 143, 144, 145, 146, 147, 148, 149, 150, 151, 152, 153, 154, 155, 156, 157, 158, 159, 160, 161, 162, 163, 164, 165, 166, 167, 168, 169, 170, 171, 172, 173, 174, 175, 176, 177, 178, 179, 180, 181, 182, 183, 184, 185, 186, 187, 188, 189, 190, 191, 192, 193, 194, 195, 196, 197, 198, 199, 200],
      "LargestImagePixelValue": [2036, 2043, 2036, 2045, 2045, 2045, 2047, 2049, 2045, 2036, 2045, 2035, 2035, 2048, 2036, 2039, 2049, 2044, 2047, 2049, 2043, 2034, 2039, 2040, 2040, 2037, 2038, 2040, 2040, 2038, 2039, 2035, 2035, 2042, 2032, 2034, 2036, 2040, 2041, 2036, 2037, 2044, 2039, 2041, 2038, 2040, 2043, 2043, 2043, 2037, 2033, 2036, 2027, 2032, 2033, 2036, 2027, 2039, 2035, 2040, 2043, 2035, 2039, 2048, 2045, 2045, 2039, 2048, 2040, 2038, 2043, 2045, 2045, 2043, 2041, 2043, 2046, 2045, 2041, 2046, 2035, 2042, 2037, 2036, 2034, 2025, 2036, 2034, 2033, 2027, 2026, 2031, 2031, 2034, 2035, 2028, 2031, 2024, 2036, 2031, 2032, 2035, 2028, 2036, 2029, 2038, 2029, 2032, 2033, 2030, 2025, 2026, 2027, 2034, 2026, 2031, 2025, 2032, 2030, 2031, 2039, 2032, 2021, 2038, 2033, 2033, 2024, 2038, 2030, 2024, 2028, 2025, 2030, 2032, 2023, 2035, 2040, 2033, 2035, 2041, 2040, 2040, 2041, 2043, 2048, 2039, 2043, 2040, 2044, 2039, 2049, 2045, 2040, 2044, 2046, 2039, 2047, 2052, 2055, 2047, 2048, 2054, 2056, 2057, 2055, 2057, 2055, 2055, 2055, 2052, 2050, 2050, 2053, 2050, 2052, 2052, 2054, 2055, 2042, 2059, 2043, 2050, 2049, 2051, 2046, 2043, 2052, 2055, 2049, 2042, 2047, 2048, 2050, 2049, 2051, 2052, 2048, 2051, 2050, 2054],
      "WindowCenter": [987.0, 987.0, 987.0, 988.0, 987.0, 987.0, 987.0, 988.0, 987.0, 987.0, 987.0, 987.0, 987.0, 988.0, 987.0, 987.0, 987.0, 987.0, 987.0, 987.0, 987.0, 987.0, 987.0, 987.0, 987.0, 987.0, 986.0, 987.0, 987.0, 987.0, 987.0, 987.0, 987.0, 987.0, 986.0, 986.0, 986.0, 986.0, 987.0, 987.0, 986.0, 986.0, 987.0, 986.0, 986.0, 986.0, 986.0, 986.0, 986.0, 986.0, 986.0, 986.0, 986.0, 986.0, 986.0, 986.0, 986.0, 986.0, 986.0, 986.0, 986.0, 986.0, 986.0, 986.0, 986.0, 986.0, 986.0, 986.0, 986.0, 986.0, 986.0, 986.0, 986.0, 986.0, 986.0, 986.0, 986.0, 986.0, 986.0, 986.0, 986.0, 986.0, 986.0, 986.0, 986.0, 986.0, 986.0, 986.0, 986.0, 986.0, 987.0, 986.0, 986.0, 987.0, 986.0, 986.0, 986.0, 986.0, 986.0, 986.0, 987.0, 986.0, 986.0, 987.0, 986.0, 986.0, 986.0, 986.0, 986.0, 986.0, 986.0, 986.0, 986.0, 986.0, 986.0, 986.0, 986.0, 987.0, 986.0, 987.0, 986.0, 986.0, 986.0, 986.0, 986.0, 986.0, 986.0, 986.0, 986.0, 986.0, 986.0, 987.0, 986.0, 987.0, 986.0, 986.0, 986.0, 986.0, 986.0, 986.0, 987.0, 986.0, 986.0, 986.0, 986.0, 986.0, 986.0, 986.0, 986.0, 986.0, 986.0, 986.0, 986.0, 986.0, 986.0, 986.0, 986.0, 986.0, 986.0, 986.0, 986.0, 986.0, 986.0, 987.0, 986.0, 986.0, 986.0, 986.0, 986.0, 986.0, 986.0, 986.0, 986.0, 986.0, 986.0, 986.0, 986.0, 986.0, 986.0, 986.0, 986.0, 986.0, 986.0, 986.0, 986.0, 986.0, 986.0, 986.0, 986.0, 986.0, 987.0, 986.0, 986.0, 987.0, 986.0, 986.0, 987.0, 986.0, 986.0, 986.0],
      "WindowWidth": [2159.0, 2159.0, 2159.0, 2160.0, 2159.0, 2159.0, 2159.0, 2159.0, 2159.0, 2159.0, 2159.0, 2159.0, 2159.0, 2159.0, 2159.0, 2159.0, 2158.0, 2159.0, 2158.0, 2159.0, 2158.0, 2158.0, 2159.0, 2158.0, 2158.0, 2158.0, 2158.0, 2158.0, 2158.0, 2159.0, 2158.0, 2158.0, 2158.0, 2158.0, 2158.0, 2158.0, 2158.0, 2158.0, 2158.0, 2159.0, 2158.0, 2158.0, 2158.0, 2158.0, 2158.0, 2158.0, 2158.0, 2158.0, 2158.0, 2158.0, 2158.0, 2158.0, 2158.0, 2158.0, 2158.0, 2158.0, 2158.0, 2158.0, 2157.0, 2158.0, 2158.0, 2157.0, 2158.0, 2157.0, 2157.0, 2157.0, 2157.0, 2158.0, 2157.0, 2157.0, 2157.0, 2157.0, 2157.0, 2157.0, 2157.0, 2157.0, 2157.0, 2157.0, 2157.0, 2157.0, 2157.0, 2157.0, 2157.0, 2157.0, 2157.0, 2157.0, 2157.0, 2157.0, 2157.0, 2157.0, 2158.0, 2157.0, 2157.0, 2158.0, 2157.0, 2157.0, 2157.0, 2157.0, 2157.0, 2157.0, 2157.0, 2157.0, 2157.0, 2157.0, 2157.0, 2157.0, 2157.0, 2157.0, 2157.0, 2157.0, 2157.0, 2157.0, 2156.0, 2157.0, 2157.0, 2157.0, 2157.0, 2157.0, 2157.0, 2157.0, 2157.0, 2157.0, 2156.0, 2156.0, 2157.0, 2157.0, 2157.0, 2157.0, 2157.0, 2156.0, 2157.0, 2157.0, 2157.0, 2157.0, 2157.0, 2157.0, 2157.0, 2157.0, 2157.0, 2157.0, 2157.0, 2156.0, 2157.0, 2157.0, 2157.0, 2157.0, 2157.0, 2157.0, 2157.0, 2157.0, 2157.0, 2157.0, 2157.0, 2156.0, 2157.0, 2157.0, 2157.0, 2156.0, 2157.0, 2157.0, 2157.0, 2157.0, 2157.0, 2157.0, 2157.0, 2156.0, 2156.0, 2156.0, 2157.0, 2157.0, 2156.0, 2156.0, 2156.0, 2156.0, 2156.0, 2157.0, 2156.0, 2156.0, 2156.0, 2157.0, 2156.0, 2156.0, 2156.0, 2156.0, 2156.0, 2156.0, 2156.0, 2157.0, 2156.0, 2156.0, 2157.0, 2156.0, 2156.0, 2157.0, 2156.0, 2156.0, 2157.0, 2156.0, 2156.0, 2156.0]
    },
    "slices": {}
  }
}