{
  "AcquisitionMatrixPE": 80,
  "AcquisitionNumber": 1,
  "AcquisitionTime": "08:50:59.777500",
  "BandwidthPerPixelPhaseEncode": 48.077,
  "BaseResolution": 80,
  "BodyPartExamined": "BRAIN",
  "CoilCombinationMethod": "Sum of Squares",
  "ConsistencyInfo": "N4_VE11E_LATEST_20181129",
  "ConversionSoftware": "dcm2niix",
  "ConversionSoftwareVersion": "v1.0.20220720",
  "DerivedVendorReportedEchoSpacing": 0.000519999,
  "DeviceSerialNumber": "66112",
  "DwellTime": 2.7e-06,
  "EchoTime": 0.035,
  "EchoTrainLength": 39,
  "EffectiveEchoSpacing": 0.00026,
  "FlipAngle": 90,
  "HeudiconvVersion": "0.13.1",
  "ImageOrientationPatientDICOM": [0.990526, -0.137318, 0.000961565, 0.131813, 0.952729, 0.273739],
  "ImageOrientationText": "Tra>Cor(15.7)>Sag(2.2)",
  "ImageType": [
    "ORIGINAL",
    "PRIMARY",
    "M",
    "ND",
    "NORM",
    "MOSAIC"
],
  "ImagingFrequency": 123.259,
  "InPlanePhaseEncodingDirectionDICOM": "COL",
  "InstitutionAddress": "Maynard 3,Hanover,NH,US,03755",
  "InstitutionName": "Dartmouth College - PBS",
  "InstitutionalDepartmentName": "Department",
  "MRAcquisitionType": "2D",
  "MagneticFieldStrength": 3,
  "Manufacturer": "Siemens",
  "ManufacturersModelName": "Prisma",
  "MatrixCoilMode": "GRAPPA",
  "Modality": "MR",
  "NonlinearGradientCorrection": false,
  "ParallelReductionFactorInPlane": 2,
  "PartialFourier": 1,
  "PatientPosition": "HFS",
  "PercentPhaseFOV": 100,
  "PercentSampling": 100,
  "PhaseEncodingDirection": "j-",
  "PhaseEncodingSteps": 79,
  "PhaseResolution": 1,
  "PixelBandwidth": 2315,
  "ProcedureStepDescription": "dbic^QA",
  "ProtocolName": "func-bold_task-rest_acq-p2",
  "PulseSequenceDetails": "%SiemensSeq%\\ep2d_bold",
  "ReceiveCoilActiveElements": "HEA;HEP",
  "ReceiveCoilName": "Head_32",
  "ReconMatrixPE": 80,
  "RefLinesPE": 24,
  "RepetitionTime": 2,
  "SAR": 0.0718092,
  "ScanOptions": "FS",
  "ScanningSequence": "EP",
  "SequenceName": "*epfid2d1_80",
  "SequenceVariant": "SK",
  "SeriesDescription": "func-bold_task-rest_acq-p2",
  "SeriesNumber": 9,
  "ShimSetting": [4220, -7758, -7501, -30, -162, -11, -22, 69],
  "SliceThickness": 3.5,
  "SliceTiming": [0.99, 0, 1.055, 0.065, 1.12, 0.13, 1.1875, 0.1975, 1.2525, 0.2625, 1.32, 0.33, 1.385, 0.395, 1.45, 0.46, 1.5175, 0.5275, 1.5825, 0.5925, 1.65, 0.66, 1.715, 0.725, 1.78, 0.79, 1.8475, 0.8575, 1.9125, 0.9225],
  "SoftwareVersions": "syngo MR E11",
  "SpacingBetweenSlices": 3.99,
  "StationName": "AWP66112",
  "TaskName": "rest",
  "TotalReadoutTime": 0.02054,
  "TxRefAmp": 227.55,
  "dcmmeta_affine": [
    [-2.9715795516967773, 0.39543771743774414, 0.1536368876695633, 96.8882064819336],
    [0.41195476055145264, 2.858186721801758, 1.0813661813735962, -144.14218139648438],
    [0.002884694840759039, -0.8212172985076904, 3.8375959396362305, -35.61445617675781],
    [0.0, 0.0, 0.0, 1.0]
],
  "dcmmeta_reorient_transform": [
    [0.0, -1.0, 0.0, 79.0],
    [1.0, 0.0, 0.0, 0.0],
    [0.0, 0.0, 1.0, 0.0],
    [0.0, 0.0, 0.0, 1.0]
],
  "dcmmeta_shape": [80, 80, 30, 200],
  "dcmmeta_slice_dim": 2,
  "dcmmeta_version": 0.6,
  "global": {
    "const": {
      "AccessionNumber": "qa",
      "AcquisitionMatrix": [80, 0, 0, 80],
      "AngioFlag": "N",
      "BitsAllocated": 16,
      "BitsStored": 12,
      "BodyPartExamined": "BRAIN",
      "Columns": 480,
      "EchoNumbers": 1,
      "EchoTime": 35.0,
      "EchoTrainLength": 39,
      "FlipAngle": 90.0,
      "HighBit": 11,
      "ImageOrientationPatient": [0.99052651306179, -0.1373182519351, 0.00096156494083, 0.13181257308982, 0.95272889427654, 0.2737391086163],
      "ImagePositionPatient": [-801.53123694646, -570.90095843003, -265.3110276247],
      "ImageType": [
        "ORIGINAL",
        "PRIMARY",
        "M",
        "ND",
        "NORM",
        "MOSAIC"
],
      "ImagedNucleus": "1H",
      "ImagingFrequency": 123.25918,
      "InPlanePhaseEncodingDirection": "COL",
      "MRAcquisitionType": "2D",
      "MagneticFieldStrength": 3.0,
      "Manufacturer": "SIEMENS",
      "ManufacturerModelName": "Prisma",
      "Modality": "MR",
      "NumberOfAverages": 1.0,
      "NumberOfPhaseEncodingSteps": 79,
      "PercentPhaseFieldOfView": 100.0,
      "PercentSampling": 100.0,
      "PerformedProcedureStepStartTime": "083942.675000",
      "PhotometricInterpretation": "MONOCHROME2",
      "PixelBandwidth": 2315.0,
      "PixelRepresentation": 0,
      "PixelSpacing": [3.0, 3.0],
      "ProtocolName": "func-bold_task-rest_acq-p2",
      "RepetitionTime": 2000.0,
      "Rows": 480,
      "SAR": 0.0718091743657,
      "SamplesPerPixel": 1,
      "ScanOptions": "FS",
      "ScanningSequence": "EP",
      "SequenceName": "*epfid2d1_80",
      "SequenceVariant": "SK",
      "SeriesDescription": "func-bold_task-rest_acq-p2",
      "SeriesNumber": 9,
      "SeriesTime": "085157.678000",
      "SliceLocation": -69.588662079628,
      "SliceThickness": 3.5,
      "SmallestImagePixelValue": 0,
      "SoftwareVersions": "syngo MR E11",
      "SpacingBetweenSlices": 3.9899999927187,
      "SpecificCharacterSet": "ISO_IR 100",
      "StudyID": "39",
      "StudyTime": "083942.404000",
      "TransmitCoilName": "Body",
      "VariableFlipAngleFlag": "N",
      "WindowCenterWidthExplanation": "Algo1"
    },
    "slices": {}
  },
  "time": {
    "samples": {
      "AcquisitionNumber": [1, 2, 3, 4, 5, 6, 7, 8, 9, 10, 11, 12, 13, 14, 15, 16, 17, 18, 19, 20, 21, 22, 23, 24, 25, 26, 27, 28, 29, 30, 31, 32, 33, 34, 35, 36, 37, 38, 39, 40, 41, 42, 43, 44, 45, 46, 47, 48, 49, 50, 51, 52, 53, 54, 55, 56, 57, 58, 59, 60, 61, 62, 63, 64, 65, 66, 67, 68, 69, 70, 71, 72, 73, 74, 75, 76, 77, 78, 79, 80, 81, 82, 83, 84, 85, 86, 87, 88, 89, 90, 91, 92, 93, 94, 95, 96, 97, 98, 99, 100, 101, 102, 103, 104, 105, 106, 107, 108, 109, 110, 111, 112, 113, 114, 115, 116, 117, 118, 119, 120, 121, 122, 123, 124, 125, 126, 127, 128, 129, 130, 131, 132, 133, 134, 135, 136, 137, 138, 139, 140, 141, 142, 143, 144, 145, 146, 147, 148, 149, 150, 151, 152, 153, 154, 155, 156, 157, 158, 159, 160, 161, 162, 163, 164, 165, 166, 167, 168, 169, 170, 171, 172, 173, 174, 175, 176, 177, 178, 179, 180, 181, 182, 183, 184, 185, 186, 187, 188, 189, 190, 191, 192, 193, 194, 195, 196, 197, 198, 199, 200],
      "AcquisitionTime": ["085059.777500", "085101.777500", "085103.777500", "085105.777500", "085107.777500", "085109.777500", "085111.777500", "085113.777500", "085115.777500", "085117.777500", "085119.777500", "085121.777500", "085123.777500", "085125.777500", "085127.777500", "085129.777500", "085131.777500", "085133.777500", "085135.777500", "085137.777500", "085139.777500", "085141.777500", "085143.777500", "085145.777500", "085147.777500", "085149.777500", "085151.777500", "085153.777500", "085155.777500", "085157.777500", "085159.777500", "085201.777500", "085203.777500", "085205.777500", "085207.777500", "085209.777500", "085211.777500", "085213.777500", "085215.777500", "085217.777500", "085219.777500", "085221.777500", "085223.777500", "085225.777500", "085227.777500", "085229.777500", "085231.777500", "085233.777500", "085235.777500", "085237.777500", "085239.777500", "085241.777500", "085243.777500", "085245.777500", "085247.777500", "085249.777500", "085251.777500", "085253.777500", "085255.777500", "085257.777500", "085259.777500", "085301.777500", "085303.777500", "085305.777500", "085307.777500", "085309.777500", "085311.777500", "085313.777500", "085315.777500", "085317.777500", "085319.777500", "085321.777500", "085323.777500", "085325.777500", "085327.777500", "085329.777500", "085331.777500", "085333.777500", "085335.777500", "085337.777500", "085339.777500", "085341.777500", "085343.777500", "085345.777500", "085347.777500", "085349.777500", "085351.777500", "085353.777500", "085355.777500", "085357.777500", "085359.777500", "085401.777500", "085403.777500", "085405.777500", "085407.777500", "085409.777500", "085411.777500", "085413.777500", "085415.777500", "085417.777500", "085419.777500", "085421.777500", "085423.777500", "085425.777500", "085427.777500", "085429.777500", "085431.777500", "085433.777500", "085435.777500", "085437.777500", "085439.777500", "085441.777500", "085443.777500", "085445.777500", "085447.777500", "085449.777500", "085451.777500", "085453.777500", "085455.777500", "085457.777500", "085459.777500", "085501.777500", "085503.777500", "085505.777500", "085507.777500", "085509.777500", "085511.777500", "085513.777500", "085515.777500", "085517.777500", "085519.777500", "085521.777500", "085523.777500", "085525.777500", "085527.777500", "085529.777500", "085531.777500", "085533.777500", "085535.777500", "085537.777500", "085539.777500", "085541.777500", "085543.777500", "085545.777500", "085547.777500", "085549.777500", "085551.777500", "085553.777500", "085555.777500", "085557.777500", "085559.777500", "085601.777500", "085603.777500", "085605.777500", "085607.777500", "085609.777500", "085611.777500", "085613.777500", "085615.777500", "085617.777500", "085619.777500", "085621.777500", "085623.777500", "085625.777500", "085627.777500", "085629.777500", "085631.777500", "085633.777500", "085635.777500", "085637.777500", "085639.777500", "085641.777500", "085643.777500", "085645.777500", "085647.777500", "085649.777500", "085651.777500", "085653.777500", "085655.777500", "085657.777500", "085659.777500", "085701.777500", "085703.777500", "085705.777500", "085707.777500", "085709.777500", "085711.777500", "085713.777500", "085715.777500", "085717.777500", "085719.777500", "085721.777500", "085723.777500", "085725.777500", "085727.777500", "085729.777500", "085731.777500", "085733.777500", "085735.777500", "085737.777500"],
      "ContentTime": ["085157.682000", "085157.685000", "085157.688000", "085157.698000", "085157.700000", "085157.711000", "085157.713000", "085157.715000", "085157.718000", "085157.727000", "085157.729000", "085157.732000", "085157.734000", "085157.737000", "085157.739000", "085157.741000", "085157.743000", "085157.746000", "085157.748000", "085157.756000", "085157.759000", "085157.761000", "085157.763000", "085157.766000", "085157.768000", "085157.770000", "085157.782000", "085157.784000", "085157.787000", "085217.676000", "085217.679000", "085217.681000", "085217.683000", "085217.685000", "085217.688000", "085217.690000", "085217.693000", "085217.695000", "085217.697000", "085257.676000", "085257.679000", "085257.681000", "085257.683000", "085257.686000", "085257.688000", "085257.700000", "085257.703000", "085257.705000", "085257.707000", "085257.710000", "085257.712000", "085257.714000", "085257.717000", "085257.719000", "085257.721000", "085257.723000", "085257.726000", "085257.728000", "085257.730000", "085337.675000", "085337.678000", "085337.680000", "085337.682000", "085337.685000", "085337.687000", "085337.689000", "085337.692000", "085337.694000", "085337.702000", "085337.704000", "085337.707000", "085337.709000", "085337.711000", "085337.714000", "085337.716000", "085337.719000", "085337.721000", "085337.723000", "085337.725000", "085417.676000", "085417.687000", "085417.690000", "085417.692000", "085417.694000", "085417.697000", "085417.699000", "085417.701000", "085417.704000", "085417.706000", "085417.708000", "085417.711000", "085417.713000", "085417.715000", "085417.718000", "085417.720000", "085417.722000", "085417.725000", "085417.727000", "085417.729000", "085457.676000", "085457.679000", "085457.681000", "085457.690000", "085457.693000", "085457.695000", "085457.697000", "085457.700000", "085457.702000", "085457.704000", "085457.707000", "085457.709000", "085457.711000", "085457.714000", "085457.716000", "085457.726000", "085457.728000", "085457.731000", "085457.733000", "085457.735000", "085537.676000", "085537.678000", "085537.681000", "085537.683000", "085537.685000", "085537.688000", "085537.690000", "085537.693000", "085537.695000", "085537.697000", "085537.700000", "085537.702000", "085537.704000", "085537.707000", "085537.709000", "085537.711000", "085537.713000", "085537.716000", "085537.718000", "085537.721000", "085617.675000", "085617.678000", "085617.680000", "085617.682000", "085617.685000", "085617.687000", "085617.689000", "085617.692000", "085617.694000", "085617.696000", "085617.699000", "085617.701000", "085617.709000", "085617.712000", "085617.714000", "085617.716000", "085617.719000", "085617.721000", "085617.730000", "085617.732000", "085657.676000", "085657.679000", "085657.681000", "085657.683000", "085657.686000", "085657.688000", "085657.711000", "085657.714000", "085657.716000", "085657.718000", "085657.721000", "085657.737000", "085657.739000", "085657.742000", "085657.744000", "085657.746000", "085657.749000", "085657.751000", "085657.753000", "085657.755000", "085737.676000", "085737.679000", "085737.681000", "085737.684000", "085737.686000", "085737.688000", "085737.691000", "085737.693000", "085737.695000", "085737.703000", "085737.705000", "085737.708000", "085737.710000", "085737.712000", "085737.715000", "085737.717000", "085737.720000", "085737.722000", "085737.724000", "085737.726000", "085739.236000"],
      "InstanceCreationTime": ["085157.682000", "085157.685000", "085157.688000", "085157.698000", "085157.700000", "085157.711000", "085157.713000", "085157.715000", "085157.718000", "085157.727000", "085157.729000", "085157.732000", "085157.734000", "085157.737000", "085157.739000", "085157.741000", "085157.743000", "085157.746000", "085157.748000", "085157.756000", "085157.759000", "085157.761000", "085157.763000", "085157.766000", "085157.768000", "085157.770000", "085157.782000", "085157.784000", "085157.787000", "085217.676000", "085217.679000", "085217.681000", "085217.683000", "085217.685000", "085217.688000", "085217.690000", "085217.693000", "085217.695000", "085217.697000", "085257.676000", "085257.679000", "085257.681000", "085257.683000", "085257.686000", "085257.688000", "085257.700000", "085257.703000", "085257.705000", "085257.707000", "085257.710000", "085257.712000", "085257.714000", "085257.717000", "085257.719000", "085257.721000", "085257.723000", "085257.726000", "085257.728000", "085257.730000", "085337.675000", "085337.678000", "085337.680000", "085337.682000", "085337.685000", "085337.687000", "085337.689000", "085337.692000", "085337.694000", "085337.702000", "085337.704000", "085337.707000", "085337.709000", "085337.711000", "085337.714000", "085337.716000", "085337.719000", "085337.721000", "085337.723000", "085337.725000", "085417.676000", "085417.687000", "085417.690000", "085417.692000", "085417.694000", "085417.697000", "085417.699000", "085417.701000", "085417.704000", "085417.706000", "085417.708000", "085417.711000", "085417.713000", "085417.715000", "085417.718000", "085417.720000", "085417.722000", "085417.725000", "085417.727000", "085417.729000", "085457.676000", "085457.679000", "085457.681000", "085457.690000", "085457.693000", "085457.695000", "085457.697000", "085457.700000", "085457.702000", "085457.704000", "085457.707000", "085457.709000", "085457.711000", "085457.714000", "085457.716000", "085457.726000", "085457.728000", "085457.731000", "085457.733000", "085457.735000", "085537.676000", "085537.678000", "085537.681000", "085537.683000", "085537.685000", "085537.688000", "085537.690000", "085537.693000", "085537.695000", "085537.697000", "085537.700000", "085537.702000", "085537.704000", "085537.707000", "085537.709000", "085537.711000", "085537.713000", "085537.716000", "085537.718000", "085537.721000", "085617.675000", "085617.678000", "085617.680000", "085617.682000", "085617.685000", "085617.687000", "085617.689000", "085617.692000", "085617.694000", "085617.696000", "085617.699000", "085617.701000", "085617.709000", "085617.712000", "085617.714000", "085617.716000", "085617.719000", "085617.721000", "085617.730000", "085617.732000", "085657.676000", "085657.679000", "085657.681000", "085657.683000", "085657.686000", "085657.688000", "085657.711000", "085657.714000", "085657.716000", "085657.718000", "085657.721000", "085657.737000", "085657.739000", "085657.742000", "085657.744000", "085657.746000", "085657.749000", "085657.751000", "085657.753000", "085657.755000", "085737.676000", "085737.679000", "085737.681000", "085737.684000", "085737.686000", "085737.688000", "085737.691000", "085737.693000", "085737.695000", "085737.703000", "085737.705000", "085737.708000", "085737.710000", "085737.712000", "085737.715000", "085737.717000", "085737.720000", "085737.722000", "085737.724000", "085737.726000", "085739.236000"],
      "InstanceNumber": [1, 2, 3, 4, 5, 6, 7, 8, 9, 10, 11, 12, 13, 14, 15, 16, 17, 18, 19, 20, 21, 22, 23, 24, 25, 26, 27, 28, 29, 30, 31, 32, 33, 34, 35, 36, 37, 38, 39, 40, 41, 42, 43, 44, 45, 46, 47, 48, 49, 50, 51, 52, 53, 54, 55, 56, 57, 58, 59, 60, 61, 62, 63, 64, 65, 66, 67, 68, 69, 70, 71, 72, 73, 74, 75, 76, 77, 78, 79, 80, 81, 82, 83, 84, 85, 86, 87, 88, 89, 90, 91, 92, 93, 94, 95, 96, 97, 98, 99, 100, 101, 102, 103, 104, 105, 106, 107, 108, 109, 110, 111, 112, 113, 114, 115, 116, 117, 118, 119, 120, 121, 122, 123, 124, 125, 126, 127, 128, 129, 130, 131, 132, 133, 134, 135, 136, 137, 138, 139, 140, 141, 142, 143, 144, 145, 146, 147, 148, 149, 150, 151, 152, 153, 154, 155, 156, 157, 158, 159, 160, 161, 162, 163, 164, 165, 166, 167, 168, 169, 170, 171, 172, 173, 174, 175, 176, 177, 178, 179, 180, 181, 182, 183, 184, 185, 186, 187, 188, 189, 190, 191, 192, 193, 194, 195, 196, 197, 198, 199, 200],
      "LargestImagePixelValue": [2137, 2133, 2133, 2132, 2133, 2128, 2139, 2130, 2135, 2125, 2130, 2136, 2128, 2133, 2136, 2139, 2134, 2135, 2137, 2134, 2131, 2133, 2137, 2134, 2140, 2132, 2137, 2136, 2135, 2139, 2136, 2132, 2131, 2131, 2136, 2132, 2138, 2133, 2132, 2134, 2139, 2135, 2134, 2134, 2137, 2134, 2135, 2138, 2141, 2139, 2127, 2138, 2131, 2135, 2136, 2139, 2138, 2140, 2141, 2130, 2141, 2128, 2139, 2128, 2136, 2134, 2136, 2137, 2136, 2137, 2133, 2138, 2127, 2136, 2138, 2137, 2129, 2134, 2136, 2137, 2130, 2133, 2134, 2132, 2135, 2138, 2139, 2134, 2130, 2141, 2133, 2135, 2135, 2140, 2136, 2135, 2134, 2139, 2132, 2131, 2138, 2139, 2137, 2143, 2135, 2132, 2135, 2135, 2148, 2136, 2135, 2127, 2138, 2131, 2143, 2129, 2137, 2138, 2134, 2140, 2137, 2132, 2132, 2135, 2137, 2135, 2139, 2132, 2141, 2130, 2134, 2132, 2134, 2136, 2130, 2135, 2135, 2129, 2140, 2130, 2135, 2144, 2136, 2131, 2136, 2138, 2136, 2139, 2133, 2135, 2129, 2137, 2135, 2137, 2132, 2140, 2141, 2129, 2129, 2137, 2135, 2130, 2138, 2131, 2136, 2137, 2140, 2138, 2135, 2140, 2132, 2134, 2140, 2138, 2130, 2139, 2135, 2135, 2138, 2133, 2125, 2139, 2132, 2133, 2142, 2137, 2135, 2128, 2133, 2136, 2139, 2132, 2128, 2136, 2129, 2130, 2138, 2137, 2127, 2138],
      "WindowCenter": [1010.0, 1009.0, 1009.0, 1009.0, 1009.0, 1009.0, 1009.0, 1009.0, 1009.0, 1009.0, 1009.0, 1009.0, 1009.0, 1009.0, 1009.0, 1009.0, 1009.0, 1009.0, 1009.0, 1009.0, 1009.0, 1009.0, 1009.0, 1009.0, 1009.0, 1009.0, 1009.0, 1009.0, 1009.0, 1009.0, 1009.0, 1009.0, 1009.0, 1009.0, 1009.0, 1009.0, 1009.0, 1009.0, 1009.0, 1009.0, 1009.0, 1009.0, 1009.0, 1009.0, 1009.0, 1009.0, 1009.0, 1009.0, 1009.0, 1009.0, 1009.0, 1009.0, 1009.0, 1009.0, 1009.0, 1009.0, 1009.0, 1009.0, 1009.0, 1009.0, 1009.0, 1009.0, 1009.0, 1009.0, 1009.0, 1009.0, 1009.0, 1009.0, 1009.0, 1009.0, 1009.0, 1009.0, 1009.0, 1009.0, 1009.0, 1009.0, 1009.0, 1009.0, 1009.0, 1009.0, 1009.0, 1009.0, 1009.0, 1009.0, 1009.0, 1009.0, 1009.0, 1008.0, 1009.0, 1009.0, 1009.0, 1009.0, 1009.0, 1009.0, 1009.0, 1009.0, 1009.0, 1009.0, 1008.0, 1009.0, 1009.0, 1009.0, 1009.0, 1009.0, 1009.0, 1009.0, 1009.0, 1008.0, 1008.0, 1008.0, 1008.0, 1008.0, 1008.0, 1008.0, 1008.0, 1008.0, 1009.0, 1008.0, 1008.0, 1008.0, 1008.0, 1008.0, 1008.0, 1008.0, 1008.0, 1008.0, 1008.0, 1008.0, 1008.0, 1008.0, 1008.0, 1008.0, 1008.0, 1008.0, 1008.0, 1008.0, 1008.0, 1008.0, 1008.0, 1008.0, 1008.0, 1008.0, 1008.0, 1008.0, 1008.0, 1008.0, 1008.0, 1008.0, 1008.0, 1008.0, 1008.0, 1008.0, 1008.0, 1008.0, 1008.0, 1008.0, 1008.0, 1008.0, 1008.0, 1008.0, 1008.0, 1008.0, 1008.0, 1008.0, 1008.0, 1008.0, 1008.0, 1008.0, 1008.0, 1008.0, 1008.0, 1008.0, 1008.0, 1008.0, 1008.0, 1008.0, 1008.0, 1008.0, 1008.0, 1008.0, 1008.0, 1008.0, 1008.0, 1008.0, 1008.0, 1008.0, 1008.0, 1008.0, 1008.0, 1008.0, 1008.0, 1008.0, 1008.0, 1008.0, 1008.0, 1008.0, 1008.0, 1008.0, 1008.0, 1008.0],
      "WindowWidth": [2232.0, 2231.0, 2231.0, 2231.0, 2231.0, 2231.0, 2231.0, 2231.0, 2231.0, 2231.0, 2231.0, 2231.0, 2231.0, 2231.0, 2231.0, 2231.0, 2231.0, 2231.0, 2231.0, 2231.0, 2231.0, 2231.0, 2231.0, 2231.0, 2231.0, 2231.0, 2231.0, 2231.0, 2230.0, 2230.0, 2230.0, 2230.0, 2231.0, 2231.0, 2230.0, 2230.0, 2231.0, 2230.0, 2230.0, 2231.0, 2231.0, 2230.0, 2230.0, 2231.0, 2231.0, 2230.0, 2231.0, 2230.0, 2230.0, 2230.0, 2231.0, 2231.0, 2230.0, 2230.0, 2230.0, 2230.0, 2230.0, 2230.0, 2230.0, 2230.0, 2230.0, 2230.0, 2230.0, 2230.0, 2230.0, 2230.0, 2230.0, 2230.0, 2230.0, 2230.0, 2230.0, 2230.0, 2230.0, 2230.0, 2230.0, 2230.0, 2230.0, 2230.0, 2230.0, 2230.0, 2230.0, 2230.0, 2230.0, 2230.0, 2230.0, 2229.0, 2229.0, 2230.0, 2229.0, 2230.0, 2230.0, 2229.0, 2229.0, 2229.0, 2229.0, 2229.0, 2229.0, 2229.0, 2230.0, 2229.0, 2229.0, 2229.0, 2229.0, 2229.0, 2229.0, 2229.0, 2229.0, 2229.0, 2229.0, 2229.0, 2229.0, 2229.0, 2229.0, 2229.0, 2229.0, 2229.0, 2229.0, 2229.0, 2229.0, 2229.0, 2229.0, 2229.0, 2229.0, 2229.0, 2229.0, 2229.0, 2229.0, 2229.0, 2229.0, 2229.0, 2228.0, 2229.0, 2229.0, 2229.0, 2229.0, 2229.0, 2229.0, 2228.0, 2229.0, 2229.0, 2228.0, 2229.0, 2229.0, 2229.0, 2229.0, 2228.0, 2228.0, 2228.0, 2229.0, 2229.0, 2228.0, 2228.0, 2228.0, 2228.0, 2228.0, 2228.0, 2228.0, 2228.0, 2229.0, 2228.0, 2228.0, 2228.0, 2228.0, 2228.0, 2228.0, 2228.0, 2229.0, 2228.0, 2228.0, 2228.0, 2228.0, 2228.0, 2228.0, 2228.0, 2228.0, 2228.0, 2228.0, 2228.0, 2228.0, 2228.0, 2228.0, 2228.0, 2228.0, 2228.0, 2228.0, 2228.0, 2228.0, 2228.0, 2228.0, 2227.0, 2228.0, 2228.0, 2228.0, 2228.0, 2228.0, 2228.0, 2227.0, 2227.0, 2228.0, 2228.0]
    },
    "slices": {}
  }
}