{
  "AcquisitionMatrixPE": 80,
  "AcquisitionNumber": 1,
  "AcquisitionTime": "09:11:29.457500",
  "BandwidthPerPixelPhaseEncode": 25,
  "BaseResolution": 80,
  "BodyPartExamined": "BRAIN",
  "CoilCombinationMethod": "Sum of Squares",
  "ConsistencyInfo": "N4_VE11E_LATEST_20181129",
  "ConversionSoftware": "dcm2niix",
  "ConversionSoftwareVersion": "v1.0.20220720",
  "DerivedVendorReportedEchoSpacing": 0.0005,
  "DeviceSerialNumber": "66112",
  "DwellTime": 2.7e-06,
  "EchoTime": 0.03,
  "EchoTrainLength": 80,
  "EffectiveEchoSpacing": 0.0005,
  "FlipAngle": 10,
  "HeudiconvVersion": "0.13.1",
  "ImageOrientationPatientDICOM": [0.990526, -0.137318, 0.000961565, 0.131813, 0.952729, 0.273739],
  "ImageOrientationText": "Tra>Cor(15.7)>Sag(2.2)",
  "ImageType": [
    "ORIGINAL",
    "PRIMARY",
    "M",
    "ND",
    "NORM",
    "MOSAIC"
],
  "ImagingFrequency": 123.259,
  "InPlanePhaseEncodingDirectionDICOM": "COL",
  "InstitutionAddress": "Maynard 3,Hanover,NH,US,03755",
  "InstitutionName": "Dartmouth College - PBS",
  "InstitutionalDepartmentName": "Department",
  "MRAcquisitionType": "2D",
  "MagneticFieldStrength": 3,
  "Manufacturer": "Siemens",
  "ManufacturersModelName": "Prisma",
  "MatrixCoilMode": "SENSE",
  "Modality": "MR",
  "NonlinearGradientCorrection": false,
  "PartialFourier": 1,
  "PatientPosition": "HFS",
  "PercentPhaseFOV": 100,
  "PercentSampling": 100,
  "PhaseEncodingDirection": "j-",
  "PhaseEncodingSteps": 80,
  "PhaseResolution": 1,
  "PixelBandwidth": 2315,
  "ProcedureStepDescription": "dbic^QA",
  "ProtocolName": "func-bold_fa-10",
  "PulseSequenceDetails": "%SiemensSeq%\\ep2d_bold",
  "ReceiveCoilActiveElements": "HEA;HEP",
  "ReceiveCoilName": "Head_32",
  "ReconMatrixPE": 80,
  "RepetitionTime": 2,
  "SAR": 0.0151376,
  "ScanOptions": "FS",
  "ScanningSequence": "EP",
  "SequenceName": "*epfid2d1_80",
  "SequenceVariant": "SK",
  "SeriesDescription": "func-bold_fa-10",
  "SeriesNumber": 12,
  "ShimSetting": [4219, -7758, -7499, -31, -159, -2, -19, 68],
  "SliceThickness": 3.5,
  "SliceTiming": [0.99, 0, 1.0575, 0.0675, 1.1225, 0.1325, 1.1875, 0.2, 1.255, 0.265, 1.32, 0.33, 1.3875, 0.3975, 1.4525, 0.4625, 1.5175, 0.53, 1.585, 0.595, 1.65, 0.66, 1.7175, 0.7275, 1.7825, 0.7925, 1.8475, 0.8575, 1.915, 0.925],
  "SoftwareVersions": "syngo MR E11",
  "SpacingBetweenSlices": 3.99,
  "StationName": "AWP66112",
  "TotalReadoutTime": 0.0395,
  "TxRefAmp": 227.55,
  "dcmmeta_affine": [
    [-2.9715795516967773, 0.39543771743774414, 0.1536368876695633, 97.75997924804688],
    [0.41195476055145264, 2.858186721801758, 1.0813661813735962, -137.87765502929688],
    [0.002884694840759039, -0.8212172985076904, 3.8375959396362305, -32.08390808105469],
    [0.0, 0.0, 0.0, 1.0]
],
  "dcmmeta_reorient_transform": [
    [0.0, -1.0, 0.0, 79.0],
    [1.0, 0.0, 0.0, 0.0],
    [0.0, 0.0, 1.0, 0.0],
    [0.0, 0.0, 0.0, 1.0]
],
  "dcmmeta_shape": [80, 80, 30, 200],
  "dcmmeta_slice_dim": 2,
  "dcmmeta_version": 0.6,
  "global": {
    "const": {
      "AccessionNumber": "qa",
      "AcquisitionMatrix": [80, 0, 0, 80],
      "AngioFlag": "N",
      "BitsAllocated": 16,
      "BitsStored": 12,
      "BodyPartExamined": "BRAIN",
      "Columns": 480,
      "EchoNumbers": 1,
      "EchoTime": 30.0,
      "EchoTrainLength": 80,
      "FlipAngle": 10.0,
      "HighBit": 11,
      "ImageOrientationPatient": [0.99052651306179, -0.1373182519351, 0.00096156494083, 0.13181257308982, 0.95272889427654, 0.2737391086163],
      "ImagePositionPatient": [-802.40300971257, -577.16548575089, -261.780479529],
      "ImageType": [
        "ORIGINAL",
        "PRIMARY",
        "M",
        "ND",
        "NORM",
        "MOSAIC"
],
      "ImagedNucleus": "1H",
      "ImagingFrequency": 123.259174,
      "InPlanePhaseEncodingDirection": "COL",
      "MRAcquisitionType": "2D",
      "MagneticFieldStrength": 3.0,
      "Manufacturer": "SIEMENS",
      "ManufacturerModelName": "Prisma",
      "Modality": "MR",
      "NumberOfAverages": 1.0,
      "NumberOfPhaseEncodingSteps": 80,
      "PercentPhaseFieldOfView": 100.0,
      "PercentSampling": 100.0,
      "PerformedProcedureStepStartTime": "083942.675000",
      "PhotometricInterpretation": "MONOCHROME2",
      "PixelBandwidth": 2315.0,
      "PixelRepresentation": 0,
      "PixelSpacing": [3.0, 3.0],
      "ProtocolName": "func-bold_fa-10",
      "RepetitionTime": 2000.0,
      "Rows": 480,
      "SAR": 0.01513762782898,
      "SamplesPerPixel": 1,
      "ScanOptions": "FS",
      "ScanningSequence": "EP",
      "SequenceName": "*epfid2d1_80",
      "SequenceVariant": "SK",
      "SeriesDescription": "func-bold_fa-10",
      "SeriesNumber": 12,
      "SeriesTime": "091217.677000",
      "SliceLocation": -64.461593977464,
      "SliceThickness": 3.5,
      "SmallestImagePixelValue": 0,
      "SoftwareVersions": "syngo MR E11",
      "SpacingBetweenSlices": 3.9900000017895,
      "SpecificCharacterSet": "ISO_IR 100",
      "StudyID": "39",
      "StudyTime": "083942.404000",
      "TransmitCoilName": "Body",
      "VariableFlipAngleFlag": "N",
      "WindowCenterWidthExplanation": "Algo1"
    },
    "slices": {}
  },
  "time": {
    "samples": {
      "AcquisitionNumber": [1, 2, 3, 4, 5, 6, 7, 8, 9, 10, 11, 12, 13, 14, 15, 16, 17, 18, 19, 20, 21, 22, 23, 24, 25, 26, 27, 28, 29, 30, 31, 32, 33, 34, 35, 36, 37, 38, 39, 40, 41, 42, 43, 44, 45, 46, 47, 48, 49, 50, 51, 52, 53, 54, 55, 56, 57, 58, 59, 60, 61, 62, 63, 64, 65, 66, 67, 68, 69, 70, 71, 72, 73, 74, 75, 76, 77, 78, 79, 80, 81, 82, 83, 84, 85, 86, 87, 88, 89, 90, 91, 92, 93, 94, 95, 96, 97, 98, 99, 100, 101, 102, 103, 104, 105, 106, 107, 108, 109, 110, 111, 112, 113, 114, 115, 116, 117, 118, 119, 120, 121, 122, 123, 124, 125, 126, 127, 128, 129, 130, 131, 132, 133, 134, 135, 136, 137, 138, 139, 140, 141, 142, 143, 144, 145, 146, 147, 148, 149, 150, 151, 152, 153, 154, 155, 156, 157, 158, 159, 160, 161, 162, 163, 164, 165, 166, 167, 168, 169, 170, 171, 172, 173, 174, 175, 176, 177, 178, 179, 180, 181, 182, 183, 184, 185, 186, 187, 188, 189, 190, 191, 192, 193, 194, 195, 196, 197, 198, 199, 200],
      "AcquisitionTime": ["091129.457500", "091131.457500", "091133.457500", "091135.457500", "091137.457500", "091139.457500", "091141.457500", "091143.457500", "091145.457500", "091147.457500", "091149.457500", "091151.457500", "091153.457500", "091155.457500", "091157.457500", "091159.457500", "091201.457500", "091203.457500", "091205.457500", "091207.457500", "091209.457500", "091211.457500", "091213.457500", "091215.457500", "091217.457500", "091219.457500", "091221.457500", "091223.457500", "091225.457500", "091227.457500", "091229.457500", "091231.457500", "091233.457500", "091235.457500", "091237.457500", "091239.457500", "091241.457500", "091243.457500", "091245.457500", "091247.457500", "091249.457500", "091251.457500", "091253.457500", "091255.457500", "091257.457500", "091259.457500", "091301.457500", "091303.457500", "091305.457500", "091307.457500", "091309.457500", "091311.457500", "091313.457500", "091315.457500", "091317.457500", "091319.457500", "091321.457500", "091323.457500", "091325.457500", "091327.457500", "091329.457500", "091331.457500", "091333.457500", "091335.457500", "091337.457500", "091339.457500", "091341.457500", "091343.457500", "091345.457500", "091347.457500", "091349.457500", "091351.457500", "091353.457500", "091355.457500", "091357.457500", "091359.457500", "091401.457500", "091403.457500", "091405.457500", "091407.457500", "091409.457500", "091411.457500", "091413.457500", "091415.457500", "091417.457500", "091419.457500", "091421.457500", "091423.457500", "091425.457500", "091427.457500", "091429.457500", "091431.457500", "091433.457500", "091435.457500", "091437.457500", "091439.457500", "091441.457500", "091443.457500", "091445.457500", "091447.457500", "091449.457500", "091451.457500", "091453.457500", "091455.457500", "091457.457500", "091459.457500", "091501.457500", "091503.457500", "091505.457500", "091507.457500", "091509.457500", "091511.457500", "091513.457500", "091515.457500", "091517.457500", "091519.457500", "091521.457500", "091523.457500", "091525.457500", "091527.457500", "091529.457500", "091531.457500", "091533.457500", "091535.457500", "091537.457500", "091539.457500", "091541.457500", "091543.457500", "091545.457500", "091547.457500", "091549.457500", "091551.457500", "091553.457500", "091555.457500", "091557.457500", "091559.457500", "091601.457500", "091603.457500", "091605.457500", "091607.457500", "091609.457500", "091611.457500", "091613.457500", "091615.457500", "091617.457500", "091619.457500", "091621.457500", "091623.457500", "091625.457500", "091627.457500", "091629.457500", "091631.457500", "091633.457500", "091635.457500", "091637.457500", "091639.457500", "091641.457500", "091643.457500", "091645.457500", "091647.457500", "091649.457500", "091651.457500", "091653.457500", "091655.457500", "091657.457500", "091659.457500", "091701.457500", "091703.457500", "091705.457500", "091707.457500", "091709.457500", "091711.457500", "091713.457500", "091715.457500", "091717.457500", "091719.457500", "091721.457500", "091723.457500", "091725.457500", "091727.457500", "091729.457500", "091731.457500", "091733.457500", "091735.457500", "091737.457500", "091739.457500", "091741.457500", "091743.457500", "091745.457500", "091747.457500", "091749.457500", "091751.457500", "091753.457500", "091755.457500", "091757.457500", "091759.457500", "091801.457500", "091803.457500", "091805.457500", "091807.457500"],
      "ContentTime": ["091217.684000", "091217.687000", "091217.689000", "091217.691000", "091217.703000", "091217.705000", "091217.708000", "091217.710000", "091217.712000", "091217.714000", "091217.717000", "091217.723000", "091217.725000", "091217.728000", "091217.730000", "091217.737000", "091217.739000", "091217.742000", "091217.744000", "091217.747000", "091217.749000", "091217.751000", "091217.754000", "091217.756000", "091257.676000", "091257.679000", "091257.681000", "091257.683000", "091257.686000", "091257.688000", "091257.690000", "091257.692000", "091257.695000", "091257.697000", "091257.699000", "091257.701000", "091257.704000", "091257.706000", "091257.708000", "091257.710000", "091257.713000", "091257.715000", "091257.717000", "091257.719000", "091337.676000", "091337.679000", "091337.681000", "091337.683000", "091337.685000", "091337.688000", "091337.690000", "091337.692000", "091337.694000", "091337.697000", "091337.699000", "091337.701000", "091337.704000", "091337.706000", "091337.708000", "091337.710000", "091337.712000", "091337.715000", "091337.717000", "091337.719000", "091417.676000", "091417.679000", "091417.681000", "091417.683000", "091417.686000", "091417.688000", "091417.690000", "091417.693000", "091417.695000", "091417.697000", "091417.700000", "091417.702000", "091417.704000", "091417.706000", "091417.709000", "091417.721000", "091417.724000", "091417.732000", "091417.734000", "091417.736000", "091457.675000", "091457.678000", "091457.680000", "091457.682000", "091457.684000", "091457.687000", "091457.692000", "091457.694000", "091457.696000", "091457.699000", "091457.701000", "091457.703000", "091457.705000", "091457.708000", "091457.710000", "091457.712000", "091457.714000", "091457.717000", "091457.719000", "091457.721000", "091537.676000", "091537.679000", "091537.681000", "091537.683000", "091537.686000", "091537.688000", "091537.690000", "091537.693000", "091537.695000", "091537.697000", "091537.699000", "091537.702000", "091537.704000", "091537.706000", "091537.708000", "091537.710000", "091537.713000", "091537.715000", "091537.717000", "091537.719000", "091617.676000", "091617.679000", "091617.681000", "091617.683000", "091617.686000", "091617.718000", "091617.720000", "091617.722000", "091617.724000", "091617.727000", "091617.729000", "091617.731000", "091617.734000", "091617.736000", "091617.738000", "091617.740000", "091617.743000", "091617.745000", "091617.747000", "091617.749000", "091657.675000", "091657.677000", "091657.680000", "091657.682000", "091657.684000", "091657.687000", "091657.689000", "091657.691000", "091657.694000", "091657.696000", "091657.698000", "091657.700000", "091657.703000", "091657.705000", "091657.707000", "091657.709000", "091657.712000", "091657.714000", "091657.716000", "091657.718000", "091737.676000", "091737.679000", "091737.681000", "091737.683000", "091737.686000", "091737.688000", "091737.690000", "091737.692000", "091737.695000", "091737.697000", "091737.699000", "091737.734000", "091737.736000", "091737.738000", "091737.740000", "091737.743000", "091737.745000", "091737.747000", "091737.749000", "091737.752000", "091809.206000", "091809.208000", "091809.211000", "091809.213000", "091809.215000", "091809.218000", "091809.220000", "091809.222000", "091809.225000", "091809.227000", "091809.229000", "091809.231000", "091809.234000", "091809.236000", "091809.244000", "091809.248000"],
      "InstanceCreationTime": ["091217.684000", "091217.687000", "091217.689000", "091217.691000", "091217.703000", "091217.705000", "091217.708000", "091217.710000", "091217.712000", "091217.714000", "091217.717000", "091217.723000", "091217.725000", "091217.728000", "091217.730000", "091217.737000", "091217.739000", "091217.742000", "091217.744000", "091217.747000", "091217.749000", "091217.751000", "091217.754000", "091217.756000", "091257.676000", "091257.679000", "091257.681000", "091257.683000", "091257.686000", "091257.688000", "091257.690000", "091257.692000", "091257.695000", "091257.697000", "091257.699000", "091257.701000", "091257.704000", "091257.706000", "091257.708000", "091257.710000", "091257.713000", "091257.715000", "091257.717000", "091257.719000", "091337.676000", "091337.679000", "091337.681000", "091337.683000", "091337.685000", "091337.688000", "091337.690000", "091337.692000", "091337.694000", "091337.697000", "091337.699000", "091337.701000", "091337.704000", "091337.706000", "091337.708000", "091337.710000", "091337.712000", "091337.715000", "091337.717000", "091337.719000", "091417.676000", "091417.679000", "091417.681000", "091417.683000", "091417.686000", "091417.688000", "091417.690000", "091417.693000", "091417.695000", "091417.697000", "091417.700000", "091417.702000", "091417.704000", "091417.706000", "091417.709000", "091417.721000", "091417.724000", "091417.732000", "091417.734000", "091417.736000", "091457.675000", "091457.678000", "091457.680000", "091457.682000", "091457.684000", "091457.687000", "091457.692000", "091457.694000", "091457.696000", "091457.699000", "091457.701000", "091457.703000", "091457.705000", "091457.708000", "091457.710000", "091457.712000", "091457.714000", "091457.717000", "091457.719000", "091457.721000", "091537.676000", "091537.679000", "091537.681000", "091537.683000", "091537.686000", "091537.688000", "091537.690000", "091537.693000", "091537.695000", "091537.697000", "091537.699000", "091537.702000", "091537.704000", "091537.706000", "091537.708000", "091537.710000", "091537.713000", "091537.715000", "091537.717000", "091537.719000", "091617.676000", "091617.679000", "091617.681000", "091617.683000", "091617.686000", "091617.718000", "091617.720000", "091617.722000", "091617.724000", "091617.727000", "091617.729000", "091617.731000", "091617.734000", "091617.736000", "091617.738000", "091617.740000", "091617.743000", "091617.745000", "091617.747000", "091617.749000", "091657.675000", "091657.677000", "091657.680000", "091657.682000", "091657.684000", "091657.687000", "091657.689000", "091657.691000", "091657.694000", "091657.696000", "091657.698000", "091657.700000", "091657.703000", "091657.705000", "091657.707000", "091657.709000", "091657.712000", "091657.714000", "091657.716000", "091657.718000", "091737.676000", "091737.679000", "091737.681000", "091737.683000", "091737.686000", "091737.688000", "091737.690000", "091737.692000", "091737.695000", "091737.697000", "091737.699000", "091737.734000", "091737.736000", "091737.738000", "091737.740000", "091737.743000", "091737.745000", "091737.747000", "091737.749000", "091737.752000", "091809.206000", "091809.208000", "091809.211000", "091809.213000", "091809.215000", "091809.218000", "091809.220000", "091809.222000", "091809.225000", "091809.227000", "091809.229000", "091809.231000", "091809.234000", "091809.236000", "091809.244000", "091809.248000"],
      "InstanceNumber": [1, 2, 3, 4, 5, 6, 7, 8, 9, 10, 11, 12, 13, 14, 15, 16, 17, 18, 19, 20, 21, 22, 23, 24, 25, 26, 27, 28, 29, 30, 31, 32, 33, 34, 35, 36, 37, 38, 39, 40, 41, 42, 43, 44, 45, 46, 47, 48, 49, 50, 51, 52, 53, 54, 55, 56, 57, 58, 59, 60, 61, 62, 63, 64, 65, 66, 67, 68, 69, 70, 71, 72, 73, 74, 75, 76, 77, 78, 79, 80, 81, 82, 83, 84, 85, 86, 87, 88, 89, 90, 91, 92, 93, 94, 95, 96, 97, 98, 99, 100, 101, 102, 103, 104, 105, 106, 107, 108, 109, 110, 111, 112, 113, 114, 115, 116, 117, 118, 119, 120, 121, 122, 123, 124, 125, 126, 127, 128, 129, 130, 131, 132, 133, 134, 135, 136, 137, 138, 139, 140, 141, 142, 143, 144, 145, 146, 147, 148, 149, 150, 151, 152, 153, 154, 155, 156, 157, 158, 159, 160, 161, 162, 163, 164, 165, 166, 167, 168, 169, 170, 171, 172, 173, 174, 175, 176, 177, 178, 179, 180, 181, 182, 183, 184, 185, 186, 187, 188, 189, 190, 191, 192, 193, 194, 195, 196, 197, 198, 199, 200],
      "LargestImagePixelValue": [363, 361, 362, 361, 361, 361, 359, 362, 362, 360, 361, 361, 362, 362, 360, 360, 360, 360, 360, 361, 360, 362, 362, 362, 361, 360, 360, 360, 361, 360, 362, 363, 361, 361, 361, 359, 362, 360, 362, 361, 361, 361, 361, 360, 360, 360, 360, 361, 361, 361, 363, 360, 361, 360, 360, 360, 359, 362, 360, 361, 361, 360, 361, 359, 362, 359, 361, 361, 360, 361, 360, 362, 360, 360, 362, 361, 360, 360, 361, 362, 360, 360, 359, 360, 361, 361, 362, 362, 361, 360, 360, 361, 360, 361, 361, 362, 362, 363, 361, 360, 359, 360, 361, 362, 361, 362, 362, 360, 360, 360, 359, 361, 361, 361, 361, 361, 361, 360, 360, 360, 361, 360, 361, 360, 361, 360, 360, 362, 360, 362, 360, 360, 361, 361, 361, 363, 361, 361, 360, 360, 360, 360, 362, 359, 360, 362, 360, 360, 359, 360, 362, 361, 362, 361, 361, 360, 359, 360, 359, 359, 361, 362, 361, 363, 361, 360, 359, 359, 360, 361, 360, 362, 362, 362, 360, 359, 359, 359, 360, 361, 361, 362, 361, 360, 359, 361, 359, 360, 361, 361, 361, 359, 361, 361, 359, 360, 360, 360, 362, 362],
      "WindowCenter": [291.0, 291.0, 290.0, 291.0, 291.0, 291.0, 291.0, 291.0, 291.0, 291.0, 291.0, 291.0, 291.0, 291.0, 290.0, 291.0, 291.0, 291.0, 291.0, 291.0, 290.0, 290.0, 290.0, 291.0, 291.0, 291.0, 291.0, 291.0, 290.0, 291.0, 289.0, 291.0, 290.0, 291.0, 291.0, 291.0, 291.0, 291.0, 291.0, 290.0, 290.0, 290.0, 291.0, 291.0, 291.0, 290.0, 290.0, 290.0, 290.0, 290.0, 290.0, 290.0, 291.0, 291.0, 291.0, 290.0, 290.0, 291.0, 290.0, 290.0, 291.0, 291.0, 291.0, 291.0, 290.0, 291.0, 290.0, 290.0, 290.0, 290.0, 290.0, 291.0, 290.0, 290.0, 290.0, 290.0, 290.0, 290.0, 290.0, 290.0, 291.0, 290.0, 291.0, 290.0, 290.0, 290.0, 290.0, 290.0, 290.0, 290.0, 290.0, 290.0, 290.0, 290.0, 290.0, 290.0, 290.0, 290.0, 290.0, 290.0, 290.0, 290.0, 290.0, 290.0, 290.0, 290.0, 290.0, 290.0, 290.0, 290.0, 290.0, 290.0, 290.0, 290.0, 290.0, 290.0, 290.0, 290.0, 290.0, 290.0, 290.0, 290.0, 290.0, 290.0, 290.0, 290.0, 290.0, 290.0, 290.0, 290.0, 290.0, 290.0, 290.0, 290.0, 290.0, 290.0, 290.0, 290.0, 290.0, 290.0, 290.0, 290.0, 290.0, 290.0, 290.0, 290.0, 290.0, 290.0, 290.0, 290.0, 290.0, 290.0, 290.0, 290.0, 290.0, 290.0, 290.0, 290.0, 290.0, 290.0, 290.0, 290.0, 290.0, 290.0, 290.0, 290.0, 290.0, 290.0, 290.0, 290.0, 290.0, 290.0, 290.0, 290.0, 290.0, 290.0, 290.0, 290.0, 290.0, 290.0, 290.0, 290.0, 290.0, 290.0, 290.0, 290.0, 290.0, 290.0, 290.0, 290.0, 290.0, 290.0, 290.0, 290.0, 290.0, 290.0, 290.0, 290.0, 290.0, 290.0],
      "WindowWidth": [632.0, 633.0, 632.0, 633.0, 632.0, 633.0, 632.0, 633.0, 632.0, 632.0, 632.0, 632.0, 633.0, 632.0, 632.0, 632.0, 632.0, 632.0, 632.0, 632.0, 631.0, 632.0, 632.0, 632.0, 633.0, 632.0, 633.0, 632.0, 631.0, 632.0, 631.0, 632.0, 632.0, 633.0, 632.0, 632.0, 632.0, 632.0, 632.0, 631.0, 631.0, 632.0, 632.0, 632.0, 632.0, 632.0, 631.0, 631.0, 631.0, 631.0, 632.0, 631.0, 632.0, 632.0, 632.0, 631.0, 631.0, 632.0, 631.0, 631.0, 632.0, 632.0, 632.0, 632.0, 631.0, 632.0, 631.0, 631.0, 631.0, 631.0, 631.0, 632.0, 631.0, 631.0, 631.0, 631.0, 631.0, 631.0, 631.0, 631.0, 632.0, 631.0, 632.0, 631.0, 631.0, 631.0, 631.0, 631.0, 631.0, 631.0, 632.0, 631.0, 631.0, 631.0, 631.0, 631.0, 631.0, 631.0, 632.0, 631.0, 631.0, 632.0, 631.0, 631.0, 631.0, 631.0, 631.0, 631.0, 631.0, 631.0, 631.0, 631.0, 631.0, 631.0, 631.0, 631.0, 631.0, 631.0, 631.0, 631.0, 631.0, 631.0, 631.0, 631.0, 631.0, 631.0, 631.0, 631.0, 631.0, 631.0, 631.0, 631.0, 631.0, 631.0, 631.0, 631.0, 631.0, 631.0, 631.0, 631.0, 631.0, 631.0, 631.0, 631.0, 631.0, 631.0, 631.0, 631.0, 631.0, 631.0, 631.0, 631.0, 631.0, 631.0, 631.0, 631.0, 631.0, 631.0, 631.0, 631.0, 631.0, 631.0, 631.0, 631.0, 631.0, 631.0, 631.0, 631.0, 631.0, 631.0, 631.0, 631.0, 631.0, 631.0, 631.0, 631.0, 631.0, 631.0, 631.0, 631.0, 631.0, 631.0, 631.0, 631.0, 631.0, 631.0, 631.0, 631.0, 631.0, 631.0, 631.0, 631.0, 631.0, 631.0, 631.0, 631.0, 631.0, 631.0, 630.0, 631.0]
    },
    "slices": {}
  }
}