{
  "AcquisitionMatrixPE": 80,
  "AcquisitionNumber": 1,
  "AcquisitionTime": "09:04:43.410000",
  "BandwidthPerPixelPhaseEncode": 25,
  "BaseResolution": 80,
  "BodyPartExamined": "BRAIN",
  "CoilCombinationMethod": "Sum of Squares",
  "ConsistencyInfo": "N4_VE11E_LATEST_20181129",
  "ConversionSoftware": "dcm2niix",
  "ConversionSoftwareVersion": "v1.0.20220720",
  "DerivedVendorReportedEchoSpacing": 0.0005,
  "DeviceSerialNumber": "66112",
  "DwellTime": 2.7e-06,
  "EchoTime": 0.03,
  "EchoTrainLength": 80,
  "EffectiveEchoSpacing": 0.0005,
  "FlipAngle": 77,
  "HeudiconvVersion": "0.13.1",
  "ImageOrientationPatientDICOM": [0.990526, -0.137318, 0.000961565, 0.131813, 0.952729, 0.273739],
  "ImageOrientationText": "Tra>Cor(15.7)>Sag(2.2)",
  "ImageType": [
    "ORIGINAL",
    "PRIMARY",
    "M",
    "ND",
    "NORM",
    "MOSAIC"
],
  "ImagingFrequency": 123.259,
  "InPlanePhaseEncodingDirectionDICOM": "COL",
  "InstitutionAddress": "Maynard 3,Hanover,NH,US,03755",
  "InstitutionName": "Dartmouth College - PBS",
  "InstitutionalDepartmentName": "Department",
  "MRAcquisitionType": "2D",
  "MagneticFieldStrength": 3,
  "Manufacturer": "Siemens",
  "ManufacturersModelName": "Prisma",
  "MatrixCoilMode": "SENSE",
  "Modality": "MR",
  "NonlinearGradientCorrection": false,
  "PartialFourier": 1,
  "PatientPosition": "HFS",
  "PercentPhaseFOV": 100,
  "PercentSampling": 100,
  "PhaseEncodingDirection": "j-",
  "PhaseEncodingSteps": 80,
  "PhaseResolution": 1,
  "PixelBandwidth": 2315,
  "ProcedureStepDescription": "dbic^QA",
  "ProtocolName": "func-bold_fa-77",
  "PulseSequenceDetails": "%SiemensSeq%\\ep2d_bold",
  "ReceiveCoilActiveElements": "HEA;HEP",
  "ReceiveCoilName": "Head_32",
  "ReconMatrixPE": 80,
  "RepetitionTime": 2,
  "SAR": 0.0564312,
  "ScanOptions": "FS",
  "ScanningSequence": "EP",
  "SequenceName": "*epfid2d1_80",
  "SequenceVariant": "SK",
  "SeriesDescription": "func-bold_fa-77",
  "SeriesNumber": 11,
  "ShimSetting": [4219, -7758, -7499, -31, -159, -2, -19, 68],
  "SliceThickness": 3.5,
  "SliceTiming": [0.99, 0, 1.055, 0.0675, 1.1225, 0.1325, 1.1875, 0.1975, 1.255, 0.265, 1.32, 0.33, 1.385, 0.3975, 1.4525, 0.4625, 1.5175, 0.5275, 1.585, 0.595, 1.65, 0.66, 1.715, 0.725, 1.7825, 0.7925, 1.8475, 0.8575, 1.915, 0.925],
  "SoftwareVersions": "syngo MR E11",
  "SpacingBetweenSlices": 3.99,
  "StationName": "AWP66112",
  "TotalReadoutTime": 0.0395,
  "TxRefAmp": 227.55,
  "dcmmeta_affine": [
    [-2.9715795516967773, 0.39543771743774414, 0.1536368876695633, 97.75997924804688],
    [0.41195476055145264, 2.858186721801758, 1.0813661813735962, -137.87765502929688],
    [0.002884694840759039, -0.8212172985076904, 3.8375959396362305, -32.08390808105469],
    [0.0, 0.0, 0.0, 1.0]
],
  "dcmmeta_reorient_transform": [
    [0.0, -1.0, 0.0, 79.0],
    [1.0, 0.0, 0.0, 0.0],
    [0.0, 0.0, 1.0, 0.0],
    [0.0, 0.0, 0.0, 1.0]
],
  "dcmmeta_shape": [80, 80, 30, 200],
  "dcmmeta_slice_dim": 2,
  "dcmmeta_version": 0.6,
  "global": {
    "const": {
      "AccessionNumber": "qa",
      "AcquisitionMatrix": [80, 0, 0, 80],
      "AngioFlag": "N",
      "BitsAllocated": 16,
      "BitsStored": 12,
      "BodyPartExamined": "BRAIN",
      "Columns": 480,
      "EchoNumbers": 1,
      "EchoTime": 30.0,
      "EchoTrainLength": 80,
      "FlipAngle": 77.0,
      "HighBit": 11,
      "ImageOrientationPatient": [0.99052651306179, -0.1373182519351, 0.00096156494083, 0.13181257308982, 0.95272889427654, 0.2737391086163],
      "ImagePositionPatient": [-802.40300971257, -577.16548575089, -261.780479529],
      "ImageType": [
        "ORIGINAL",
        "PRIMARY",
        "M",
        "ND",
        "NORM",
        "MOSAIC"
],
      "ImagedNucleus": "1H",
      "ImagingFrequency": 123.259173,
      "InPlanePhaseEncodingDirection": "COL",
      "MRAcquisitionType": "2D",
      "MagneticFieldStrength": 3.0,
      "Manufacturer": "SIEMENS",
      "ManufacturerModelName": "Prisma",
      "Modality": "MR",
      "NumberOfAverages": 1.0,
      "NumberOfPhaseEncodingSteps": 80,
      "PercentPhaseFieldOfView": 100.0,
      "PercentSampling": 100.0,
      "PerformedProcedureStepStartTime": "083942.675000",
      "PhotometricInterpretation": "MONOCHROME2",
      "PixelBandwidth": 2315.0,
      "PixelRepresentation": 0,
      "PixelSpacing": [3.0, 3.0],
      "ProtocolName": "func-bold_fa-77",
      "RepetitionTime": 2000.0,
      "Rows": 480,
      "SAR": 0.05643123296863,
      "SamplesPerPixel": 1,
      "ScanOptions": "FS",
      "ScanningSequence": "EP",
      "SequenceName": "*epfid2d1_80",
      "SequenceVariant": "SK",
      "SeriesDescription": "func-bold_fa-77",
      "SeriesNumber": 11,
      "SeriesTime": "090537.591000",
      "SliceLocation": -64.461593977464,
      "SliceThickness": 3.5,
      "SmallestImagePixelValue": 0,
      "SoftwareVersions": "syngo MR E11",
      "SpacingBetweenSlices": 3.9900000017895,
      "SpecificCharacterSet": "ISO_IR 100",
      "StudyID": "39",
      "StudyTime": "083942.404000",
      "TransmitCoilName": "Body",
      "VariableFlipAngleFlag": "N",
      "WindowCenterWidthExplanation": "Algo1"
    },
    "slices": {}
  },
  "time": {
    "samples": {
      "AcquisitionNumber": [1, 2, 3, 4, 5, 6, 7, 8, 9, 10, 11, 12, 13, 14, 15, 16, 17, 18, 19, 20, 21, 22, 23, 24, 25, 26, 27, 28, 29, 30, 31, 32, 33, 34, 35, 36, 37, 38, 39, 40, 41, 42, 43, 44, 45, 46, 47, 48, 49, 50, 51, 52, 53, 54, 55, 56, 57, 58, 59, 60, 61, 62, 63, 64, 65, 66, 67, 68, 69, 70, 71, 72, 73, 74, 75, 76, 77, 78, 79, 80, 81, 82, 83, 84, 85, 86, 87, 88, 89, 90, 91, 92, 93, 94, 95, 96, 97, 98, 99, 100, 101, 102, 103, 104, 105, 106, 107, 108, 109, 110, 111, 112, 113, 114, 115, 116, 117, 118, 119, 120, 121, 122, 123, 124, 125, 126, 127, 128, 129, 130, 131, 132, 133, 134, 135, 136, 137, 138, 139, 140, 141, 142, 143, 144, 145, 146, 147, 148, 149, 150, 151, 152, 153, 154, 155, 156, 157, 158, 159, 160, 161, 162, 163, 164, 165, 166, 167, 168, 169, 170, 171, 172, 173, 174, 175, 176, 177, 178, 179, 180, 181, 182, 183, 184, 185, 186, 187, 188, 189, 190, 191, 192, 193, 194, 195, 196, 197, 198, 199, 200],
      "AcquisitionTime": ["090443.410000", "090445.410000", "090447.410000", "090449.410000", "090451.410000", "090453.410000", "090455.410000", "090457.410000", "090459.410000", "090501.410000", "090503.410000", "090505.410000", "090507.410000", "090509.410000", "090511.410000", "090513.410000", "090515.410000", "090517.410000", "090519.410000", "090521.410000", "090523.410000", "090525.410000", "090527.410000", "090529.410000", "090531.410000", "090533.410000", "090535.410000", "090537.410000", "090539.410000", "090541.410000", "090543.410000", "090545.410000", "090547.410000", "090549.410000", "090551.410000", "090553.410000", "090555.410000", "090557.410000", "090559.410000", "090601.410000", "090603.410000", "090605.410000", "090607.410000", "090609.410000", "090611.410000", "090613.410000", "090615.410000", "090617.410000", "090619.410000", "090621.410000", "090623.410000", "090625.410000", "090627.410000", "090629.410000", "090631.410000", "090633.410000", "090635.410000", "090637.410000", "090639.410000", "090641.410000", "090643.410000", "090645.410000", "090647.410000", "090649.410000", "090651.410000", "090653.410000", "090655.410000", "090657.410000", "090659.410000", "090701.410000", "090703.410000", "090705.410000", "090707.410000", "090709.410000", "090711.410000", "090713.410000", "090715.410000", "090717.410000", "090719.410000", "090721.410000", "090723.410000", "090725.410000", "090727.410000", "090729.410000", "090731.410000", "090733.410000", "090735.410000", "090737.410000", "090739.410000", "090741.410000", "090743.410000", "090745.410000", "090747.410000", "090749.410000", "090751.410000", "090753.410000", "090755.410000", "090757.410000", "090759.410000", "090801.410000", "090803.410000", "090805.410000", "090807.410000", "090809.410000", "090811.410000", "090813.410000", "090815.410000", "090817.410000", "090819.410000", "090821.410000", "090823.410000", "090825.410000", "090827.410000", "090829.410000", "090831.410000", "090833.410000", "090835.410000", "090837.410000", "090839.410000", "090841.410000", "090843.410000", "090845.410000", "090847.410000", "090849.410000", "090851.410000", "090853.410000", "090855.410000", "090857.410000", "090859.410000", "090901.410000", "090903.410000", "090905.410000", "090907.410000", "090909.410000", "090911.410000", "090913.410000", "090915.410000", "090917.410000", "090919.410000", "090921.410000", "090923.410000", "090925.410000", "090927.410000", "090929.410000", "090931.410000", "090933.410000", "090935.410000", "090937.410000", "090939.410000", "090941.410000", "090943.410000", "090945.410000", "090947.410000", "090949.410000", "090951.410000", "090953.410000", "090955.410000", "090957.410000", "090959.410000", "091001.410000", "091003.410000", "091005.410000", "091007.410000", "091009.410000", "091011.410000", "091013.410000", "091015.410000", "091017.410000", "091019.410000", "091021.410000", "091023.410000", "091025.410000", "091027.410000", "091029.410000", "091031.410000", "091033.410000", "091035.410000", "091037.410000", "091039.410000", "091041.410000", "091043.410000", "091045.410000", "091047.410000", "091049.410000", "091051.410000", "091053.410000", "091055.410000", "091057.410000", "091059.410000", "091101.410000", "091103.410000", "091105.410000", "091107.410000", "091109.410000", "091111.410000", "091113.410000", "091115.410000", "091117.410000", "091119.410000", "091121.410000"],
      "ContentTime": ["090537.594000", "090537.598000", "090537.600000", "090537.602000", "090537.604000", "090537.607000", "090537.609000", "090537.611000", "090537.613000", "090537.624000", "090537.626000", "090537.629000", "090537.631000", "090537.633000", "090537.636000", "090537.638000", "090537.646000", "090537.648000", "090537.659000", "090537.661000", "090537.664000", "090537.666000", "090537.668000", "090537.670000", "090537.673000", "090537.675000", "090537.677000", "090617.590000", "090617.604000", "090617.606000", "090617.609000", "090617.611000", "090617.613000", "090617.615000", "090617.618000", "090617.620000", "090617.622000", "090617.624000", "090617.627000", "090617.629000", "090617.631000", "090617.633000", "090617.636000", "090617.638000", "090617.640000", "090617.643000", "090617.645000", "090657.590000", "090657.593000", "090657.595000", "090657.597000", "090657.600000", "090657.602000", "090657.604000", "090657.606000", "090657.609000", "090657.611000", "090657.613000", "090657.615000", "090657.618000", "090657.620000", "090657.622000", "090657.625000", "090657.627000", "090657.629000", "090657.631000", "090657.634000", "090737.589000", "090737.592000", "090737.594000", "090737.597000", "090737.599000", "090737.601000", "090737.604000", "090737.606000", "090737.608000", "090737.610000", "090737.613000", "090737.615000", "090737.617000", "090737.620000", "090737.622000", "090737.624000", "090737.626000", "090737.629000", "090737.631000", "090737.644000", "090817.590000", "090817.593000", "090817.595000", "090817.598000", "090817.600000", "090817.602000", "090817.604000", "090817.607000", "090817.609000", "090817.611000", "090817.613000", "090817.616000", "090817.618000", "090817.620000", "090817.622000", "090817.625000", "090817.627000", "090817.629000", "090817.631000", "090817.634000", "090857.590000", "090857.593000", "090857.595000", "090857.597000", "090857.600000", "090857.602000", "090857.604000", "090857.607000", "090857.609000", "090857.611000", "090857.613000", "090857.616000", "090857.618000", "090857.620000", "090857.622000", "090857.625000", "090857.627000", "090857.629000", "090857.631000", "090857.634000", "090937.590000", "090937.593000", "090937.595000", "090937.597000", "090937.600000", "090937.602000", "090937.604000", "090937.606000", "090937.609000", "090937.611000", "090937.613000", "090937.615000", "090937.618000", "090937.620000", "090937.622000", "090937.624000", "090937.627000", "090937.629000", "090937.631000", "090937.633000", "091017.589000", "091017.592000", "091017.594000", "091017.596000", "091017.599000", "091017.601000", "091017.603000", "091017.606000", "091017.608000", "091017.610000", "091017.613000", "091017.615000", "091017.617000", "091017.619000", "091017.622000", "091017.624000", "091017.626000", "091017.628000", "091017.631000", "091017.633000", "091057.590000", "091057.593000", "091057.595000", "091057.598000", "091057.600000", "091057.602000", "091057.605000", "091057.607000", "091057.609000", "091057.611000", "091057.614000", "091057.616000", "091057.618000", "091057.627000", "091057.629000", "091057.631000", "091057.634000", "091057.636000", "091057.638000", "091057.640000", "091122.783000", "091122.786000", "091122.788000", "091122.791000", "091122.793000", "091122.796000", "091122.798000", "091122.800000", "091122.802000", "091122.805000", "091122.807000", "091122.809000", "091122.812000"],
      "InstanceCreationTime": ["090537.594000", "090537.598000", "090537.600000", "090537.602000", "090537.604000", "090537.607000", "090537.609000", "090537.611000", "090537.613000", "090537.624000", "090537.626000", "090537.629000", "090537.631000", "090537.633000", "090537.636000", "090537.638000", "090537.646000", "090537.648000", "090537.659000", "090537.661000", "090537.664000", "090537.666000", "090537.668000", "090537.670000", "090537.673000", "090537.675000", "090537.677000", "090617.590000", "090617.604000", "090617.606000", "090617.609000", "090617.611000", "090617.613000", "090617.615000", "090617.618000", "090617.620000", "090617.622000", "090617.624000", "090617.627000", "090617.629000", "090617.631000", "090617.633000", "090617.636000", "090617.638000", "090617.640000", "090617.643000", "090617.645000", "090657.590000", "090657.593000", "090657.595000", "090657.597000", "090657.600000", "090657.602000", "090657.604000", "090657.606000", "090657.609000", "090657.611000", "090657.613000", "090657.615000", "090657.618000", "090657.620000", "090657.622000", "090657.625000", "090657.627000", "090657.629000", "090657.631000", "090657.634000", "090737.589000", "090737.592000", "090737.594000", "090737.597000", "090737.599000", "090737.601000", "090737.604000", "090737.606000", "090737.608000", "090737.610000", "090737.613000", "090737.615000", "090737.617000", "090737.620000", "090737.622000", "090737.624000", "090737.626000", "090737.629000", "090737.631000", "090737.644000", "090817.590000", "090817.593000", "090817.595000", "090817.598000", "090817.600000", "090817.602000", "090817.604000", "090817.607000", "090817.609000", "090817.611000", "090817.613000", "090817.616000", "090817.618000", "090817.620000", "090817.622000", "090817.625000", "090817.627000", "090817.629000", "090817.631000", "090817.634000", "090857.590000", "090857.593000", "090857.595000", "090857.597000", "090857.600000", "090857.602000", "090857.604000", "090857.607000", "090857.609000", "090857.611000", "090857.613000", "090857.616000", "090857.618000", "090857.620000", "090857.622000", "090857.625000", "090857.627000", "090857.629000", "090857.631000", "090857.634000", "090937.590000", "090937.593000", "090937.595000", "090937.597000", "090937.600000", "090937.602000", "090937.604000", "090937.606000", "090937.609000", "090937.611000", "090937.613000", "090937.615000", "090937.618000", "090937.620000", "090937.622000", "090937.624000", "090937.627000", "090937.629000", "090937.631000", "090937.633000", "091017.589000", "091017.592000", "091017.594000", "091017.596000", "091017.599000", "091017.601000", "091017.603000", "091017.606000", "091017.608000", "091017.610000", "091017.613000", "091017.615000", "091017.617000", "091017.619000", "091017.622000", "091017.624000", "091017.626000", "091017.628000", "091017.631000", "091017.633000", "091057.590000", "091057.593000", "091057.595000", "091057.598000", "091057.600000", "091057.602000", "091057.605000", "091057.607000", "091057.609000", "091057.611000", "091057.614000", "091057.616000", "091057.618000", "091057.627000", "091057.629000", "091057.631000", "091057.634000", "091057.636000", "091057.638000", "091057.640000", "091122.783000", "091122.786000", "091122.788000", "091122.791000", "091122.793000", "091122.796000", "091122.798000", "091122.800000", "091122.802000", "091122.805000", "091122.807000", "091122.809000", "091122.812000"],
      "InstanceNumber": [1, 2, 3, 4, 5, 6, 7, 8, 9, 10, 11, 12, 13, 14, 15, 16, 17, 18, 19, 20, 21, 22, 23, 24, 25, 26, 27, 28, 29, 30, 31, 32, 33, 34, 35, 36, 37, 38, 39, 40, 41, 42, 43, 44, 45, 46, 47, 48, 49, 50, 51, 52, 53, 54, 55, 56, 57, 58, 59, 60, 61, 62, 63, 64, 65, 66, 67, 68, 69, 70, 71, 72, 73, 74, 75, 76, 77, 78, 79, 80, 81, 82, 83, 84, 85, 86, 87, 88, 89, 90, 91, 92, 93, 94, 95, 96, 97, 98, 99, 100, 101, 102, 103, 104, 105, 106, 107, 108, 109, 110, 111, 112, 113, 114, 115, 116, 117, 118, 119, 120, 121, 122, 123, 124, 125, 126, 127, 128, 129, 130, 131, 132, 133, 134, 135, 136, 137, 138, 139, 140, 141, 142, 143, 144, 145, 146, 147, 148, 149, 150, 151, 152, 153, 154, 155, 156, 157, 158, 159, 160, 161, 162, 163, 164, 165, 166, 167, 168, 169, 170, 171, 172, 173, 174, 175, 176, 177, 178, 179, 180, 181, 182, 183, 184, 185, 186, 187, 188, 189, 190, 191, 192, 193, 194, 195, 196, 197, 198, 199, 200],
      "LargestImagePixelValue": [2139, 2137, 2139, 2138, 2137, 2140, 2140, 2141, 2141, 2141, 2139, 2141, 2139, 2137, 2139, 2138, 2141, 2139, 2140, 2141, 2141, 2139, 2140, 2139, 2142, 2138, 2140, 2140, 2141, 2140, 2139, 2143, 2141, 2143, 2139, 2140, 2141, 2140, 2140, 2139, 2138, 2140, 2140, 2139, 2138, 2137, 2141, 2142, 2140, 2139, 2139, 2140, 2140, 2140, 2139, 2139, 2138, 2140, 2141, 2139, 2140, 2139, 2141, 2140, 2139, 2139, 2140, 2141, 2141, 2138, 2138, 2138, 2139, 2142, 2139, 2140, 2138, 2140, 2141, 2140, 2139, 2139, 2140, 2138, 2140, 2141, 2139, 2140, 2137, 2139, 2139, 2139, 2139, 2135, 2138, 2142, 2140, 2139, 2139, 2140, 2139, 2140, 2141, 2138, 2140, 2139, 2138, 2139, 2140, 2137, 2138, 2139, 2138, 2140, 2140, 2141, 2138, 2139, 2139, 2137, 2138, 2137, 2139, 2139, 2139, 2137, 2138, 2137, 2139, 2138, 2139, 2139, 2138, 2136, 2137, 2138, 2140, 2137, 2137, 2138, 2139, 2140, 2139, 2141, 2139, 2140, 2139, 2139, 2139, 2138, 2135, 2137, 2137, 2139, 2138, 2136, 2139, 2138, 2138, 2137, 2137, 2139, 2139, 2138, 2140, 2138, 2140, 2138, 2139, 2140, 2138, 2138, 2139, 2140, 2141, 2138, 2138, 2137, 2138, 2138, 2138, 2139, 2137, 2140, 2137, 2137, 2136, 2138, 2138, 2138, 2139, 2138, 2137, 2139, 2139, 2138, 2136, 2137, 2139, 2138],
      "WindowCenter": [998.0, 1000.0, 1000.0, 1000.0, 999.0, 1000.0, 999.0, 999.0, 1000.0, 999.0, 1000.0, 999.0, 1000.0, 1000.0, 1000.0, 999.0, 999.0, 999.0, 999.0, 999.0, 998.0, 1000.0, 1000.0, 1000.0, 999.0, 999.0, 1000.0, 999.0, 1000.0, 999.0, 1000.0, 999.0, 999.0, 1000.0, 999.0, 999.0, 1000.0, 1000.0, 999.0, 999.0, 998.0, 998.0, 1000.0, 999.0, 1000.0, 1000.0, 1000.0, 1000.0, 999.0, 999.0, 999.0, 1000.0, 1000.0, 999.0, 999.0, 999.0, 999.0, 1000.0, 999.0, 1000.0, 1000.0, 1000.0, 998.0, 1000.0, 1000.0, 998.0, 1000.0, 1000.0, 1000.0, 1000.0, 998.0, 1000.0, 999.0, 1000.0, 999.0, 999.0, 999.0, 999.0, 999.0, 999.0, 999.0, 999.0, 998.0, 999.0, 999.0, 999.0, 998.0, 998.0, 999.0, 998.0, 999.0, 999.0, 999.0, 999.0, 998.0, 999.0, 997.0, 998.0, 999.0, 999.0, 999.0, 999.0, 997.0, 999.0, 999.0, 999.0, 998.0, 999.0, 999.0, 997.0, 997.0, 998.0, 998.0, 997.0, 999.0, 998.0, 999.0, 999.0, 999.0, 998.0, 999.0, 999.0, 998.0, 998.0, 998.0, 999.0, 997.0, 999.0, 999.0, 997.0, 999.0, 997.0, 999.0, 997.0, 999.0, 998.0, 999.0, 997.0, 999.0, 998.0, 998.0, 998.0, 999.0, 999.0, 998.0, 999.0, 998.0, 999.0, 999.0, 998.0, 999.0, 999.0, 999.0, 998.0, 999.0, 999.0, 999.0, 999.0, 998.0, 998.0, 998.0, 999.0, 999.0, 998.0, 999.0, 998.0, 997.0, 998.0, 999.0, 999.0, 998.0, 998.0, 999.0, 999.0, 999.0, 998.0, 996.0, 999.0, 999.0, 998.0, 999.0, 999.0, 998.0, 998.0, 997.0, 999.0, 997.0, 998.0, 999.0, 998.0, 998.0, 999.0, 998.0, 998.0, 998.0, 998.0, 997.0, 998.0, 998.0, 997.0],
      "WindowWidth": [2207.0, 2209.0, 2209.0, 2209.0, 2208.0, 2209.0, 2208.0, 2208.0, 2209.0, 2208.0, 2209.0, 2208.0, 2208.0, 2208.0, 2208.0, 2208.0, 2208.0, 2208.0, 2208.0, 2208.0, 2207.0, 2208.0, 2208.0, 2208.0, 2208.0, 2208.0, 2208.0, 2208.0, 2209.0, 2208.0, 2208.0, 2208.0, 2208.0, 2208.0, 2208.0, 2208.0, 2208.0, 2208.0, 2207.0, 2207.0, 2207.0, 2207.0, 2208.0, 2207.0, 2208.0, 2209.0, 2208.0, 2208.0, 2207.0, 2207.0, 2207.0, 2208.0, 2208.0, 2207.0, 2207.0, 2207.0, 2207.0, 2208.0, 2207.0, 2208.0, 2208.0, 2208.0, 2207.0, 2208.0, 2208.0, 2207.0, 2208.0, 2208.0, 2208.0, 2208.0, 2206.0, 2208.0, 2207.0, 2208.0, 2207.0, 2208.0, 2208.0, 2207.0, 2208.0, 2207.0, 2207.0, 2207.0, 2207.0, 2208.0, 2208.0, 2208.0, 2207.0, 2207.0, 2208.0, 2207.0, 2208.0, 2208.0, 2208.0, 2208.0, 2207.0, 2207.0, 2206.0, 2207.0, 2208.0, 2207.0, 2207.0, 2207.0, 2206.0, 2207.0, 2207.0, 2207.0, 2207.0, 2207.0, 2207.0, 2206.0, 2206.0, 2206.0, 2207.0, 2205.0, 2207.0, 2207.0, 2207.0, 2207.0, 2207.0, 2207.0, 2207.0, 2207.0, 2206.0, 2206.0, 2206.0, 2207.0, 2205.0, 2207.0, 2207.0, 2206.0, 2207.0, 2205.0, 2207.0, 2206.0, 2207.0, 2206.0, 2207.0, 2205.0, 2207.0, 2206.0, 2206.0, 2206.0, 2207.0, 2207.0, 2206.0, 2207.0, 2206.0, 2207.0, 2207.0, 2206.0, 2206.0, 2206.0, 2206.0, 2206.0, 2206.0, 2206.0, 2206.0, 2206.0, 2206.0, 2206.0, 2206.0, 2206.0, 2206.0, 2206.0, 2206.0, 2206.0, 2205.0, 2206.0, 2206.0, 2206.0, 2206.0, 2206.0, 2206.0, 2206.0, 2206.0, 2206.0, 2204.0, 2206.0, 2206.0, 2206.0, 2206.0, 2206.0, 2206.0, 2206.0, 2205.0, 2206.0, 2205.0, 2205.0, 2206.0, 2205.0, 2205.0, 2206.0, 2206.0, 2205.0, 2205.0, 2205.0, 2204.0, 2206.0, 2206.0, 2204.0]
    },
    "slices": {}
  }
}