{
  "AccelFactPE": 2,
  "AcquisitionNumber": 1,
  "AcquisitionTime": "09:59:6.200000",
  "BandwidthPerPixelPhaseEncode": 48.077,
  "BodyPartExamined": "BRAIN",
  "ConversionSoftware": "dcm2niix",
  "ConversionSoftwareVersion": "v1.0.20170624 GCC6.3.0",
  "DeviceSerialNumber": "66112",
  "EchoTime": 0.035,
  "EchoTrainLength": 39,
  "EffectiveEchoSpacing": 0.00026,
  "FlipAngle": 90,
  "ImageType": [
    "ORIGINAL",
    "PRIMARY",
    "M",
    "ND",
    "NORM",
    "MOSAIC"
],
  "InstitutionAddress": "Maynard_3_Hanover_NH_US_03755",
  "InstitutionName": "Dartmouth_College_-_PBS",
  "MagneticFieldStrength": 3,
  "Manufacturer": "Siemens",
  "ManufacturersModelName": "Prisma",
  "PhaseEncodingDirection": "j-",
  "PhaseEncodingLines": 80,
  "ProcedureStepDescription": "dbic_QA",
  "ProtocolName": "func-bold_task-rest_acq-p2",
  "RepetitionTime": 2,
  "ScanningSequence": "EP",
  "SequenceName": "_epfid2d1_80",
  "SequenceVariant": "SK",
  "SeriesDescription": "func-bold_task-rest_acq-p2",
  "SliceTiming": [0.99, 0, 1.055, 0.065, 1.12, 0.1325, 1.1875, 0.1975, 1.2525, 0.2625, 1.32, 0.33, 1.385, 0.395, 1.45, 0.4625, 1.5175, 0.5275, 1.5825, 0.5925, 1.65, 0.66, 1.715, 0.725, 1.78, 0.79, 1.8475, 0.8575, 1.9125, 0.9225],
  "SoftwareVersions": "syngo_MR_E11",
  "TaskName": "rest",
  "TotalReadoutTime": 0.02002,
  "TrueEchoSpacing": 0.000519999,
  "dcmmeta_affine": [
    [-2.929961681365967, -0.6233171820640564, -0.21773026883602142, 149.6140899658203],
    [-0.6435531973838806, 2.7895455360412598, 1.1927623748779297, -94.63456726074219],
    [0.03411047160625458, -0.9109947681427002, 3.8013172149658203, -30.483488082885742],
    [0.0, 0.0, 0.0, 1.0]
],
  "dcmmeta_reorient_transform": [
    [0.0, -1.0, 0.0, 79.0],
    [1.0, 0.0, 0.0, 0.0],
    [0.0, 0.0, 1.0, 0.0],
    [0.0, 0.0, 0.0, 1.0]
],
  "dcmmeta_shape": [80, 80, 30, 200],
  "dcmmeta_slice_dim": 2,
  "dcmmeta_version": 0.6,
  "global": {
    "const": {
      "AccessionNumber": "qa",
      "AcquisitionMatrix": [80, 0, 0, 80],
      "AngioFlag": "N",
      "BitsAllocated": 16,
      "BitsStored": 12,
      "BodyPartExamined": "BRAIN",
      "Columns": 480,
      "EchoNumbers": 1,
      "EchoTime": 35.0,
      "EchoTrainLength": 39,
      "FlipAngle": 90.0,
      "HighBit": 11,
      "ImageOrientationPatient": [0.97665391066342, 0.21451773422599, 0.01137015779979, -0.2077723860228, 0.92984850850809, 0.30366492525758],
      "ImagePositionPatient": [-561.70095613359, -812.35927456438, -291.47312509672],
      "ImageType": [
        "ORIGINAL",
        "PRIMARY",
        "M",
        "ND",
        "NORM",
        "MOSAIC"
],
      "ImagedNucleus": "1H",
      "ImagingFrequency": 123.252502,
      "InPlanePhaseEncodingDirection": "COL",
      "MRAcquisitionType": "2D",
      "MagneticFieldStrength": 3.0,
      "Manufacturer": "SIEMENS",
      "ManufacturerModelName": "Prisma",
      "Modality": "MR",
      "NumberOfAverages": 1.0,
      "NumberOfPhaseEncodingSteps": 79,
      "PercentPhaseFieldOfView": 100.0,
      "PercentSampling": 100.0,
      "PerformedProcedureStepStartTime": "093732.110000",
      "PhotometricInterpretation": "MONOCHROME2",
      "PixelBandwidth": 2315.0,
      "PixelRepresentation": 0,
      "PixelSpacing": [3.0, 3.0],
      "PositionReferenceIndicator": "",
      "ProtocolName": "func-bold_task-rest_acq-p2",
      "RepetitionTime": 2000.0,
      "Rows": 480,
      "SAR": 0.05562478489348,
      "SamplesPerPixel": 1,
      "ScanOptions": "FS",
      "ScanningSequence": "EP",
      "SequenceName": "*epfid2d1_80",
      "SequenceVariant": "SK",
      "SeriesDescription": "func-bold_task-rest_acq-p2",
      "SeriesNumber": 5,
      "SeriesTime": "100004.813000",
      "SliceLocation": -65.496108257907,
      "SliceThickness": 3.5,
      "SmallestImagePixelValue": 0,
      "SoftwareVersions": "syngo MR E11",
      "SpacingBetweenSlices": 3.9900000659683,
      "SpecificCharacterSet": "ISO_IR 100",
      "StudyID": "73",
      "StudyTime": "093732.014000",
      "TransmitCoilName": "Body",
      "VariableFlipAngleFlag": "N",
      "WindowCenterWidthExplanation": "Algo1",
      "dBdt": 0.0},
    "slices": {}
  },
  "time": {
    "samples": {
      "AcquisitionNumber": [1, 2, 3, 4, 5, 6, 7, 8, 9, 10, 11, 12, 13, 14, 15, 16, 17, 18, 19, 20, 21, 22, 23, 24, 25, 26, 27, 28, 29, 30, 31, 32, 33, 34, 35, 36, 37, 38, 39, 40, 41, 42, 43, 44, 45, 46, 47, 48, 49, 50, 51, 52, 53, 54, 55, 56, 57, 58, 59, 60, 61, 62, 63, 64, 65, 66, 67, 68, 69, 70, 71, 72, 73, 74, 75, 76, 77, 78, 79, 80, 81, 82, 83, 84, 85, 86, 87, 88, 89, 90, 91, 92, 93, 94, 95, 96, 97, 98, 99, 100, 101, 102, 103, 104, 105, 106, 107, 108, 109, 110, 111, 112, 113, 114, 115, 116, 117, 118, 119, 120, 121, 122, 123, 124, 125, 126, 127, 128, 129, 130, 131, 132, 133, 134, 135, 136, 137, 138, 139, 140, 141, 142, 143, 144, 145, 146, 147, 148, 149, 150, 151, 152, 153, 154, 155, 156, 157, 158, 159, 160, 161, 162, 163, 164, 165, 166, 167, 168, 169, 170, 171, 172, 173, 174, 175, 176, 177, 178, 179, 180, 181, 182, 183, 184, 185, 186, 187, 188, 189, 190, 191, 192, 193, 194, 195, 196, 197, 198, 199, 200],
      "AcquisitionTime": ["095906.200000", "095908.200000", "095910.200000", "095912.200000", "095914.200000", "095916.200000", "095918.200000", "095920.200000", "095922.200000", "095924.200000", "095926.200000", "095928.200000", "095930.200000", "095932.200000", "095934.200000", "095936.200000", "095938.200000", "095940.200000", "095942.200000", "095944.200000", "095946.200000", "095948.200000", "095950.200000", "095952.200000", "095954.200000", "095956.200000", "095958.200000", "100000.200000", "100002.200000", "100004.200000", "100006.200000", "100008.200000", "100010.200000", "100012.200000", "100014.200000", "100016.200000", "100018.200000", "100020.200000", "100022.200000", "100024.200000", "100026.200000", "100028.200000", "100030.200000", "100032.200000", "100034.200000", "100036.200000", "100038.200000", "100040.200000", "100042.200000", "100044.200000", "100046.200000", "100048.200000", "100050.200000", "100052.200000", "100054.200000", "100056.200000", "100058.200000", "100100.200000", "100102.200000", "100104.200000", "100106.200000", "100108.200000", "100110.200000", "100112.200000", "100114.200000", "100116.200000", "100118.200000", "100120.200000", "100122.200000", "100124.200000", "100126.200000", "100128.200000", "100130.200000", "100132.200000", "100134.200000", "100136.200000", "100138.200000", "100140.200000", "100142.200000", "100144.200000", "100146.200000", "100148.200000", "100150.200000", "100152.200000", "100154.200000", "100156.200000", "100158.200000", "100200.200000", "100202.200000", "100204.200000", "100206.200000", "100208.200000", "100210.200000", "100212.200000", "100214.200000", "100216.200000", "100218.200000", "100220.200000", "100222.200000", "100224.200000", "100226.200000", "100228.200000", "100230.200000", "100232.200000", "100234.200000", "100236.200000", "100238.200000", "100240.200000", "100242.200000", "100244.200000", "100246.200000", "100248.200000", "100250.200000", "100252.200000", "100254.200000", "100256.200000", "100258.200000", "100300.200000", "100302.200000", "100304.200000", "100306.200000", "100308.200000", "100310.200000", "100312.200000", "100314.200000", "100316.200000", "100318.200000", "100320.200000", "100322.200000", "100324.200000", "100326.200000", "100328.200000", "100330.200000", "100332.200000", "100334.200000", "100336.200000", "100338.200000", "100340.200000", "100342.200000", "100344.200000", "100346.200000", "100348.200000", "100350.200000", "100352.200000", "100354.200000", "100356.200000", "100358.200000", "100400.200000", "100402.200000", "100404.200000", "100406.200000", "100408.200000", "100410.200000", "100412.200000", "100414.200000", "100416.200000", "100418.200000", "100420.200000", "100422.200000", "100424.200000", "100426.200000", "100428.200000", "100430.200000", "100432.200000", "100434.200000", "100436.200000", "100438.200000", "100440.200000", "100442.200000", "100444.200000", "100446.200000", "100448.200000", "100450.200000", "100452.200000", "100454.200000", "100456.200000", "100458.200000", "100500.200000", "100502.200000", "100504.200000", "100506.200000", "100508.200000", "100510.200000", "100512.200000", "100514.200000", "100516.200000", "100518.200000", "100520.200000", "100522.200000", "100524.200000", "100526.200000", "100528.200000", "100530.200000", "100532.200000", "100534.200000", "100536.200000", "100538.200000", "100540.200000", "100542.200000", "100544.200000"],
      "ContentTime": ["100004.817000", "100004.820000", "100004.823000", "100004.825000", "100004.828000", "100004.830000", "100004.833000", "100004.835000", "100004.838000", "100004.840000", "100004.843000", "100004.846000", "100004.848000", "100004.851000", "100004.853000", "100004.856000", "100004.858000", "100004.861000", "100004.864000", "100004.866000", "100004.879000", "100004.882000", "100004.885000", "100004.887000", "100004.890000", "100004.892000", "100004.895000", "100004.897000", "100004.900000", "100044.811000", "100044.814000", "100044.817000", "100044.819000", "100044.822000", "100044.824000", "100044.827000", "100044.830000", "100044.832000", "100044.835000", "100044.837000", "100044.840000", "100044.842000", "100044.845000", "100044.847000", "100044.850000", "100044.852000", "100044.855000", "100044.858000", "100044.860000", "100124.812000", "100124.815000", "100124.818000", "100124.820000", "100124.823000", "100124.825000", "100124.828000", "100124.831000", "100124.833000", "100124.836000", "100124.838000", "100124.841000", "100124.843000", "100124.846000", "100124.848000", "100124.851000", "100124.853000", "100124.865000", "100124.867000", "100124.870000", "100204.811000", "100204.814000", "100204.817000", "100204.819000", "100204.822000", "100204.824000", "100204.827000", "100204.830000", "100204.832000", "100204.835000", "100204.837000", "100204.840000", "100204.842000", "100204.845000", "100204.848000", "100204.850000", "100204.853000", "100204.855000", "100204.858000", "100204.860000", "100244.811000", "100244.814000", "100244.817000", "100244.819000", "100244.822000", "100244.824000", "100244.827000", "100244.830000", "100244.832000", "100244.835000", "100244.837000", "100244.840000", "100244.842000", "100244.845000", "100244.847000", "100244.850000", "100244.852000", "100244.855000", "100244.858000", "100244.860000", "100304.811000", "100304.814000", "100304.817000", "100304.819000", "100304.822000", "100304.824000", "100304.827000", "100304.830000", "100304.832000", "100304.835000", "100344.812000", "100344.815000", "100344.818000", "100344.820000", "100344.823000", "100344.825000", "100344.828000", "100344.831000", "100344.833000", "100344.836000", "100344.838000", "100344.841000", "100344.843000", "100344.846000", "100344.848000", "100344.851000", "100344.853000", "100344.856000", "100344.859000", "100344.861000", "100424.811000", "100424.814000", "100424.817000", "100424.819000", "100424.822000", "100424.824000", "100424.827000", "100424.830000", "100424.832000", "100424.835000", "100424.837000", "100424.840000", "100424.842000", "100424.845000", "100424.848000", "100424.850000", "100424.853000", "100424.855000", "100424.858000", "100424.861000", "100504.811000", "100504.814000", "100504.817000", "100504.820000", "100504.822000", "100504.825000", "100504.827000", "100504.830000", "100504.832000", "100504.835000", "100504.847000", "100504.850000", "100504.852000", "100504.854000", "100504.857000", "100504.860000", "100504.862000", "100504.865000", "100504.867000", "100504.870000", "100544.812000", "100544.815000", "100544.818000", "100544.820000", "100544.823000", "100544.825000", "100544.828000", "100544.830000", "100544.833000", "100544.835000", "100544.838000", "100544.841000", "100544.843000", "100544.846000", "100544.848000", "100544.851000", "100544.853000", "100544.856000", "100544.859000", "100544.861000", "100545.315000"],
      "InstanceCreationTime": ["100004.817000", "100004.820000", "100004.823000", "100004.825000", "100004.828000", "100004.830000", "100004.833000", "100004.835000", "100004.838000", "100004.840000", "100004.843000", "100004.846000", "100004.848000", "100004.851000", "100004.853000", "100004.856000", "100004.858000", "100004.861000", "100004.864000", "100004.866000", "100004.879000", "100004.882000", "100004.885000", "100004.887000", "100004.890000", "100004.892000", "100004.895000", "100004.897000", "100004.900000", "100044.811000", "100044.814000", "100044.817000", "100044.819000", "100044.822000", "100044.824000", "100044.827000", "100044.830000", "100044.832000", "100044.835000", "100044.837000", "100044.840000", "100044.842000", "100044.845000", "100044.847000", "100044.850000", "100044.852000", "100044.855000", "100044.858000", "100044.860000", "100124.812000", "100124.815000", "100124.818000", "100124.820000", "100124.823000", "100124.825000", "100124.828000", "100124.831000", "100124.833000", "100124.836000", "100124.838000", "100124.841000", "100124.843000", "100124.846000", "100124.848000", "100124.851000", "100124.853000", "100124.865000", "100124.867000", "100124.870000", "100204.811000", "100204.814000", "100204.817000", "100204.819000", "100204.822000", "100204.824000", "100204.827000", "100204.830000", "100204.832000", "100204.835000", "100204.837000", "100204.840000", "100204.842000", "100204.845000", "100204.848000", "100204.850000", "100204.853000", "100204.855000", "100204.858000", "100204.860000", "100244.811000", "100244.814000", "100244.817000", "100244.819000", "100244.822000", "100244.824000", "100244.827000", "100244.830000", "100244.832000", "100244.835000", "100244.837000", "100244.840000", "100244.842000", "100244.845000", "100244.847000", "100244.850000", "100244.852000", "100244.855000", "100244.858000", "100244.860000", "100304.811000", "100304.814000", "100304.817000", "100304.819000", "100304.822000", "100304.824000", "100304.827000", "100304.830000", "100304.832000", "100304.835000", "100344.812000", "100344.815000", "100344.818000", "100344.820000", "100344.823000", "100344.825000", "100344.828000", "100344.831000", "100344.833000", "100344.836000", "100344.838000", "100344.841000", "100344.843000", "100344.846000", "100344.848000", "100344.851000", "100344.853000", "100344.856000", "100344.859000", "100344.861000", "100424.811000", "100424.814000", "100424.817000", "100424.819000", "100424.822000", "100424.824000", "100424.827000", "100424.830000", "100424.832000", "100424.835000", "100424.837000", "100424.840000", "100424.842000", "100424.845000", "100424.848000", "100424.850000", "100424.853000", "100424.855000", "100424.858000", "100424.861000", "100504.811000", "100504.814000", "100504.817000", "100504.820000", "100504.822000", "100504.825000", "100504.827000", "100504.830000", "100504.832000", "100504.835000", "100504.847000", "100504.850000", "100504.852000", "100504.854000", "100504.857000", "100504.860000", "100504.862000", "100504.865000", "100504.867000", "100504.870000", "100544.812000", "100544.815000", "100544.818000", "100544.820000", "100544.823000", "100544.825000", "100544.828000", "100544.830000", "100544.833000", "100544.835000", "100544.838000", "100544.841000", "100544.843000", "100544.846000", "100544.848000", "100544.851000", "100544.853000", "100544.856000", "100544.859000", "100544.861000", "100545.315000"],
      "InstanceNumber": [1, 2, 3, 4, 5, 6, 7, 8, 9, 10, 11, 12, 13, 14, 15, 16, 17, 18, 19, 20, 21, 22, 23, 24, 25, 26, 27, 28, 29, 30, 31, 32, 33, 34, 35, 36, 37, 38, 39, 40, 41, 42, 43, 44, 45, 46, 47, 48, 49, 50, 51, 52, 53, 54, 55, 56, 57, 58, 59, 60, 61, 62, 63, 64, 65, 66, 67, 68, 69, 70, 71, 72, 73, 74, 75, 76, 77, 78, 79, 80, 81, 82, 83, 84, 85, 86, 87, 88, 89, 90, 91, 92, 93, 94, 95, 96, 97, 98, 99, 100, 101, 102, 103, 104, 105, 106, 107, 108, 109, 110, 111, 112, 113, 114, 115, 116, 117, 118, 119, 120, 121, 122, 123, 124, 125, 126, 127, 128, 129, 130, 131, 132, 133, 134, 135, 136, 137, 138, 139, 140, 141, 142, 143, 144, 145, 146, 147, 148, 149, 150, 151, 152, 153, 154, 155, 156, 157, 158, 159, 160, 161, 162, 163, 164, 165, 166, 167, 168, 169, 170, 171, 172, 173, 174, 175, 176, 177, 178, 179, 180, 181, 182, 183, 184, 185, 186, 187, 188, 189, 190, 191, 192, 193, 194, 195, 196, 197, 198, 199, 200],
      "LargestImagePixelValue": [2072, 2062, 2065, 2073, 2066, 2064, 2064, 2064, 2066, 2067, 2064, 2067, 2063, 2065, 2061, 2063, 2067, 2070, 2063, 2065, 2064, 2064, 2064, 2064, 2064, 2066, 2064, 2067, 2067, 2065, 2063, 2062, 2069, 2064, 2063, 2070, 2064, 2066, 2067, 2062, 2063, 2062, 2062, 2065, 2065, 2065, 2071, 2065, 2062, 2065, 2068, 2066, 2063, 2068, 2067, 2066, 2066, 2064, 2069, 2063, 2064, 2066, 2064, 2061, 2065, 2064, 2063, 2067, 2064, 2066, 2066, 2059, 2065, 2063, 2068, 2063, 2064, 2062, 2065, 2063, 2063, 2062, 2059, 2066, 2062, 2064, 2064, 2066, 2063, 2065, 2065, 2064, 2064, 2060, 2070, 2064, 2067, 2065, 2065, 2061, 2063, 2061, 2059, 2064, 2063, 2062, 2062, 2063, 2065, 2071, 2062, 2063, 2067, 2061, 2060, 2061, 2061, 2068, 2062, 2067, 2064, 2066, 2067, 2062, 2067, 2066, 2065, 2063, 2063, 2061, 2058, 2061, 2064, 2071, 2060, 2070, 2063, 2061, 2059, 2062, 2067, 2064, 2061, 2064, 2063, 2062, 2063, 2065, 2069, 2066, 2064, 2064, 2066, 2066, 2061, 2059, 2062, 2064, 2064, 2065, 2066, 2071, 2065, 2066, 2068, 2060, 2063, 2062, 2065, 2058, 2059, 2062, 2064, 2064, 2065, 2063, 2060, 2059, 2066, 2064, 2065, 2062, 2060, 2066, 2066, 2069, 2063, 2060, 2065, 2067, 2069, 2063, 2064, 2061, 2061, 2070, 2064, 2064, 2059, 2064],
      "WindowCenter": [977.0, 976.0, 976.0, 977.0, 976.0, 977.0, 976.0, 976.0, 976.0, 976.0, 976.0, 976.0, 976.0, 976.0, 976.0, 976.0, 976.0, 977.0, 976.0, 976.0, 976.0, 976.0, 976.0, 976.0, 976.0, 976.0, 976.0, 976.0, 976.0, 976.0, 976.0, 976.0, 976.0, 976.0, 976.0, 976.0, 976.0, 977.0, 976.0, 976.0, 976.0, 976.0, 976.0, 977.0, 976.0, 976.0, 976.0, 976.0, 976.0, 976.0, 976.0, 977.0, 976.0, 976.0, 977.0, 976.0, 976.0, 977.0, 976.0, 976.0, 976.0, 976.0, 976.0, 976.0, 976.0, 976.0, 976.0, 976.0, 976.0, 976.0, 977.0, 976.0, 976.0, 976.0, 976.0, 976.0, 976.0, 976.0, 976.0, 977.0, 976.0, 977.0, 976.0, 976.0, 976.0, 977.0, 976.0, 976.0, 977.0, 976.0, 976.0, 976.0, 976.0, 976.0, 976.0, 976.0, 976.0, 976.0, 976.0, 976.0, 976.0, 976.0, 976.0, 976.0, 976.0, 976.0, 976.0, 976.0, 976.0, 976.0, 976.0, 977.0, 976.0, 976.0, 976.0, 976.0, 976.0, 976.0, 976.0, 976.0, 976.0, 977.0, 976.0, 976.0, 976.0, 976.0, 976.0, 977.0, 976.0, 976.0, 976.0, 976.0, 976.0, 976.0, 977.0, 977.0, 976.0, 976.0, 977.0, 976.0, 977.0, 976.0, 976.0, 976.0, 976.0, 976.0, 976.0, 976.0, 976.0, 976.0, 976.0, 976.0, 976.0, 976.0, 976.0, 976.0, 976.0, 976.0, 976.0, 976.0, 976.0, 976.0, 976.0, 976.0, 976.0, 976.0, 976.0, 976.0, 976.0, 976.0, 976.0, 976.0, 976.0, 976.0, 976.0, 976.0, 976.0, 976.0, 976.0, 976.0, 976.0, 976.0, 976.0, 976.0, 976.0, 976.0, 976.0, 976.0, 976.0, 976.0, 976.0, 976.0, 976.0, 976.0, 976.0, 976.0, 976.0, 975.0, 975.0, 976.0],
      "WindowWidth": [2131.0, 2130.0, 2130.0, 2130.0, 2130.0, 2130.0, 2130.0, 2130.0, 2130.0, 2130.0, 2130.0, 2130.0, 2130.0, 2130.0, 2130.0, 2130.0, 2130.0, 2130.0, 2130.0, 2129.0, 2129.0, 2130.0, 2130.0, 2129.0, 2129.0, 2130.0, 2129.0, 2129.0, 2129.0, 2129.0, 2129.0, 2129.0, 2129.0, 2129.0, 2129.0, 2129.0, 2129.0, 2130.0, 2129.0, 2129.0, 2129.0, 2129.0, 2129.0, 2130.0, 2129.0, 2129.0, 2129.0, 2129.0, 2129.0, 2129.0, 2129.0, 2130.0, 2129.0, 2129.0, 2129.0, 2129.0, 2129.0, 2130.0, 2129.0, 2129.0, 2129.0, 2129.0, 2129.0, 2129.0, 2129.0, 2129.0, 2129.0, 2129.0, 2129.0, 2129.0, 2129.0, 2129.0, 2129.0, 2129.0, 2129.0, 2129.0, 2129.0, 2129.0, 2129.0, 2130.0, 2129.0, 2130.0, 2129.0, 2129.0, 2129.0, 2129.0, 2129.0, 2129.0, 2129.0, 2129.0, 2128.0, 2129.0, 2128.0, 2129.0, 2128.0, 2128.0, 2128.0, 2128.0, 2128.0, 2128.0, 2128.0, 2128.0, 2128.0, 2128.0, 2128.0, 2128.0, 2128.0, 2128.0, 2128.0, 2129.0, 2128.0, 2129.0, 2128.0, 2128.0, 2128.0, 2128.0, 2128.0, 2128.0, 2128.0, 2128.0, 2128.0, 2129.0, 2128.0, 2128.0, 2128.0, 2128.0, 2128.0, 2129.0, 2128.0, 2128.0, 2128.0, 2128.0, 2128.0, 2128.0, 2129.0, 2129.0, 2128.0, 2128.0, 2129.0, 2128.0, 2129.0, 2128.0, 2128.0, 2128.0, 2129.0, 2128.0, 2128.0, 2128.0, 2128.0, 2128.0, 2128.0, 2128.0, 2128.0, 2129.0, 2128.0, 2128.0, 2128.0, 2129.0, 2128.0, 2128.0, 2128.0, 2129.0, 2128.0, 2128.0, 2128.0, 2128.0, 2128.0, 2128.0, 2128.0, 2128.0, 2128.0, 2128.0, 2128.0, 2128.0, 2128.0, 2128.0, 2128.0, 2128.0, 2128.0, 2128.0, 2128.0, 2128.0, 2128.0, 2128.0, 2128.0, 2129.0, 2128.0, 2127.0, 2128.0, 2129.0, 2128.0, 2128.0, 2129.0, 2128.0, 2129.0, 2128.0, 2129.0, 2128.0, 2128.0, 2129.0]
    },
    "slices": {}
  }
}