{
  "AcquisitionMatrixPE": 80,
  "AcquisitionNumber": 1,
  "AcquisitionTime": "10:06:0.157500",
  "BandwidthPerPixelPhaseEncode": 44.643,
  "BaseResolution": 80,
  "BodyPartExamined": "BRAIN",
  "CoilCombinationMethod": "Sum of Squares",
  "ConsistencyInfo": "N4_VE11C_LATEST_20160120",
  "ConversionSoftware": "dcm2niix",
  "ConversionSoftwareVersion": "v1.0.20220720",
  "DerivedVendorReportedEchoSpacing": 0.000559998,
  "DeviceSerialNumber": "66112",
  "DwellTime": 2.7e-06,
  "EchoTime": 0.035,
  "EchoTrainLength": 39,
  "EffectiveEchoSpacing": 0.000279999,
  "FlipAngle": 90,
  "HeudiconvVersion": "0.13.1",
  "ImageOrientationPatientDICOM": [0.976654, 0.214518, 0.0113702, -0.207772, 0.929848, 0.303665],
  "ImageOrientationText": "Tra>Cor(17.4)>Sag(-3.1)",
  "ImageType": [
    "ORIGINAL",
    "PRIMARY",
    "M",
    "ND",
    "NORM",
    "MOSAIC"
],
  "ImagingFrequency": 123.253,
  "InPlanePhaseEncodingDirectionDICOM": "COL",
  "InstitutionAddress": "Maynard 3,Hanover,NH,US,03755",
  "InstitutionName": "Dartmouth College - PBS",
  "InstitutionalDepartmentName": "Department",
  "MRAcquisitionType": "2D",
  "MagneticFieldStrength": 3,
  "Manufacturer": "Siemens",
  "ManufacturersModelName": "Prisma",
  "Modality": "MR",
  "MultibandAccelerationFactor": 4,
  "NonlinearGradientCorrection": false,
  "ParallelReductionFactorInPlane": 2,
  "PartialFourier": 1,
  "PatientPosition": "HFS",
  "PercentPhaseFOV": 100,
  "PercentSampling": 100,
  "PhaseEncodingDirection": "j-",
  "PhaseEncodingSteps": 79,
  "PhaseResolution": 1,
  "PixelBandwidth": 2315,
  "ProcedureStepDescription": "dbic^QA",
  "ProtocolName": "func-bold_task-rest_acq-p2-s4-3.5mm",
  "PulseSequenceDetails": "%SiemensSeq%\\ep2d_bold",
  "ReceiveCoilActiveElements": "HEA;HEP",
  "ReceiveCoilName": "Head_32",
  "ReconMatrixPE": 80,
  "RefLinesPE": 24,
  "RepetitionTime": 2,
  "SAR": 0.0209165,
  "ScanOptions": "FS",
  "ScanningSequence": "EP",
  "SequenceName": "*epfid2d1_80",
  "SequenceVariant": "SK",
  "SeriesDescription": "func-bold_task-rest_acq-p2-s4-3.5mm",
  "SeriesNumber": 7,
  "ShimSetting": [4147, -7682, -7507, 258, -21, -226, -68, 47],
  "SliceThickness": 3.5,
  "SliceTiming": [1.485, 0, 0.99, 0.2475, 1.2375, 0.7425, 1.7325, 0.495, 1.485, 0, 0.99, 0.2475, 1.2375, 0.7425, 1.7325, 0.495, 1.485, 0, 0.99, 0.2475, 1.2375, 0.7425, 1.7325, 0.495, 1.485, 0, 0.99, 0.2475, 1.2375, 0.7425, 1.7325, 0.495],
  "SoftwareVersions": "syngo MR E11",
  "SpacingBetweenSlices": 3.99,
  "StationName": "AWP66112",
  "TaskName": "rest",
  "TotalReadoutTime": 0.0221199,
  "TxRefAmp": 227.927,
  "dcmmeta_affine": [
    [-2.929961681365967, -0.6233171820640564, -0.21773026883602142, 149.8318328857422],
    [-0.6435531973838806, 2.7895455360412598, 1.1927623748779297, -95.82733154296875],
    [0.03411047160625458, -0.9109947681427002, 3.8013172149658203, -34.2848014831543],
    [0.0, 0.0, 0.0, 1.0]
],
  "dcmmeta_reorient_transform": [
    [0.0, -1.0, 0.0, 79.0],
    [1.0, 0.0, 0.0, 0.0],
    [0.0, 0.0, 1.0, 0.0],
    [0.0, 0.0, 0.0, 1.0]
],
  "dcmmeta_shape": [80, 80, 32, 200],
  "dcmmeta_slice_dim": 2,
  "dcmmeta_version": 0.6,
  "global": {
    "const": {
      "AccessionNumber": "qa",
      "AcquisitionMatrix": [80, 0, 0, 80],
      "AngioFlag": "N",
      "BitsAllocated": 16,
      "BitsStored": 12,
      "BodyPartExamined": "BRAIN",
      "Columns": 480,
      "EchoNumbers": 1,
      "EchoTime": 35.0,
      "EchoTrainLength": 39,
      "FlipAngle": 90.0,
      "HighBit": 11,
      "ImageOrientationPatient": [0.97665391066342, 0.21451773422599, 0.01137015779979, -0.2077723860228, 0.92984850850809, 0.30366492525758],
      "ImagePositionPatient": [-561.91868665575, -811.1665121895, -295.27444040433],
      "ImageType": [
        "ORIGINAL",
        "PRIMARY",
        "M",
        "ND",
        "NORM",
        "MOSAIC"
],
      "ImagedNucleus": "1H",
      "ImagingFrequency": 123.252502,
      "InPlanePhaseEncodingDirection": "COL",
      "MRAcquisitionType": "2D",
      "MagneticFieldStrength": 3.0,
      "Manufacturer": "SIEMENS",
      "ManufacturerModelName": "Prisma",
      "Modality": "MR",
      "NumberOfAverages": 1.0,
      "NumberOfPhaseEncodingSteps": 79,
      "PercentPhaseFieldOfView": 100.0,
      "PercentSampling": 100.0,
      "PerformedProcedureStepStartTime": "093732.110000",
      "PhotometricInterpretation": "MONOCHROME2",
      "PixelBandwidth": 2315.0,
      "PixelRepresentation": 0,
      "PixelSpacing": [3.0, 3.0],
      "ProtocolName": "func-bold_task-rest_acq-p2-s4-3.5mm",
      "RepetitionTime": 2000.0,
      "Rows": 480,
      "SAR": 0.02091654034764,
      "SamplesPerPixel": 1,
      "ScanOptions": "FS",
      "ScanningSequence": "EP",
      "SequenceName": "*epfid2d1_80",
      "SequenceVariant": "SK",
      "SeriesDescription": "func-bold_task-rest_acq-p2-s4-3.5mm",
      "SeriesNumber": 7,
      "SeriesTime": "100644.888000",
      "SliceLocation": -69.48610659514,
      "SliceThickness": 3.5,
      "SmallestImagePixelValue": 0,
      "SoftwareVersions": "syngo MR E11",
      "SpacingBetweenSlices": 3.9900000712529,
      "SpecificCharacterSet": "ISO_IR 100",
      "StudyID": "73",
      "StudyTime": "093732.014000",
      "TransmitCoilName": "Body",
      "VariableFlipAngleFlag": "N",
      "WindowCenter": 912.0,
      "WindowCenterWidthExplanation": "Algo1",
      "dBdt": 0.0},
    "slices": {}
  },
  "time": {
    "samples": {
      "AcquisitionNumber": [1, 2, 3, 4, 5, 6, 7, 8, 9, 10, 11, 12, 13, 14, 15, 16, 17, 18, 19, 20, 21, 22, 23, 24, 25, 26, 27, 28, 29, 30, 31, 32, 33, 34, 35, 36, 37, 38, 39, 40, 41, 42, 43, 44, 45, 46, 47, 48, 49, 50, 51, 52, 53, 54, 55, 56, 57, 58, 59, 60, 61, 62, 63, 64, 65, 66, 67, 68, 69, 70, 71, 72, 73, 74, 75, 76, 77, 78, 79, 80, 81, 82, 83, 84, 85, 86, 87, 88, 89, 90, 91, 92, 93, 94, 95, 96, 97, 98, 99, 100, 101, 102, 103, 104, 105, 106, 107, 108, 109, 110, 111, 112, 113, 114, 115, 116, 117, 118, 119, 120, 121, 122, 123, 124, 125, 126, 127, 128, 129, 130, 131, 132, 133, 134, 135, 136, 137, 138, 139, 140, 141, 142, 143, 144, 145, 146, 147, 148, 149, 150, 151, 152, 153, 154, 155, 156, 157, 158, 159, 160, 161, 162, 163, 164, 165, 166, 167, 168, 169, 170, 171, 172, 173, 174, 175, 176, 177, 178, 179, 180, 181, 182, 183, 184, 185, 186, 187, 188, 189, 190, 191, 192, 193, 194, 195, 196, 197, 198, 199, 200],
      "AcquisitionTime": ["100600.157500", "100602.157500", "100604.157500", "100606.157500", "100608.157500", "100610.157500", "100612.157500", "100614.157500", "100616.157500", "100618.157500", "100620.157500", "100622.157500", "100624.157500", "100626.157500", "100628.157500", "100630.157500", "100632.157500", "100634.157500", "100636.157500", "100638.157500", "100640.157500", "100642.157500", "100644.157500", "100646.157500", "100648.157500", "100650.157500", "100652.157500", "100654.157500", "100656.157500", "100658.157500", "100700.157500", "100702.157500", "100704.157500", "100706.157500", "100708.157500", "100710.157500", "100712.157500", "100714.157500", "100716.157500", "100718.157500", "100720.157500", "100722.157500", "100724.157500", "100726.157500", "100728.157500", "100730.157500", "100732.157500", "100734.157500", "100736.157500", "100738.157500", "100740.157500", "100742.157500", "100744.157500", "100746.157500", "100748.157500", "100750.157500", "100752.157500", "100754.157500", "100756.157500", "100758.157500", "100800.157500", "100802.157500", "100804.157500", "100806.157500", "100808.157500", "100810.157500", "100812.157500", "100814.157500", "100816.157500", "100818.157500", "100820.157500", "100822.157500", "100824.157500", "100826.157500", "100828.157500", "100830.157500", "100832.157500", "100834.157500", "100836.157500", "100838.157500", "100840.157500", "100842.157500", "100844.157500", "100846.157500", "100848.157500", "100850.157500", "100852.157500", "100854.157500", "100856.157500", "100858.157500", "100900.157500", "100902.157500", "100904.157500", "100906.157500", "100908.157500", "100910.157500", "100912.157500", "100914.157500", "100916.157500", "100918.157500", "100920.157500", "100922.157500", "100924.157500", "100926.157500", "100928.157500", "100930.157500", "100932.157500", "100934.157500", "100936.157500", "100938.157500", "100940.157500", "100942.157500", "100944.157500", "100946.157500", "100948.157500", "100950.157500", "100952.157500", "100954.157500", "100956.157500", "100958.157500", "101000.157500", "101002.157500", "101004.157500", "101006.157500", "101008.157500", "101010.157500", "101012.157500", "101014.157500", "101016.157500", "101018.157500", "101020.157500", "101022.157500", "101024.157500", "101026.157500", "101028.157500", "101030.157500", "101032.157500", "101034.157500", "101036.157500", "101038.157500", "101040.157500", "101042.157500", "101044.157500", "101046.157500", "101048.157500", "101050.157500", "101052.157500", "101054.157500", "101056.157500", "101058.157500", "101100.157500", "101102.157500", "101104.157500", "101106.157500", "101108.157500", "101110.157500", "101112.157500", "101114.157500", "101116.157500", "101118.157500", "101120.157500", "101122.157500", "101124.157500", "101126.157500", "101128.157500", "101130.157500", "101132.157500", "101134.157500", "101136.157500", "101138.157500", "101140.157500", "101142.157500", "101144.157500", "101146.157500", "101148.157500", "101150.157500", "101152.157500", "101154.157500", "101156.157500", "101158.157500", "101200.157500", "101202.157500", "101204.157500", "101206.157500", "101208.157500", "101210.157500", "101212.157500", "101214.157500", "101216.157500", "101218.157500", "101220.157500", "101222.157500", "101224.157500", "101226.157500", "101228.157500", "101230.157500", "101232.157500", "101234.157500", "101236.157500", "101238.157500"],
      "ContentTime": ["100644.891000", "100644.895000", "100644.897000", "100644.900000", "100644.902000", "100644.905000", "100644.907000", "100644.910000", "100644.913000", "100644.915000", "100644.918000", "100644.920000", "100644.923000", "100644.925000", "100644.928000", "100644.938000", "100644.944000", "100644.946000", "100644.949000", "100644.952000", "100644.954000", "100644.957000", "100724.886000", "100724.889000", "100724.892000", "100724.894000", "100724.897000", "100724.900000", "100724.902000", "100724.905000", "100724.907000", "100724.910000", "100724.912000", "100724.915000", "100724.917000", "100724.920000", "100724.922000", "100724.925000", "100724.928000", "100724.930000", "100724.933000", "100724.935000", "100804.887000", "100804.890000", "100804.893000", "100804.896000", "100804.898000", "100804.901000", "100804.903000", "100804.906000", "100804.908000", "100804.911000", "100804.914000", "100804.916000", "100804.919000", "100804.921000", "100804.924000", "100804.926000", "100804.929000", "100804.932000", "100804.934000", "100804.937000", "100844.895000", "100844.898000", "100844.901000", "100844.903000", "100844.906000", "100844.909000", "100844.911000", "100844.914000", "100844.916000", "100844.919000", "100844.921000", "100844.924000", "100844.927000", "100844.929000", "100844.932000", "100844.934000", "100844.937000", "100844.939000", "100844.942000", "100844.944000", "100924.886000", "100924.889000", "100924.892000", "100924.894000", "100924.897000", "100924.900000", "100924.902000", "100924.905000", "100924.907000", "100924.910000", "100924.913000", "100924.915000", "100924.918000", "100924.920000", "100924.923000", "100924.925000", "100924.928000", "100924.931000", "100924.933000", "100924.936000", "101004.887000", "101004.890000", "101004.893000", "101004.895000", "101004.903000", "101004.906000", "101004.908000", "101004.911000", "101004.913000", "101004.916000", "101004.918000", "101004.921000", "101004.923000", "101004.926000", "101004.929000", "101004.931000", "101004.934000", "101004.936000", "101004.939000", "101004.941000", "101044.887000", "101044.890000", "101044.893000", "101044.896000", "101044.898000", "101044.901000", "101044.903000", "101044.906000", "101044.909000", "101044.911000", "101044.914000", "101044.916000", "101044.919000", "101044.921000", "101044.924000", "101044.927000", "101044.929000", "101044.932000", "101044.934000", "101044.937000", "101124.886000", "101124.889000", "101124.892000", "101124.894000", "101124.897000", "101124.900000", "101124.902000", "101124.905000", "101124.907000", "101124.910000", "101124.912000", "101124.915000", "101124.917000", "101124.920000", "101124.923000", "101124.925000", "101124.928000", "101124.930000", "101124.933000", "101124.935000", "101204.886000", "101204.889000", "101204.892000", "101204.894000", "101204.897000", "101204.914000", "101204.917000", "101204.919000", "101204.922000", "101204.925000", "101204.927000", "101204.930000", "101204.932000", "101204.935000", "101204.937000", "101204.940000", "101204.942000", "101204.945000", "101204.947000", "101204.950000", "101239.339000", "101239.342000", "101239.344000", "101239.347000", "101239.351000", "101239.353000", "101239.356000", "101239.359000", "101239.361000", "101239.364000", "101239.367000", "101239.369000", "101239.378000", "101239.381000", "101239.386000", "101239.389000", "101239.394000", "101239.397000"],
      "InstanceCreationTime": ["100644.891000", "100644.895000", "100644.897000", "100644.900000", "100644.902000", "100644.905000", "100644.907000", "100644.910000", "100644.913000", "100644.915000", "100644.918000", "100644.920000", "100644.923000", "100644.925000", "100644.928000", "100644.938000", "100644.944000", "100644.946000", "100644.949000", "100644.952000", "100644.954000", "100644.957000", "100724.886000", "100724.889000", "100724.892000", "100724.894000", "100724.897000", "100724.900000", "100724.902000", "100724.905000", "100724.907000", "100724.910000", "100724.912000", "100724.915000", "100724.917000", "100724.920000", "100724.922000", "100724.925000", "100724.928000", "100724.930000", "100724.933000", "100724.935000", "100804.887000", "100804.890000", "100804.893000", "100804.896000", "100804.898000", "100804.901000", "100804.903000", "100804.906000", "100804.908000", "100804.911000", "100804.914000", "100804.916000", "100804.919000", "100804.921000", "100804.924000", "100804.926000", "100804.929000", "100804.932000", "100804.934000", "100804.937000", "100844.895000", "100844.898000", "100844.901000", "100844.903000", "100844.906000", "100844.909000", "100844.911000", "100844.914000", "100844.916000", "100844.919000", "100844.921000", "100844.924000", "100844.927000", "100844.929000", "100844.932000", "100844.934000", "100844.937000", "100844.939000", "100844.942000", "100844.944000", "100924.886000", "100924.889000", "100924.892000", "100924.894000", "100924.897000", "100924.900000", "100924.902000", "100924.905000", "100924.907000", "100924.910000", "100924.913000", "100924.915000", "100924.918000", "100924.920000", "100924.923000", "100924.925000", "100924.928000", "100924.931000", "100924.933000", "100924.936000", "101004.887000", "101004.890000", "101004.893000", "101004.895000", "101004.903000", "101004.906000", "101004.908000", "101004.911000", "101004.913000", "101004.916000", "101004.918000", "101004.921000", "101004.923000", "101004.926000", "101004.929000", "101004.931000", "101004.934000", "101004.936000", "101004.939000", "101004.941000", "101044.887000", "101044.890000", "101044.893000", "101044.896000", "101044.898000", "101044.901000", "101044.903000", "101044.906000", "101044.909000", "101044.911000", "101044.914000", "101044.916000", "101044.919000", "101044.921000", "101044.924000", "101044.927000", "101044.929000", "101044.932000", "101044.934000", "101044.937000", "101124.886000", "101124.889000", "101124.892000", "101124.894000", "101124.897000", "101124.900000", "101124.902000", "101124.905000", "101124.907000", "101124.910000", "101124.912000", "101124.915000", "101124.917000", "101124.920000", "101124.923000", "101124.925000", "101124.928000", "101124.930000", "101124.933000", "101124.935000", "101204.886000", "101204.889000", "101204.892000", "101204.894000", "101204.897000", "101204.914000", "101204.917000", "101204.919000", "101204.922000", "101204.925000", "101204.927000", "101204.930000", "101204.932000", "101204.935000", "101204.937000", "101204.940000", "101204.942000", "101204.945000", "101204.947000", "101204.950000", "101239.339000", "101239.342000", "101239.344000", "101239.347000", "101239.351000", "101239.353000", "101239.356000", "101239.359000", "101239.361000", "101239.364000", "101239.367000", "101239.369000", "101239.378000", "101239.381000", "101239.386000", "101239.389000", "101239.394000", "101239.397000"],
      "InstanceNumber": [1, 2, 3, 4, 5, 6, 7, 8, 9, 10, 11, 12, 13, 14, 15, 16, 17, 18, 19, 20, 21, 22, 23, 24, 25, 26, 27, 28, 29, 30, 31, 32, 33, 34, 35, 36, 37, 38, 39, 40, 41, 42, 43, 44, 45, 46, 47, 48, 49, 50, 51, 52, 53, 54, 55, 56, 57, 58, 59, 60, 61, 62, 63, 64, 65, 66, 67, 68, 69, 70, 71, 72, 73, 74, 75, 76, 77, 78, 79, 80, 81, 82, 83, 84, 85, 86, 87, 88, 89, 90, 91, 92, 93, 94, 95, 96, 97, 98, 99, 100, 101, 102, 103, 104, 105, 106, 107, 108, 109, 110, 111, 112, 113, 114, 115, 116, 117, 118, 119, 120, 121, 122, 123, 124, 125, 126, 127, 128, 129, 130, 131, 132, 133, 134, 135, 136, 137, 138, 139, 140, 141, 142, 143, 144, 145, 146, 147, 148, 149, 150, 151, 152, 153, 154, 155, 156, 157, 158, 159, 160, 161, 162, 163, 164, 165, 166, 167, 168, 169, 170, 171, 172, 173, 174, 175, 176, 177, 178, 179, 180, 181, 182, 183, 184, 185, 186, 187, 188, 189, 190, 191, 192, 193, 194, 195, 196, 197, 198, 199, 200],
      "LargestImagePixelValue": [2084, 2079, 2082, 2081, 2083, 2083, 2082, 2078, 2079, 2078, 2079, 2082, 2081, 2082, 2084, 2080, 2083, 2081, 2084, 2082, 2081, 2083, 2082, 2079, 2082, 2082, 2085, 2085, 2084, 2085, 2083, 2085, 2081, 2082, 2081, 2083, 2086, 2086, 2081, 2081, 2085, 2082, 2081, 2088, 2084, 2086, 2087, 2086, 2083, 2085, 2085, 2088, 2087, 2086, 2086, 2086, 2087, 2082, 2086, 2087, 2084, 2089, 2085, 2085, 2087, 2088, 2089, 2084, 2086, 2084, 2083, 2087, 2083, 2083, 2087, 2082, 2082, 2083, 2085, 2080, 2083, 2081, 2082, 2083, 2085, 2083, 2086, 2088, 2088, 2089, 2086, 2087, 2083, 2085, 2085, 2087, 2084, 2084, 2086, 2092, 2087, 2083, 2088, 2087, 2086, 2084, 2088, 2083, 2086, 2088, 2082, 2087, 2087, 2091, 2085, 2087, 2087, 2084, 2085, 2088, 2087, 2087, 2083, 2084, 2083, 2080, 2087, 2083, 2087, 2087, 2086, 2087, 2086, 2085, 2086, 2082, 2084, 2087, 2088, 2089, 2085, 2088, 2082, 2085, 2083, 2086, 2089, 2088, 2091, 2087, 2087, 2087, 2092, 2087, 2083, 2087, 2084, 2088, 2090, 2086, 2085, 2088, 2084, 2083, 2090, 2088, 2085, 2089, 2087, 2084, 2087, 2085, 2091, 2086, 2090, 2085, 2084, 2085, 2085, 2086, 2087, 2087, 2090, 2090, 2089, 2089, 2087, 2085, 2090, 2088, 2087, 2085, 2093, 2083, 2085, 2088, 2086, 2084, 2089, 2084],
      "WindowWidth": [2064.0, 2064.0, 2064.0, 2064.0, 2064.0, 2064.0, 2064.0, 2064.0, 2064.0, 2064.0, 2064.0, 2064.0, 2064.0, 2064.0, 2064.0, 2063.0, 2064.0, 2063.0, 2063.0, 2064.0, 2064.0, 2064.0, 2064.0, 2064.0, 2063.0, 2064.0, 2064.0, 2064.0, 2064.0, 2064.0, 2063.0, 2063.0, 2064.0, 2064.0, 2064.0, 2064.0, 2064.0, 2064.0, 2064.0, 2063.0, 2064.0, 2064.0, 2064.0, 2064.0, 2064.0, 2064.0, 2064.0, 2064.0, 2064.0, 2064.0, 2063.0, 2064.0, 2064.0, 2063.0, 2064.0, 2063.0, 2063.0, 2064.0, 2064.0, 2064.0, 2064.0, 2064.0, 2064.0, 2064.0, 2064.0, 2064.0, 2064.0, 2064.0, 2064.0, 2064.0, 2064.0, 2064.0, 2064.0, 2064.0, 2064.0, 2063.0, 2064.0, 2064.0, 2064.0, 2063.0, 2064.0, 2063.0, 2064.0, 2064.0, 2064.0, 2063.0, 2064.0, 2064.0, 2063.0, 2064.0, 2064.0, 2064.0, 2064.0, 2064.0, 2064.0, 2064.0, 2064.0, 2064.0, 2064.0, 2064.0, 2064.0, 2064.0, 2064.0, 2064.0, 2064.0, 2064.0, 2064.0, 2064.0, 2064.0, 2064.0, 2064.0, 2063.0, 2063.0, 2064.0, 2064.0, 2064.0, 2063.0, 2064.0, 2063.0, 2064.0, 2064.0, 2064.0, 2064.0, 2064.0, 2064.0, 2064.0, 2064.0, 2064.0, 2063.0, 2064.0, 2064.0, 2063.0, 2064.0, 2064.0, 2063.0, 2063.0, 2063.0, 2063.0, 2063.0, 2063.0, 2063.0, 2064.0, 2063.0, 2064.0, 2063.0, 2063.0, 2064.0, 2064.0, 2063.0, 2064.0, 2064.0, 2063.0, 2064.0, 2063.0, 2063.0, 2064.0, 2063.0, 2063.0, 2063.0, 2064.0, 2063.0, 2063.0, 2064.0, 2064.0, 2064.0, 2063.0, 2063.0, 2064.0, 2063.0, 2063.0, 2063.0, 2063.0, 2063.0, 2063.0, 2063.0, 2064.0, 2063.0, 2063.0, 2063.0, 2063.0, 2063.0, 2063.0, 2063.0, 2063.0, 2063.0, 2063.0, 2063.0, 2063.0, 2063.0, 2063.0, 2063.0, 2064.0, 2063.0, 2063.0, 2063.0, 2064.0, 2063.0, 2063.0, 2063.0, 2063.0]
    },
    "slices": {}
  }
}