{
  "AccelFactPE": 2,
  "AcquisitionNumber": 1,
  "AcquisitionTime": "10:04:28.800000",
  "BandwidthPerPixelPhaseEncode": 48.077,
  "BodyPartExamined": "BRAIN",
  "ConversionSoftware": "dcm2niix",
  "ConversionSoftwareVersion": "v1.0.20170624 GCC6.3.0",
  "DeviceSerialNumber": "66112",
  "EchoTime": 0.035,
  "EchoTrainLength": 39,
  "EffectiveEchoSpacing": 0.00026,
  "FlipAngle": 90,
  "ImageType": [
    "ORIGINAL",
    "PRIMARY",
    "M",
    "ND",
    "NORM",
    "MOSAIC"
],
  "InstitutionAddress": "Maynard_3_Hanover_NH_US_03755",
  "InstitutionName": "Dartmouth_College_-_PBS",
  "MagneticFieldStrength": 3,
  "Manufacturer": "Siemens",
  "ManufacturersModelName": "Prisma",
  "PhaseEncodingDirection": "j-",
  "PhaseEncodingLines": 80,
  "ProcedureStepDescription": "dbic_QA",
  "ProtocolName": "func-bold_task-rest_acq-p2",
  "RepetitionTime": 2,
  "ScanningSequence": "EP",
  "SequenceName": "_epfid2d1_80",
  "SequenceVariant": "SK",
  "SeriesDescription": "func-bold_task-rest_acq-p2",
  "SliceTiming": [0.99, 0, 1.055, 0.065, 1.1225, 0.1325, 1.1875, 0.1975, 1.2525, 0.2625, 1.32, 0.33, 1.385, 0.395, 1.4525, 0.4625, 1.5175, 0.5275, 1.5825, 0.5925, 1.65, 0.66, 1.715, 0.725, 1.78, 0.7925, 1.8475, 0.8575, 1.9125, 0.9225],
  "SoftwareVersions": "syngo_MR_E11",
  "TaskName": "rest",
  "TotalReadoutTime": 0.02002,
  "TrueEchoSpacing": 0.000519999,
  "dcmmeta_affine": [
    [-2.9555532932281494, 0.5078568458557129, 0.10955800861120224, 91.39016723632812],
    [0.506026566028595, 2.7826266288757324, 1.3306158781051636, -136.5869598388672],
    [-0.0929582342505455, -0.9995352625846863, 3.7599945068359375, -6.113184928894043],
    [0.0, 0.0, 0.0, 1.0]
],
  "dcmmeta_reorient_transform": [
    [0.0, -1.0, 0.0, 79.0],
    [1.0, 0.0, 0.0, 0.0],
    [0.0, 0.0, 1.0, 0.0],
    [0.0, 0.0, 0.0, 1.0]
],
  "dcmmeta_shape": [80, 80, 30, 200],
  "dcmmeta_slice_dim": 2,
  "dcmmeta_version": 0.6,
  "global": {
    "const": {
      "AccessionNumber": "qa",
      "AcquisitionMatrix": [80, 0, 0, 80],
      "AngioFlag": "N",
      "BitsAllocated": 16,
      "BitsStored": 12,
      "BodyPartExamined": "BRAIN",
      "Columns": 480,
      "EchoNumbers": 1,
      "EchoTime": 35.0,
      "EchoTrainLength": 39,
      "FlipAngle": 90.0,
      "HighBit": 11,
      "ImageOrientationPatient": [0.98518446611102, -0.168675518965, -0.0309860780908, 0.16928561046481, 0.92754219703025, 0.33317841289293],
      "ImagePositionPatient": [-824.19290572282, -538.56054142919, -266.39186988201],
      "ImageType": [
        "ORIGINAL",
        "PRIMARY",
        "M",
        "ND",
        "NORM",
        "MOSAIC"
],
      "ImagedNucleus": "1H",
      "ImagingFrequency": 123.252511,
      "InPlanePhaseEncodingDirection": "COL",
      "MRAcquisitionType": "2D",
      "MagneticFieldStrength": 3.0,
      "Manufacturer": "SIEMENS",
      "ManufacturerModelName": "Prisma",
      "Modality": "MR",
      "NumberOfAverages": 1.0,
      "NumberOfPhaseEncodingSteps": 79,
      "PercentPhaseFieldOfView": 100.0,
      "PercentSampling": 100.0,
      "PerformedProcedureStepStartTime": "095203.831000",
      "PhotometricInterpretation": "MONOCHROME2",
      "PixelBandwidth": 2315.0,
      "PixelRepresentation": 0,
      "PixelSpacing": [3.0, 3.0],
      "PositionReferenceIndicator": "",
      "ProtocolName": "func-bold_task-rest_acq-p2",
      "RepetitionTime": 2000.0,
      "Rows": 480,
      "SAR": 0.05571773834906,
      "SamplesPerPixel": 1,
      "ScanOptions": "FS",
      "ScanningSequence": "EP",
      "SequenceName": "*epfid2d1_80",
      "SequenceVariant": "SK",
      "SeriesDescription": "func-bold_task-rest_acq-p2",
      "SeriesNumber": 5,
      "SeriesTime": "100511.228000",
      "SliceLocation": -48.801455196279,
      "SliceThickness": 3.5,
      "SmallestImagePixelValue": 0,
      "SoftwareVersions": "syngo MR E11",
      "SpacingBetweenSlices": 3.9900000236321,
      "SpecificCharacterSet": "ISO_IR 100",
      "StudyID": "68",
      "StudyTime": "095203.649000",
      "TransmitCoilName": "Body",
      "VariableFlipAngleFlag": "N",
      "WindowCenterWidthExplanation": "Algo1",
      "dBdt": 0.0},
    "slices": {}
  },
  "time": {
    "samples": {
      "AcquisitionNumber": [1, 2, 3, 4, 5, 6, 7, 8, 9, 10, 11, 12, 13, 14, 15, 16, 17, 18, 19, 20, 21, 22, 23, 24, 25, 26, 27, 28, 29, 30, 31, 32, 33, 34, 35, 36, 37, 38, 39, 40, 41, 42, 43, 44, 45, 46, 47, 48, 49, 50, 51, 52, 53, 54, 55, 56, 57, 58, 59, 60, 61, 62, 63, 64, 65, 66, 67, 68, 69, 70, 71, 72, 73, 74, 75, 76, 77, 78, 79, 80, 81, 82, 83, 84, 85, 86, 87, 88, 89, 90, 91, 92, 93, 94, 95, 96, 97, 98, 99, 100, 101, 102, 103, 104, 105, 106, 107, 108, 109, 110, 111, 112, 113, 114, 115, 116, 117, 118, 119, 120, 121, 122, 123, 124, 125, 126, 127, 128, 129, 130, 131, 132, 133, 134, 135, 136, 137, 138, 139, 140, 141, 142, 143, 144, 145, 146, 147, 148, 149, 150, 151, 152, 153, 154, 155, 156, 157, 158, 159, 160, 161, 162, 163, 164, 165, 166, 167, 168, 169, 170, 171, 172, 173, 174, 175, 176, 177, 178, 179, 180, 181, 182, 183, 184, 185, 186, 187, 188, 189, 190, 191, 192, 193, 194, 195, 196, 197, 198, 199, 200],
      "AcquisitionTime": ["100428.800000", "100430.800000", "100432.800000", "100434.800000", "100436.800000", "100438.800000", "100440.800000", "100442.800000", "100444.800000", "100446.800000", "100448.800000", "100450.800000", "100452.800000", "100454.800000", "100456.800000", "100458.800000", "100500.800000", "100502.800000", "100504.800000", "100506.800000", "100508.800000", "100510.800000", "100512.800000", "100514.800000", "100516.800000", "100518.800000", "100520.800000", "100522.800000", "100524.800000", "100526.800000", "100528.800000", "100530.800000", "100532.800000", "100534.800000", "100536.800000", "100538.800000", "100540.800000", "100542.800000", "100544.800000", "100546.800000", "100548.800000", "100550.800000", "100552.800000", "100554.800000", "100556.800000", "100558.800000", "100600.800000", "100602.800000", "100604.800000", "100606.800000", "100608.800000", "100610.800000", "100612.800000", "100614.800000", "100616.800000", "100618.800000", "100620.800000", "100622.800000", "100624.800000", "100626.800000", "100628.800000", "100630.800000", "100632.800000", "100634.800000", "100636.800000", "100638.800000", "100640.800000", "100642.800000", "100644.800000", "100646.800000", "100648.800000", "100650.800000", "100652.800000", "100654.800000", "100656.800000", "100658.800000", "100700.800000", "100702.800000", "100704.800000", "100706.800000", "100708.800000", "100710.800000", "100712.800000", "100714.800000", "100716.800000", "100718.800000", "100720.800000", "100722.800000", "100724.800000", "100726.800000", "100728.800000", "100730.800000", "100732.800000", "100734.800000", "100736.800000", "100738.800000", "100740.800000", "100742.800000", "100744.800000", "100746.800000", "100748.800000", "100750.800000", "100752.800000", "100754.800000", "100756.800000", "100758.800000", "100800.800000", "100802.800000", "100804.800000", "100806.800000", "100808.800000", "100810.800000", "100812.800000", "100814.800000", "100816.800000", "100818.800000", "100820.800000", "100822.800000", "100824.800000", "100826.800000", "100828.800000", "100830.800000", "100832.800000", "100834.800000", "100836.800000", "100838.800000", "100840.800000", "100842.800000", "100844.800000", "100846.800000", "100848.800000", "100850.800000", "100852.800000", "100854.800000", "100856.800000", "100858.800000", "100900.800000", "100902.800000", "100904.800000", "100906.800000", "100908.800000", "100910.800000", "100912.800000", "100914.800000", "100916.800000", "100918.800000", "100920.800000", "100922.800000", "100924.800000", "100926.800000", "100928.800000", "100930.800000", "100932.800000", "100934.800000", "100936.800000", "100938.800000", "100940.800000", "100942.800000", "100944.800000", "100946.800000", "100948.800000", "100950.800000", "100952.800000", "100954.800000", "100956.800000", "100958.800000", "101000.800000", "101002.800000", "101004.800000", "101006.800000", "101008.800000", "101010.800000", "101012.800000", "101014.800000", "101016.800000", "101018.800000", "101020.800000", "101022.800000", "101024.800000", "101026.800000", "101028.800000", "101030.800000", "101032.800000", "101034.800000", "101036.800000", "101038.800000", "101040.800000", "101042.800000", "101044.800000", "101046.800000", "101048.800000", "101050.800000", "101052.800000", "101054.800000", "101056.800000", "101058.800000", "101100.800000", "101102.800000", "101104.800000", "101106.800000"],
      "ContentTime": ["100511.232000", "100511.236000", "100511.238000", "100511.241000", "100511.244000", "100511.246000", "100511.249000", "100511.251000", "100511.254000", "100511.257000", "100511.260000", "100511.262000", "100511.265000", "100511.267000", "100511.270000", "100511.273000", "100511.275000", "100511.278000", "100511.280000", "100511.283000", "100511.287000", "100551.217000", "100551.220000", "100551.223000", "100551.226000", "100551.228000", "100551.231000", "100551.233000", "100551.246000", "100551.249000", "100551.251000", "100551.254000", "100551.257000", "100551.259000", "100551.262000", "100551.264000", "100551.267000", "100551.270000", "100551.272000", "100551.275000", "100551.278000", "100611.217000", "100611.219000", "100611.222000", "100611.225000", "100611.227000", "100611.230000", "100611.232000", "100611.235000", "100611.238000", "100611.240000", "100651.216000", "100651.219000", "100651.222000", "100651.232000", "100651.234000", "100651.237000", "100651.239000", "100651.242000", "100651.245000", "100651.247000", "100651.250000", "100651.252000", "100651.255000", "100651.257000", "100651.260000", "100651.266000", "100651.268000", "100651.271000", "100651.273000", "100651.276000", "100731.217000", "100731.220000", "100731.223000", "100731.225000", "100731.228000", "100731.231000", "100731.233000", "100731.236000", "100731.239000", "100731.241000", "100731.244000", "100731.246000", "100731.249000", "100731.252000", "100731.254000", "100731.257000", "100731.259000", "100731.262000", "100731.265000", "100731.267000", "100811.217000", "100811.228000", "100811.230000", "100811.233000", "100811.235000", "100811.238000", "100811.241000", "100811.243000", "100811.246000", "100811.248000", "100811.251000", "100811.254000", "100811.256000", "100811.259000", "100811.261000", "100811.264000", "100811.266000", "100811.269000", "100811.272000", "100811.274000", "100851.217000", "100851.219000", "100851.222000", "100851.224000", "100851.227000", "100851.230000", "100851.232000", "100851.235000", "100851.237000", "100851.240000", "100851.243000", "100851.246000", "100851.248000", "100851.251000", "100851.253000", "100851.256000", "100851.259000", "100851.261000", "100851.264000", "100851.266000", "100931.217000", "100931.220000", "100931.223000", "100931.225000", "100931.228000", "100931.231000", "100931.233000", "100931.236000", "100931.238000", "100931.241000", "100931.243000", "100931.246000", "100931.249000", "100931.251000", "100931.267000", "100931.270000", "100931.272000", "100931.275000", "100931.278000", "100931.280000", "101011.218000", "101011.220000", "101011.223000", "101011.226000", "101011.228000", "101011.231000", "101011.233000", "101011.236000", "101011.238000", "101011.241000", "101011.244000", "101011.246000", "101011.249000", "101011.251000", "101011.254000", "101011.257000", "101011.259000", "101011.262000", "101011.265000", "101011.267000", "101051.217000", "101051.219000", "101051.222000", "101051.225000", "101051.227000", "101051.230000", "101051.232000", "101051.235000", "101051.238000", "101051.240000", "101051.243000", "101051.245000", "101051.248000", "101051.251000", "101051.253000", "101051.256000", "101051.258000", "101051.261000", "101051.264000", "101051.266000", "101108.707000", "101108.709000", "101108.712000", "101108.715000", "101108.718000", "101108.720000", "101108.723000", "101108.725000", "101108.728000"],
      "InstanceCreationTime": ["100511.232000", "100511.236000", "100511.238000", "100511.241000", "100511.244000", "100511.246000", "100511.249000", "100511.251000", "100511.254000", "100511.257000", "100511.260000", "100511.262000", "100511.265000", "100511.267000", "100511.270000", "100511.273000", "100511.275000", "100511.278000", "100511.280000", "100511.283000", "100511.287000", "100551.217000", "100551.220000", "100551.223000", "100551.226000", "100551.228000", "100551.231000", "100551.233000", "100551.246000", "100551.249000", "100551.251000", "100551.254000", "100551.257000", "100551.259000", "100551.262000", "100551.264000", "100551.267000", "100551.270000", "100551.272000", "100551.275000", "100551.278000", "100611.217000", "100611.219000", "100611.222000", "100611.225000", "100611.227000", "100611.230000", "100611.232000", "100611.235000", "100611.238000", "100611.240000", "100651.216000", "100651.219000", "100651.222000", "100651.232000", "100651.234000", "100651.237000", "100651.239000", "100651.242000", "100651.245000", "100651.247000", "100651.250000", "100651.252000", "100651.255000", "100651.257000", "100651.260000", "100651.266000", "100651.268000", "100651.271000", "100651.273000", "100651.276000", "100731.217000", "100731.220000", "100731.223000", "100731.225000", "100731.228000", "100731.231000", "100731.233000", "100731.236000", "100731.239000", "100731.241000", "100731.244000", "100731.246000", "100731.249000", "100731.252000", "100731.254000", "100731.257000", "100731.259000", "100731.262000", "100731.265000", "100731.267000", "100811.217000", "100811.228000", "100811.230000", "100811.233000", "100811.235000", "100811.238000", "100811.241000", "100811.243000", "100811.246000", "100811.248000", "100811.251000", "100811.254000", "100811.256000", "100811.259000", "100811.261000", "100811.264000", "100811.266000", "100811.269000", "100811.272000", "100811.274000", "100851.217000", "100851.219000", "100851.222000", "100851.224000", "100851.227000", "100851.230000", "100851.232000", "100851.235000", "100851.237000", "100851.240000", "100851.243000", "100851.246000", "100851.248000", "100851.251000", "100851.253000", "100851.256000", "100851.259000", "100851.261000", "100851.264000", "100851.266000", "100931.217000", "100931.220000", "100931.223000", "100931.225000", "100931.228000", "100931.231000", "100931.233000", "100931.236000", "100931.238000", "100931.241000", "100931.243000", "100931.246000", "100931.249000", "100931.251000", "100931.267000", "100931.270000", "100931.272000", "100931.275000", "100931.278000", "100931.280000", "101011.218000", "101011.220000", "101011.223000", "101011.226000", "101011.228000", "101011.231000", "101011.233000", "101011.236000", "101011.238000", "101011.241000", "101011.244000", "101011.246000", "101011.249000", "101011.251000", "101011.254000", "101011.257000", "101011.259000", "101011.262000", "101011.265000", "101011.267000", "101051.217000", "101051.219000", "101051.222000", "101051.225000", "101051.227000", "101051.230000", "101051.232000", "101051.235000", "101051.238000", "101051.240000", "101051.243000", "101051.245000", "101051.248000", "101051.251000", "101051.253000", "101051.256000", "101051.258000", "101051.261000", "101051.264000", "101051.266000", "101108.707000", "101108.709000", "101108.712000", "101108.715000", "101108.718000", "101108.720000", "101108.723000", "101108.725000", "101108.728000"],
      "InstanceNumber": [1, 2, 3, 4, 5, 6, 7, 8, 9, 10, 11, 12, 13, 14, 15, 16, 17, 18, 19, 20, 21, 22, 23, 24, 25, 26, 27, 28, 29, 30, 31, 32, 33, 34, 35, 36, 37, 38, 39, 40, 41, 42, 43, 44, 45, 46, 47, 48, 49, 50, 51, 52, 53, 54, 55, 56, 57, 58, 59, 60, 61, 62, 63, 64, 65, 66, 67, 68, 69, 70, 71, 72, 73, 74, 75, 76, 77, 78, 79, 80, 81, 82, 83, 84, 85, 86, 87, 88, 89, 90, 91, 92, 93, 94, 95, 96, 97, 98, 99, 100, 101, 102, 103, 104, 105, 106, 107, 108, 109, 110, 111, 112, 113, 114, 115, 116, 117, 118, 119, 120, 121, 122, 123, 124, 125, 126, 127, 128, 129, 130, 131, 132, 133, 134, 135, 136, 137, 138, 139, 140, 141, 142, 143, 144, 145, 146, 147, 148, 149, 150, 151, 152, 153, 154, 155, 156, 157, 158, 159, 160, 161, 162, 163, 164, 165, 166, 167, 168, 169, 170, 171, 172, 173, 174, 175, 176, 177, 178, 179, 180, 181, 182, 183, 184, 185, 186, 187, 188, 189, 190, 191, 192, 193, 194, 195, 196, 197, 198, 199, 200],
      "LargestImagePixelValue": [2346, 2342, 2351, 2348, 2351, 2349, 2353, 2355, 2352, 2351, 2343, 2345, 2345, 2346, 2351, 2352, 2348, 2343, 2350, 2351, 2345, 2343, 2350, 2343, 2352, 2346, 2350, 2348, 2346, 2349, 2349, 2352, 2347, 2355, 2354, 2356, 2351, 2350, 2351, 2347, 2345, 2357, 2358, 2344, 2351, 2350, 2352, 2348, 2344, 2347, 2351, 2351, 2357, 2348, 2349, 2349, 2349, 2360, 2355, 2347, 2347, 2356, 2347, 2346, 2349, 2345, 2351, 2353, 2353, 2349, 2348, 2352, 2351, 2352, 2346, 2349, 2356, 2351, 2345, 2350, 2355, 2342, 2350, 2352, 2348, 2353, 2348, 2356, 2349, 2347, 2357, 2345, 2353, 2352, 2343, 2347, 2350, 2350, 2352, 2353, 2352, 2356, 2353, 2350, 2349, 2356, 2358, 2354, 2349, 2343, 2348, 2354, 2356, 2348, 2350, 2350, 2350, 2349, 2349, 2357, 2350, 2348, 2357, 2358, 2345, 2348, 2358, 2348, 2349, 2356, 2350, 2355, 2352, 2360, 2359, 2356, 2350, 2345, 2351, 2352, 2348, 2351, 2353, 2348, 2350, 2345, 2346, 2352, 2352, 2347, 2348, 2348, 2350, 2348, 2346, 2350, 2357, 2349, 2354, 2350, 2350, 2345, 2353, 2348, 2347, 2346, 2358, 2358, 2346, 2351, 2339, 2352, 2348, 2352, 2356, 2347, 2346, 2346, 2354, 2354, 2361, 2350, 2345, 2348, 2352, 2347, 2355, 2347, 2355, 2354, 2347, 2356, 2348, 2359, 2356, 2359, 2348, 2350, 2353, 2351],
      "WindowCenter": [1027.0, 1027.0, 1027.0, 1027.0, 1027.0, 1027.0, 1027.0, 1027.0, 1027.0, 1027.0, 1027.0, 1027.0, 1027.0, 1027.0, 1027.0, 1027.0, 1027.0, 1027.0, 1027.0, 1027.0, 1027.0, 1027.0, 1027.0, 1027.0, 1027.0, 1027.0, 1027.0, 1027.0, 1027.0, 1027.0, 1027.0, 1027.0, 1027.0, 1027.0, 1027.0, 1027.0, 1027.0, 1027.0, 1027.0, 1027.0, 1027.0, 1027.0, 1027.0, 1027.0, 1027.0, 1027.0, 1027.0, 1027.0, 1028.0, 1027.0, 1027.0, 1027.0, 1027.0, 1027.0, 1027.0, 1027.0, 1027.0, 1027.0, 1027.0, 1027.0, 1027.0, 1027.0, 1027.0, 1027.0, 1027.0, 1027.0, 1027.0, 1027.0, 1027.0, 1027.0, 1027.0, 1027.0, 1027.0, 1027.0, 1027.0, 1027.0, 1027.0, 1027.0, 1027.0, 1027.0, 1027.0, 1027.0, 1027.0, 1027.0, 1027.0, 1027.0, 1027.0, 1027.0, 1027.0, 1027.0, 1027.0, 1027.0, 1027.0, 1027.0, 1027.0, 1027.0, 1027.0, 1027.0, 1027.0, 1027.0, 1027.0, 1027.0, 1027.0, 1027.0, 1027.0, 1027.0, 1027.0, 1027.0, 1028.0, 1027.0, 1027.0, 1027.0, 1027.0, 1027.0, 1027.0, 1027.0, 1027.0, 1027.0, 1027.0, 1027.0, 1027.0, 1027.0, 1028.0, 1027.0, 1027.0, 1027.0, 1027.0, 1028.0, 1027.0, 1027.0, 1027.0, 1027.0, 1027.0, 1027.0, 1027.0, 1027.0, 1027.0, 1027.0, 1027.0, 1027.0, 1027.0, 1027.0, 1027.0, 1027.0, 1027.0, 1027.0, 1027.0, 1027.0, 1027.0, 1027.0, 1027.0, 1027.0, 1027.0, 1027.0, 1027.0, 1028.0, 1027.0, 1027.0, 1027.0, 1027.0, 1027.0, 1027.0, 1027.0, 1027.0, 1027.0, 1027.0, 1027.0, 1027.0, 1027.0, 1027.0, 1027.0, 1027.0, 1027.0, 1027.0, 1027.0, 1027.0, 1027.0, 1027.0, 1027.0, 1027.0, 1027.0, 1027.0, 1027.0, 1027.0, 1027.0, 1027.0, 1027.0, 1027.0, 1027.0, 1027.0, 1027.0, 1027.0, 1027.0, 1027.0, 1027.0, 1027.0, 1027.0, 1027.0, 1027.0, 1027.0],
      "WindowWidth": [2283.0, 2282.0, 2282.0, 2282.0, 2282.0, 2282.0, 2282.0, 2282.0, 2282.0, 2282.0, 2282.0, 2282.0, 2282.0, 2282.0, 2282.0, 2282.0, 2282.0, 2282.0, 2282.0, 2282.0, 2282.0, 2282.0, 2283.0, 2282.0, 2282.0, 2282.0, 2282.0, 2282.0, 2282.0, 2282.0, 2282.0, 2282.0, 2282.0, 2282.0, 2282.0, 2282.0, 2282.0, 2283.0, 2282.0, 2282.0, 2282.0, 2282.0, 2282.0, 2282.0, 2282.0, 2282.0, 2282.0, 2282.0, 2284.0, 2282.0, 2282.0, 2282.0, 2282.0, 2282.0, 2282.0, 2282.0, 2282.0, 2282.0, 2282.0, 2282.0, 2282.0, 2282.0, 2282.0, 2282.0, 2282.0, 2282.0, 2282.0, 2282.0, 2282.0, 2282.0, 2282.0, 2282.0, 2282.0, 2282.0, 2282.0, 2282.0, 2282.0, 2282.0, 2282.0, 2282.0, 2282.0, 2282.0, 2282.0, 2282.0, 2282.0, 2282.0, 2282.0, 2282.0, 2282.0, 2282.0, 2283.0, 2282.0, 2282.0, 2283.0, 2282.0, 2282.0, 2282.0, 2282.0, 2282.0, 2282.0, 2282.0, 2283.0, 2282.0, 2282.0, 2282.0, 2282.0, 2282.0, 2282.0, 2283.0, 2282.0, 2282.0, 2283.0, 2282.0, 2282.0, 2282.0, 2283.0, 2282.0, 2282.0, 2282.0, 2282.0, 2282.0, 2282.0, 2283.0, 2282.0, 2282.0, 2282.0, 2282.0, 2283.0, 2282.0, 2282.0, 2282.0, 2282.0, 2282.0, 2282.0, 2282.0, 2282.0, 2283.0, 2282.0, 2283.0, 2282.0, 2282.0, 2282.0, 2282.0, 2282.0, 2282.0, 2282.0, 2282.0, 2282.0, 2282.0, 2282.0, 2282.0, 2282.0, 2282.0, 2282.0, 2282.0, 2283.0, 2282.0, 2282.0, 2282.0, 2282.0, 2282.0, 2282.0, 2282.0, 2282.0, 2282.0, 2282.0, 2283.0, 2282.0, 2282.0, 2282.0, 2282.0, 2282.0, 2282.0, 2282.0, 2282.0, 2282.0, 2282.0, 2282.0, 2282.0, 2282.0, 2282.0, 2282.0, 2282.0, 2282.0, 2282.0, 2282.0, 2282.0, 2282.0, 2282.0, 2282.0, 2282.0, 2282.0, 2282.0, 2282.0, 2282.0, 2282.0, 2282.0, 2282.0, 2282.0, 2282.0]
    },
    "slices": {}
  }
}