{
  "AcquisitionNumber": 1,
  "AcquisitionTime": "10:11:23.165000",
  "BandwidthPerPixelPhaseEncode": 44.643,
  "BodyPartExamined": "BRAIN",
  "ConversionSoftware": "dcm2niix",
  "ConversionSoftwareVersion": "v1.0.20170624 GCC6.3.0",
  "DeviceSerialNumber": "66112",
  "EchoTime": 0.035,
  "EchoTrainLength": 39,
  "EffectiveEchoSpacing": 0.000279999,
  "FlipAngle": 90,
  "ImageType": [
    "ORIGINAL",
    "PRIMARY",
    "M",
    "ND",
    "NORM",
    "MOSAIC"
],
  "InstitutionAddress": "Maynard_3_Hanover_NH_US_03755",
  "InstitutionName": "Dartmouth_College_-_PBS",
  "MagneticFieldStrength": 3,
  "Manufacturer": "Siemens",
  "ManufacturersModelName": "Prisma",
  "PhaseEncodingDirection": "j-",
  "PhaseEncodingLines": 80,
  "ProcedureStepDescription": "dbic_QA",
  "ProtocolName": "func-bold_task-rest_acq-p2-s4-3.5mm",
  "RepetitionTime": 2,
  "ScanningSequence": "EP",
  "SequenceName": "_epfid2d1_80",
  "SequenceVariant": "SK",
  "SeriesDescription": "func-bold_task-rest_acq-p2-s4-3.5mm",
  "SliceTiming": [1.485, 0, 0.99, 0.2475, 1.2375, 0.7425, 1.7325, 0.495, 1.485, 0, 0.99, 0.2475, 1.2375, 0.7425, 1.7325, 0.495, 1.485, 0, 0.99, 0.2475, 1.2375, 0.7425, 1.7325, 0.495, 1.485, 0, 0.99, 0.2475, 1.2375, 0.7425, 1.7325, 0.495],
  "SoftwareVersions": "syngo_MR_E11",
  "TaskName": "rest",
  "TotalReadoutTime": 0.0218399,
  "dcmmeta_affine": [
    [-2.9555532932281494, 0.5078568458557129, 0.10955800861120224, 91.28060913085938],
    [0.506026566028595, 2.7826266288757324, 1.3306158781051636, -137.91758728027344],
    [-0.0929582342505455, -0.9995352625846863, 3.7599945068359375, -9.87317943572998],
    [0.0, 0.0, 0.0, 1.0]
],
  "dcmmeta_reorient_transform": [
    [0.0, -1.0, 0.0, 79.0],
    [1.0, 0.0, 0.0, 0.0],
    [0.0, 0.0, 1.0, 0.0],
    [0.0, 0.0, 0.0, 1.0]
],
  "dcmmeta_shape": [80, 80, 32, 200],
  "dcmmeta_slice_dim": 2,
  "dcmmeta_version": 0.6,
  "global": {
    "const": {
      "AccessionNumber": "qa",
      "AcquisitionMatrix": [80, 0, 0, 80],
      "AngioFlag": "N",
      "BitsAllocated": 16,
      "BitsStored": 12,
      "BodyPartExamined": "BRAIN",
      "Columns": 480,
      "EchoNumbers": 1,
      "EchoTime": 35.0,
      "EchoTrainLength": 39,
      "FlipAngle": 90.0,
      "HighBit": 11,
      "ImageOrientationPatient": [0.98518446611102, -0.168675518965, -0.0309860780908, 0.16928561046481, 0.92754219703025, 0.33317841289293],
      "ImagePositionPatient": [-824.08334761736, -537.22992590872, -270.15186438885],
      "ImageType": [
        "ORIGINAL",
        "PRIMARY",
        "M",
        "ND",
        "NORM",
        "MOSAIC"
],
      "ImagedNucleus": "1H",
      "ImagingFrequency": 123.252511,
      "InPlanePhaseEncodingDirection": "COL",
      "MRAcquisitionType": "2D",
      "MagneticFieldStrength": 3.0,
      "Manufacturer": "SIEMENS",
      "ManufacturerModelName": "Prisma",
      "Modality": "MR",
      "NumberOfAverages": 1.0,
      "NumberOfPhaseEncodingSteps": 79,
      "PercentPhaseFieldOfView": 100.0,
      "PercentSampling": 100.0,
      "PerformedProcedureStepStartTime": "095203.831000",
      "PhotometricInterpretation": "MONOCHROME2",
      "PixelBandwidth": 2315.0,
      "PixelRepresentation": 0,
      "PixelSpacing": [3.0, 3.0],
      "PositionReferenceIndicator": "",
      "ProtocolName": "func-bold_task-rest_acq-p2-s4-3.5mm",
      "RepetitionTime": 2000.0,
      "Rows": 480,
      "SAR": 0.02095149362176,
      "SamplesPerPixel": 1,
      "ScanOptions": "FS",
      "ScanningSequence": "EP",
      "SequenceName": "*epfid2d1_80",
      "SequenceVariant": "SK",
      "SeriesDescription": "func-bold_task-rest_acq-p2-s4-3.5mm",
      "SeriesNumber": 7,
      "SeriesTime": "101211.289000",
      "SliceLocation": -52.791455112725,
      "SliceThickness": 3.5,
      "SmallestImagePixelValue": 0,
      "SoftwareVersions": "syngo MR E11",
      "SpacingBetweenSlices": 3.9900000218466,
      "SpecificCharacterSet": "ISO_IR 100",
      "StudyID": "68",
      "StudyTime": "095203.649000",
      "TransmitCoilName": "Body",
      "VariableFlipAngleFlag": "N",
      "WindowCenter": 951.0,
      "WindowCenterWidthExplanation": "Algo1",
      "dBdt": 0.0},
    "slices": {}
  },
  "time": {
    "samples": {
      "AcquisitionNumber": [1, 2, 3, 4, 5, 6, 7, 8, 9, 10, 11, 12, 13, 14, 15, 16, 17, 18, 19, 20, 21, 22, 23, 24, 25, 26, 27, 28, 29, 30, 31, 32, 33, 34, 35, 36, 37, 38, 39, 40, 41, 42, 43, 44, 45, 46, 47, 48, 49, 50, 51, 52, 53, 54, 55, 56, 57, 58, 59, 60, 61, 62, 63, 64, 65, 66, 67, 68, 69, 70, 71, 72, 73, 74, 75, 76, 77, 78, 79, 80, 81, 82, 83, 84, 85, 86, 87, 88, 89, 90, 91, 92, 93, 94, 95, 96, 97, 98, 99, 100, 101, 102, 103, 104, 105, 106, 107, 108, 109, 110, 111, 112, 113, 114, 115, 116, 117, 118, 119, 120, 121, 122, 123, 124, 125, 126, 127, 128, 129, 130, 131, 132, 133, 134, 135, 136, 137, 138, 139, 140, 141, 142, 143, 144, 145, 146, 147, 148, 149, 150, 151, 152, 153, 154, 155, 156, 157, 158, 159, 160, 161, 162, 163, 164, 165, 166, 167, 168, 169, 170, 171, 172, 173, 174, 175, 176, 177, 178, 179, 180, 181, 182, 183, 184, 185, 186, 187, 188, 189, 190, 191, 192, 193, 194, 195, 196, 197, 198, 199, 200],
      "AcquisitionTime": ["101123.165000", "101125.165000", "101127.165000", "101129.165000", "101131.165000", "101133.165000", "101135.165000", "101137.165000", "101139.165000", "101141.165000", "101143.165000", "101145.165000", "101147.165000", "101149.165000", "101151.165000", "101153.165000", "101155.165000", "101157.165000", "101159.165000", "101201.165000", "101203.165000", "101205.165000", "101207.165000", "101209.165000", "101211.165000", "101213.165000", "101215.165000", "101217.165000", "101219.165000", "101221.165000", "101223.165000", "101225.165000", "101227.165000", "101229.165000", "101231.165000", "101233.165000", "101235.165000", "101237.165000", "101239.165000", "101241.165000", "101243.165000", "101245.165000", "101247.165000", "101249.165000", "101251.165000", "101253.165000", "101255.165000", "101257.165000", "101259.165000", "101301.165000", "101303.165000", "101305.165000", "101307.165000", "101309.165000", "101311.165000", "101313.165000", "101315.165000", "101317.165000", "101319.165000", "101321.165000", "101323.165000", "101325.165000", "101327.165000", "101329.165000", "101331.165000", "101333.165000", "101335.165000", "101337.165000", "101339.165000", "101341.165000", "101343.165000", "101345.165000", "101347.165000", "101349.165000", "101351.165000", "101353.165000", "101355.165000", "101357.165000", "101359.165000", "101401.165000", "101403.165000", "101405.165000", "101407.165000", "101409.165000", "101411.165000", "101413.165000", "101415.165000", "101417.165000", "101419.165000", "101421.165000", "101423.165000", "101425.165000", "101427.165000", "101429.165000", "101431.165000", "101433.165000", "101435.165000", "101437.165000", "101439.165000", "101441.165000", "101443.165000", "101445.165000", "101447.165000", "101449.165000", "101451.165000", "101453.165000", "101455.165000", "101457.165000", "101459.165000", "101501.165000", "101503.165000", "101505.165000", "101507.165000", "101509.165000", "101511.165000", "101513.165000", "101515.165000", "101517.165000", "101519.165000", "101521.165000", "101523.165000", "101525.165000", "101527.165000", "101529.165000", "101531.165000", "101533.165000", "101535.165000", "101537.165000", "101539.165000", "101541.165000", "101543.165000", "101545.165000", "101547.165000", "101549.165000", "101551.165000", "101553.165000", "101555.165000", "101557.165000", "101559.165000", "101601.165000", "101603.165000", "101605.165000", "101607.165000", "101609.165000", "101611.165000", "101613.165000", "101615.165000", "101617.165000", "101619.165000", "101621.165000", "101623.165000", "101625.165000", "101627.165000", "101629.165000", "101631.165000", "101633.165000", "101635.165000", "101637.165000", "101639.165000", "101641.165000", "101643.165000", "101645.165000", "101647.165000", "101649.165000", "101651.165000", "101653.165000", "101655.165000", "101657.165000", "101659.165000", "101701.165000", "101703.165000", "101705.165000", "101707.165000", "101709.165000", "101711.165000", "101713.165000", "101715.165000", "101717.165000", "101719.165000", "101721.165000", "101723.165000", "101725.165000", "101727.165000", "101729.165000", "101731.165000", "101733.165000", "101735.165000", "101737.165000", "101739.165000", "101741.165000", "101743.165000", "101745.165000", "101747.165000", "101749.165000", "101751.165000", "101753.165000", "101755.165000", "101757.165000", "101759.165000", "101801.165000"],
      "ContentTime": ["101211.292000", "101211.296000", "101211.299000", "101211.301000", "101211.304000", "101211.306000", "101211.309000", "101211.318000", "101211.321000", "101211.324000", "101211.326000", "101211.333000", "101211.336000", "101211.338000", "101211.345000", "101211.348000", "101211.350000", "101211.360000", "101211.362000", "101211.365000", "101211.368000", "101211.370000", "101211.373000", "101211.375000", "101251.288000", "101251.291000", "101251.293000", "101251.296000", "101251.298000", "101251.301000", "101251.304000", "101251.306000", "101251.309000", "101251.311000", "101251.314000", "101251.317000", "101251.319000", "101251.322000", "101251.325000", "101251.327000", "101251.330000", "101251.339000", "101251.341000", "101251.344000", "101331.287000", "101331.289000", "101331.292000", "101331.295000", "101331.297000", "101331.300000", "101331.302000", "101331.305000", "101331.308000", "101331.310000", "101331.313000", "101331.315000", "101331.318000", "101331.321000", "101331.323000", "101331.326000", "101331.328000", "101331.331000", "101331.347000", "101331.349000", "101411.288000", "101411.290000", "101411.293000", "101411.296000", "101411.298000", "101411.301000", "101411.304000", "101411.306000", "101411.309000", "101411.311000", "101411.314000", "101411.317000", "101411.319000", "101411.322000", "101411.325000", "101411.327000", "101411.330000", "101411.332000", "101411.335000", "101411.338000", "101451.288000", "101451.290000", "101451.293000", "101451.296000", "101451.298000", "101451.301000", "101451.303000", "101451.306000", "101451.309000", "101451.311000", "101451.314000", "101451.317000", "101451.319000", "101451.322000", "101451.324000", "101451.327000", "101451.330000", "101451.338000", "101451.341000", "101451.343000", "101531.287000", "101531.294000", "101531.297000", "101531.299000", "101531.302000", "101531.305000", "101531.307000", "101531.310000", "101531.312000", "101531.315000", "101531.318000", "101531.320000", "101531.323000", "101531.325000", "101531.328000", "101531.331000", "101531.333000", "101531.336000", "101531.338000", "101531.341000", "101551.287000", "101551.294000", "101551.297000", "101551.300000", "101551.302000", "101551.305000", "101551.307000", "101551.316000", "101551.319000", "101551.321000", "101631.288000", "101631.291000", "101631.293000", "101631.296000", "101631.299000", "101631.301000", "101631.304000", "101631.306000", "101631.309000", "101631.312000", "101631.314000", "101631.317000", "101631.319000", "101631.322000", "101631.325000", "101631.327000", "101631.330000", "101631.332000", "101631.335000", "101631.338000", "101711.288000", "101711.290000", "101711.293000", "101711.296000", "101711.298000", "101711.301000", "101711.304000", "101711.306000", "101711.309000", "101711.311000", "101711.314000", "101711.316000", "101711.319000", "101711.322000", "101711.324000", "101711.327000", "101711.330000", "101711.332000", "101711.335000", "101711.337000", "101751.287000", "101751.289000", "101751.292000", "101751.295000", "101751.297000", "101751.300000", "101751.303000", "101751.305000", "101751.308000", "101751.310000", "101751.313000", "101751.315000", "101751.318000", "101751.321000", "101751.323000", "101751.326000", "101751.329000", "101751.331000", "101751.334000", "101751.337000", "101802.649000", "101802.652000", "101802.655000", "101802.657000", "101802.660000", "101802.663000"],
      "InstanceCreationTime": ["101211.292000", "101211.296000", "101211.299000", "101211.301000", "101211.304000", "101211.306000", "101211.309000", "101211.318000", "101211.321000", "101211.324000", "101211.326000", "101211.333000", "101211.336000", "101211.338000", "101211.345000", "101211.348000", "101211.350000", "101211.360000", "101211.362000", "101211.365000", "101211.368000", "101211.370000", "101211.373000", "101211.375000", "101251.288000", "101251.291000", "101251.293000", "101251.296000", "101251.298000", "101251.301000", "101251.304000", "101251.306000", "101251.309000", "101251.311000", "101251.314000", "101251.317000", "101251.319000", "101251.322000", "101251.325000", "101251.327000", "101251.330000", "101251.339000", "101251.341000", "101251.344000", "101331.287000", "101331.289000", "101331.292000", "101331.295000", "101331.297000", "101331.300000", "101331.302000", "101331.305000", "101331.308000", "101331.310000", "101331.313000", "101331.315000", "101331.318000", "101331.321000", "101331.323000", "101331.326000", "101331.328000", "101331.331000", "101331.347000", "101331.349000", "101411.288000", "101411.290000", "101411.293000", "101411.296000", "101411.298000", "101411.301000", "101411.304000", "101411.306000", "101411.309000", "101411.311000", "101411.314000", "101411.317000", "101411.319000", "101411.322000", "101411.325000", "101411.327000", "101411.330000", "101411.332000", "101411.335000", "101411.338000", "101451.288000", "101451.290000", "101451.293000", "101451.296000", "101451.298000", "101451.301000", "101451.303000", "101451.306000", "101451.309000", "101451.311000", "101451.314000", "101451.317000", "101451.319000", "101451.322000", "101451.324000", "101451.327000", "101451.330000", "101451.338000", "101451.341000", "101451.343000", "101531.287000", "101531.294000", "101531.297000", "101531.299000", "101531.302000", "101531.305000", "101531.307000", "101531.310000", "101531.312000", "101531.315000", "101531.318000", "101531.320000", "101531.323000", "101531.325000", "101531.328000", "101531.331000", "101531.333000", "101531.336000", "101531.338000", "101531.341000", "101551.287000", "101551.294000", "101551.297000", "101551.300000", "101551.302000", "101551.305000", "101551.307000", "101551.316000", "101551.319000", "101551.321000", "101631.288000", "101631.291000", "101631.293000", "101631.296000", "101631.299000", "101631.301000", "101631.304000", "101631.306000", "101631.309000", "101631.312000", "101631.314000", "101631.317000", "101631.319000", "101631.322000", "101631.325000", "101631.327000", "101631.330000", "101631.332000", "101631.335000", "101631.338000", "101711.288000", "101711.290000", "101711.293000", "101711.296000", "101711.298000", "101711.301000", "101711.304000", "101711.306000", "101711.309000", "101711.311000", "101711.314000", "101711.316000", "101711.319000", "101711.322000", "101711.324000", "101711.327000", "101711.330000", "101711.332000", "101711.335000", "101711.337000", "101751.287000", "101751.289000", "101751.292000", "101751.295000", "101751.297000", "101751.300000", "101751.303000", "101751.305000", "101751.308000", "101751.310000", "101751.313000", "101751.315000", "101751.318000", "101751.321000", "101751.323000", "101751.326000", "101751.329000", "101751.331000", "101751.334000", "101751.337000", "101802.649000", "101802.652000", "101802.655000", "101802.657000", "101802.660000", "101802.663000"],
      "InstanceNumber": [1, 2, 3, 4, 5, 6, 7, 8, 9, 10, 11, 12, 13, 14, 15, 16, 17, 18, 19, 20, 21, 22, 23, 24, 25, 26, 27, 28, 29, 30, 31, 32, 33, 34, 35, 36, 37, 38, 39, 40, 41, 42, 43, 44, 45, 46, 47, 48, 49, 50, 51, 52, 53, 54, 55, 56, 57, 58, 59, 60, 61, 62, 63, 64, 65, 66, 67, 68, 69, 70, 71, 72, 73, 74, 75, 76, 77, 78, 79, 80, 81, 82, 83, 84, 85, 86, 87, 88, 89, 90, 91, 92, 93, 94, 95, 96, 97, 98, 99, 100, 101, 102, 103, 104, 105, 106, 107, 108, 109, 110, 111, 112, 113, 114, 115, 116, 117, 118, 119, 120, 121, 122, 123, 124, 125, 126, 127, 128, 129, 130, 131, 132, 133, 134, 135, 136, 137, 138, 139, 140, 141, 142, 143, 144, 145, 146, 147, 148, 149, 150, 151, 152, 153, 154, 155, 156, 157, 158, 159, 160, 161, 162, 163, 164, 165, 166, 167, 168, 169, 170, 171, 172, 173, 174, 175, 176, 177, 178, 179, 180, 181, 182, 183, 184, 185, 186, 187, 188, 189, 190, 191, 192, 193, 194, 195, 196, 197, 198, 199, 200],
      "LargestImagePixelValue": [2364, 2364, 2363, 2364, 2367, 2369, 2363, 2364, 2367, 2371, 2364, 2368, 2364, 2363, 2365, 2366, 2362, 2369, 2366, 2364, 2366, 2366, 2368, 2363, 2364, 2368, 2363, 2360, 2368, 2365, 2365, 2370, 2369, 2364, 2360, 2365, 2363, 2366, 2364, 2360, 2364, 2366, 2365, 2361, 2364, 2367, 2362, 2362, 2365, 2362, 2357, 2365, 2366, 2363, 2369, 2359, 2362, 2366, 2361, 2360, 2367, 2363, 2368, 2361, 2365, 2369, 2363, 2365, 2365, 2365, 2364, 2361, 2362, 2360, 2367, 2359, 2367, 2361, 2362, 2361, 2357, 2364, 2362, 2362, 2367, 2362, 2359, 2361, 2362, 2361, 2367, 2365, 2368, 2357, 2363, 2362, 2361, 2362, 2359, 2365, 2359, 2363, 2364, 2361, 2363, 2367, 2364, 2367, 2367, 2361, 2369, 2368, 2364, 2369, 2364, 2369, 2362, 2364, 2367, 2371, 2367, 2368, 2361, 2362, 2367, 2358, 2366, 2368, 2362, 2364, 2365, 2362, 2364, 2358, 2359, 2366, 2364, 2367, 2363, 2359, 2363, 2363, 2365, 2368, 2361, 2355, 2358, 2366, 2361, 2360, 2361, 2363, 2365, 2364, 2358, 2359, 2367, 2365, 2361, 2369, 2366, 2359, 2360, 2360, 2361, 2363, 2362, 2362, 2360, 2359, 2359, 2365, 2362, 2368, 2364, 2362, 2360, 2361, 2360, 2362, 2364, 2363, 2361, 2369, 2363, 2362, 2360, 2364, 2360, 2364, 2363, 2361, 2361, 2368, 2366, 2359, 2362, 2359, 2365, 2359],
      "WindowWidth": [2211.0, 2211.0, 2211.0, 2212.0, 2211.0, 2211.0, 2211.0, 2211.0, 2211.0, 2212.0, 2211.0, 2211.0, 2211.0, 2211.0, 2211.0, 2211.0, 2212.0, 2211.0, 2212.0, 2211.0, 2211.0, 2212.0, 2211.0, 2211.0, 2212.0, 2211.0, 2211.0, 2212.0, 2211.0, 2212.0, 2212.0, 2212.0, 2212.0, 2212.0, 2212.0, 2211.0, 2212.0, 2211.0, 2212.0, 2212.0, 2212.0, 2212.0, 2212.0, 2212.0, 2212.0, 2212.0, 2212.0, 2212.0, 2212.0, 2212.0, 2212.0, 2212.0, 2212.0, 2212.0, 2212.0, 2212.0, 2212.0, 2212.0, 2212.0, 2211.0, 2211.0, 2211.0, 2212.0, 2212.0, 2212.0, 2212.0, 2212.0, 2212.0, 2212.0, 2212.0, 2212.0, 2212.0, 2212.0, 2212.0, 2212.0, 2212.0, 2212.0, 2211.0, 2212.0, 2212.0, 2212.0, 2212.0, 2212.0, 2212.0, 2212.0, 2212.0, 2212.0, 2212.0, 2212.0, 2212.0, 2212.0, 2212.0, 2212.0, 2212.0, 2212.0, 2212.0, 2212.0, 2212.0, 2212.0, 2212.0, 2212.0, 2212.0, 2212.0, 2212.0, 2212.0, 2212.0, 2212.0, 2212.0, 2212.0, 2212.0, 2212.0, 2212.0, 2212.0, 2212.0, 2212.0, 2212.0, 2212.0, 2212.0, 2212.0, 2212.0, 2212.0, 2212.0, 2212.0, 2212.0, 2212.0, 2212.0, 2212.0, 2212.0, 2212.0, 2212.0, 2212.0, 2212.0, 2212.0, 2212.0, 2212.0, 2212.0, 2212.0, 2212.0, 2212.0, 2212.0, 2212.0, 2212.0, 2212.0, 2212.0, 2212.0, 2212.0, 2212.0, 2212.0, 2212.0, 2212.0, 2212.0, 2212.0, 2212.0, 2212.0, 2212.0, 2212.0, 2212.0, 2212.0, 2212.0, 2212.0, 2212.0, 2212.0, 2212.0, 2212.0, 2212.0, 2212.0, 2212.0, 2212.0, 2212.0, 2212.0, 2211.0, 2212.0, 2212.0, 2212.0, 2212.0, 2212.0, 2212.0, 2212.0, 2212.0, 2212.0, 2212.0, 2212.0, 2212.0, 2212.0, 2212.0, 2212.0, 2212.0, 2212.0, 2212.0, 2212.0, 2212.0, 2212.0, 2211.0, 2212.0, 2212.0, 2212.0, 2211.0, 2211.0, 2211.0, 2212.0]
    },
    "slices": {}
  }
}