{
  "AcquisitionMatrixPE": 122,
  "AcquisitionNumber": 1,
  "AcquisitionTime": "10:21:58.230000",
  "BandwidthPerPixelPhaseEncode": 28.76,
  "BaseResolution": 122,
  "BodyPartExamined": "BRAIN",
  "CoilCombinationMethod": "Adaptive Combine",
  "ConsistencyInfo": "N4_VE11C_LATEST_20160120",
  "ConversionSoftware": "dcm2niix",
  "ConversionSoftwareVersion": "v1.0.20220720",
  "DerivedVendorReportedEchoSpacing": 0.000570008,
  "DeviceSerialNumber": "66112",
  "DiffusionScheme": "Monopolar",
  "DwellTime": 2e-06,
  "EchoTime": 0.075,
  "EchoTrainLength": 61,
  "EffectiveEchoSpacing": 0.000285004,
  "FlipAngle": 90,
  "HeudiconvVersion": "0.13.1",
  "ImageOrientationPatientDICOM": [0.999941, 0.00819645, 0.00711749, -0.00994809, 0.954317, 0.298631],
  "ImageOrientationText": "Tra>Cor(17.4)>Sag(0.2)",
  "ImageType": [
    "ORIGINAL",
    "PRIMARY",
    "DIFFUSION",
    "NONE",
    "ND",
    "NORM"
],
  "ImagingFrequency": 123.252,
  "InPlanePhaseEncodingDirectionDICOM": "COL",
  "InstitutionAddress": "Maynard 3,Hanover,NH,US,03755",
  "InstitutionName": "Dartmouth College - PBS",
  "InstitutionalDepartmentName": "Department",
  "MRAcquisitionType": "2D",
  "MagneticFieldStrength": 3,
  "Manufacturer": "Siemens",
  "ManufacturersModelName": "Prisma",
  "MatrixCoilMode": "GRAPPA",
  "Modality": "MR",
  "NonlinearGradientCorrection": false,
  "ParallelReductionFactorInPlane": 2,
  "PartialFourier": 1,
  "PatientPosition": "HFS",
  "PercentPhaseFOV": 100,
  "PercentSampling": 100,
  "PhaseEncodingDirection": "j-",
  "PhaseEncodingSteps": 122,
  "PhaseResolution": 1,
  "PixelBandwidth": 2050,
  "ProcedureStepDescription": "dbic^QA",
  "ProtocolName": "dwi_acq-DTI-30-p2",
  "PulseSequenceDetails": "%SiemensSeq%\\ep2d_diff",
  "ReceiveCoilActiveElements": "HEA;HEP",
  "ReceiveCoilName": "Head_32",
  "ReconMatrixPE": 122,
  "RefLinesPE": 38,
  "RepetitionTime": 7.7,
  "SAR": 0.101878,
  "ScanOptions": "FS",
  "ScanningSequence": "EP",
  "SequenceName": "*ep_b0",
  "SequenceVariant": "SK\\SP",
  "SeriesDescription": "dwi_acq-DTI-30-p2",
  "SeriesNumber": 12,
  "ShimSetting": [4146, -7688, -7507, 256, -65, -128, -48, 60],
  "SliceThickness": 2,
  "SliceTiming": [3.83594, 0, 3.95312, 0.10938, 4.0625, 0.21875, 4.17188, 0.32812, 4.28125, 0.4375, 4.39062, 0.54688, 4.5, 0.65625, 4.60938, 0.76562, 4.71875, 0.875, 4.82812, 0.98438, 4.9375, 1.09375, 5.04688, 1.20312, 5.15625, 1.32031, 5.26562, 1.42969, 5.375, 1.53906, 5.48438, 1.64844, 5.59375, 1.75781, 5.70312, 1.86719, 5.8125, 1.97656, 5.92188, 2.08594, 6.03125, 2.19531, 6.14062, 2.30469, 6.25781, 2.41406, 6.36719, 2.52344, 6.47656, 2.63281, 6.57812, 2.74219, 6.69531, 2.85156, 6.80469, 2.96094, 6.91406, 3.07031, 7.02344, 3.17969, 7.13281, 3.28906, 7.24219, 3.39844, 7.35156, 3.51562, 7.46094, 3.625, 7.57031, 3.72656],
  "SoftwareVersions": "syngo MR E11",
  "SpacingBetweenSlices": 2,
  "SpoilingState": true,
  "StationName": "AWP66112",
  "TotalReadoutTime": 0.0344855,
  "TxRefAmp": 237.661,
  "dcmmeta_affine": [
    [-1.967097282409668, -0.019570017233490944, 0.008689284324645996, 121.42919158935547],
    [-0.01612415350973606, 1.8773448467254639, 0.5973682403564453, -129.45278930664062],
    [0.014001613482832909, -0.5874701142311096, 1.9086837768554688, -23.86971664428711],
    [0.0, 0.0, 0.0, 1.0]
],
  "dcmmeta_reorient_transform": [
    [0.0, -1.0, 0.0, 121.0],
    [1.0, 0.0, 0.0, 0.0],
    [0.0, 0.0, -1.0, 69.0],
    [0.0, 0.0, 0.0, 1.0]
],
  "dcmmeta_shape": [122, 122, 70, 31],
  "dcmmeta_slice_dim": 2,
  "dcmmeta_version": 0.6,
  "global": {
    "const": {
      "AccessionNumber": "qa",
      "AcquisitionMatrix": [122, 0, 0, 122],
      "AngioFlag": "N",
      "BitsAllocated": 16,
      "BitsStored": 12,
      "BodyPartExamined": "BRAIN",
      "Columns": 122,
      "EchoNumbers": 1,
      "EchoTime": 75.0,
      "EchoTrainLength": 61,
      "FlipAngle": 90.0,
      "HighBit": 11,
      "ImageOrientationPatient": [0.99994107810386, 0.00819644476193, 0.00711748647683, -0.0099480915391, 0.95431691960073, 0.29863062876823],
      "ImageType": [
        "ORIGINAL",
        "PRIMARY",
        "DIFFUSION",
        "NONE",
        "ND",
        "NORM"
],
      "ImagedNucleus": "1H",
      "ImagingFrequency": 123.252444,
      "InPlanePhaseEncodingDirection": "COL",
      "MRAcquisitionType": "2D",
      "MagneticFieldStrength": 3.0,
      "Manufacturer": "SIEMENS",
      "ManufacturerModelName": "Prisma",
      "Modality": "MR",
      "NumberOfAverages": 1.0,
      "NumberOfPhaseEncodingSteps": 122,
      "PercentPhaseFieldOfView": 100.0,
      "PercentSampling": 100.0,
      "PerformedProcedureStepStartTime": "095028.483000",
      "PhotometricInterpretation": "MONOCHROME2",
      "PixelBandwidth": 2050.0,
      "PixelRepresentation": 0,
      "PixelSpacing": [1.9672131538391, 1.9672131538391],
      "ProtocolName": "dwi_acq-DTI-30-p2",
      "RepetitionTime": 7700.0,
      "Rows": 122,
      "SAR": 0.10187825130242,
      "SamplesPerPixel": 1,
      "ScanOptions": "FS",
      "ScanningSequence": "EP",
      "SequenceVariant": [
        "SK",
        "SP"
],
      "SeriesDescription": "dwi_acq-DTI-30-p2",
      "SeriesNumber": 12,
      "SeriesTime": "102216.490000",
      "SliceThickness": 2.0,
      "SmallestImagePixelValue": 0,
      "SoftwareVersions": "syngo MR E11",
      "SpacingBetweenSlices": 2.0,
      "SpecificCharacterSet": "ISO_IR 100",
      "StudyID": "109",
      "StudyTime": "095028.374000",
      "TransmitCoilName": "Body",
      "VariableFlipAngleFlag": "N",
      "WindowCenterWidthExplanation": "Algo1",
      "dBdt": 0.0},
    "slices": {
      "AcquisitionTime": ["102158.230000", "102154.390000", "102158.340000", "102154.500000", "102158.450000", "102154.610000", "102158.560000", "102154.720000", "102158.670000", "102154.830000", "102158.780000", "102154.940000", "102158.890000", "102155.050000", "102159.000000", "102155.160000", "102159.107500", "102155.267500", "102159.217500", "102155.377500", "102159.327500", "102155.487500", "102159.437500", "102155.597500", "102159.547500", "102155.707500", "102159.657500", "102155.817500", "102159.767500", "102155.927500", "102159.877500", "102156.037500", "102159.985000", "102156.147500", "102200.095000", "102156.255000", "102200.205000", "102156.365000", "102200.315000", "102156.475000", "102200.425000", "102156.585000", "102200.535000", "102156.695000", "102200.645000", "102156.805000", "102200.755000", "102156.915000", "102200.865000", "102157.025000", "102200.972500", "102157.132500", "102201.082500", "102157.242500", "102201.192500", "102157.352500", "102201.302500", "102157.462500", "102201.412500", "102157.572500", "102201.522500", "102157.682500", "102201.632500", "102157.792500", "102201.742500", "102157.902500", "102201.850000", "102158.012500", "102201.960000", "102158.120000", "102205.930000", "102202.090000", "102206.040000", "102202.200000", "102206.150000", "102202.310000", "102206.260000", "102202.420000", "102206.370000", "102202.530000", "102206.480000", "102202.640000", "102206.590000", "102202.750000", "102206.700000", "102202.860000", "102206.807500", "102202.967500", "102206.917500", "102203.077500", "102207.027500", "102203.187500", "102207.137500", "102203.297500", "102207.247500", "102203.407500", "102207.357500", "102203.517500", "102207.467500", "102203.627500", "102207.577500", "102203.737500", "102207.685000", "102203.847500", "102207.795000", "102203.955000", "102207.905000", "102204.065000", "102208.015000", "102204.175000", "102208.125000", "102204.285000", "102208.235000", "102204.395000", "102208.345000", "102204.505000", "102208.455000", "102204.615000", "102208.565000", "102204.725000", "102208.672500", "102204.832500", "102208.782500", "102204.942500", "102208.892500", "102205.052500", "102209.002500", "102205.162500", "102209.112500", "102205.272500", "102209.222500", "102205.382500", "102209.332500", "102205.492500", "102209.442500", "102205.602500", "102209.550000", "102205.712500", "102209.660000", "102205.820000", "102213.630000", "102209.790000", "102213.740000", "102209.900000", "102213.850000", "102210.010000", "102213.960000", "102210.120000", "102214.070000", "102210.230000", "102214.180000", "102210.340000", "102214.290000", "102210.450000", "102214.400000", "102210.560000", "102214.507500", "102210.667500", "102214.617500", "102210.777500", "102214.727500", "102210.887500", "102214.837500", "102210.997500", "102214.947500", "102211.107500", "102215.057500", "102211.217500", "102215.167500", "102211.327500", "102215.277500", "102211.437500", "102215.385000", "102211.547500", "102215.495000", "102211.655000", "102215.605000", "102211.765000", "102215.715000", "102211.875000", "102215.825000", "102211.985000", "102215.935000", "102212.095000", "102216.045000", "102212.205000", "102216.155000", "102212.315000", "102216.265000", "102212.425000", "102216.372500", "102212.532500", "102216.482500", "102212.642500", "102216.592500", "102212.752500", "102216.702500", "102212.862500", "102216.812500", "102212.972500", "102216.922500", "102213.082500", "102217.032500", "102213.192500", "102217.142500", "102213.302500", "102217.250000", "102213.412500", "102217.360000", "102213.520000", "102221.330000", "102217.490000", "102221.440000", "102217.600000", "102221.550000", "102217.710000", "102221.660000", "102217.820000", "102221.770000", "102217.930000", "102221.880000", "102218.040000", "102221.990000", "102218.150000", "102222.100000", "102218.260000", "102222.207500", "102218.367500", "102222.317500", "102218.477500", "102222.427500", "102218.587500", "102222.537500", "102218.697500", "102222.647500", "102218.807500", "102222.757500", "102218.917500", "102222.867500", "102219.027500", "102222.977500", "102219.137500", "102223.085000", "102219.247500", "102223.195000", "102219.355000", "102223.305000", "102219.465000", "102223.415000", "102219.575000", "102223.525000", "102219.685000", "102223.635000", "102219.795000", "102223.745000", "102219.905000", "102223.855000", "102220.015000", "102223.965000", "102220.125000", "102224.072500", "102220.232500", "102224.182500", "102220.342500", "102224.292500", "102220.452500", "102224.402500", "102220.562500", "102224.512500", "102220.672500", "102224.622500", "102220.782500", "102224.732500", "102220.892500", "102224.842500", "102221.002500", "102224.950000", "102221.112500", "102225.060000", "102221.220000", "102229.030000", "102225.190000", "102229.140000", "102225.300000", "102229.250000", "102225.410000", "102229.360000", "102225.520000", "102229.470000", "102225.630000", "102229.580000", "102225.740000", "102229.690000", "102225.850000", "102229.800000", "102225.960000", "102229.907500", "102226.067500", "102230.017500", "102226.177500", "102230.127500", "102226.287500", "102230.237500", "102226.397500", "102230.347500", "102226.507500", "102230.457500", "102226.617500", "102230.567500", "102226.727500", "102230.677500", "102226.837500", "102230.785000", "102226.947500", "102230.895000", "102227.055000", "102231.005000", "102227.165000", "102231.115000", "102227.275000", "102231.225000", "102227.385000", "102231.335000", "102227.495000", "102231.445000", "102227.605000", "102231.555000", "102227.715000", "102231.665000", "102227.825000", "102231.772500", "102227.932500", "102231.882500", "102228.042500", "102231.992500", "102228.152500", "102232.102500", "102228.262500", "102232.212500", "102228.372500", "102232.322500", "102228.482500", "102232.432500", "102228.592500", "102232.542500", "102228.702500", "102232.650000", "102228.812500", "102232.760000", "102228.920000", "102236.730000", "102232.890000", "102236.840000", "102233.000000", "102236.950000", "102233.110000", "102237.060000", "102233.220000", "102237.170000", "102233.330000", "102237.280000", "102233.440000", "102237.390000", "102233.550000", "102237.500000", "102233.660000", "102237.607500", "102233.767500", "102237.717500", "102233.877500", "102237.827500", "102233.987500", "102237.937500", "102234.097500", "102238.047500", "102234.207500", "102238.157500", "102234.317500", "102238.267500", "102234.427500", "102238.377500", "102234.537500", "102238.485000", "102234.647500", "102238.595000", "102234.755000", "102238.705000", "102234.865000", "102238.815000", "102234.975000", "102238.925000", "102235.085000", "102239.035000", "102235.195000", "102239.145000", "102235.305000", "102239.255000", "102235.415000", "102239.365000", "102235.525000", "102239.472500", "102235.632500", "102239.582500", "102235.742500", "102239.692500", "102235.852500", "102239.802500", "102235.962500", "102239.912500", "102236.072500", "102240.022500", "102236.182500", "102240.132500", "102236.292500", "102240.242500", "102236.402500", "102240.350000", "102236.512500", "102240.460000", "102236.620000", "102244.430000", "102240.590000", "102244.540000", "102240.700000", "102244.650000", "102240.810000", "102244.760000", "102240.920000", "102244.870000", "102241.030000", "102244.980000", "102241.140000", "102245.090000", "102241.250000", "102245.200000", "102241.360000", "102245.307500", "102241.467500", "102245.417500", "102241.577500", "102245.527500", "102241.687500", "102245.637500", "102241.797500", "102245.747500", "102241.907500", "102245.857500", "102242.017500", "102245.967500", "102242.127500", "102246.077500", "102242.237500", "102246.185000", "102242.347500", "102246.295000", "102242.455000", "102246.405000", "102242.565000", "102246.515000", "102242.675000", "102246.625000", "102242.785000", "102246.735000", "102242.895000", "102246.845000", "102243.005000", "102246.955000", "102243.115000", "102247.065000", "102243.225000", "102247.172500", "102243.332500", "102247.282500", "102243.442500", "102247.392500", "102243.552500", "102247.502500", "102243.662500", "102247.612500", "102243.772500", "102247.722500", "102243.882500", "102247.832500", "102243.992500", "102247.942500", "102244.102500", "102248.050000", "102244.212500", "102248.160000", "102244.320000", "102252.130000", "102248.290000", "102252.240000", "102248.400000", "102252.350000", "102248.510000", "102252.460000", "102248.620000", "102252.570000", "102248.730000", "102252.680000", "102248.840000", "102252.790000", "102248.950000", "102252.900000", "102249.060000", "102253.007500", "102249.167500", "102253.117500", "102249.277500", "102253.227500", "102249.387500", "102253.337500", "102249.497500", "102253.447500", "102249.607500", "102253.557500", "102249.717500", "102253.667500", "102249.827500", "102253.777500", "102249.937500", "102253.885000", "102250.047500", "102253.995000", "102250.155000", "102254.105000", "102250.265000", "102254.215000", "102250.375000", "102254.325000", "102250.485000", "102254.435000", "102250.595000", "102254.545000", "102250.705000", "102254.655000", "102250.815000", "102254.765000", "102250.925000", "102254.872500", "102251.032500", "102254.982500", "102251.142500", "102255.092500", "102251.252500", "102255.202500", "102251.362500", "102255.312500", "102251.472500", "102255.422500", "102251.582500", "102255.532500", "102251.692500", "102255.642500", "102251.802500", "102255.750000", "102251.912500", "102255.860000", "102252.020000", "102259.830000", "102255.990000", "102259.940000", "102256.100000", "102300.050000", "102256.210000", "102300.160000", "102256.320000", "102300.270000", "102256.430000", "102300.380000", "102256.540000", "102300.490000", "102256.650000", "102300.600000", "102256.760000", "102300.707500", "102256.867500", "102300.817500", "102256.977500", "102300.927500", "102257.087500", "102301.037500", "102257.197500", "102301.147500", "102257.307500", "102301.257500", "102257.417500", "102301.367500", "102257.527500", "102301.477500", "102257.637500", "102301.585000", "102257.747500", "102301.695000", "102257.855000", "102301.805000", "102257.965000", "102301.915000", "102258.075000", "102302.025000", "102258.185000", "102302.135000", "102258.295000", "102302.245000", "102258.405000", "102302.355000", "102258.515000", "102302.465000", "102258.625000", "102302.572500", "102258.732500", "102302.682500", "102258.842500", "102302.792500", "102258.952500", "102302.902500", "102259.062500", "102303.012500", "102259.172500", "102303.122500", "102259.282500", "102303.232500", "102259.392500", "102303.342500", "102259.502500", "102303.450000", "102259.612500", "102303.560000", "102259.720000", "102307.530000", "102303.690000", "102307.640000", "102303.800000", "102307.750000", "102303.910000", "102307.860000", "102304.020000", "102307.970000", "102304.130000", "102308.080000", "102304.240000", "102308.190000", "102304.350000", "102308.300000", "102304.460000", "102308.407500", "102304.567500", "102308.517500", "102304.677500", "102308.627500", "102304.787500", "102308.737500", "102304.897500", "102308.847500", "102305.007500", "102308.957500", "102305.117500", "102309.067500", "102305.227500", "102309.177500", "102305.337500", "102309.285000", "102305.447500", "102309.395000", "102305.555000", "102309.505000", "102305.665000", "102309.615000", "102305.775000", "102309.725000", "102305.885000", "102309.835000", "102305.995000", "102309.945000", "102306.105000", "102310.055000", "102306.215000", "102310.165000", "102306.325000", "102310.272500", "102306.432500", "102310.382500", "102306.542500", "102310.492500", "102306.652500", "102310.602500", "102306.762500", "102310.712500", "102306.872500", "102310.822500", "102306.982500", "102310.932500", "102307.092500", "102311.042500", "102307.202500", "102311.150000", "102307.312500", "102311.260000", "102307.420000", "102315.230000", "102311.390000", "102315.340000", "102311.500000", "102315.450000", "102311.610000", "102315.560000", "102311.720000", "102315.670000", "102311.830000", "102315.780000", "102311.940000", "102315.890000", "102312.050000", "102316.000000", "102312.160000", "102316.107500", "102312.267500", "102316.217500", "102312.377500", "102316.327500", "102312.487500", "102316.437500", "102312.597500", "102316.547500", "102312.707500", "102316.657500", "102312.817500", "102316.767500", "102312.927500", "102316.877500", "102313.037500", "102316.985000", "102313.147500", "102317.095000", "102313.255000", "102317.205000", "102313.365000", "102317.315000", "102313.475000", "102317.425000", "102313.585000", "102317.535000", "102313.695000", "102317.645000", "102313.805000", "102317.755000", "102313.915000", "102317.865000", "102314.025000", "102317.972500", "102314.132500", "102318.082500", "102314.242500", "102318.192500", "102314.352500", "102318.302500", "102314.462500", "102318.412500", "102314.572500", "102318.522500", "102314.682500", "102318.632500", "102314.792500", "102318.742500", "102314.902500", "102318.850000", "102315.012500", "102318.960000", "102315.120000", "102322.930000", "102319.090000", "102323.040000", "102319.200000", "102323.150000", "102319.310000", "102323.260000", "102319.420000", "102323.370000", "102319.530000", "102323.480000", "102319.640000", "102323.590000", "102319.750000", "102323.700000", "102319.860000", "102323.807500", "102319.967500", "102323.917500", "102320.077500", "102324.027500", "102320.187500", "102324.137500", "102320.297500", "102324.247500", "102320.407500", "102324.357500", "102320.517500", "102324.467500", "102320.627500", "102324.577500", "102320.737500", "102324.685000", "102320.847500", "102324.795000", "102320.955000", "102324.905000", "102321.065000", "102325.015000", "102321.175000", "102325.125000", "102321.285000", "102325.235000", "102321.395000", "102325.345000", "102321.505000", "102325.455000", "102321.615000", "102325.565000", "102321.725000", "102325.672500", "102321.832500", "102325.782500", "102321.942500", "102325.892500", "102322.052500", "102326.002500", "102322.162500", "102326.112500", "102322.272500", "102326.222500", "102322.382500", "102326.332500", "102322.492500", "102326.442500", "102322.602500", "102326.550000", "102322.712500", "102326.660000", "102322.820000", "102330.630000", "102326.790000", "102330.740000", "102326.900000", "102330.850000", "102327.010000", "102330.960000", "102327.120000", "102331.070000", "102327.230000", "102331.180000", "102327.340000", "102331.290000", "102327.450000", "102331.400000", "102327.560000", "102331.507500", "102327.667500", "102331.617500", "102327.777500", "102331.727500", "102327.887500", "102331.837500", "102327.997500", "102331.947500", "102328.107500", "102332.057500", "102328.217500", "102332.167500", "102328.327500", "102332.277500", "102328.437500", "102332.385000", "102328.547500", "102332.495000", "102328.655000", "102332.605000", "102328.765000", "102332.715000", "102328.875000", "102332.825000", "102328.985000", "102332.935000", "102329.095000", "102333.045000", "102329.205000", "102333.155000", "102329.315000", "102333.265000", "102329.425000", "102333.372500", "102329.532500", "102333.482500", "102329.642500", "102333.592500", "102329.752500", "102333.702500", "102329.862500", "102333.812500", "102329.972500", "102333.922500", "102330.082500", "102334.032500", "102330.192500", "102334.142500", "102330.302500", "102334.250000", "102330.412500", "102334.360000", "102330.520000", "102338.330000", "102334.490000", "102338.440000", "102334.600000", "102338.550000", "102334.710000", "102338.660000", "102334.820000", "102338.770000", "102334.930000", "102338.880000", "102335.040000", "102338.990000", "102335.150000", "102339.100000", "102335.260000", "102339.207500", "102335.367500", "102339.317500", "102335.477500", "102339.427500", "102335.587500", "102339.537500", "102335.697500", "102339.647500", "102335.807500", "102339.757500", "102335.917500", "102339.867500", "102336.027500", "102339.977500", "102336.137500", "102340.085000", "102336.247500", "102340.195000", "102336.355000", "102340.305000", "102336.465000", "102340.415000", "102336.575000", "102340.525000", "102336.685000", "102340.635000", "102336.795000", "102340.745000", "102336.905000", "102340.855000", "102337.015000", "102340.965000", "102337.125000", "102341.072500", "102337.232500", "102341.182500", "102337.342500", "102341.292500", "102337.452500", "102341.402500", "102337.562500", "102341.512500", "102337.672500", "102341.622500", "102337.782500", "102341.732500", "102337.892500", "102341.842500", "102338.002500", "102341.950000", "102338.112500", "102342.060000", "102338.220000", "102346.030000", "102342.190000", "102346.140000", "102342.300000", "102346.250000", "102342.410000", "102346.360000", "102342.520000", "102346.470000", "102342.630000", "102346.580000", "102342.740000", "102346.690000", "102342.850000", "102346.800000", "102342.960000", "102346.907500", "102343.067500", "102347.017500", "102343.177500", "102347.127500", "102343.287500", "102347.237500", "102343.397500", "102347.347500", "102343.507500", "102347.457500", "102343.617500", "102347.567500", "102343.727500", "102347.677500", "102343.837500", "102347.785000", "102343.947500", "102347.895000", "102344.055000", "102348.005000", "102344.165000", "102348.115000", "102344.275000", "102348.225000", "102344.385000", "102348.335000", "102344.495000", "102348.445000", "102344.605000", "102348.555000", "102344.715000", "102348.665000", "102344.825000", "102348.772500", "102344.932500", "102348.882500", "102345.042500", "102348.992500", "102345.152500", "102349.102500", "102345.262500", "102349.212500", "102345.372500", "102349.322500", "102345.482500", "102349.432500", "102345.592500", "102349.542500", "102345.702500", "102349.650000", "102345.812500", "102349.760000", "102345.920000", "102353.730000", "102349.890000", "102353.840000", "102350.000000", "102353.950000", "102350.110000", "102354.060000", "102350.220000", "102354.170000", "102350.330000", "102354.280000", "102350.440000", "102354.390000", "102350.550000", "102354.500000", "102350.660000", "102354.607500", "102350.767500", "102354.717500", "102350.877500", "102354.827500", "102350.987500", "102354.937500", "102351.097500", "102355.047500", "102351.207500", "102355.157500", "102351.317500", "102355.267500", "102351.427500", "102355.377500", "102351.537500", "102355.485000", "102351.647500", "102355.595000", "102351.755000", "102355.705000", "102351.865000", "102355.815000", "102351.975000", "102355.925000", "102352.085000", "102356.035000", "102352.195000", "102356.145000", "102352.305000", "102356.255000", "102352.415000", "102356.365000", "102352.525000", "102356.472500", "102352.632500", "102356.582500", "102352.742500", "102356.692500", "102352.852500", "102356.802500", "102352.962500", "102356.912500", "102353.072500", "102357.022500", "102353.182500", "102357.132500", "102353.292500", "102357.242500", "102353.402500", "102357.350000", "102353.512500", "102357.460000", "102353.620000", "102401.430000", "102357.590000", "102401.540000", "102357.700000", "102401.650000", "102357.810000", "102401.760000", "102357.920000", "102401.870000", "102358.030000", "102401.980000", "102358.140000", "102402.090000", "102358.250000", "102402.200000", "102358.360000", "102402.307500", "102358.467500", "102402.417500", "102358.577500", "102402.527500", "102358.687500", "102402.637500", "102358.797500", "102402.747500", "102358.907500", "102402.857500", "102359.017500", "102402.967500", "102359.127500", "102403.077500", "102359.237500", "102403.185000", "102359.347500", "102403.295000", "102359.455000", "102403.405000", "102359.565000", "102403.515000", "102359.675000", "102403.625000", "102359.785000", "102403.735000", "102359.895000", "102403.845000", "102400.005000", "102403.955000", "102400.115000", "102404.065000", "102400.225000", "102404.172500", "102400.332500", "102404.282500", "102400.442500", "102404.392500", "102400.552500", "102404.502500", "102400.662500", "102404.612500", "102400.772500", "102404.722500", "102400.882500", "102404.832500", "102400.992500", "102404.942500", "102401.102500", "102405.050000", "102401.212500", "102405.160000", "102401.320000", "102409.130000", "102405.290000", "102409.240000", "102405.400000", "102409.350000", "102405.510000", "102409.460000", "102405.620000", "102409.570000", "102405.730000", "102409.680000", "102405.840000", "102409.790000", "102405.950000", "102409.900000", "102406.060000", "102410.007500", "102406.167500", "102410.117500", "102406.277500", "102410.227500", "102406.387500", "102410.337500", "102406.497500", "102410.447500", "102406.607500", "102410.557500", "102406.717500", "102410.667500", "102406.827500", "102410.777500", "102406.937500", "102410.885000", "102407.047500", "102410.995000", "102407.155000", "102411.105000", "102407.265000", "102411.215000", "102407.375000", "102411.325000", "102407.485000", "102411.435000", "102407.595000", "102411.545000", "102407.705000", "102411.655000", "102407.815000", "102411.765000", "102407.925000", "102411.872500", "102408.032500", "102411.982500", "102408.142500", "102412.092500", "102408.252500", "102412.202500", "102408.362500", "102412.312500", "102408.472500", "102412.422500", "102408.582500", "102412.532500", "102408.692500", "102412.642500", "102408.802500", "102412.750000", "102408.912500", "102412.860000", "102409.020000", "102416.830000", "102412.990000", "102416.940000", "102413.100000", "102417.050000", "102413.210000", "102417.160000", "102413.320000", "102417.270000", "102413.430000", "102417.380000", "102413.540000", "102417.490000", "102413.650000", "102417.600000", "102413.760000", "102417.707500", "102413.867500", "102417.817500", "102413.977500", "102417.927500", "102414.087500", "102418.037500", "102414.197500", "102418.147500", "102414.307500", "102418.257500", "102414.417500", "102418.367500", "102414.527500", "102418.477500", "102414.637500", "102418.585000", "102414.747500", "102418.695000", "102414.855000", "102418.805000", "102414.965000", "102418.915000", "102415.075000", "102419.025000", "102415.185000", "102419.135000", "102415.295000", "102419.245000", "102415.405000", "102419.355000", "102415.515000", "102419.465000", "102415.625000", "102419.572500", "102415.732500", "102419.682500", "102415.842500", "102419.792500", "102415.952500", "102419.902500", "102416.062500", "102420.012500", "102416.172500", "102420.122500", "102416.282500", "102420.232500", "102416.392500", "102420.342500", "102416.502500", "102420.450000", "102416.612500", "102420.560000", "102416.720000", "102424.530000", "102420.690000", "102424.640000", "102420.800000", "102424.750000", "102420.910000", "102424.860000", "102421.020000", "102424.970000", "102421.130000", "102425.080000", "102421.240000", "102425.190000", "102421.350000", "102425.300000", "102421.460000", "102425.407500", "102421.567500", "102425.517500", "102421.677500", "102425.627500", "102421.787500", "102425.737500", "102421.897500", "102425.847500", "102422.007500", "102425.957500", "102422.117500", "102426.067500", "102422.227500", "102426.177500", "102422.337500", "102426.285000", "102422.447500", "102426.395000", "102422.555000", "102426.505000", "102422.665000", "102426.615000", "102422.775000", "102426.725000", "102422.885000", "102426.835000", "102422.995000", "102426.945000", "102423.105000", "102427.055000", "102423.215000", "102427.165000", "102423.325000", "102427.272500", "102423.432500", "102427.382500", "102423.542500", "102427.492500", "102423.652500", "102427.602500", "102423.762500", "102427.712500", "102423.872500", "102427.822500", "102423.982500", "102427.932500", "102424.092500", "102428.042500", "102424.202500", "102428.150000", "102424.312500", "102428.260000", "102424.420000", "102432.230000", "102428.390000", "102432.340000", "102428.500000", "102432.450000", "102428.610000", "102432.560000", "102428.720000", "102432.670000", "102428.830000", "102432.780000", "102428.940000", "102432.890000", "102429.050000", "102433.000000", "102429.160000", "102433.107500", "102429.267500", "102433.217500", "102429.377500", "102433.327500", "102429.487500", "102433.437500", "102429.597500", "102433.547500", "102429.707500", "102433.657500", "102429.817500", "102433.767500", "102429.927500", "102433.877500", "102430.037500", "102433.985000", "102430.147500", "102