{
  "AcquisitionMatrixPE": 122,
  "AcquisitionNumber": 1,
  "AcquisitionTime": "10:00:17.475000",
  "BandwidthPerPixelPhaseEncode": 27.785,
  "BaseResolution": 122,
  "BodyPartExamined": "BRAIN",
  "CoilCombinationMethod": "Adaptive Combine",
  "ConsistencyInfo": "N4_VE11C_LATEST_20160120",
  "ConversionSoftware": "dcm2niix",
  "ConversionSoftwareVersion": "v1.0.20220720",
  "DerivedVendorReportedEchoSpacing": 0.000590011,
  "DeviceSerialNumber": "66112",
  "DiffusionScheme": "Monopolar",
  "DwellTime": 2e-06,
  "EchoTime": 0.068,
  "EchoTrainLength": 61,
  "EffectiveEchoSpacing": 0.000295005,
  "FlipAngle": 90,
  "HeudiconvVersion": "0.13.1",
  "ImageOrientationPatientDICOM": [0.991018, -0.133137, -0.012575, 0.129414, 0.931091, 0.34106],
  "ImageOrientationText": "Tra>Cor(19.9)>Sag(1.9)",
  "ImageType": [
    "ORIGINAL",
    "PRIMARY",
    "DIFFUSION",
    "NONE",
    "ND",
    "NORM"
],
  "ImagingFrequency": 123.252,
  "InPlanePhaseEncodingDirectionDICOM": "COL",
  "InstitutionAddress": "Maynard 3,Hanover,NH,US,03755",
  "InstitutionName": "Dartmouth College - PBS",
  "InstitutionalDepartmentName": "Department",
  "MRAcquisitionType": "2D",
  "MagneticFieldStrength": 3,
  "Manufacturer": "Siemens",
  "ManufacturersModelName": "Prisma",
  "Modality": "MR",
  "MultibandAccelerationFactor": 4,
  "NonlinearGradientCorrection": false,
  "ParallelReductionFactorInPlane": 2,
  "PartialFourier": 1,
  "PatientPosition": "HFS",
  "PercentPhaseFOV": 100,
  "PercentSampling": 100,
  "PhaseEncodingDirection": "j-",
  "PhaseEncodingSteps": 122,
  "PhaseResolution": 1,
  "PixelBandwidth": 2050,
  "ProcedureStepDescription": "dbic^QA",
  "ProtocolName": "dwi_acq-DTI-30-p2-s4",
  "PulseSequenceDetails": "%SiemensSeq%\\ep2d_diff",
  "ReceiveCoilActiveElements": "HEA;HEP",
  "ReceiveCoilName": "Head_32",
  "ReconMatrixPE": 122,
  "RefLinesPE": 38,
  "RepetitionTime": 3.6,
  "SAR": 0.160625,
  "ScanOptions": "FS",
  "ScanningSequence": "EP",
  "SequenceName": "*ep_b0",
  "SequenceVariant": "SK\\SP",
  "SeriesDescription": "dwi_acq-DTI-30-p2-s4",
  "SeriesNumber": 9,
  "ShimSetting": [4143, -7693, -7516, 276, -53, -176, -56, 76],
  "SliceThickness": 2,
  "SliceTiming": [2.58594, 0, 1.78906, 0.19531, 1.98438, 0.39844, 2.1875, 0.59375, 2.38281, 0.99219, 2.78125, 1.19531, 2.98438, 1.39062, 3.17969, 1.58594, 3.38281, 0.79688, 2.58594, 0, 1.78906, 0.19531, 1.98438, 0.39844, 2.1875, 0.59375, 2.38281, 0.99219, 2.78125, 1.19531, 2.98438, 1.39062, 3.17969, 1.58594, 3.38281, 0.79688, 2.58594, 0, 1.78906, 0.19531, 1.98438, 0.39844, 2.1875, 0.59375, 2.38281, 0.99219, 2.78125, 1.19531, 2.98438, 1.39062, 3.17969, 1.58594, 3.38281, 0.79688, 2.58594, 0, 1.78906, 0.19531, 1.98438, 0.39844, 2.1875, 0.59375, 2.38281, 0.99219, 2.78125, 1.19531, 2.98438, 1.39062, 3.17969, 1.58594, 3.38281, 0.79688],
  "SoftwareVersions": "syngo MR E11",
  "SpacingBetweenSlices": 2,
  "SpoilingState": true,
  "StationName": "AWP66112",
  "TotalReadoutTime": 0.0356956,
  "TxRefAmp": 233.861,
  "dcmmeta_affine": [
    [-1.9495432376861572, 0.2545855641365051, 0.0673987865447998, 102.2039794921875],
    [0.2619098126888275, 1.8316538333892822, 0.6792488098144531, -139.9062957763672],
    [-0.02473766915500164, -0.6709381341934204, 1.879913330078125, -21.639202117919922],
    [0.0, 0.0, 0.0, 1.0]
],
  "dcmmeta_reorient_transform": [
    [0.0, -1.0, 0.0, 121.0],
    [1.0, 0.0, 0.0, 0.0],
    [0.0, 0.0, -1.0, 71.0],
    [0.0, 0.0, 0.0, 1.0]
],
  "dcmmeta_shape": [122, 122, 72, 31],
  "dcmmeta_slice_dim": 2,
  "dcmmeta_version": 0.6,
  "global": {
    "const": {
      "AccessionNumber": "qa",
      "AcquisitionMatrix": [122, 0, 0, 122],
      "AngioFlag": "N",
      "BitsAllocated": 16,
      "BitsStored": 12,
      "BodyPartExamined": "BRAIN",
      "Columns": 122,
      "EchoNumbers": 1,
      "EchoTime": 68.0,
      "EchoTrainLength": 61,
      "FlipAngle": 90.0,
      "HighBit": 11,
      "ImageOrientationPatient": [0.99101779997035, -0.1331374852643, -0.0125749814883, 0.12941432387044, 0.93109068808085, 0.34106020487048],
      "ImageType": [
        "ORIGINAL",
        "PRIMARY",
        "DIFFUSION",
        "NONE",
        "ND",
        "NORM"
],
      "ImagedNucleus": "1H",
      "ImagingFrequency": 123.252459,
      "InPlanePhaseEncodingDirection": "COL",
      "MRAcquisitionType": "2D",
      "MagneticFieldStrength": 3.0,
      "Manufacturer": "SIEMENS",
      "ManufacturerModelName": "Prisma",
      "Modality": "MR",
      "NumberOfAverages": 1.0,
      "NumberOfPhaseEncodingSteps": 122,
      "PercentPhaseFieldOfView": 100.0,
      "PercentSampling": 100.0,
      "PerformedProcedureStepStartTime": "093421.909000",
      "PhotometricInterpretation": "MONOCHROME2",
      "PixelBandwidth": 2050.0,
      "PixelRepresentation": 0,
      "PixelSpacing": [1.9672131538391, 1.9672131538391],
      "ProtocolName": "dwi_acq-DTI-30-p2-s4",
      "RepetitionTime": 3600.0,
      "Rows": 122,
      "SAR": 0.1606247147429,
      "SamplesPerPixel": 1,
      "ScanOptions": "FS",
      "ScanningSequence": "EP",
      "SequenceVariant": [
        "SK",
        "SP"
],
      "SeriesDescription": "dwi_acq-DTI-30-p2-s4",
      "SeriesNumber": 9,
      "SeriesTime": "100026.341000",
      "SliceThickness": 2.0,
      "SmallestImagePixelValue": 0,
      "SoftwareVersions": "syngo MR E11",
      "SpacingBetweenSlices": 2.0,
      "SpecificCharacterSet": "ISO_IR 100",
      "StudyID": "65",
      "StudyTime": "093421.830000",
      "TransmitCoilName": "Body",
      "VariableFlipAngleFlag": "N",
      "WindowCenterWidthExplanation": "Algo1",
      "dBdt": 0.0},
    "slices": {
      "AcquisitionTime": ["100017.475000", "100014.890000", "100016.677500", "100015.087500", "100016.877500", "100015.287500", "100017.077500", "100015.485000", "100017.275000", "100015.882500", "100017.672500", "100016.082500", "100017.872500", "100016.280000", "100018.070000", "100016.480000", "100018.270000", "100015.685000", "100017.475000", "100014.890000", "100016.677500", "100015.087500", "100016.877500", "100015.287500", "100017.077500", "100015.485000", "100017.275000", "100015.882500", "100017.672500", "100016.082500", "100017.872500", "100016.280000", "100018.070000", "100016.480000", "100018.270000", "100015.685000", "100017.475000", "100014.890000", "100016.677500", "100015.087500", "100016.877500", "100015.287500", "100017.077500", "100015.485000", "100017.275000", "100015.882500", "100017.672500", "100016.082500", "100017.872500", "100016.280000", "100018.070000", "100016.480000", "100018.270000", "100015.685000", "100017.475000", "100014.890000", "100016.677500", "100015.087500", "100016.877500", "100015.287500", "100017.077500", "100015.485000", "100017.275000", "100015.882500", "100017.672500", "100016.082500", "100017.872500", "100016.280000", "100018.070000", "100016.480000", "100018.270000", "100015.685000", "100021.075000", "100018.490000", "100020.277500", "100018.687500", "100020.477500", "100018.887500", "100020.677500", "100019.085000", "100020.875000", "100019.482500", "100021.272500", "100019.682500", "100021.472500", "100019.880000", "100021.670000", "100020.080000", "100021.870000", "100019.285000", "100021.075000", "100018.490000", "100020.277500", "100018.687500", "100020.477500", "100018.887500", "100020.677500", "100019.085000", "100020.875000", "100019.482500", "100021.272500", "100019.682500", "100021.472500", "100019.880000", "100021.670000", "100020.080000", "100021.870000", "100019.285000", "100021.075000", "100018.490000", "100020.277500", "100018.687500", "100020.477500", "100018.887500", "100020.677500", "100019.085000", "100020.875000", "100019.482500", "100021.272500", "100019.682500", "100021.472500", "100019.880000", "100021.670000", "100020.080000", "100021.870000", "100019.285000", "100021.075000", "100018.490000", "100020.277500", "100018.687500", "100020.477500", "100018.887500", "100020.677500", "100019.085000", "100020.875000", "100019.482500", "100021.272500", "100019.682500", "100021.472500", "100019.880000", "100021.670000", "100020.080000", "100021.870000", "100019.285000", "100024.675000", "100022.090000", "100023.877500", "100022.287500", "100024.077500", "100022.487500", "100024.277500", "100022.685000", "100024.475000", "100023.082500", "100024.872500", "100023.282500", "100025.072500", "100023.480000", "100025.270000", "100023.680000", "100025.470000", "100022.885000", "100024.675000", "100022.090000", "100023.877500", "100022.287500", "100024.077500", "100022.487500", "100024.277500", "100022.685000", "100024.475000", "100023.082500", "100024.872500", "100023.282500", "100025.072500", "100023.480000", "100025.270000", "100023.680000", "100025.470000", "100022.885000", "100024.675000", "100022.090000", "100023.877500", "100022.287500", "100024.077500", "100022.487500", "100024.277500", "100022.685000", "100024.475000", "100023.082500", "100024.872500", "100023.282500", "100025.072500", "100023.480000", "100025.270000", "100023.680000", "100025.470000", "100022.885000", "100024.675000", "100022.090000", "100023.877500", "100022.287500", "100024.077500", "100022.487500", "100024.277500", "100022.685000", "100024.475000", "100023.082500", "100024.872500", "100023.282500", "100025.072500", "100023.480000", "100025.270000", "100023.680000", "100025.470000", "100022.885000", "100028.275000", "100025.690000", "100027.477500", "100025.887500", "100027.677500", "100026.087500", "100027.877500", "100026.285000", "100028.075000", "100026.682500", "100028.472500", "100026.882500", "100028.672500", "100027.080000", "100028.870000", "100027.280000", "100029.070000", "100026.485000", "100028.275000", "100025.690000", "100027.477500", "100025.887500", "100027.677500", "100026.087500", "100027.877500", "100026.285000", "100028.075000", "100026.682500", "100028.472500", "100026.882500", "100028.672500", "100027.080000", "100028.870000", "100027.280000", "100029.070000", "100026.485000", "100028.275000", "100025.690000", "100027.477500", "100025.887500", "100027.677500", "100026.087500", "100027.877500", "100026.285000", "100028.075000", "100026.682500", "100028.472500", "100026.882500", "100028.672500", "100027.080000", "100028.870000", "100027.280000", "100029.070000", "100026.485000", "100028.275000", "100025.690000", "100027.477500", "100025.887500", "100027.677500", "100026.087500", "100027.877500", "100026.285000", "100028.075000", "100026.682500", "100028.472500", "100026.882500", "100028.672500", "100027.080000", "100028.870000", "100027.280000", "100029.070000", "100026.485000", "100031.875000", "100029.290000", "100031.077500", "100029.487500", "100031.277500", "100029.687500", "100031.477500", "100029.885000", "100031.675000", "100030.282500", "100032.072500", "100030.482500", "100032.272500", "100030.680000", "100032.470000", "100030.880000", "100032.670000", "100030.085000", "100031.875000", "100029.290000", "100031.077500", "100029.487500", "100031.277500", "100029.687500", "100031.477500", "100029.885000", "100031.675000", "100030.282500", "100032.072500", "100030.482500", "100032.272500", "100030.680000", "100032.470000", "100030.880000", "100032.670000", "100030.085000", "100031.875000", "100029.290000", "100031.077500", "100029.487500", "100031.277500", "100029.687500", "100031.477500", "100029.885000", "100031.675000", "100030.282500", "100032.072500", "100030.482500", "100032.272500", "100030.680000", "100032.470000", "100030.880000", "100032.670000", "100030.085000", "100031.875000", "100029.290000", "100031.077500", "100029.487500", "100031.277500", "100029.687500", "100031.477500", "100029.885000", "100031.675000", "100030.282500", "100032.072500", "100030.482500", "100032.272500", "100030.680000", "100032.470000", "100030.880000", "100032.670000", "100030.085000", "100035.475000", "100032.890000", "100034.677500", "100033.087500", "100034.877500", "100033.287500", "100035.077500", "100033.485000", "100035.275000", "100033.882500", "100035.672500", "100034.082500", "100035.872500", "100034.280000", "100036.070000", "100034.480000", "100036.270000", "100033.685000", "100035.475000", "100032.890000", "100034.677500", "100033.087500", "100034.877500", "100033.287500", "100035.077500", "100033.485000", "100035.275000", "100033.882500", "100035.672500", "100034.082500", "100035.872500", "100034.280000", "100036.070000", "100034.480000", "100036.270000", "100033.685000", "100035.475000", "100032.890000", "100034.677500", "100033.087500", "100034.877500", "100033.287500", "100035.077500", "100033.485000", "100035.275000", "100033.882500", "100035.672500", "100034.082500", "100035.872500", "100034.280000", "100036.070000", "100034.480000", "100036.270000", "100033.685000", "100035.475000", "100032.890000", "100034.677500", "100033.087500", "100034.877500", "100033.287500", "100035.077500", "100033.485000", "100035.275000", "100033.882500", "100035.672500", "100034.082500", "100035.872500", "100034.280000", "100036.070000", "100034.480000", "100036.270000", "100033.685000", "100039.075000", "100036.490000", "100038.277500", "100036.687500", "100038.477500", "100036.887500", "100038.677500", "100037.085000", "100038.875000", "100037.482500", "100039.272500", "100037.682500", "100039.472500", "100037.880000", "100039.670000", "100038.080000", "100039.870000", "100037.285000", "100039.075000", "100036.490000", "100038.277500", "100036.687500", "100038.477500", "100036.887500", "100038.677500", "100037.085000", "100038.875000", "100037.482500", "100039.272500", "100037.682500", "100039.472500", "100037.880000", "100039.670000", "100038.080000", "100039.870000", "100037.285000", "100039.075000", "100036.490000", "100038.277500", "100036.687500", "100038.477500", "100036.887500", "100038.677500", "100037.085000", "100038.875000", "100037.482500", "100039.272500", "100037.682500", "100039.472500", "100037.880000", "100039.670000", "100038.080000", "100039.870000", "100037.285000", "100039.075000", "100036.490000", "100038.277500", "100036.687500", "100038.477500", "100036.887500", "100038.677500", "100037.085000", "100038.875000", "100037.482500", "100039.272500", "100037.682500", "100039.472500", "100037.880000", "100039.670000", "100038.080000", "100039.870000", "100037.285000", "100042.675000", "100040.090000", "100041.877500", "100040.287500", "100042.077500", "100040.487500", "100042.277500", "100040.685000", "100042.475000", "100041.082500", "100042.872500", "100041.282500", "100043.072500", "100041.480000", "100043.270000", "100041.680000", "100043.470000", "100040.885000", "100042.675000", "100040.090000", "100041.877500", "100040.287500", "100042.077500", "100040.487500", "100042.277500", "100040.685000", "100042.475000", "100041.082500", "100042.872500", "100041.282500", "100043.072500", "100041.480000", "100043.270000", "100041.680000", "100043.470000", "100040.885000", "100042.675000", "100040.090000", "100041.877500", "100040.287500", "100042.077500", "100040.487500", "100042.277500", "100040.685000", "100042.475000", "100041.082500", "100042.872500", "100041.282500", "100043.072500", "100041.480000", "100043.270000", "100041.680000", "100043.470000", "100040.885000", "100042.675000", "100040.090000", "100041.877500", "100040.287500", "100042.077500", "100040.487500", "100042.277500", "100040.685000", "100042.475000", "100041.082500", "100042.872500", "100041.282500", "100043.072500", "100041.480000", "100043.270000", "100041.680000", "100043.470000", "100040.885000", "100046.275000", "100043.690000", "100045.477500", "100043.887500", "100045.677500", "100044.087500", "100045.877500", "100044.285000", "100046.075000", "100044.682500", "100046.472500", "100044.882500", "100046.672500", "100045.080000", "100046.870000", "100045.280000", "100047.070000", "100044.485000", "100046.275000", "100043.690000", "100045.477500", "100043.887500", "100045.677500", "100044.087500", "100045.877500", "100044.285000", "100046.075000", "100044.682500", "100046.472500", "100044.882500", "100046.672500", "100045.080000", "100046.870000", "100045.280000", "100047.070000", "100044.485000", "100046.275000", "100043.690000", "100045.477500", "100043.887500", "100045.677500", "100044.087500", "100045.877500", "100044.285000", "100046.075000", "100044.682500", "100046.472500", "100044.882500", "100046.672500", "100045.080000", "100046.870000", "100045.280000", "100047.070000", "100044.485000", "100046.275000", "100043.690000", "100045.477500", "100043.887500", "100045.677500", "100044.087500", "100045.877500", "100044.285000", "100046.075000", "100044.682500", "100046.472500", "100044.882500", "100046.672500", "100045.080000", "100046.870000", "100045.280000", "100047.070000", "100044.485000", "100049.875000", "100047.290000", "100049.077500", "100047.487500", "100049.277500", "100047.687500", "100049.477500", "100047.885000", "100049.675000", "100048.282500", "100050.072500", "100048.482500", "100050.272500", "100048.680000", "100050.470000", "100048.880000", "100050.670000", "100048.085000", "100049.875000", "100047.290000", "100049.077500", "100047.487500", "100049.277500", "100047.687500", "100049.477500", "100047.885000", "100049.675000", "100048.282500", "100050.072500", "100048.482500", "100050.272500", "100048.680000", "100050.470000", "100048.880000", "100050.670000", "100048.085000", "100049.875000", "100047.290000", "100049.077500", "100047.487500", "100049.277500", "100047.687500", "100049.477500", "100047.885000", "100049.675000", "100048.282500", "100050.072500", "100048.482500", "100050.272500", "100048.680000", "100050.470000", "100048.880000", "100050.670000", "100048.085000", "100049.875000", "100047.290000", "100049.077500", "100047.487500", "100049.277500", "100047.687500", "100049.477500", "100047.885000", "100049.675000", "100048.282500", "100050.072500", "100048.482500", "100050.272500", "100048.680000", "100050.470000", "100048.880000", "100050.670000", "100048.085000", "100053.475000", "100050.890000", "100052.677500", "100051.087500", "100052.877500", "100051.287500", "100053.077500", "100051.485000", "100053.275000", "100051.882500", "100053.672500", "100052.082500", "100053.872500", "100052.280000", "100054.070000", "100052.480000", "100054.270000", "100051.685000", "100053.475000", "100050.890000", "100052.677500", "100051.087500", "100052.877500", "100051.287500", "100053.077500", "100051.485000", "100053.275000", "100051.882500", "100053.672500", "100052.082500", "100053.872500", "100052.280000", "100054.070000", "100052.480000", "100054.270000", "100051.685000", "100053.475000", "100050.890000", "100052.677500", "100051.087500", "100052.877500", "100051.287500", "100053.077500", "100051.485000", "100053.275000", "100051.882500", "100053.672500", "100052.082500", "100053.872500", "100052.280000", "100054.070000", "100052.480000", "100054.270000", "100051.685000", "100053.475000", "100050.890000", "100052.677500", "100051.087500", "100052.877500", "100051.287500", "100053.077500", "100051.485000", "100053.275000", "100051.882500", "100053.672500", "100052.082500", "100053.872500", "100052.280000", "100054.070000", "100052.480000", "100054.270000", "100051.685000", "100057.075000", "100054.490000", "100056.277500", "100054.687500", "100056.477500", "100054.887500", "100056.677500", "100055.085000", "100056.875000", "100055.482500", "100057.272500", "100055.682500", "100057.472500", "100055.880000", "100057.670000", "100056.080000", "100057.870000", "100055.285000", "100057.075000", "100054.490000", "100056.277500", "100054.687500", "100056.477500", "100054.887500", "100056.677500", "100055.085000", "100056.875000", "100055.482500", "100057.272500", "100055.682500", "100057.472500", "100055.880000", "100057.670000", "100056.080000", "100057.870000", "100055.285000", "100057.075000", "100054.490000", "100056.277500", "100054.687500", "100056.477500", "100054.887500", "100056.677500", "100055.085000", "100056.875000", "100055.482500", "100057.272500", "100055.682500", "100057.472500", "100055.880000", "100057.670000", "100056.080000", "100057.870000", "100055.285000", "100057.075000", "100054.490000", "100056.277500", "100054.687500", "100056.477500", "100054.887500", "100056.677500", "100055.085000", "100056.875000", "100055.482500", "100057.272500", "100055.682500", "100057.472500", "100055.880000", "100057.670000", "100056.080000", "100057.870000", "100055.285000", "100100.675000", "100058.090000", "100059.877500", "100058.287500", "100100.077500", "100058.487500", "100100.277500", "100058.685000", "100100.475000", "100059.082500", "100100.872500", "100059.282500", "100101.072500", "100059.480000", "100101.270000", "100059.680000", "100101.470000", "100058.885000", "100100.675000", "100058.090000", "100059.877500", "100058.287500", "100100.077500", "100058.487500", "100100.277500", "100058.685000", "100100.475000", "100059.082500", "100100.872500", "100059.282500", "100101.072500", "100059.480000", "100101.270000", "100059.680000", "100101.470000", "100058.885000", "100100.675000", "100058.090000", "100059.877500", "100058.287500", "100100.077500", "100058.487500", "100100.277500", "100058.685000", "100100.475000", "100059.082500", "100100.872500", "100059.282500", "100101.072500", "100059.480000", "100101.270000", "100059.680000", "100101.470000", "100058.885000", "100100.675000", "100058.090000", "100059.877500", "100058.287500", "100100.077500", "100058.487500", "100100.277500", "100058.685000", "100100.475000", "100059.082500", "100100.872500", "100059.282500", "100101.072500", "100059.480000", "100101.270000", "100059.680000", "100101.470000", "100058.885000", "100104.275000", "100101.690000", "100103.477500", "100101.887500", "100103.677500", "100102.087500", "100103.877500", "100102.285000", "100104.075000", "100102.682500", "100104.472500", "100102.882500", "100104.672500", "100103.080000", "100104.870000", "100103.280000", "100105.070000", "100102.485000", "100104.275000", "100101.690000", "100103.477500", "100101.887500", "100103.677500", "100102.087500", "100103.877500", "100102.285000", "100104.075000", "100102.682500", "100104.472500", "100102.882500", "100104.672500", "100103.080000", "100104.870000", "100103.280000", "100105.070000", "100102.485000", "100104.275000", "100101.690000", "100103.477500", "100101.887500", "100103.677500", "100102.087500", "100103.877500", "100102.285000", "100104.075000", "100102.682500", "100104.472500", "100102.882500", "100104.672500", "100103.080000", "100104.870000", "100103.280000", "100105.070000", "100102.485000", "100104.275000", "100101.690000", "100103.477500", "100101.887500", "100103.677500", "100102.087500", "100103.877500", "100102.285000", "100104.075000", "100102.682500", "100104.472500", "100102.882500", "100104.672500", "100103.080000", "100104.870000", "100103.280000", "100105.070000", "100102.485000", "100107.875000", "100105.290000", "100107.077500", "100105.487500", "100107.277500", "100105.687500", "100107.477500", "100105.885000", "100107.675000", "100106.282500", "100108.072500", "100106.482500", "100108.272500", "100106.680000", "100108.470000", "100106.880000", "100108.670000", "100106.085000", "100107.875000", "100105.290000", "100107.077500", "100105.487500", "100107.277500", "100105.687500", "100107.477500", "100105.885000", "100107.675000", "100106.282500", "100108.072500", "100106.482500", "100108.272500", "100106.680000", "100108.470000", "100106.880000", "100108.670000", "100106.085000", "100107.875000", "100105.290000", "100107.077500", "100105.487500", "100107.277500", "100105.687500", "100107.477500", "100105.885000", "100107.675000", "100106.282500", "100108.072500", "100106.482500", "100108.272500", "100106.680000", "100108.470000", "100106.880000", "100108.670000", "100106.085000", "100107.875000", "100105.290000", "100107.077500", "100105.487500", "100107.277500", "100105.687500", "100107.477500", "100105.885000", "100107.675000", "100106.282500", "100108.072500", "100106.482500", "100108.272500", "100106.680000", "100108.470000", "100106.880000", "100108.670000", "100106.085000", "100111.475000", "100108.890000", "100110.677500", "100109.087500", "100110.877500", "100109.287500", "100111.077500", "100109.485000", "100111.275000", "100109.882500", "100111.672500", "100110.082500", "100111.872500", "100110.280000", "100112.070000", "100110.480000", "100112.270000", "100109.685000", "100111.475000", "100108.890000", "100110.677500", "100109.087500", "100110.877500", "100109.287500", "100111.077500", "100109.485000", "100111.275000", "100109.882500", "100111.672500", "100110.082500", "100111.872500", "100110.280000", "100112.070000", "100110.480000", "100112.270000", "100109.685000", "100111.475000", "100108.890000", "100110.677500", "100109.087500", "100110.877500", "100109.287500", "100111.077500", "100109.485000", "100111.275000", "100109.882500", "100111.672500", "100110.082500", "100111.872500", "100110.280000", "100112.070000", "100110.480000", "100112.270000", "100109.685000", "100111.475000", "100108.890000", "100110.677500", "100109.087500", "100110.877500", "100109.287500", "100111.077500", "100109.485000", "100111.275000", "100109.882500", "100111.672500", "100110.082500", "100111.872500", "100110.280000", "100112.070000", "100110.480000", "100112.270000", "100109.685000", "100115.075000", "100112.490000", "100114.277500", "100112.687500", "100114.477500", "100112.887500", "100114.677500", "100113.085000", "100114.875000", "100113.482500", "100115.272500", "100113.682500", "100115.472500", "100113.880000", "100115.670000", "100114.080000", "100115.870000", "100113.285000", "100115.075000", "100112.490000", "100114.277500", "100112.687500", "100114.477500", "100112.887500", "100114.677500", "100113.085000", "100114.875000", "100113.482500", "100115.272500", "100113.682500", "100115.472500", "100113.880000", "100115.670000", "100114.080000", "100115.870000", "100113.285000", "100115.075000", "100112.490000", "100114.277500", "100112.687500", "100114.477500", "100112.887500", "100114.677500", "100113.085000", "100114.875000", "100113.482500", "100115.272500", "100113.682500", "100115.472500", "100113.880000", "100115.670000", "100114.080000", "100115.870000", "100113.285000", "100115.075000", "100112.490000", "100114.277500", "100112.687500", "100114.477500", "100112.887500", "100114.677500", "100113.085000", "100114.875000", "100113.482500", "100115.272500", "100113.682500", "100115.472500", "100113.880000", "100115.670000", "100114.080000", "100115.870000", "100113.285000", "100118.675000", "100116.090000", "100117.877500", "100116.287500", "100118.077500", "100116.487500", "100118.277500", "100116.685000", "100118.475000", "100117.082500", "100118.872500", "100117.282500", "100119.072500", "100117.480000", "100119.270000", "100117.680000", "100119.470000", "100116.885000", "100118.675000", "100116.090000", "100117.877500", "100116.287500", "100118.077500", "100116.487500", "100118.277500", "100116.685000", "100118.475000", "100117.082500", "100118.872500", "100117.282500", "100119.072500", "100117.480000", "100119.270000", "100117.680000", "100119.470000", "100116.885000", "100118.675000", "100116.090000", "100117.877500", "100116.287500", "100118.077500", "100116.487500", "100118.277500", "100116.685000", "100118.475000", "100117.082500", "100118.872500", "100117.282500", "100119.072500", "100117.480000", "100119.270000", "100117.680000", "100119.470000", "100116.885000", "100118.675000", "100116.090000", "100117.877500", "100116.287500", "100118.077500", "100116.487500", "100118.277500", "100116.685000", "100118.475000", "100117.082500", "100118.872500", "100117.282500", "100119.072500", "100117.480000", "100119.270000", "100117.680000", "100119.470000", "100116.885000", "100122.275000", "100119.690000", "100121.477500", "100119.887500", "100121.677500", "100120.087500", "100121.877500", "100120.285000", "100122.075000", "100120.682500", "100122.472500", "100120.882500", "100122.672500", "100121.080000", "100122.870000", "100121.280000", "100123.070000", "100120.485000", "100122.275000", "100119.690000", "100121.477500", "100119.887500", "100121.677500", "100120.087500", "100121.877500", "100120.285000", "100122.075000", "100120.682500", "100122.472500", "100120.882500", "100122.672500", "100121.080000", "100122.870000", "100121.280000", "100123.070000", "100120.485000", "100122.275000", "100119.690000", "100121.477500", "100119.887500", "100121.677500", "100120.087500", "100121.877500", "100120.285000", "100122.075000", "100120.682500", "100122.472500", "100120.882500", "100122.672500", "100121.080000", "100122.870000", "100121.280000", "100123.070000", "100120.485000", "100122.275000", "100119.690000", "100121.477500", "100119.887500", "100121.677500", "100120.087500", "100121.877500", "100120.285000", "100122.075000", "100120.682500", "100122.472500", "100120.882500", "100122.672500", "100121.080000", "100122.870000", "100121.280000", "100123.070000", "100120.485000", "100125.875000", "100123.290000", "100125.077500", "100123.487500", "100125.277500", "100123.687500", "100125.477500", "100123.885000", "100125.675000", "100124.282500", "100126.072500", "100124.482500", "100126.272500", "100124.680000", "100126.470000", "100124.880000", "100126.670000", "100124.085000", "100125.875000", "100123.290000", "100125.077500", "100123.487500", "100125.277500", "100123.687500", "100125.477500", "100123.885000", "100125.675000", "100124.282500", "100126.072500", "100124.482500", "100126.272500", "100124.680000", "100126.470000", "100124.880000", "100126.670000", "100124.085000", "100125.875000", "100123.290000", "100125.077500", "100123.487500", "100125.277500", "100123.687500", "100125.477500", "100123.885000", "100125.675000", "100124.282500", "100126.072500", "100124.482500", "100126.272500", "100124.680000", "100126.470000", "100124.880000", "100126.670000", "100124.085000", "100125.875000", "100123.290000", "100125.077500", "100123.487500", "100125.277500", "100123.687500", "100125.477500", "100123.885000", "100125.675000", "100124.282500", "100126.072500", "100124.48