{
  "AcquisitionMatrixPE": 80,
  "AcquisitionNumber": 1,
  "AcquisitionTime": "09:13:56.512500",
  "BandwidthPerPixelPhaseEncode": 25,
  "BaseResolution": 80,
  "BodyPartExamined": "BRAIN",
  "CoilCombinationMethod": "Sum of Squares",
  "ConsistencyInfo": "N4_VE11E_LATEST_20181129",
  "ConversionSoftware": "dcm2niix",
  "ConversionSoftwareVersion": "v1.0.20220720",
  "DerivedVendorReportedEchoSpacing": 0.0005,
  "DeviceSerialNumber": "66112",
  "DwellTime": 2.7e-06,
  "EchoTime": 0.03,
  "EchoTrainLength": 80,
  "EffectiveEchoSpacing": 0.0005,
  "FlipAngle": 10,
  "HeudiconvVersion": "0.13.1",
  "ImageOrientationPatientDICOM": [0.992263, -0.124019, 0.00579458, 0.116915, 0.949095, 0.292489],
  "ImageOrientationText": "Tra>Cor(16.8)>Sag(2.4)",
  "ImageType": [
    "ORIGINAL",
    "PRIMARY",
    "M",
    "ND",
    "NORM",
    "MOSAIC"
],
  "ImagingFrequency": 123.259,
  "InPlanePhaseEncodingDirectionDICOM": "COL",
  "InstitutionAddress": "Maynard 3,Hanover,NH,US,03755",
  "InstitutionName": "Dartmouth College - PBS",
  "InstitutionalDepartmentName": "Department",
  "MRAcquisitionType": "2D",
  "MagneticFieldStrength": 3,
  "Manufacturer": "Siemens",
  "ManufacturersModelName": "Prisma",
  "MatrixCoilMode": "SENSE",
  "Modality": "MR",
  "NonlinearGradientCorrection": false,
  "PartialFourier": 1,
  "PatientPosition": "HFS",
  "PercentPhaseFOV": 100,
  "PercentSampling": 100,
  "PhaseEncodingDirection": "j-",
  "PhaseEncodingSteps": 80,
  "PhaseResolution": 1,
  "PixelBandwidth": 2315,
  "ProcedureStepDescription": "dbic^QA",
  "ProtocolName": "func-bold_fa-10",
  "PulseSequenceDetails": "%SiemensSeq%\\ep2d_bold",
  "ReceiveCoilActiveElements": "HC1-7;NC1,2",
  "ReceiveCoilName": "HeadNeck_64",
  "ReconMatrixPE": 80,
  "RepetitionTime": 2,
  "SAR": 0.00755668,
  "ScanOptions": "FS",
  "ScanningSequence": "EP",
  "SequenceName": "*epfid2d1_80",
  "SequenceVariant": "SK",
  "SeriesDescription": "func-bold_fa-10",
  "SeriesNumber": 7,
  "ShimSetting": [4217, -7737, -7479, -105, -165, -258, -59, 71],
  "SliceThickness": 3.5,
  "SliceTiming": [0.99, 0, 1.0575, 0.0675, 1.1225, 0.1325, 1.1875, 0.1975, 1.255, 0.265, 1.32, 0.33, 1.3875, 0.3975, 1.4525, 0.4625, 1.5175, 0.5275, 1.585, 0.595, 1.65, 0.66, 1.7175, 0.7275, 1.7825, 0.7925, 1.8475, 0.8575, 1.915, 0.925],
  "SoftwareVersions": "syngo MR E11",
  "SpacingBetweenSlices": 3.99,
  "StationName": "AWP66112",
  "TotalReadoutTime": 0.0395,
  "TxRefAmp": 210.246,
  "dcmmeta_affine": [
    [-2.9767887592315674, 0.3507460057735443, 0.16667716205120087, 102.07853698730469],
    [0.37205639481544495, 2.8472845554351807, 1.1552982330322266, -138.7512664794922],
    [0.017383726313710213, -0.8774667382240295, 3.8154428005218506, -25.03653907775879],
    [0.0, 0.0, 0.0, 1.0]
],
  "dcmmeta_reorient_transform": [
    [0.0, -1.0, 0.0, 79.0],
    [1.0, 0.0, 0.0, 0.0],
    [0.0, 0.0, 1.0, 0.0],
    [0.0, 0.0, 0.0, 1.0]
],
  "dcmmeta_shape": [80, 80, 30, 200],
  "dcmmeta_slice_dim": 2,
  "dcmmeta_version": 0.6,
  "global": {
    "const": {
      "AccessionNumber": "qa64",
      "AcquisitionMatrix": [80, 0, 0, 80],
      "AngioFlag": "N",
      "BitsAllocated": 16,
      "BitsStored": 12,
      "BodyPartExamined": "BRAIN",
      "Columns": 480,
      "EchoNumbers": 1,
      "EchoTime": 30.0,
      "EchoTrainLength": 80,
      "FlipAngle": 10.0,
      "HighBit": 11,
      "ImageOrientationPatient": [0.99226294974582, -0.1240187947654, 0.00579457562407, 0.11691533067229, 0.94909485463882, 0.29248890979301],
      "ImagePositionPatient": [-795.29444140314, -581.22985389863, -273.32650268877],
      "ImageType": [
        "ORIGINAL",
        "PRIMARY",
        "M",
        "ND",
        "NORM",
        "MOSAIC"
],
      "ImagedNucleus": "1H",
      "ImagingFrequency": 123.259241,
      "InPlanePhaseEncodingDirection": "COL",
      "MRAcquisitionType": "2D",
      "MagneticFieldStrength": 3.0,
      "Manufacturer": "SIEMENS",
      "ManufacturerModelName": "Prisma",
      "Modality": "MR",
      "NumberOfAverages": 1.0,
      "NumberOfPhaseEncodingSteps": 80,
      "PercentPhaseFieldOfView": 100.0,
      "PercentSampling": 100.0,
      "PerformedProcedureStepStartTime": "085523.375000",
      "PhotometricInterpretation": "MONOCHROME2",
      "PixelBandwidth": 2315.0,
      "PixelRepresentation": 0,
      "PixelSpacing": [3.0, 3.0],
      "ProtocolName": "func-bold_fa-10",
      "RepetitionTime": 2000.0,
      "Rows": 480,
      "SAR": 0.0075566822251,
      "SamplesPerPixel": 1,
      "ScanOptions": "FS",
      "ScanningSequence": "EP",
      "SequenceName": "*epfid2d1_80",
      "SequenceVariant": "SK",
      "SeriesDescription": "func-bold_fa-10",
      "SeriesNumber": 7,
      "SeriesTime": "091442.905000",
      "SliceLocation": -59.852235214696,
      "SliceThickness": 3.5,
      "SmallestImagePixelValue": 0,
      "SoftwareVersions": "syngo MR E11",
      "SpacingBetweenSlices": 3.9899999180989,
      "SpecificCharacterSet": "ISO_IR 100",
      "StudyID": "19",
      "StudyTime": "085523.286000",
      "TransmitCoilName": "Body",
      "VariableFlipAngleFlag": "N",
      "WindowCenterWidthExplanation": "Algo1"
    },
    "slices": {}
  },
  "time": {
    "samples": {
      "AcquisitionNumber": [1, 2, 3, 4, 5, 6, 7, 8, 9, 10, 11, 12, 13, 14, 15, 16, 17, 18, 19, 20, 21, 22, 23, 24, 25, 26, 27, 28, 29, 30, 31, 32, 33, 34, 35, 36, 37, 38, 39, 40, 41, 42, 43, 44, 45, 46, 47, 48, 49, 50, 51, 52, 53, 54, 55, 56, 57, 58, 59, 60, 61, 62, 63, 64, 65, 66, 67, 68, 69, 70, 71, 72, 73, 74, 75, 76, 77, 78, 79, 80, 81, 82, 83, 84, 85, 86, 87, 88, 89, 90, 91, 92, 93, 94, 95, 96, 97, 98, 99, 100, 101, 102, 103, 104, 105, 106, 107, 108, 109, 110, 111, 112, 113, 114, 115, 116, 117, 118, 119, 120, 121, 122, 123, 124, 125, 126, 127, 128, 129, 130, 131, 132, 133, 134, 135, 136, 137, 138, 139, 140, 141, 142, 143, 144, 145, 146, 147, 148, 149, 150, 151, 152, 153, 154, 155, 156, 157, 158, 159, 160, 161, 162, 163, 164, 165, 166, 167, 168, 169, 170, 171, 172, 173, 174, 175, 176, 177, 178, 179, 180, 181, 182, 183, 184, 185, 186, 187, 188, 189, 190, 191, 192, 193, 194, 195, 196, 197, 198, 199, 200],
      "AcquisitionTime": ["091356.512500", "091358.512500", "091400.512500", "091402.512500", "091404.512500", "091406.512500", "091408.512500", "091410.512500", "091412.512500", "091414.512500", "091416.512500", "091418.512500", "091420.512500", "091422.512500", "091424.512500", "091426.512500", "091428.512500", "091430.512500", "091432.512500", "091434.512500", "091436.512500", "091438.512500", "091440.512500", "091442.512500", "091444.512500", "091446.512500", "091448.512500", "091450.512500", "091452.512500", "091454.512500", "091456.512500", "091458.512500", "091500.512500", "091502.512500", "091504.512500", "091506.512500", "091508.512500", "091510.512500", "091512.512500", "091514.512500", "091516.512500", "091518.512500", "091520.512500", "091522.512500", "091524.512500", "091526.512500", "091528.512500", "091530.512500", "091532.512500", "091534.512500", "091536.512500", "091538.512500", "091540.512500", "091542.512500", "091544.512500", "091546.512500", "091548.512500", "091550.512500", "091552.512500", "091554.512500", "091556.512500", "091558.512500", "091600.512500", "091602.512500", "091604.512500", "091606.512500", "091608.512500", "091610.512500", "091612.512500", "091614.512500", "091616.512500", "091618.512500", "091620.512500", "091622.512500", "091624.512500", "091626.512500", "091628.512500", "091630.512500", "091632.512500", "091634.512500", "091636.512500", "091638.512500", "091640.512500", "091642.512500", "091644.512500", "091646.512500", "091648.512500", "091650.512500", "091652.512500", "091654.512500", "091656.512500", "091658.512500", "091700.512500", "091702.512500", "091704.512500", "091706.512500", "091708.512500", "091710.512500", "091712.512500", "091714.512500", "091716.512500", "091718.512500", "091720.512500", "091722.512500", "091724.512500", "091726.512500", "091728.512500", "091730.512500", "091732.512500", "091734.512500", "091736.512500", "091738.512500", "091740.512500", "091742.512500", "091744.512500", "091746.512500", "091748.512500", "091750.512500", "091752.512500", "091754.512500", "091756.512500", "091758.512500", "091800.512500", "091802.512500", "091804.512500", "091806.512500", "091808.512500", "091810.512500", "091812.512500", "091814.512500", "091816.512500", "091818.512500", "091820.512500", "091822.512500", "091824.512500", "091826.512500", "091828.512500", "091830.512500", "091832.512500", "091834.512500", "091836.512500", "091838.512500", "091840.512500", "091842.512500", "091844.512500", "091846.512500", "091848.512500", "091850.512500", "091852.512500", "091854.512500", "091856.512500", "091858.512500", "091900.512500", "091902.512500", "091904.512500", "091906.512500", "091908.512500", "091910.512500", "091912.512500", "091914.512500", "091916.512500", "091918.512500", "091920.512500", "091922.512500", "091924.512500", "091926.512500", "091928.512500", "091930.512500", "091932.512500", "091934.512500", "091936.512500", "091938.512500", "091940.512500", "091942.512500", "091944.512500", "091946.512500", "091948.512500", "091950.512500", "091952.512500", "091954.512500", "091956.512500", "091958.512500", "092000.512500", "092002.512500", "092004.512500", "092006.512500", "092008.512500", "092010.512500", "092012.512500", "092014.512500", "092016.512500", "092018.512500", "092020.512500", "092022.512500", "092024.512500", "092026.512500", "092028.512500", "092030.512500", "092032.512500", "092034.512500"],
      "ContentTime": ["091442.908000", "091442.919000", "091442.922000", "091442.924000", "091442.926000", "091442.929000", "091442.931000", "091442.933000", "091442.936000", "091442.946000", "091442.948000", "091442.951000", "091442.953000", "091442.962000", "091442.965000", "091442.967000", "091442.969000", "091442.972000", "091442.976000", "091442.979000", "091442.981000", "091442.983000", "091442.986000", "091522.903000", "091522.906000", "091522.908000", "091522.911000", "091522.914000", "091522.916000", "091522.918000", "091522.921000", "091522.923000", "091522.930000", "091522.933000", "091522.935000", "091522.938000", "091522.940000", "091522.942000", "091522.945000", "091522.947000", "091522.949000", "091522.951000", "091522.954000", "091602.903000", "091602.906000", "091602.908000", "091602.911000", "091602.914000", "091602.916000", "091602.918000", "091602.921000", "091602.923000", "091602.925000", "091602.928000", "091602.930000", "091602.932000", "091602.935000", "091602.937000", "091602.939000", "091602.942000", "091602.944000", "091602.946000", "091602.949000", "091642.904000", "091642.907000", "091642.909000", "091642.912000", "091642.914000", "091642.916000", "091642.919000", "091642.921000", "091642.923000", "091642.926000", "091642.928000", "091642.930000", "091642.933000", "091642.935000", "091642.937000", "091642.940000", "091642.942000", "091642.944000", "091642.947000", "091642.949000", "091722.903000", "091722.906000", "091722.908000", "091722.911000", "091722.913000", "091722.915000", "091722.918000", "091722.920000", "091722.923000", "091722.925000", "091722.927000", "091722.930000", "091722.932000", "091722.934000", "091722.937000", "091722.939000", "091722.941000", "091722.943000", "091722.946000", "091722.948000", "091802.903000", "091802.906000", "091802.908000", "091802.911000", "091802.913000", "091802.915000", "091802.917000", "091802.920000", "091802.922000", "091802.925000", "091802.927000", "091802.929000", "091802.932000", "091802.934000", "091802.936000", "091802.939000", "091802.941000", "091802.943000", "091802.946000", "091802.948000", "091842.904000", "091842.907000", "091842.909000", "091842.912000", "091842.914000", "091842.917000", "091842.919000", "091842.921000", "091842.924000", "091842.926000", "091842.928000", "091842.931000", "091842.933000", "091842.935000", "091842.938000", "091842.940000", "091842.942000", "091842.945000", "091842.947000", "091842.949000", "091922.903000", "091922.906000", "091922.909000", "091922.911000", "091922.913000", "091922.916000", "091922.918000", "091922.920000", "091922.923000", "091922.925000", "091922.927000", "091922.930000", "091922.932000", "091922.935000", "091922.937000", "091922.939000", "091922.941000", "091922.944000", "091922.946000", "091922.949000", "092002.903000", "092002.906000", "092002.908000", "092002.910000", "092002.913000", "092002.915000", "092002.917000", "092002.920000", "092002.922000", "092002.924000", "092002.927000", "092002.929000", "092002.931000", "092002.934000", "092002.936000", "092002.939000", "092002.941000", "092002.943000", "092002.946000", "092002.948000", "092036.128000", "092036.130000", "092036.133000", "092036.136000", "092036.138000", "092036.141000", "092036.143000", "092036.146000", "092036.148000", "092036.150000", "092036.153000", "092036.156000", "092036.160000", "092036.165000", "092036.168000", "092036.171000", "092036.174000"],
      "InstanceCreationTime": ["091442.908000", "091442.919000", "091442.922000", "091442.924000", "091442.926000", "091442.929000", "091442.931000", "091442.933000", "091442.936000", "091442.946000", "091442.948000", "091442.951000", "091442.953000", "091442.962000", "091442.965000", "091442.967000", "091442.969000", "091442.972000", "091442.976000", "091442.979000", "091442.981000", "091442.983000", "091442.986000", "091522.903000", "091522.906000", "091522.908000", "091522.911000", "091522.914000", "091522.916000", "091522.918000", "091522.921000", "091522.923000", "091522.930000", "091522.933000", "091522.935000", "091522.938000", "091522.940000", "091522.942000", "091522.945000", "091522.947000", "091522.949000", "091522.951000", "091522.954000", "091602.903000", "091602.906000", "091602.908000", "091602.911000", "091602.914000", "091602.916000", "091602.918000", "091602.921000", "091602.923000", "091602.925000", "091602.928000", "091602.930000", "091602.932000", "091602.935000", "091602.937000", "091602.939000", "091602.942000", "091602.944000", "091602.946000", "091602.949000", "091642.904000", "091642.907000", "091642.909000", "091642.912000", "091642.914000", "091642.916000", "091642.919000", "091642.921000", "091642.923000", "091642.926000", "091642.928000", "091642.930000", "091642.933000", "091642.935000", "091642.937000", "091642.940000", "091642.942000", "091642.944000", "091642.947000", "091642.949000", "091722.903000", "091722.906000", "091722.908000", "091722.911000", "091722.913000", "091722.915000", "091722.918000", "091722.920000", "091722.923000", "091722.925000", "091722.927000", "091722.930000", "091722.932000", "091722.934000", "091722.937000", "091722.939000", "091722.941000", "091722.943000", "091722.946000", "091722.948000", "091802.903000", "091802.906000", "091802.908000", "091802.911000", "091802.913000", "091802.915000", "091802.917000", "091802.920000", "091802.922000", "091802.925000", "091802.927000", "091802.929000", "091802.932000", "091802.934000", "091802.936000", "091802.939000", "091802.941000", "091802.943000", "091802.946000", "091802.948000", "091842.904000", "091842.907000", "091842.909000", "091842.912000", "091842.914000", "091842.917000", "091842.919000", "091842.921000", "091842.924000", "091842.926000", "091842.928000", "091842.931000", "091842.933000", "091842.935000", "091842.938000", "091842.940000", "091842.942000", "091842.945000", "091842.947000", "091842.949000", "091922.903000", "091922.906000", "091922.909000", "091922.911000", "091922.913000", "091922.916000", "091922.918000", "091922.920000", "091922.923000", "091922.925000", "091922.927000", "091922.930000", "091922.932000", "091922.935000", "091922.937000", "091922.939000", "091922.941000", "091922.944000", "091922.946000", "091922.949000", "092002.903000", "092002.906000", "092002.908000", "092002.910000", "092002.913000", "092002.915000", "092002.917000", "092002.920000", "092002.922000", "092002.924000", "092002.927000", "092002.929000", "092002.931000", "092002.934000", "092002.936000", "092002.939000", "092002.941000", "092002.943000", "092002.946000", "092002.948000", "092036.128000", "092036.130000", "092036.133000", "092036.136000", "092036.138000", "092036.141000", "092036.143000", "092036.146000", "092036.148000", "092036.150000", "092036.153000", "092036.156000", "092036.160000", "092036.165000", "092036.168000", "092036.171000", "092036.174000"],
      "InstanceNumber": [1, 2, 3, 4, 5, 6, 7, 8, 9, 10, 11, 12, 13, 14, 15, 16, 17, 18, 19, 20, 21, 22, 23, 24, 25, 26, 27, 28, 29, 30, 31, 32, 33, 34, 35, 36, 37, 38, 39, 40, 41, 42, 43, 44, 45, 46, 47, 48, 49, 50, 51, 52, 53, 54, 55, 56, 57, 58, 59, 60, 61, 62, 63, 64, 65, 66, 67, 68, 69, 70, 71, 72, 73, 74, 75, 76, 77, 78, 79, 80, 81, 82, 83, 84, 85, 86, 87, 88, 89, 90, 91, 92, 93, 94, 95, 96, 97, 98, 99, 100, 101, 102, 103, 104, 105, 106, 107, 108, 109, 110, 111, 112, 113, 114, 115, 116, 117, 118, 119, 120, 121, 122, 123, 124, 125, 126, 127, 128, 129, 130, 131, 132, 133, 134, 135, 136, 137, 138, 139, 140, 141, 142, 143, 144, 145, 146, 147, 148, 149, 150, 151, 152, 153, 154, 155, 156, 157, 158, 159, 160, 161, 162, 163, 164, 165, 166, 167, 168, 169, 170, 171, 172, 173, 174, 175, 176, 177, 178, 179, 180, 181, 182, 183, 184, 185, 186, 187, 188, 189, 190, 191, 192, 193, 194, 195, 196, 197, 198, 199, 200],
      "LargestImagePixelValue": [665, 667, 666, 670, 670, 667, 667, 666, 669, 667, 667, 668, 670, 667, 667, 669, 671, 668, 671, 670, 670, 670, 670, 669, 670, 667, 667, 668, 667, 665, 666, 667, 668, 668, 668, 665, 669, 666, 667, 665, 669, 667, 670, 666, 671, 668, 670, 669, 666, 668, 670, 669, 666, 668, 668, 668, 666, 668, 668, 666, 665, 667, 665, 667, 668, 665, 664, 669, 668, 667, 668, 667, 666, 667, 667, 668, 670, 670, 672, 668, 669, 667, 668, 667, 669, 666, 668, 664, 669, 664, 666, 663, 665, 663, 667, 666, 667, 668, 668, 663, 667, 669, 666, 669, 666, 672, 667, 669, 669, 667, 667, 667, 669, 667, 665, 664, 668, 666, 664, 668, 665, 665, 665, 667, 666, 666, 665, 667, 667, 668, 668, 666, 669, 669, 667, 668, 666, 668, 669, 665, 666, 669, 664, 668, 668, 666, 666, 665, 665, 668, 664, 664, 663, 668, 666, 667, 665, 669, 669, 667, 669, 667, 665, 667, 666, 668, 666, 667, 664, 666, 663, 663, 666, 666, 666, 667, 666, 664, 664, 665, 664, 663, 665, 667, 665, 665, 665, 665, 665, 664, 666, 668, 666, 667, 667, 670, 670, 667, 664, 667],
      "WindowCenter": [465.0, 465.0, 465.0, 466.0, 466.0, 465.0, 465.0, 465.0, 465.0, 465.0, 465.0, 465.0, 466.0, 465.0, 465.0, 465.0, 466.0, 465.0, 466.0, 466.0, 466.0, 466.0, 466.0, 465.0, 466.0, 465.0, 465.0, 465.0, 465.0, 465.0, 465.0, 465.0, 465.0, 465.0, 465.0, 465.0, 465.0, 465.0, 465.0, 465.0, 465.0, 465.0, 466.0, 465.0, 466.0, 465.0, 465.0, 465.0, 465.0, 465.0, 466.0, 465.0, 465.0, 465.0, 465.0, 465.0, 465.0, 465.0, 465.0, 465.0, 465.0, 465.0, 465.0, 465.0, 465.0, 465.0, 465.0, 465.0, 465.0, 465.0, 465.0, 464.0, 465.0, 465.0, 465.0, 464.0, 466.0, 466.0, 466.0, 465.0, 465.0, 465.0, 465.0, 465.0, 465.0, 465.0, 465.0, 465.0, 465.0, 465.0, 465.0, 465.0, 465.0, 465.0, 464.0, 465.0, 465.0, 465.0, 465.0, 464.0, 464.0, 464.0, 464.0, 464.0, 464.0, 465.0, 464.0, 464.0, 465.0, 465.0, 465.0, 465.0, 465.0, 464.0, 465.0, 465.0, 465.0, 465.0, 465.0, 464.0, 465.0, 465.0, 465.0, 464.0, 464.0, 464.0, 464.0, 464.0, 464.0, 464.0, 464.0, 464.0, 464.0, 464.0, 464.0, 464.0, 464.0, 464.0, 464.0, 464.0, 464.0, 464.0, 464.0, 464.0, 464.0, 464.0, 464.0, 464.0, 464.0, 464.0, 464.0, 464.0, 464.0, 464.0, 464.0, 464.0, 464.0, 464.0, 464.0, 464.0, 464.0, 464.0, 464.0, 464.0, 464.0, 464.0, 464.0, 464.0, 464.0, 464.0, 464.0, 464.0, 464.0, 464.0, 464.0, 464.0, 464.0, 464.0, 464.0, 464.0, 464.0, 464.0, 464.0, 464.0, 464.0, 464.0, 464.0, 464.0, 464.0, 464.0, 463.0, 464.0, 464.0, 464.0, 464.0, 464.0, 464.0, 464.0, 464.0, 464.0],
      "WindowWidth": [965.0, 965.0, 965.0, 967.0, 967.0, 965.0, 965.0, 965.0, 965.0, 965.0, 965.0, 965.0, 966.0, 965.0, 965.0, 965.0, 966.0, 965.0, 967.0, 967.0, 967.0, 967.0, 967.0, 965.0, 967.0, 965.0, 965.0, 965.0, 966.0, 966.0, 966.0, 965.0, 965.0, 965.0, 965.0, 965.0, 965.0, 965.0, 965.0, 965.0, 965.0, 965.0, 966.0, 965.0, 966.0, 965.0, 966.0, 965.0, 965.0, 965.0, 966.0, 965.0, 965.0, 965.0, 965.0, 965.0, 965.0, 965.0, 965.0, 965.0, 965.0, 965.0, 965.0, 965.0, 965.0, 965.0, 965.0, 965.0, 965.0, 965.0, 965.0, 964.0, 965.0, 965.0, 965.0, 964.0, 966.0, 966.0, 966.0, 965.0, 965.0, 965.0, 965.0, 965.0, 965.0, 965.0, 965.0, 965.0, 965.0, 965.0, 965.0, 965.0, 965.0, 965.0, 964.0, 965.0, 965.0, 965.0, 965.0, 964.0, 964.0, 964.0, 965.0, 964.0, 965.0, 965.0, 965.0, 965.0, 965.0, 965.0, 965.0, 965.0, 965.0, 964.0, 965.0, 965.0, 965.0, 965.0, 965.0, 964.0, 965.0, 965.0, 965.0, 964.0, 964.0, 964.0, 965.0, 964.0, 964.0, 964.0, 964.0, 964.0, 964.0, 964.0, 964.0, 964.0, 964.0, 964.0, 964.0, 964.0, 964.0, 964.0, 964.0, 965.0, 965.0, 964.0, 964.0, 965.0, 965.0, 964.0, 964.0, 964.0, 964.0, 964.0, 964.0, 964.0, 964.0, 964.0, 964.0, 963.0, 963.0, 963.0, 963.0, 963.0, 963.0, 963.0, 964.0, 963.0, 963.0, 964.0, 964.0, 964.0, 964.0, 964.0, 964.0, 964.0, 964.0, 964.0, 964.0, 964.0, 964.0, 964.0, 963.0, 963.0, 963.0, 963.0, 963.0, 963.0, 963.0, 963.0, 963.0, 963.0, 963.0, 963.0, 963.0, 964.0, 964.0, 963.0, 963.0, 963.0]
    },
    "slices": {}
  }
}