{
  "AcquisitionMatrixPE": 80,
  "AcquisitionNumber": 1,
  "AcquisitionTime": "09:07:10.435000",
  "BandwidthPerPixelPhaseEncode": 25,
  "BaseResolution": 80,
  "BodyPartExamined": "BRAIN",
  "CoilCombinationMethod": "Sum of Squares",
  "ConsistencyInfo": "N4_VE11E_LATEST_20181129",
  "ConversionSoftware": "dcm2niix",
  "ConversionSoftwareVersion": "v1.0.20220720",
  "DerivedVendorReportedEchoSpacing": 0.0005,
  "DeviceSerialNumber": "66112",
  "DwellTime": 2.7e-06,
  "EchoTime": 0.03,
  "EchoTrainLength": 80,
  "EffectiveEchoSpacing": 0.0005,
  "FlipAngle": 77,
  "HeudiconvVersion": "0.13.1",
  "ImageOrientationPatientDICOM": [0.992263, -0.124019, 0.00579458, 0.116915, 0.949095, 0.292489],
  "ImageOrientationText": "Tra>Cor(16.8)>Sag(2.4)",
  "ImageType": [
    "ORIGINAL",
    "PRIMARY",
    "M",
    "ND",
    "NORM",
    "MOSAIC"
],
  "ImagingFrequency": 123.259,
  "InPlanePhaseEncodingDirectionDICOM": "COL",
  "InstitutionAddress": "Maynard 3,Hanover,NH,US,03755",
  "InstitutionName": "Dartmouth College - PBS",
  "InstitutionalDepartmentName": "Department",
  "MRAcquisitionType": "2D",
  "MagneticFieldStrength": 3,
  "Manufacturer": "Siemens",
  "ManufacturersModelName": "Prisma",
  "MatrixCoilMode": "SENSE",
  "Modality": "MR",
  "NonlinearGradientCorrection": false,
  "PartialFourier": 1,
  "PatientPosition": "HFS",
  "PercentPhaseFOV": 100,
  "PercentSampling": 100,
  "PhaseEncodingDirection": "j-",
  "PhaseEncodingSteps": 80,
  "PhaseResolution": 1,
  "PixelBandwidth": 2315,
  "ProcedureStepDescription": "dbic^QA",
  "ProtocolName": "func-bold_fa-77",
  "PulseSequenceDetails": "%SiemensSeq%\\ep2d_bold",
  "ReceiveCoilActiveElements": "HC1-7;NC1,2",
  "ReceiveCoilName": "HeadNeck_64",
  "ReconMatrixPE": 80,
  "RepetitionTime": 2,
  "SAR": 0.0281704,
  "ScanOptions": "FS",
  "ScanningSequence": "EP",
  "SequenceName": "*epfid2d1_80",
  "SequenceVariant": "SK",
  "SeriesDescription": "func-bold_fa-77",
  "SeriesNumber": 6,
  "ShimSetting": [4217, -7737, -7479, -105, -165, -258, -59, 71],
  "SliceThickness": 3.5,
  "SliceTiming": [0.99, 0, 1.055, 0.065, 1.1225, 0.1325, 1.1875, 0.1975, 1.255, 0.265, 1.32, 0.33, 1.385, 0.395, 1.4525, 0.4625, 1.5175, 0.5275, 1.585, 0.595, 1.65, 0.66, 1.715, 0.725, 1.7825, 0.7925, 1.8475, 0.8575, 1.915, 0.925],
  "SoftwareVersions": "syngo MR E11",
  "SpacingBetweenSlices": 3.99,
  "StationName": "AWP66112",
  "TotalReadoutTime": 0.0395,
  "TxRefAmp": 210.246,
  "dcmmeta_affine": [
    [-2.9767887592315674, 0.3507460057735443, 0.16667716205120087, 102.07853698730469],
    [0.37205639481544495, 2.8472845554351807, 1.1552982330322266, -138.7512664794922],
    [0.017383726313710213, -0.8774667382240295, 3.8154428005218506, -25.03653907775879],
    [0.0, 0.0, 0.0, 1.0]
],
  "dcmmeta_reorient_transform": [
    [0.0, -1.0, 0.0, 79.0],
    [1.0, 0.0, 0.0, 0.0],
    [0.0, 0.0, 1.0, 0.0],
    [0.0, 0.0, 0.0, 1.0]
],
  "dcmmeta_shape": [80, 80, 30, 200],
  "dcmmeta_slice_dim": 2,
  "dcmmeta_version": 0.6,
  "global": {
    "const": {
      "AccessionNumber": "qa64",
      "AcquisitionMatrix": [80, 0, 0, 80],
      "AngioFlag": "N",
      "BitsAllocated": 16,
      "BitsStored": 12,
      "BodyPartExamined": "BRAIN",
      "Columns": 480,
      "EchoNumbers": 1,
      "EchoTime": 30.0,
      "EchoTrainLength": 80,
      "FlipAngle": 77.0,
      "HighBit": 11,
      "ImageOrientationPatient": [0.99226294974582, -0.1240187947654, 0.00579457562407, 0.11691533067229, 0.94909485463882, 0.29248890979301],
      "ImagePositionPatient": [-795.29444140314, -581.22985389863, -273.32650268877],
      "ImageType": [
        "ORIGINAL",
        "PRIMARY",
        "M",
        "ND",
        "NORM",
        "MOSAIC"
],
      "ImagedNucleus": "1H",
      "ImagingFrequency": 123.25924,
      "InPlanePhaseEncodingDirection": "COL",
      "MRAcquisitionType": "2D",
      "MagneticFieldStrength": 3.0,
      "Manufacturer": "SIEMENS",
      "ManufacturerModelName": "Prisma",
      "Modality": "MR",
      "NumberOfAverages": 1.0,
      "NumberOfPhaseEncodingSteps": 80,
      "PercentPhaseFieldOfView": 100.0,
      "PercentSampling": 100.0,
      "PerformedProcedureStepStartTime": "085523.375000",
      "PhotometricInterpretation": "MONOCHROME2",
      "PixelBandwidth": 2315.0,
      "PixelRepresentation": 0,
      "PixelSpacing": [3.0, 3.0],
      "ProtocolName": "func-bold_fa-77",
      "RepetitionTime": 2000.0,
      "Rows": 480,
      "SAR": 0.02817039145766,
      "SamplesPerPixel": 1,
      "ScanOptions": "FS",
      "ScanningSequence": "EP",
      "SequenceName": "*epfid2d1_80",
      "SequenceVariant": "SK",
      "SeriesDescription": "func-bold_fa-77",
      "SeriesNumber": 6,
      "SeriesTime": "090803.077000",
      "SliceLocation": -59.852235214696,
      "SliceThickness": 3.5,
      "SmallestImagePixelValue": 0,
      "SoftwareVersions": "syngo MR E11",
      "SpacingBetweenSlices": 3.9899999180989,
      "SpecificCharacterSet": "ISO_IR 100",
      "StudyID": "19",
      "StudyTime": "085523.286000",
      "TransmitCoilName": "Body",
      "VariableFlipAngleFlag": "N",
      "WindowCenterWidthExplanation": "Algo1"
    },
    "slices": {}
  },
  "time": {
    "samples": {
      "AcquisitionNumber": [1, 2, 3, 4, 5, 6, 7, 8, 9, 10, 11, 12, 13, 14, 15, 16, 17, 18, 19, 20, 21, 22, 23, 24, 25, 26, 27, 28, 29, 30, 31, 32, 33, 34, 35, 36, 37, 38, 39, 40, 41, 42, 43, 44, 45, 46, 47, 48, 49, 50, 51, 52, 53, 54, 55, 56, 57, 58, 59, 60, 61, 62, 63, 64, 65, 66, 67, 68, 69, 70, 71, 72, 73, 74, 75, 76, 77, 78, 79, 80, 81, 82, 83, 84, 85, 86, 87, 88, 89, 90, 91, 92, 93, 94, 95, 96, 97, 98, 99, 100, 101, 102, 103, 104, 105, 106, 107, 108, 109, 110, 111, 112, 113, 114, 115, 116, 117, 118, 119, 120, 121, 122, 123, 124, 125, 126, 127, 128, 129, 130, 131, 132, 133, 134, 135, 136, 137, 138, 139, 140, 141, 142, 143, 144, 145, 146, 147, 148, 149, 150, 151, 152, 153, 154, 155, 156, 157, 158, 159, 160, 161, 162, 163, 164, 165, 166, 167, 168, 169, 170, 171, 172, 173, 174, 175, 176, 177, 178, 179, 180, 181, 182, 183, 184, 185, 186, 187, 188, 189, 190, 191, 192, 193, 194, 195, 196, 197, 198, 199, 200],
      "AcquisitionTime": ["090710.435000", "090712.435000", "090714.435000", "090716.435000", "090718.435000", "090720.435000", "090722.435000", "090724.435000", "090726.435000", "090728.435000", "090730.435000", "090732.435000", "090734.435000", "090736.435000", "090738.435000", "090740.435000", "090742.435000", "090744.435000", "090746.435000", "090748.435000", "090750.435000", "090752.435000", "090754.435000", "090756.435000", "090758.435000", "090800.435000", "090802.435000", "090804.435000", "090806.435000", "090808.435000", "090810.435000", "090812.435000", "090814.435000", "090816.435000", "090818.435000", "090820.435000", "090822.435000", "090824.435000", "090826.435000", "090828.435000", "090830.435000", "090832.435000", "090834.435000", "090836.435000", "090838.435000", "090840.435000", "090842.435000", "090844.435000", "090846.435000", "090848.435000", "090850.435000", "090852.435000", "090854.435000", "090856.435000", "090858.435000", "090900.435000", "090902.435000", "090904.435000", "090906.435000", "090908.435000", "090910.435000", "090912.435000", "090914.435000", "090916.435000", "090918.435000", "090920.435000", "090922.435000", "090924.435000", "090926.435000", "090928.435000", "090930.435000", "090932.435000", "090934.435000", "090936.435000", "090938.435000", "090940.435000", "090942.435000", "090944.435000", "090946.435000", "090948.435000", "090950.435000", "090952.435000", "090954.435000", "090956.435000", "090958.435000", "091000.435000", "091002.435000", "091004.435000", "091006.435000", "091008.435000", "091010.435000", "091012.435000", "091014.435000", "091016.435000", "091018.435000", "091020.435000", "091022.435000", "091024.435000", "091026.435000", "091028.435000", "091030.435000", "091032.435000", "091034.435000", "091036.435000", "091038.435000", "091040.435000", "091042.435000", "091044.435000", "091046.435000", "091048.435000", "091050.435000", "091052.435000", "091054.435000", "091056.435000", "091058.435000", "091100.435000", "091102.435000", "091104.435000", "091106.435000", "091108.435000", "091110.435000", "091112.435000", "091114.435000", "091116.435000", "091118.435000", "091120.435000", "091122.435000", "091124.435000", "091126.435000", "091128.435000", "091130.435000", "091132.435000", "091134.435000", "091136.435000", "091138.435000", "091140.435000", "091142.435000", "091144.435000", "091146.435000", "091148.435000", "091150.435000", "091152.435000", "091154.435000", "091156.435000", "091158.435000", "091200.435000", "091202.435000", "091204.435000", "091206.435000", "091208.435000", "091210.435000", "091212.435000", "091214.435000", "091216.435000", "091218.435000", "091220.435000", "091222.435000", "091224.435000", "091226.435000", "091228.435000", "091230.435000", "091232.435000", "091234.435000", "091236.435000", "091238.435000", "091240.435000", "091242.435000", "091244.435000", "091246.435000", "091248.435000", "091250.435000", "091252.435000", "091254.435000", "091256.435000", "091258.435000", "091300.435000", "091302.435000", "091304.435000", "091306.435000", "091308.435000", "091310.435000", "091312.435000", "091314.435000", "091316.435000", "091318.435000", "091320.435000", "091322.435000", "091324.435000", "091326.435000", "091328.435000", "091330.435000", "091332.435000", "091334.435000", "091336.435000", "091338.435000", "091340.435000", "091342.435000", "091344.435000", "091346.435000", "091348.435000"],
      "ContentTime": ["090803.080000", "090803.083000", "090803.086000", "090803.088000", "090803.091000", "090803.093000", "090803.095000", "090803.098000", "090803.100000", "090803.103000", "090803.105000", "090803.107000", "090803.110000", "090803.112000", "090803.114000", "090803.117000", "090803.119000", "090803.127000", "090803.130000", "090803.132000", "090803.134000", "090803.137000", "090803.139000", "090803.150000", "090803.152000", "090803.155000", "090843.075000", "090843.078000", "090843.080000", "090843.083000", "090843.085000", "090843.088000", "090843.090000", "090843.093000", "090843.095000", "090843.097000", "090843.100000", "090843.102000", "090843.104000", "090843.107000", "090843.109000", "090843.111000", "090843.114000", "090843.116000", "090843.119000", "090843.121000", "090923.076000", "090923.079000", "090923.081000", "090923.084000", "090923.086000", "090923.089000", "090923.091000", "090923.093000", "090923.096000", "090923.099000", "090923.101000", "090923.103000", "090923.106000", "090923.108000", "090923.110000", "090923.113000", "090923.115000", "090923.117000", "090923.120000", "090923.127000", "091003.075000", "091003.078000", "091003.080000", "091003.082000", "091003.085000", "091003.087000", "091003.089000", "091003.092000", "091003.094000", "091003.097000", "091003.099000", "091003.101000", "091003.104000", "091003.106000", "091003.108000", "091003.111000", "091003.113000", "091003.116000", "091003.118000", "091003.120000", "091043.075000", "091043.078000", "091043.080000", "091043.082000", "091043.085000", "091043.087000", "091043.090000", "091043.092000", "091043.094000", "091043.097000", "091043.099000", "091043.101000", "091043.104000", "091043.106000", "091043.109000", "091043.111000", "091043.113000", "091043.116000", "091043.118000", "091043.120000", "091123.075000", "091123.078000", "091123.080000", "091123.082000", "091123.085000", "091123.087000", "091123.090000", "091123.092000", "091123.095000", "091123.097000", "091123.099000", "091123.102000", "091123.104000", "091123.106000", "091123.109000", "091123.111000", "091123.114000", "091123.116000", "091123.118000", "091123.121000", "091143.076000", "091143.079000", "091143.081000", "091143.083000", "091143.086000", "091143.088000", "091143.091000", "091143.093000", "091143.096000", "091143.098000", "091223.075000", "091223.078000", "091223.080000", "091223.083000", "091223.085000", "091223.087000", "091223.090000", "091223.092000", "091223.094000", "091223.097000", "091223.099000", "091223.102000", "091223.104000", "091223.106000", "091223.109000", "091223.111000", "091223.113000", "091223.116000", "091223.118000", "091223.120000", "091303.075000", "091303.078000", "091303.081000", "091303.083000", "091303.085000", "091303.088000", "091303.090000", "091303.093000", "091303.095000", "091303.097000", "091303.100000", "091303.102000", "091303.104000", "091303.107000", "091303.109000", "091303.112000", "091303.114000", "091303.116000", "091303.119000", "091303.121000", "091343.075000", "091343.078000", "091343.081000", "091343.083000", "091343.086000", "091343.088000", "091343.091000", "091343.093000", "091343.095000", "091343.098000", "091343.100000", "091343.102000", "091343.105000", "091343.107000", "091343.109000", "091343.112000", "091343.114000", "091343.116000", "091343.119000", "091343.121000", "091349.570000", "091349.573000", "091349.575000", "091349.578000"],
      "InstanceCreationTime": ["090803.080000", "090803.083000", "090803.086000", "090803.088000", "090803.091000", "090803.093000", "090803.095000", "090803.098000", "090803.100000", "090803.103000", "090803.105000", "090803.107000", "090803.110000", "090803.112000", "090803.114000", "090803.117000", "090803.119000", "090803.127000", "090803.130000", "090803.132000", "090803.134000", "090803.137000", "090803.139000", "090803.150000", "090803.152000", "090803.155000", "090843.075000", "090843.078000", "090843.080000", "090843.083000", "090843.085000", "090843.088000", "090843.090000", "090843.093000", "090843.095000", "090843.097000", "090843.100000", "090843.102000", "090843.104000", "090843.107000", "090843.109000", "090843.111000", "090843.114000", "090843.116000", "090843.119000", "090843.121000", "090923.076000", "090923.079000", "090923.081000", "090923.084000", "090923.086000", "090923.089000", "090923.091000", "090923.093000", "090923.096000", "090923.099000", "090923.101000", "090923.103000", "090923.106000", "090923.108000", "090923.110000", "090923.113000", "090923.115000", "090923.117000", "090923.120000", "090923.127000", "091003.075000", "091003.078000", "091003.080000", "091003.082000", "091003.085000", "091003.087000", "091003.089000", "091003.092000", "091003.094000", "091003.097000", "091003.099000", "091003.101000", "091003.104000", "091003.106000", "091003.108000", "091003.111000", "091003.113000", "091003.116000", "091003.118000", "091003.120000", "091043.075000", "091043.078000", "091043.080000", "091043.082000", "091043.085000", "091043.087000", "091043.090000", "091043.092000", "091043.094000", "091043.097000", "091043.099000", "091043.101000", "091043.104000", "091043.106000", "091043.109000", "091043.111000", "091043.113000", "091043.116000", "091043.118000", "091043.120000", "091123.075000", "091123.078000", "091123.080000", "091123.082000", "091123.085000", "091123.087000", "091123.090000", "091123.092000", "091123.095000", "091123.097000", "091123.099000", "091123.102000", "091123.104000", "091123.106000", "091123.109000", "091123.111000", "091123.114000", "091123.116000", "091123.118000", "091123.121000", "091143.076000", "091143.079000", "091143.081000", "091143.083000", "091143.086000", "091143.088000", "091143.091000", "091143.093000", "091143.096000", "091143.098000", "091223.075000", "091223.078000", "091223.080000", "091223.083000", "091223.085000", "091223.087000", "091223.090000", "091223.092000", "091223.094000", "091223.097000", "091223.099000", "091223.102000", "091223.104000", "091223.106000", "091223.109000", "091223.111000", "091223.113000", "091223.116000", "091223.118000", "091223.120000", "091303.075000", "091303.078000", "091303.081000", "091303.083000", "091303.085000", "091303.088000", "091303.090000", "091303.093000", "091303.095000", "091303.097000", "091303.100000", "091303.102000", "091303.104000", "091303.107000", "091303.109000", "091303.112000", "091303.114000", "091303.116000", "091303.119000", "091303.121000", "091343.075000", "091343.078000", "091343.081000", "091343.083000", "091343.086000", "091343.088000", "091343.091000", "091343.093000", "091343.095000", "091343.098000", "091343.100000", "091343.102000", "091343.105000", "091343.107000", "091343.109000", "091343.112000", "091343.114000", "091343.116000", "091343.119000", "091343.121000", "091349.570000", "091349.573000", "091349.575000", "091349.578000"],
      "InstanceNumber": [1, 2, 3, 4, 5, 6, 7, 8, 9, 10, 11, 12, 13, 14, 15, 16, 17, 18, 19, 20, 21, 22, 23, 24, 25, 26, 27, 28, 29, 30, 31, 32, 33, 34, 35, 36, 37, 38, 39, 40, 41, 42, 43, 44, 45, 46, 47, 48, 49, 50, 51, 52, 53, 54, 55, 56, 57, 58, 59, 60, 61, 62, 63, 64, 65, 66, 67, 68, 69, 70, 71, 72, 73, 74, 75, 76, 77, 78, 79, 80, 81, 82, 83, 84, 85, 86, 87, 88, 89, 90, 91, 92, 93, 94, 95, 96, 97, 98, 99, 100, 101, 102, 103, 104, 105, 106, 107, 108, 109, 110, 111, 112, 113, 114, 115, 116, 117, 118, 119, 120, 121, 122, 123, 124, 125, 126, 127, 128, 129, 130, 131, 132, 133, 134, 135, 136, 137, 138, 139, 140, 141, 142, 143, 144, 145, 146, 147, 148, 149, 150, 151, 152, 153, 154, 155, 156, 157, 158, 159, 160, 161, 162, 163, 164, 165, 166, 167, 168, 169, 170, 171, 172, 173, 174, 175, 176, 177, 178, 179, 180, 181, 182, 183, 184, 185, 186, 187, 188, 189, 190, 191, 192, 193, 194, 195, 196, 197, 198, 199, 200],
      "LargestImagePixelValue": [4063, 4063, 4066, 4061, 4065, 4062, 4063, 4068, 4064, 4066, 4061, 4063, 4064, 4068, 4063, 4063, 4066, 4062, 4063, 4061, 4066, 4065, 4068, 4058, 4062, 4062, 4061, 4056, 4063, 4061, 4058, 4060, 4060, 4059, 4062, 4060, 4058, 4063, 4061, 4065, 4062, 4059, 4060, 4058, 4058, 4060, 4062, 4059, 4058, 4058, 4059, 4058, 4054, 4060, 4058, 4060, 4057, 4059, 4064, 4058, 4059, 4061, 4059, 4067, 4063, 4054, 4060, 4061, 4061, 4059, 4049, 4059, 4058, 4055, 4056, 4062, 4060, 4059, 4061, 4057, 4057, 4058, 4055, 4058, 4051, 4058, 4059, 4056, 4054, 4055, 4052, 4056, 4057, 4057, 4057, 4058, 4059, 4055, 4054, 4057, 4050, 4055, 4050, 4055, 4053, 4058, 4054, 4056, 4049, 4056, 4053, 4057, 4054, 4053, 4056, 4054, 4058, 4055, 4059, 4051, 4056, 4051, 4051, 4052, 4056, 4057, 4048, 4056, 4052, 4053, 4055, 4050, 4052, 4057, 4049, 4058, 4052, 4053, 4052, 4053, 4053, 4052, 4052, 4054, 4050, 4052, 4049, 4050, 4052, 4050, 4055, 4049, 4053, 4053, 4053, 4051, 4048, 4050, 4045, 4050, 4050, 4051, 4052, 4052, 4049, 4052, 4048, 4052, 4053, 4052, 4052, 4048, 4049, 4050, 4050, 4050, 4051, 4049, 4050, 4050, 4050, 4053, 4048, 4049, 4048, 4048, 4054, 4049, 4052, 4048, 4046, 4052, 4054, 4047, 4047, 4046, 4051, 4048, 4047, 4048],
      "WindowCenter": [1418.0, 1419.0, 1418.0, 1419.0, 1419.0, 1418.0, 1418.0, 1419.0, 1419.0, 1418.0, 1418.0, 1418.0, 1418.0, 1418.0, 1418.0, 1418.0, 1419.0, 1418.0, 1417.0, 1418.0, 1417.0, 1418.0, 1418.0, 1417.0, 1417.0, 1418.0, 1418.0, 1417.0, 1418.0, 1418.0, 1418.0, 1418.0, 1417.0, 1418.0, 1417.0, 1417.0, 1417.0, 1417.0, 1417.0, 1417.0, 1417.0, 1418.0, 1417.0, 1417.0, 1417.0, 1417.0, 1417.0, 1417.0, 1417.0, 1417.0, 1417.0, 1417.0, 1417.0, 1417.0, 1417.0, 1417.0, 1417.0, 1416.0, 1416.0, 1417.0, 1416.0, 1416.0, 1416.0, 1416.0, 1416.0, 1416.0, 1416.0, 1417.0, 1417.0, 1416.0, 1417.0, 1416.0, 1416.0, 1417.0, 1417.0, 1417.0, 1417.0, 1416.0, 1416.0, 1417.0, 1416.0, 1416.0, 1416.0, 1416.0, 1416.0, 1416.0, 1415.0, 1416.0, 1416.0, 1416.0, 1416.0, 1416.0, 1416.0, 1415.0, 1416.0, 1415.0, 1415.0, 1415.0, 1416.0, 1415.0, 1415.0, 1415.0, 1416.0, 1415.0, 1415.0, 1415.0, 1415.0, 1415.0, 1415.0, 1416.0, 1416.0, 1416.0, 1414.0, 1415.0, 1415.0, 1416.0, 1415.0, 1415.0, 1416.0, 1415.0, 1415.0, 1415.0, 1415.0, 1414.0, 1415.0, 1414.0, 1415.0, 1415.0, 1415.0, 1415.0, 1415.0, 1415.0, 1415.0, 1414.0, 1415.0, 1414.0, 1414.0, 1414.0, 1414.0, 1415.0, 1414.0, 1414.0, 1415.0, 1414.0, 1415.0, 1414.0, 1415.0, 1414.0, 1414.0, 1414.0, 1415.0, 1414.0, 1414.0, 1414.0, 1414.0, 1414.0, 1414.0, 1414.0, 1414.0, 1415.0, 1414.0, 1414.0, 1414.0, 1414.0, 1414.0, 1414.0, 1414.0, 1413.0, 1413.0, 1413.0, 1414.0, 1413.0, 1413.0, 1413.0, 1414.0, 1413.0, 1414.0, 1414.0, 1414.0, 1414.0, 1414.0, 1414.0, 1414.0, 1413.0, 1413.0, 1414.0, 1413.0, 1413.0, 1413.0, 1414.0, 1413.0, 1413.0, 1413.0, 1413.0, 1413.0, 1413.0, 1413.0, 1413.0, 1413.0, 1413.0],
      "WindowWidth": [3366.0, 3366.0, 3366.0, 3366.0, 3367.0, 3366.0, 3366.0, 3366.0, 3366.0, 3366.0, 3366.0, 3366.0, 3366.0, 3366.0, 3366.0, 3366.0, 3366.0, 3366.0, 3366.0, 3366.0, 3366.0, 3366.0, 3366.0, 3366.0, 3366.0, 3366.0, 3366.0, 3366.0, 3366.0, 3366.0, 3366.0, 3366.0, 3366.0, 3366.0, 3365.0, 3365.0, 3365.0, 3365.0, 3365.0, 3365.0, 3365.0, 3365.0, 3365.0, 3365.0, 3365.0, 3365.0, 3365.0, 3365.0, 3365.0, 3365.0, 3365.0, 3365.0, 3365.0, 3365.0, 3365.0, 3365.0, 3365.0, 3365.0, 3365.0, 3365.0, 3365.0, 3365.0, 3365.0, 3365.0, 3365.0, 3365.0, 3365.0, 3365.0, 3365.0, 3365.0, 3365.0, 3365.0, 3365.0, 3365.0, 3365.0, 3365.0, 3365.0, 3365.0, 3365.0, 3365.0, 3365.0, 3365.0, 3365.0, 3365.0, 3365.0, 3365.0, 3365.0, 3364.0, 3364.0, 3364.0, 3364.0, 3364.0, 3364.0, 3364.0, 3364.0, 3364.0, 3364.0, 3364.0, 3364.0, 3364.0, 3364.0, 3364.0, 3364.0, 3364.0, 3364.0, 3364.0, 3364.0, 3364.0, 3364.0, 3364.0, 3364.0, 3364.0, 3364.0, 3364.0, 3364.0, 3364.0, 3364.0, 3364.0, 3364.0, 3364.0, 3364.0, 3364.0, 3364.0, 3364.0, 3364.0, 3364.0, 3364.0, 3364.0, 3364.0, 3364.0, 3364.0, 3363.0, 3364.0, 3363.0, 3364.0, 3363.0, 3363.0, 3363.0, 3363.0, 3364.0, 3363.0, 3363.0, 3364.0, 3363.0, 3364.0, 3363.0, 3364.0, 3363.0, 3364.0, 3363.0, 3363.0, 3363.0, 3363.0, 3363.0, 3363.0, 3363.0, 3363.0, 3363.0, 3363.0, 3363.0, 3363.0, 3363.0, 3363.0, 3363.0, 3363.0, 3363.0, 3363.0, 3363.0, 3363.0, 3363.0, 3363.0, 3363.0, 3363.0, 3363.0, 3363.0, 3363.0, 3363.0, 3363.0, 3363.0, 3363.0, 3363.0, 3363.0, 3363.0, 3363.0, 3363.0, 3363.0, 3363.0, 3363.0, 3363.0, 3363.0, 3363.0, 3363.0, 3363.0, 3363.0, 3362.0, 3363.0, 3363.0, 3363.0, 3363.0, 3363.0]
    },
    "slices": {}
  }
}