{
  "AcquisitionMatrixPE": 80,
  "AcquisitionNumber": 1,
  "AcquisitionTime": "09:21:8.212500",
  "BandwidthPerPixelPhaseEncode": 48.077,
  "BaseResolution": 80,
  "BodyPartExamined": "BRAIN",
  "CoilCombinationMethod": "Sum of Squares",
  "ConsistencyInfo": "N4_VE11C_LATEST_20160120",
  "ConversionSoftware": "dcm2niix",
  "ConversionSoftwareVersion": "v1.0.20220720",
  "DerivedVendorReportedEchoSpacing": 0.000519999,
  "DeviceSerialNumber": "66112",
  "DwellTime": 2.7e-06,
  "EchoTime": 0.035,
  "EchoTrainLength": 39,
  "EffectiveEchoSpacing": 0.00026,
  "FlipAngle": 90,
  "HeudiconvVersion": "0.13.1",
  "ImageOrientationPatientDICOM": [0.979581, 0.200691, 0.0120055, -0.195206, 0.935119, 0.295714],
  "ImageOrientationText": "Tra>Cor(17.0)>Sag(-2.8)",
  "ImageType": [
    "ORIGINAL",
    "PRIMARY",
    "M",
    "ND",
    "NORM",
    "MOSAIC"
],
  "ImagingFrequency": 123.252,
  "InPlanePhaseEncodingDirectionDICOM": "COL",
  "InstitutionAddress": "Maynard 3,Hanover,NH,US,03755",
  "InstitutionName": "Dartmouth College - PBS",
  "InstitutionalDepartmentName": "Department",
  "MRAcquisitionType": "2D",
  "MagneticFieldStrength": 3,
  "Manufacturer": "Siemens",
  "ManufacturersModelName": "Prisma",
  "MatrixCoilMode": "GRAPPA",
  "Modality": "MR",
  "NonlinearGradientCorrection": false,
  "ParallelReductionFactorInPlane": 2,
  "PartialFourier": 1,
  "PatientPosition": "HFS",
  "PercentPhaseFOV": 100,
  "PercentSampling": 100,
  "PhaseEncodingDirection": "j-",
  "PhaseEncodingSteps": 79,
  "PhaseResolution": 1,
  "PixelBandwidth": 2315,
  "ProcedureStepDescription": "dbic^QA",
  "ProtocolName": "func-bold_task-rest_acq-p2",
  "PulseSequenceDetails": "%SiemensSeq%\\ep2d_bold",
  "ReceiveCoilActiveElements": "HEA;HEP",
  "ReceiveCoilName": "Head_32",
  "ReconMatrixPE": 80,
  "RefLinesPE": 24,
  "RepetitionTime": 2,
  "SAR": 0.0556658,
  "ScanOptions": "FS",
  "ScanningSequence": "EP",
  "SequenceName": "*epfid2d1_80",
  "SequenceVariant": "SK",
  "SeriesDescription": "func-bold_task-rest_acq-p2",
  "SeriesNumber": 5,
  "ShimSetting": [4151, -7699, -7529, 283, -28, -170, 2, 84],
  "SliceThickness": 3.5,
  "SliceTiming": [0.99, 0, 1.055, 0.065, 1.12, 0.13, 1.1875, 0.1975, 1.2525, 0.2625, 1.32, 0.33, 1.385, 0.395, 1.45, 0.46, 1.5175, 0.5275, 1.5825, 0.5925, 1.65, 0.66, 1.715, 0.725, 1.78, 0.79, 1.8475, 0.8575, 1.9125, 0.9225],
  "SoftwareVersions": "syngo MR E11",
  "SpacingBetweenSlices": 3.99,
  "StationName": "AWP66112",
  "TaskName": "rest",
  "TotalReadoutTime": 0.02054,
  "TxRefAmp": 230.03,
  "dcmmeta_affine": [
    [-2.9387431144714355, -0.5856187343597412, -0.1920008361339569, 148.36001586914062],
    [-0.6020733714103699, 2.8053576946258545, 1.1651555299758911, -102.02552032470703],
    [0.03601650893688202, -0.887140691280365, 3.8112528324127197, -19.532991409301758],
    [0.0, 0.0, 0.0, 1.0]
],
  "dcmmeta_reorient_transform": [
    [0.0, -1.0, 0.0, 79.0],
    [1.0, 0.0, 0.0, 0.0],
    [0.0, 0.0, 1.0, 0.0],
    [0.0, 0.0, 0.0, 1.0]
],
  "dcmmeta_shape": [80, 80, 30, 200],
  "dcmmeta_slice_dim": 2,
  "dcmmeta_version": 0.6,
  "global": {
    "const": {
      "AccessionNumber": "qa",
      "AcquisitionMatrix": [80, 0, 0, 80],
      "AngioFlag": "N",
      "BitsAllocated": 16,
      "BitsStored": 12,
      "BodyPartExamined": "BRAIN",
      "Columns": 480,
      "EchoNumbers": 1,
      "EchoTime": 35.0,
      "EchoTrainLength": 39,
      "FlipAngle": 90.0,
      "HighBit": 11,
      "ImageOrientationPatient": [0.97958100209944, 0.20069112642578, 0.01200550289746, -0.1952062413791, 0.93511924925349, 0.2957135658069],
      "ImagePositionPatient": [-572.72099385251, -801.08396372943, -274.24854825376],
      "ImageType": [
        "ORIGINAL",
        "PRIMARY",
        "M",
        "ND",
        "NORM",
        "MOSAIC"
],
      "ImagedNucleus": "1H",
      "ImagingFrequency": 123.252482,
      "InPlanePhaseEncodingDirection": "COL",
      "MRAcquisitionType": "2D",
      "MagneticFieldStrength": 3.0,
      "Manufacturer": "SIEMENS",
      "ManufacturerModelName": "Prisma",
      "Modality": "MR",
      "NumberOfAverages": 1.0,
      "NumberOfPhaseEncodingSteps": 79,
      "PercentPhaseFieldOfView": 100.0,
      "PercentSampling": 100.0,
      "PerformedProcedureStepStartTime": "091858.499000",
      "PhotometricInterpretation": "MONOCHROME2",
      "PixelBandwidth": 2315.0,
      "PixelRepresentation": 0,
      "PixelSpacing": [3.0, 3.0],
      "ProtocolName": "func-bold_task-rest_acq-p2",
      "RepetitionTime": 2000.0,
      "Rows": 480,
      "SAR": 0.05566580296089,
      "SamplesPerPixel": 1,
      "ScanOptions": "FS",
      "ScanningSequence": "EP",
      "SequenceName": "*epfid2d1_80",
      "SequenceVariant": "SK",
      "SeriesDescription": "func-bold_task-rest_acq-p2",
      "SeriesNumber": 5,
      "SeriesTime": "092158.081000",
      "SliceLocation": -55.590482812172,
      "SliceThickness": 3.5,
      "SmallestImagePixelValue": 0,
      "SoftwareVersions": "syngo MR E11",
      "SpacingBetweenSlices": 3.9899998866622,
      "SpecificCharacterSet": "ISO_IR 100",
      "StudyID": "37",
      "StudyTime": "091858.382000",
      "TransmitCoilName": "Body",
      "VariableFlipAngleFlag": "N",
      "WindowCenterWidthExplanation": "Algo1",
      "dBdt": 0.0},
    "slices": {}
  },
  "time": {
    "samples": {
      "AcquisitionNumber": [1, 2, 3, 4, 5, 6, 7, 8, 9, 10, 11, 12, 13, 14, 15, 16, 17, 18, 19, 20, 21, 22, 23, 24, 25, 26, 27, 28, 29, 30, 31, 32, 33, 34, 35, 36, 37, 38, 39, 40, 41, 42, 43, 44, 45, 46, 47, 48, 49, 50, 51, 52, 53, 54, 55, 56, 57, 58, 59, 60, 61, 62, 63, 64, 65, 66, 67, 68, 69, 70, 71, 72, 73, 74, 75, 76, 77, 78, 79, 80, 81, 82, 83, 84, 85, 86, 87, 88, 89, 90, 91, 92, 93, 94, 95, 96, 97, 98, 99, 100, 101, 102, 103, 104, 105, 106, 107, 108, 109, 110, 111, 112, 113, 114, 115, 116, 117, 118, 119, 120, 121, 122, 123, 124, 125, 126, 127, 128, 129, 130, 131, 132, 133, 134, 135, 136, 137, 138, 139, 140, 141, 142, 143, 144, 145, 146, 147, 148, 149, 150, 151, 152, 153, 154, 155, 156, 157, 158, 159, 160, 161, 162, 163, 164, 165, 166, 167, 168, 169, 170, 171, 172, 173, 174, 175, 176, 177, 178, 179, 180, 181, 182, 183, 184, 185, 186, 187, 188, 189, 190, 191, 192, 193, 194, 195, 196, 197, 198, 199, 200],
      "AcquisitionTime": ["092108.212500", "092110.212500", "092112.212500", "092114.212500", "092116.212500", "092118.212500", "092120.212500", "092122.212500", "092124.212500", "092126.212500", "092128.212500", "092130.212500", "092132.212500", "092134.212500", "092136.212500", "092138.212500", "092140.212500", "092142.212500", "092144.212500", "092146.212500", "092148.212500", "092150.212500", "092152.212500", "092154.212500", "092156.212500", "092158.212500", "092200.212500", "092202.212500", "092204.212500", "092206.212500", "092208.212500", "092210.212500", "092212.212500", "092214.212500", "092216.212500", "092218.212500", "092220.212500", "092222.212500", "092224.212500", "092226.212500", "092228.212500", "092230.212500", "092232.212500", "092234.212500", "092236.212500", "092238.212500", "092240.212500", "092242.212500", "092244.212500", "092246.212500", "092248.212500", "092250.212500", "092252.212500", "092254.212500", "092256.212500", "092258.212500", "092300.212500", "092302.212500", "092304.212500", "092306.212500", "092308.212500", "092310.212500", "092312.212500", "092314.212500", "092316.212500", "092318.212500", "092320.212500", "092322.212500", "092324.212500", "092326.212500", "092328.212500", "092330.212500", "092332.212500", "092334.212500", "092336.212500", "092338.212500", "092340.212500", "092342.212500", "092344.212500", "092346.212500", "092348.212500", "092350.212500", "092352.212500", "092354.212500", "092356.212500", "092358.212500", "092400.212500", "092402.212500", "092404.212500", "092406.212500", "092408.212500", "092410.212500", "092412.212500", "092414.212500", "092416.212500", "092418.212500", "092420.212500", "092422.212500", "092424.212500", "092426.212500", "092428.212500", "092430.212500", "092432.212500", "092434.212500", "092436.212500", "092438.212500", "092440.212500", "092442.212500", "092444.212500", "092446.212500", "092448.212500", "092450.212500", "092452.212500", "092454.212500", "092456.212500", "092458.212500", "092500.212500", "092502.212500", "092504.212500", "092506.212500", "092508.212500", "092510.212500", "092512.212500", "092514.212500", "092516.212500", "092518.212500", "092520.212500", "092522.212500", "092524.212500", "092526.212500", "092528.212500", "092530.212500", "092532.212500", "092534.212500", "092536.212500", "092538.212500", "092540.212500", "092542.212500", "092544.212500", "092546.212500", "092548.212500", "092550.212500", "092552.212500", "092554.212500", "092556.212500", "092558.212500", "092600.212500", "092602.212500", "092604.212500", "092606.212500", "092608.212500", "092610.212500", "092612.212500", "092614.212500", "092616.212500", "092618.212500", "092620.212500", "092622.212500", "092624.212500", "092626.212500", "092628.212500", "092630.212500", "092632.212500", "092634.212500", "092636.212500", "092638.212500", "092640.212500", "092642.212500", "092644.212500", "092646.212500", "092648.212500", "092650.212500", "092652.212500", "092654.212500", "092656.212500", "092658.212500", "092700.212500", "092702.212500", "092704.212500", "092706.212500", "092708.212500", "092710.212500", "092712.212500", "092714.212500", "092716.212500", "092718.212500", "092720.212500", "092722.212500", "092724.212500", "092726.212500", "092728.212500", "092730.212500", "092732.212500", "092734.212500", "092736.212500", "092738.212500", "092740.212500", "092742.212500", "092744.212500", "092746.212500"],
      "ContentTime": ["092158.086000", "092158.090000", "092158.092000", "092158.095000", "092158.098000", "092158.100000", "092158.103000", "092158.106000", "092158.118000", "092158.121000", "092158.123000", "092158.126000", "092158.129000", "092158.131000", "092158.134000", "092158.136000", "092158.139000", "092158.142000", "092158.144000", "092158.147000", "092158.150000", "092158.153000", "092158.155000", "092158.158000", "092158.160000", "092238.061000", "092238.065000", "092238.067000", "092238.070000", "092238.072000", "092238.075000", "092238.078000", "092238.080000", "092238.083000", "092238.086000", "092238.088000", "092238.091000", "092238.093000", "092238.096000", "092238.099000", "092238.102000", "092238.104000", "092238.107000", "092238.110000", "092238.112000", "092318.060000", "092318.064000", "092318.066000", "092318.069000", "092318.077000", "092318.080000", "092318.082000", "092318.085000", "092318.088000", "092318.090000", "092318.093000", "092318.096000", "092318.098000", "092318.101000", "092318.104000", "092318.106000", "092318.109000", "092318.112000", "092318.114000", "092318.117000", "092358.061000", "092358.064000", "092358.067000", "092358.070000", "092358.072000", "092358.075000", "092358.078000", "092358.080000", "092358.083000", "092358.085000", "092358.088000", "092358.091000", "092358.093000", "092358.096000", "092358.099000", "092358.106000", "092358.109000", "092358.111000", "092358.114000", "092358.117000", "092438.061000", "092438.064000", "092438.067000", "092438.069000", "092438.072000", "092438.075000", "092438.077000", "092438.080000", "092438.083000", "092438.085000", "092438.088000", "092438.091000", "092438.093000", "092438.096000", "092438.099000", "092438.101000", "092438.104000", "092438.106000", "092438.109000", "092438.112000", "092518.061000", "092518.064000", "092518.067000", "092518.070000", "092518.072000", "092518.075000", "092518.078000", "092518.080000", "092518.083000", "092518.086000", "092518.088000", "092518.091000", "092518.094000", "092518.096000", "092518.099000", "092518.102000", "092518.104000", "092518.107000", "092518.109000", "092518.112000", "092558.061000", "092558.065000", "092558.067000", "092558.070000", "092558.072000", "092558.075000", "092558.078000", "092558.080000", "092558.083000", "092558.086000", "092558.088000", "092558.091000", "092558.093000", "092558.096000", "092558.099000", "092558.101000", "092558.104000", "092558.107000", "092558.109000", "092558.112000", "092638.061000", "092638.064000", "092638.067000", "092638.070000", "092638.072000", "092638.075000", "092638.078000", "092638.080000", "092638.083000", "092638.086000", "092638.088000", "092638.091000", "092638.093000", "092638.096000", "092638.099000", "092638.101000", "092638.104000", "092638.107000", "092638.109000", "092638.112000", "092718.061000", "092718.065000", "092718.067000", "092718.070000", "092718.072000", "092718.075000", "092718.078000", "092718.081000", "092718.083000", "092718.086000", "092718.089000", "092718.091000", "092718.094000", "092718.097000", "092718.099000", "092718.102000", "092718.104000", "092718.107000", "092718.110000", "092718.112000", "092747.978000", "092747.981000", "092747.984000", "092747.987000", "092747.989000", "092747.993000", "092747.996000", "092748.001000", "092748.004000", "092748.007000", "092748.010000", "092748.013000", "092748.020000", "092748.023000", "092748.026000"],
      "InstanceCreationTime": ["092158.086000", "092158.090000", "092158.092000", "092158.095000", "092158.098000", "092158.100000", "092158.103000", "092158.106000", "092158.118000", "092158.121000", "092158.123000", "092158.126000", "092158.129000", "092158.131000", "092158.134000", "092158.136000", "092158.139000", "092158.142000", "092158.144000", "092158.147000", "092158.150000", "092158.153000", "092158.155000", "092158.158000", "092158.160000", "092238.061000", "092238.065000", "092238.067000", "092238.070000", "092238.072000", "092238.075000", "092238.078000", "092238.080000", "092238.083000", "092238.086000", "092238.088000", "092238.091000", "092238.093000", "092238.096000", "092238.099000", "092238.102000", "092238.104000", "092238.107000", "092238.110000", "092238.112000", "092318.060000", "092318.064000", "092318.066000", "092318.069000", "092318.077000", "092318.080000", "092318.082000", "092318.085000", "092318.088000", "092318.090000", "092318.093000", "092318.096000", "092318.098000", "092318.101000", "092318.104000", "092318.106000", "092318.109000", "092318.112000", "092318.114000", "092318.117000", "092358.061000", "092358.064000", "092358.067000", "092358.070000", "092358.072000", "092358.075000", "092358.078000", "092358.080000", "092358.083000", "092358.085000", "092358.088000", "092358.091000", "092358.093000", "092358.096000", "092358.099000", "092358.106000", "092358.109000", "092358.111000", "092358.114000", "092358.117000", "092438.061000", "092438.064000", "092438.067000", "092438.069000", "092438.072000", "092438.075000", "092438.077000", "092438.080000", "092438.083000", "092438.085000", "092438.088000", "092438.091000", "092438.093000", "092438.096000", "092438.099000", "092438.101000", "092438.104000", "092438.106000", "092438.109000", "092438.112000", "092518.061000", "092518.064000", "092518.067000", "092518.070000", "092518.072000", "092518.075000", "092518.078000", "092518.080000", "092518.083000", "092518.086000", "092518.088000", "092518.091000", "092518.094000", "092518.096000", "092518.099000", "092518.102000", "092518.104000", "092518.107000", "092518.109000", "092518.112000", "092558.061000", "092558.065000", "092558.067000", "092558.070000", "092558.072000", "092558.075000", "092558.078000", "092558.080000", "092558.083000", "092558.086000", "092558.088000", "092558.091000", "092558.093000", "092558.096000", "092558.099000", "092558.101000", "092558.104000", "092558.107000", "092558.109000", "092558.112000", "092638.061000", "092638.064000", "092638.067000", "092638.070000", "092638.072000", "092638.075000", "092638.078000", "092638.080000", "092638.083000", "092638.086000", "092638.088000", "092638.091000", "092638.093000", "092638.096000", "092638.099000", "092638.101000", "092638.104000", "092638.107000", "092638.109000", "092638.112000", "092718.061000", "092718.065000", "092718.067000", "092718.070000", "092718.072000", "092718.075000", "092718.078000", "092718.081000", "092718.083000", "092718.086000", "092718.089000", "092718.091000", "092718.094000", "092718.097000", "092718.099000", "092718.102000", "092718.104000", "092718.107000", "092718.110000", "092718.112000", "092747.978000", "092747.981000", "092747.984000", "092747.987000", "092747.989000", "092747.993000", "092747.996000", "092748.001000", "092748.004000", "092748.007000", "092748.010000", "092748.013000", "092748.020000", "092748.023000", "092748.026000"],
      "InstanceNumber": [1, 2, 3, 4, 5, 6, 7, 8, 9, 10, 11, 12, 13, 14, 15, 16, 17, 18, 19, 20, 21, 22, 23, 24, 25, 26, 27, 28, 29, 30, 31, 32, 33, 34, 35, 36, 37, 38, 39, 40, 41, 42, 43, 44, 45, 46, 47, 48, 49, 50, 51, 52, 53, 54, 55, 56, 57, 58, 59, 60, 61, 62, 63, 64, 65, 66, 67, 68, 69, 70, 71, 72, 73, 74, 75, 76, 77, 78, 79, 80, 81, 82, 83, 84, 85, 86, 87, 88, 89, 90, 91, 92, 93, 94, 95, 96, 97, 98, 99, 100, 101, 102, 103, 104, 105, 106, 107, 108, 109, 110, 111, 112, 113, 114, 115, 116, 117, 118, 119, 120, 121, 122, 123, 124, 125, 126, 127, 128, 129, 130, 131, 132, 133, 134, 135, 136, 137, 138, 139, 140, 141, 142, 143, 144, 145, 146, 147, 148, 149, 150, 151, 152, 153, 154, 155, 156, 157, 158, 159, 160, 161, 162, 163, 164, 165, 166, 167, 168, 169, 170, 171, 172, 173, 174, 175, 176, 177, 178, 179, 180, 181, 182, 183, 184, 185, 186, 187, 188, 189, 190, 191, 192, 193, 194, 195, 196, 197, 198, 199, 200],
      "LargestImagePixelValue": [2376, 2373, 2379, 2375, 2371, 2372, 2376, 2376, 2373, 2373, 2376, 2376, 2371, 2382, 2378, 2380, 2378, 2370, 2379, 2371, 2383, 2375, 2379, 2374, 2374, 2374, 2376, 2378, 2375, 2376, 2377, 2377, 2375, 2374, 2374, 2377, 2379, 2376, 2379, 2370, 2381, 2377, 2375, 2375, 2374, 2373, 2371, 2380, 2377, 2376, 2376, 2379, 2376, 2373, 2377, 2378, 2378, 2378, 2376, 2386, 2373, 2371, 2373, 2377, 2375, 2374, 2378, 2374, 2375, 2372, 2379, 2379, 2371, 2377, 2376, 2380, 2374, 2373, 2371, 2374, 2373, 2376, 2377, 2378, 2377, 2380, 2374, 2374, 2372, 2379, 2378, 2375, 2376, 2379, 2375, 2376, 2375, 2382, 2374, 2375, 2377, 2376, 2378, 2371, 2377, 2370, 2373, 2382, 2371, 2379, 2376, 2372, 2383, 2378, 2386, 2377, 2374, 2377, 2384, 2380, 2376, 2371, 2377, 2376, 2378, 2375, 2369, 2376, 2372, 2375, 2373, 2373, 2376, 2371, 2374, 2370, 2377, 2376, 2375, 2373, 2374, 2370, 2375, 2370, 2370, 2374, 2381, 2378, 2373, 2376, 2374, 2377, 2387, 2372, 2379, 2375, 2379, 2371, 2383, 2373, 2374, 2371, 2374, 2374, 2378, 2376, 2378, 2375, 2376, 2374, 2376, 2379, 2377, 2371, 2378, 2372, 2378, 2374, 2380, 2374, 2380, 2375, 2371, 2372, 2370, 2373, 2370, 2372, 2377, 2376, 2375, 2374, 2374, 2373, 2370, 2372, 2369, 2369, 2377, 2375],
      "WindowCenter": [1041.0, 1041.0, 1041.0, 1041.0, 1041.0, 1041.0, 1041.0, 1041.0, 1041.0, 1041.0, 1041.0, 1041.0, 1041.0, 1041.0, 1041.0, 1041.0, 1041.0, 1041.0, 1041.0, 1041.0, 1041.0, 1041.0, 1041.0, 1041.0, 1041.0, 1041.0, 1041.0, 1041.0, 1041.0, 1041.0, 1041.0, 1041.0, 1041.0, 1041.0, 1041.0, 1041.0, 1041.0, 1041.0, 1041.0, 1041.0, 1041.0, 1041.0, 1041.0, 1041.0, 1041.0, 1041.0, 1041.0, 1041.0, 1041.0, 1041.0, 1041.0, 1041.0, 1041.0, 1041.0, 1041.0, 1041.0, 1041.0, 1041.0, 1041.0, 1041.0, 1041.0, 1041.0, 1041.0, 1041.0, 1041.0, 1041.0, 1041.0, 1041.0, 1041.0, 1041.0, 1041.0, 1041.0, 1041.0, 1041.0, 1041.0, 1041.0, 1041.0, 1041.0, 1041.0, 1041.0, 1041.0, 1041.0, 1041.0, 1041.0, 1041.0, 1041.0, 1041.0, 1041.0, 1041.0, 1041.0, 1041.0, 1041.0, 1041.0, 1041.0, 1040.0, 1040.0, 1040.0, 1040.0, 1040.0, 1040.0, 1040.0, 1040.0, 1040.0, 1040.0, 1041.0, 1040.0, 1040.0, 1040.0, 1040.0, 1040.0, 1040.0, 1040.0, 1040.0, 1040.0, 1040.0, 1040.0, 1040.0, 1040.0, 1040.0, 1040.0, 1040.0, 1040.0, 1040.0, 1040.0, 1040.0, 1040.0, 1040.0, 1040.0, 1040.0, 1040.0, 1040.0, 1040.0, 1040.0, 1040.0, 1040.0, 1040.0, 1040.0, 1040.0, 1040.0, 1040.0, 1040.0, 1040.0, 1040.0, 1040.0, 1040.0, 1040.0, 1040.0, 1040.0, 1040.0, 1040.0, 1040.0, 1040.0, 1040.0, 1040.0, 1040.0, 1040.0, 1040.0, 1040.0, 1040.0, 1040.0, 1040.0, 1040.0, 1040.0, 1040.0, 1040.0, 1040.0, 1040.0, 1040.0, 1040.0, 1040.0, 1040.0, 1040.0, 1040.0, 1040.0, 1040.0, 1040.0, 1040.0, 1040.0, 1040.0, 1040.0, 1040.0, 1040.0, 1040.0, 1040.0, 1040.0, 1040.0, 1040.0, 1040.0, 1040.0, 1040.0, 1040.0, 1040.0, 1040.0, 1040.0, 1040.0, 1040.0, 1040.0, 1040.0, 1040.0, 1040.0],
      "WindowWidth": [2318.0, 2318.0, 2318.0, 2318.0, 2318.0, 2318.0, 2318.0, 2318.0, 2318.0, 2318.0, 2318.0, 2319.0, 2318.0, 2319.0, 2318.0, 2318.0, 2319.0, 2318.0, 2318.0, 2318.0, 2318.0, 2318.0, 2318.0, 2318.0, 2318.0, 2319.0, 2318.0, 2319.0, 2318.0, 2318.0, 2318.0, 2318.0, 2318.0, 2318.0, 2318.0, 2319.0, 2318.0, 2318.0, 2318.0, 2318.0, 2319.0, 2318.0, 2318.0, 2318.0, 2318.0, 2318.0, 2318.0, 2318.0, 2318.0, 2318.0, 2318.0, 2318.0, 2318.0, 2318.0, 2318.0, 2318.0, 2318.0, 2318.0, 2318.0, 2318.0, 2318.0, 2318.0, 2318.0, 2318.0, 2317.0, 2318.0, 2317.0, 2318.0, 2318.0, 2318.0, 2318.0, 2318.0, 2318.0, 2318.0, 2318.0, 2318.0, 2318.0, 2317.0, 2317.0, 2318.0, 2318.0, 2317.0, 2317.0, 2317.0, 2317.0, 2317.0, 2317.0, 2317.0, 2317.0, 2317.0, 2317.0, 2317.0, 2317.0, 2317.0, 2317.0, 2317.0, 2317.0, 2317.0, 2317.0, 2317.0, 2317.0, 2317.0, 2317.0, 2317.0, 2316.0, 2317.0, 2316.0, 2317.0, 2317.0, 2316.0, 2316.0, 2317.0, 2317.0, 2316.0, 2316.0, 2317.0, 2317.0, 2316.0, 2317.0, 2316.0, 2317.0, 2316.0, 2316.0, 2317.0, 2316.0, 2316.0, 2316.0, 2316.0, 2316.0, 2316.0, 2316.0, 2316.0, 2316.0, 2316.0, 2316.0, 2316.0, 2316.0, 2316.0, 2316.0, 2316.0, 2316.0, 2316.0, 2316.0, 2316.0, 2316.0, 2316.0, 2316.0, 2316.0, 2316.0, 2316.0, 2316.0, 2316.0, 2316.0, 2316.0, 2316.0, 2316.0, 2316.0, 2316.0, 2316.0, 2315.0, 2315.0, 2315.0, 2315.0, 2315.0, 2316.0, 2316.0, 2316.0, 2316.0, 2315.0, 2315.0, 2316.0, 2316.0, 2315.0, 2315.0, 2315.0, 2315.0, 2315.0, 2315.0, 2315.0, 2315.0, 2315.0, 2316.0, 2315.0, 2315.0, 2315.0, 2315.0, 2315.0, 2315.0, 2315.0, 2315.0, 2315.0, 2315.0, 2315.0, 2315.0, 2315.0, 2315.0, 2315.0, 2315.0, 2315.0, 2315.0]
    },
    "slices": {}
  }
}