{
  "AcquisitionMatrixPE": 122,
  "AcquisitionNumber": 1,
  "AcquisitionTime": "10:14:16.060000",
  "BandwidthPerPixelPhaseEncode": 28.76,
  "BaseResolution": 122,
  "BodyPartExamined": "BRAIN",
  "CoilCombinationMethod": "Adaptive Combine",
  "ConsistencyInfo": "N4_VE11C_LATEST_20160120",
  "ConversionSoftware": "dcm2niix",
  "ConversionSoftwareVersion": "v1.0.20220720",
  "DerivedVendorReportedEchoSpacing": 0.000570008,
  "DeviceSerialNumber": "66112",
  "DiffusionScheme": "Monopolar",
  "DwellTime": 2e-06,
  "EchoTime": 0.075,
  "EchoTrainLength": 61,
  "EffectiveEchoSpacing": 0.000285004,
  "FlipAngle": 90,
  "HeudiconvVersion": "0.13.1",
  "ImageOrientationPatientDICOM": [0.983262, 0.181912, 0.0101537, -0.176208, 0.935307, 0.306842],
  "ImageOrientationText": "Tra>Cor(17.7)>Sag(-2.7)",
  "ImageType": [
    "ORIGINAL",
    "PRIMARY",
    "DIFFUSION",
    "NONE",
    "ND",
    "NORM"
],
  "ImagingFrequency": 123.252,
  "InPlanePhaseEncodingDirectionDICOM": "COL",
  "InstitutionAddress": "Maynard 3,Hanover,NH,US,03755",
  "InstitutionName": "Dartmouth College - PBS",
  "InstitutionalDepartmentName": "Department",
  "MRAcquisitionType": "2D",
  "MagneticFieldStrength": 3,
  "Manufacturer": "Siemens",
  "ManufacturersModelName": "Prisma",
  "MatrixCoilMode": "GRAPPA",
  "Modality": "MR",
  "NonlinearGradientCorrection": false,
  "ParallelReductionFactorInPlane": 2,
  "PartialFourier": 1,
  "PatientPosition": "HFS",
  "PercentPhaseFOV": 100,
  "PercentSampling": 100,
  "PhaseEncodingDirection": "j-",
  "PhaseEncodingSteps": 122,
  "PhaseResolution": 1,
  "PixelBandwidth": 2050,
  "ProcedureStepDescription": "dbic^QA",
  "ProtocolName": "dwi_acq-DTI-30-p2",
  "PulseSequenceDetails": "%SiemensSeq%\\ep2d_diff",
  "ReceiveCoilActiveElements": "HEA;HEP",
  "ReceiveCoilName": "Head_32",
  "ReconMatrixPE": 122,
  "RefLinesPE": 38,
  "RepetitionTime": 7.7,
  "SAR": 0.102187,
  "ScanOptions": "FS",
  "ScanningSequence": "EP",
  "SequenceName": "*ep_b0",
  "SequenceVariant": "SK\\SP",
  "SeriesDescription": "dwi_acq-DTI-30-p2",
  "SeriesNumber": 12,
  "ShimSetting": [4141, -7707, -7515, 269, -95, -192, 15, 63],
  "SliceThickness": 2,
  "SliceTiming": [3.84375, 0, 3.95312, 0.10938, 4.0625, 0.21875, 4.17188, 0.32812, 4.28125, 0.4375, 4.39062, 0.55469, 4.5, 0.65625, 4.60938, 0.76562, 4.71875, 0.875, 4.82812, 0.99219, 4.9375, 1.10156, 5.04688, 1.21094, 5.15625, 1.32031, 5.26562, 1.42969, 5.375, 1.53906, 5.48438, 1.64844, 5.59375, 1.75781, 5.70312, 1.86719, 5.8125, 1.97656, 5.92969, 2.08594, 6.03906, 2.19531, 6.14844, 2.30469, 6.25781, 2.41406, 6.36719, 2.52344, 6.47656, 2.63281, 6.58594, 2.74219, 6.69531, 2.85156, 6.80469, 2.96094, 6.91406, 3.07031, 7.02344, 3.1875, 7.13281, 3.29688, 7.24219, 3.40625, 7.35156, 3.50781, 7.46094, 3.625, 7.57031, 3.73438],
  "SoftwareVersions": "syngo MR E11",
  "SpacingBetweenSlices": 2,
  "SpoilingState": true,
  "StationName": "AWP66112",
  "TotalReadoutTime": 0.0344855,
  "TxRefAmp": 230.757,
  "dcmmeta_affine": [
    [-1.9342867136001587, -0.3466391861438751, -0.09264272451400757, 144.8258819580078],
    [-0.35785937309265137, 1.8399475812911987, 0.6069908142089844, -102.86908721923828],
    [0.019974537193775177, -0.6036238074302673, 1.9034156799316406, -33.941314697265625],
    [0.0, 0.0, 0.0, 1.0]
],
  "dcmmeta_reorient_transform": [
    [0.0, -1.0, 0.0, 121.0],
    [1.0, 0.0, 0.0, 0.0],
    [0.0, 0.0, -1.0, 69.0],
    [0.0, 0.0, 0.0, 1.0]
],
  "dcmmeta_shape": [122, 122, 70, 31],
  "dcmmeta_slice_dim": 2,
  "dcmmeta_version": 0.6,
  "global": {
    "const": {
      "AccessionNumber": "qa",
      "AcquisitionMatrix": [122, 0, 0, 122],
      "AngioFlag": "N",
      "BitsAllocated": 16,
      "BitsStored": 12,
      "BodyPartExamined": "BRAIN",
      "Columns": 122,
      "EchoNumbers": 1,
      "EchoTime": 75.0,
      "EchoTrainLength": 61,
      "FlipAngle": 90.0,
      "HighBit": 11,
      "ImageOrientationPatient": [0.98326241736568, 0.18191184817599, 0.01015372293316, -0.1762082563332, 0.93530667869381, 0.30684208836266],
      "ImageType": [
        "ORIGINAL",
        "PRIMARY",
        "DIFFUSION",
        "NONE",
        "ND",
        "NORM"
],
      "ImagedNucleus": "1H",
      "ImagingFrequency": 123.252435,
      "InPlanePhaseEncodingDirection": "COL",
      "MRAcquisitionType": "2D",
      "MagneticFieldStrength": 3.0,
      "Manufacturer": "SIEMENS",
      "ManufacturerModelName": "Prisma",
      "Modality": "MR",
      "NumberOfAverages": 1.0,
      "NumberOfPhaseEncodingSteps": 122,
      "PercentPhaseFieldOfView": 100.0,
      "PercentSampling": 100.0,
      "PerformedProcedureStepStartTime": "094438.219000",
      "PhotometricInterpretation": "MONOCHROME2",
      "PixelBandwidth": 2050.0,
      "PixelRepresentation": 0,
      "PixelSpacing": [1.9672131538391, 1.9672131538391],
      "ProtocolName": "dwi_acq-DTI-30-p2",
      "RepetitionTime": 7700.0,
      "Rows": 122,
      "SAR": 0.10218658625954,
      "SamplesPerPixel": 1,
      "ScanOptions": "FS",
      "ScanningSequence": "EP",
      "SequenceVariant": [
        "SK",
        "SP"
],
      "SeriesDescription": "dwi_acq-DTI-30-p2",
      "SeriesNumber": 12,
      "SeriesTime": "101425.212000",
      "SliceThickness": 2.0,
      "SmallestImagePixelValue": 0,
      "SoftwareVersions": "syngo MR E11",
      "SpacingBetweenSlices": 2.0,
      "SpecificCharacterSet": "ISO_IR 100",
      "StudyID": "110",
      "StudyTime": "094438.143000",
      "TransmitCoilName": "Body",
      "VariableFlipAngleFlag": "N",
      "WindowCenterWidthExplanation": "Algo1",
      "dBdt": 0.0},
    "slices": {
      "AcquisitionTime": ["101416.060000", "101412.220000", "101416.170000", "101412.330000", "101416.280000", "101412.440000", "101416.390000", "101412.550000", "101416.500000", "101412.660000", "101416.607500", "101412.770000", "101416.717500", "101412.877500", "101416.827500", "101412.987500", "101416.937500", "101413.097500", "101417.047500", "101413.207500", "101417.157500", "101413.317500", "101417.267500", "101413.427500", "101417.377500", "101413.537500", "101417.487500", "101413.647500", "101417.595000", "101413.757500", "101417.705000", "101413.865000", "101417.815000", "101413.975000", "101417.925000", "101414.085000", "101418.035000", "101414.195000", "101418.145000", "101414.305000", "101418.255000", "101414.415000", "101418.365000", "101414.525000", "101418.475000", "101414.635000", "101418.582500", "101414.742500", "101418.692500", "101414.852500", "101418.802500", "101414.962500", "101418.912500", "101415.072500", "101419.022500", "101415.182500", "101419.132500", "101415.292500", "101419.242500", "101415.402500", "101419.352500", "101415.512500", "101419.460000", "101415.622500", "101419.570000", "101415.730000", "101419.680000", "101415.840000", "101419.790000", "101415.950000", "101423.760000", "101419.920000", "101423.870000", "101420.030000", "101423.980000", "101420.140000", "101424.090000", "101420.250000", "101424.200000", "101420.360000", "101424.307500", "101420.470000", "101424.417500", "101420.577500", "101424.527500", "101420.687500", "101424.637500", "101420.797500", "101424.747500", "101420.907500", "101424.857500", "101421.017500", "101424.967500", "101421.127500", "101425.077500", "101421.237500", "101425.187500", "101421.347500", "101425.295000", "101421.457500", "101425.405000", "101421.565000", "101425.515000", "101421.675000", "101425.625000", "101421.785000", "101425.735000", "101421.895000", "101425.845000", "101422.005000", "101425.955000", "101422.115000", "101426.065000", "101422.225000", "101426.175000", "101422.335000", "101426.282500", "101422.442500", "101426.392500", "101422.552500", "101426.502500", "101422.662500", "101426.612500", "101422.772500", "101426.722500", "101422.882500", "101426.832500", "101422.992500", "101426.942500", "101423.102500", "101427.052500", "101423.212500", "101427.160000", "101423.322500", "101427.270000", "101423.430000", "101427.380000", "101423.540000", "101427.490000", "101423.650000", "101431.460000", "101427.620000", "101431.570000", "101427.730000", "101431.680000", "101427.840000", "101431.790000", "101427.950000", "101431.900000", "101428.060000", "101432.007500", "101428.170000", "101432.117500", "101428.277500", "101432.227500", "101428.387500", "101432.337500", "101428.497500", "101432.447500", "101428.607500", "101432.557500", "101428.717500", "101432.667500", "101428.827500", "101432.777500", "101428.937500", "101432.887500", "101429.047500", "101432.995000", "101429.157500", "101433.105000", "101429.265000", "101433.215000", "101429.375000", "101433.325000", "101429.485000", "101433.435000", "101429.595000", "101433.545000", "101429.705000", "101433.655000", "101429.815000", "101433.765000", "101429.925000", "101433.875000", "101430.035000", "101433.982500", "101430.142500", "101434.092500", "101430.252500", "101434.202500", "101430.362500", "101434.312500", "101430.472500", "101434.422500", "101430.582500", "101434.532500", "101430.692500", "101434.642500", "101430.802500", "101434.752500", "101430.912500", "101434.860000", "101431.022500", "101434.970000", "101431.130000", "101435.080000", "101431.240000", "101435.190000", "101431.350000", "101439.160000", "101435.320000", "101439.270000", "101435.430000", "101439.380000", "101435.540000", "101439.490000", "101435.650000", "101439.600000", "101435.760000", "101439.707500", "101435.870000", "101439.817500", "101435.977500", "101439.927500", "101436.087500", "101440.037500", "101436.197500", "101440.147500", "101436.307500", "101440.257500", "101436.417500", "101440.367500", "101436.527500", "101440.477500", "101436.637500", "101440.587500", "101436.747500", "101440.695000", "101436.857500", "101440.805000", "101436.965000", "101440.915000", "101437.075000", "101441.025000", "101437.185000", "101441.135000", "101437.295000", "101441.245000", "101437.405000", "101441.355000", "101437.515000", "101441.465000", "101437.625000", "101441.575000", "101437.735000", "101441.682500", "101437.842500", "101441.792500", "101437.952500", "101441.902500", "101438.062500", "101442.012500", "101438.172500", "101442.122500", "101438.282500", "101442.232500", "101438.392500", "101442.342500", "101438.502500", "101442.452500", "101438.612500", "101442.560000", "101438.722500", "101442.670000", "101438.830000", "101442.780000", "101438.940000", "101442.890000", "101439.050000", "101446.860000", "101443.020000", "101446.970000", "101443.130000", "101447.080000", "101443.240000", "101447.190000", "101443.350000", "101447.300000", "101443.460000", "101447.407500", "101443.570000", "101447.517500", "101443.677500", "101447.627500", "101443.787500", "101447.737500", "101443.897500", "101447.847500", "101444.007500", "101447.957500", "101444.117500", "101448.067500", "101444.227500", "101448.177500", "101444.337500", "101448.287500", "101444.447500", "101448.395000", "101444.557500", "101448.505000", "101444.665000", "101448.615000", "101444.775000", "101448.725000", "101444.885000", "101448.835000", "101444.995000", "101448.945000", "101445.105000", "101449.055000", "101445.215000", "101449.165000", "101445.325000", "101449.275000", "101445.435000", "101449.382500", "101445.542500", "101449.492500", "101445.652500", "101449.602500", "101445.762500", "101449.712500", "101445.872500", "101449.822500", "101445.982500", "101449.932500", "101446.092500", "101450.042500", "101446.202500", "101450.152500", "101446.312500", "101450.260000", "101446.422500", "101450.370000", "101446.530000", "101450.480000", "101446.640000", "101450.590000", "101446.750000", "101454.560000", "101450.720000", "101454.670000", "101450.830000", "101454.780000", "101450.940000", "101454.890000", "101451.050000", "101455.000000", "101451.160000", "101455.107500", "101451.270000", "101455.217500", "101451.377500", "101455.327500", "101451.487500", "101455.437500", "101451.597500", "101455.547500", "101451.707500", "101455.657500", "101451.817500", "101455.767500", "101451.927500", "101455.877500", "101452.037500", "101455.987500", "101452.147500", "101456.095000", "101452.257500", "101456.205000", "101452.365000", "101456.315000", "101452.475000", "101456.425000", "101452.585000", "101456.535000", "101452.695000", "101456.645000", "101452.805000", "101456.755000", "101452.915000", "101456.865000", "101453.025000", "101456.975000", "101453.135000", "101457.082500", "101453.242500", "101457.192500", "101453.352500", "101457.302500", "101453.462500", "101457.412500", "101453.572500", "101457.522500", "101453.682500", "101457.632500", "101453.792500", "101457.742500", "101453.902500", "101457.852500", "101454.012500", "101457.960000", "101454.122500", "101458.070000", "101454.230000", "101458.180000", "101454.340000", "101458.290000", "101454.450000", "101502.260000", "101458.420000", "101502.370000", "101458.530000", "101502.480000", "101458.640000", "101502.590000", "101458.750000", "101502.700000", "101458.860000", "101502.807500", "101458.970000", "101502.917500", "101459.077500", "101503.027500", "101459.187500", "101503.137500", "101459.297500", "101503.247500", "101459.407500", "101503.357500", "101459.517500", "101503.467500", "101459.627500", "101503.577500", "101459.737500", "101503.687500", "101459.847500", "101503.795000", "101459.957500", "101503.905000", "101500.065000", "101504.015000", "101500.175000", "101504.125000", "101500.285000", "101504.235000", "101500.395000", "101504.345000", "101500.505000", "101504.455000", "101500.615000", "101504.565000", "101500.725000", "101504.675000", "101500.835000", "101504.782500", "101500.942500", "101504.892500", "101501.052500", "101505.002500", "101501.162500", "101505.112500", "101501.272500", "101505.222500", "101501.382500", "101505.332500", "101501.492500", "101505.442500", "101501.602500", "101505.552500", "101501.712500", "101505.660000", "101501.822500", "101505.770000", "101501.930000", "101505.880000", "101502.040000", "101505.990000", "101502.150000", "101509.960000", "101506.120000", "101510.070000", "101506.230000", "101510.180000", "101506.340000", "101510.290000", "101506.450000", "101510.400000", "101506.560000", "101510.507500", "101506.670000", "101510.617500", "101506.777500", "101510.727500", "101506.887500", "101510.837500", "101506.997500", "101510.947500", "101507.107500", "101511.057500", "101507.217500", "101511.167500", "101507.327500", "101511.277500", "101507.437500", "101511.387500", "101507.547500", "101511.495000", "101507.657500", "101511.605000", "101507.765000", "101511.715000", "101507.875000", "101511.825000", "101507.985000", "101511.935000", "101508.095000", "101512.045000", "101508.205000", "101512.155000", "101508.315000", "101512.265000", "101508.425000", "101512.375000", "101508.535000", "101512.482500", "101508.642500", "101512.592500", "101508.752500", "101512.702500", "101508.862500", "101512.812500", "101508.972500", "101512.922500", "101509.082500", "101513.032500", "101509.192500", "101513.142500", "101509.302500", "101513.252500", "101509.412500", "101513.360000", "101509.522500", "101513.470000", "101509.630000", "101513.580000", "101509.740000", "101513.690000", "101509.850000", "101517.660000", "101513.820000", "101517.770000", "101513.930000", "101517.880000", "101514.040000", "101517.990000", "101514.150000", "101518.100000", "101514.260000", "101518.207500", "101514.370000", "101518.317500", "101514.477500", "101518.427500", "101514.587500", "101518.537500", "101514.697500", "101518.647500", "101514.807500", "101518.757500", "101514.917500", "101518.867500", "101515.027500", "101518.977500", "101515.137500", "101519.087500", "101515.247500", "101519.195000", "101515.357500", "101519.305000", "101515.465000", "101519.415000", "101515.575000", "101519.525000", "101515.685000", "101519.635000", "101515.795000", "101519.745000", "101515.905000", "101519.855000", "101516.015000", "101519.965000", "101516.125000", "101520.075000", "101516.235000", "101520.182500", "101516.342500", "101520.292500", "101516.452500", "101520.402500", "101516.562500", "101520.512500", "101516.672500", "101520.622500", "101516.782500", "101520.732500", "101516.892500", "101520.842500", "101517.002500", "101520.952500", "101517.112500", "101521.060000", "101517.222500", "101521.170000", "101517.330000", "101521.280000", "101517.440000", "101521.390000", "101517.550000", "101525.360000", "101521.520000", "101525.470000", "101521.630000", "101525.580000", "101521.740000", "101525.690000", "101521.850000", "101525.800000", "101521.960000", "101525.907500", "101522.070000", "101526.017500", "101522.177500", "101526.127500", "101522.287500", "101526.237500", "101522.397500", "101526.347500", "101522.507500", "101526.457500", "101522.617500", "101526.567500", "101522.727500", "101526.677500", "101522.837500", "101526.787500", "101522.947500", "101526.895000", "101523.057500", "101527.005000", "101523.165000", "101527.115000", "101523.275000", "101527.225000", "101523.385000", "101527.335000", "101523.495000", "101527.445000", "101523.605000", "101527.555000", "101523.715000", "101527.665000", "101523.825000", "101527.775000", "101523.935000", "101527.882500", "101524.042500", "101527.992500", "101524.152500", "101528.102500", "101524.262500", "101528.212500", "101524.372500", "101528.322500", "101524.482500", "101528.432500", "101524.592500", "101528.542500", "101524.702500", "101528.652500", "101524.812500", "101528.760000", "101524.922500", "101528.870000", "101525.030000", "101528.980000", "101525.140000", "101529.090000", "101525.250000", "101533.060000", "101529.220000", "101533.170000", "101529.330000", "101533.280000", "101529.440000", "101533.390000", "101529.550000", "101533.500000", "101529.660000", "101533.607500", "101529.770000", "101533.717500", "101529.877500", "101533.827500", "101529.987500", "101533.937500", "101530.097500", "101534.047500", "101530.207500", "101534.157500", "101530.317500", "101534.267500", "101530.427500", "101534.377500", "101530.537500", "101534.487500", "101530.647500", "101534.595000", "101530.757500", "101534.705000", "101530.865000", "101534.815000", "101530.975000", "101534.925000", "101531.085000", "101535.035000", "101531.195000", "101535.145000", "101531.305000", "101535.255000", "101531.415000", "101535.365000", "101531.525000", "101535.475000", "101531.635000", "101535.582500", "101531.742500", "101535.692500", "101531.852500", "101535.802500", "101531.962500", "101535.912500", "101532.072500", "101536.022500", "101532.182500", "101536.132500", "101532.292500", "101536.242500", "101532.402500", "101536.352500", "101532.512500", "101536.460000", "101532.622500", "101536.570000", "101532.730000", "101536.680000", "101532.840000", "101536.790000", "101532.950000", "101540.760000", "101536.920000", "101540.870000", "101537.030000", "101540.980000", "101537.140000", "101541.090000", "101537.250000", "101541.200000", "101537.360000", "101541.307500", "101537.470000", "101541.417500", "101537.577500", "101541.527500", "101537.687500", "101541.637500", "101537.797500", "101541.747500", "101537.907500", "101541.857500", "101538.017500", "101541.967500", "101538.127500", "101542.077500", "101538.237500", "101542.187500", "101538.347500", "101542.295000", "101538.457500", "101542.405000", "101538.565000", "101542.515000", "101538.675000", "101542.625000", "101538.785000", "101542.735000", "101538.895000", "101542.845000", "101539.005000", "101542.955000", "101539.115000", "101543.065000", "101539.225000", "101543.175000", "101539.335000", "101543.282500", "101539.442500", "101543.392500", "101539.552500", "101543.502500", "101539.662500", "101543.612500", "101539.772500", "101543.722500", "101539.882500", "101543.832500", "101539.992500", "101543.942500", "101540.102500", "101544.052500", "101540.212500", "101544.160000", "101540.322500", "101544.270000", "101540.430000", "101544.380000", "101540.540000", "101544.490000", "101540.650000", "101548.460000", "101544.620000", "101548.570000", "101544.730000", "101548.680000", "101544.840000", "101548.790000", "101544.950000", "101548.900000", "101545.060000", "101549.007500", "101545.170000", "101549.117500", "101545.277500", "101549.227500", "101545.387500", "101549.337500", "101545.497500", "101549.447500", "101545.607500", "101549.557500", "101545.717500", "101549.667500", "101545.827500", "101549.777500", "101545.937500", "101549.887500", "101546.047500", "101549.995000", "101546.157500", "101550.105000", "101546.265000", "101550.215000", "101546.375000", "101550.325000", "101546.485000", "101550.435000", "101546.595000", "101550.545000", "101546.705000", "101550.655000", "101546.815000", "101550.765000", "101546.925000", "101550.875000", "101547.035000", "101550.982500", "101547.142500", "101551.092500", "101547.252500", "101551.202500", "101547.362500", "101551.312500", "101547.472500", "101551.422500", "101547.582500", "101551.532500", "101547.692500", "101551.642500", "101547.802500", "101551.752500", "101547.912500", "101551.860000", "101548.022500", "101551.970000", "101548.130000", "101552.080000", "101548.240000", "101552.190000", "101548.350000", "101556.160000", "101552.320000", "101556.270000", "101552.430000", "101556.380000", "101552.540000", "101556.490000", "101552.650000", "101556.600000", "101552.760000", "101556.707500", "101552.870000", "101556.817500", "101552.977500", "101556.927500", "101553.087500", "101557.037500", "101553.197500", "101557.147500", "101553.307500", "101557.257500", "101553.417500", "101557.367500", "101553.527500", "101557.477500", "101553.637500", "101557.587500", "101553.747500", "101557.695000", "101553.857500", "101557.805000", "101553.965000", "101557.915000", "101554.075000", "101558.025000", "101554.185000", "101558.135000", "101554.295000", "101558.245000", "101554.405000", "101558.355000", "101554.515000", "101558.465000", "101554.625000", "101558.575000", "101554.735000", "101558.682500", "101554.842500", "101558.792500", "101554.952500", "101558.902500", "101555.062500", "101559.012500", "101555.172500", "101559.122500", "101555.282500", "101559.232500", "101555.392500", "101559.342500", "101555.502500", "101559.452500", "101555.612500", "101559.560000", "101555.722500", "101559.670000", "101555.830000", "101559.780000", "101555.940000", "101559.890000", "101556.050000", "101603.860000", "101600.020000", "101603.970000", "101600.130000", "101604.080000", "101600.240000", "101604.190000", "101600.350000", "101604.300000", "101600.460000", "101604.407500", "101600.570000", "101604.517500", "101600.677500", "101604.627500", "101600.787500", "101604.737500", "101600.897500", "101604.847500", "101601.007500", "101604.957500", "101601.117500", "101605.067500", "101601.227500", "101605.177500", "101601.337500", "101605.287500", "101601.447500", "101605.395000", "101601.557500", "101605.505000", "101601.665000", "101605.615000", "101601.775000", "101605.725000", "101601.885000", "101605.835000", "101601.995000", "101605.945000", "101602.105000", "101606.055000", "101602.215000", "101606.165000", "101602.325000", "101606.275000", "101602.435000", "101606.382500", "101602.542500", "101606.492500", "101602.652500", "101606.602500", "101602.762500", "101606.712500", "101602.872500", "101606.822500", "101602.982500", "101606.932500", "101603.092500", "101607.042500", "101603.202500", "101607.152500", "101603.312500", "101607.260000", "101603.422500", "101607.370000", "101603.530000", "101607.480000", "101603.640000", "101607.590000", "101603.750000", "101611.560000", "101607.720000", "101611.670000", "101607.830000", "101611.780000", "101607.940000", "101611.890000", "101608.050000", "101612.000000", "101608.160000", "101612.107500", "101608.270000", "101612.217500", "101608.377500", "101612.327500", "101608.487500", "101612.437500", "101608.597500", "101612.547500", "101608.707500", "101612.657500", "101608.817500", "101612.767500", "101608.927500", "101612.877500", "101609.037500", "101612.987500", "101609.147500", "101613.095000", "101609.257500", "101613.205000", "101609.365000", "101613.315000", "101609.475000", "101613.425000", "101609.585000", "101613.535000", "101609.695000", "101613.645000", "101609.805000", "101613.755000", "101609.915000", "101613.865000", "101610.025000", "101613.975000", "101610.135000", "101614.082500", "101610.242500", "101614.192500", "101610.352500", "101614.302500", "101610.462500", "101614.412500", "101610.572500", "101614.522500", "101610.682500", "101614.632500", "101610.792500", "101614.742500", "101610.902500", "101614.852500", "101611.012500", "101614.960000", "101611.122500", "101615.070000", "101611.230000", "101615.180000", "101611.340000", "101615.290000", "101611.450000", "101619.260000", "101615.420000", "101619.370000", "101615.530000", "101619.480000", "101615.640000", "101619.590000", "101615.750000", "101619.700000", "101615.860000", "101619.807500", "101615.970000", "101619.917500", "101616.077500", "101620.027500", "101616.187500", "101620.137500", "101616.297500", "101620.247500", "101616.407500", "101620.357500", "101616.517500", "101620.467500", "101616.627500", "101620.577500", "101616.737500", "101620.687500", "101616.847500", "101620.795000", "101616.957500", "101620.905000", "101617.065000", "101621.015000", "101617.175000", "101621.125000", "101617.285000", "101621.235000", "101617.395000", "101621.345000", "101617.505000", "101621.455000", "101617.615000", "101621.565000", "101617.725000", "101621.675000", "101617.835000", "101621.782500", "101617.942500", "101621.892500", "101618.052500", "101622.002500", "101618.162500", "101622.112500", "101618.272500", "101622.222500", "101618.382500", "101622.332500", "101618.492500", "101622.442500", "101618.602500", "101622.552500", "101618.712500", "101622.660000", "101618.822500", "101622.770000", "101618.930000", "101622.880000", "101619.040000", "101622.990000", "101619.150000", "101626.960000", "101623.120000", "101627.070000", "101623.230000", "101627.180000", "101623.340000", "101627.290000", "101623.450000", "101627.400000", "101623.560000", "101627.507500", "101623.670000", "101627.617500", "101623.777500", "101627.727500", "101623.887500", "101627.837500", "101623.997500", "101627.947500", "101624.107500", "101628.057500", "101624.217500", "101628.167500", "101624.327500", "101628.277500", "101624.437500", "101628.387500", "101624.547500", "101628.495000", "101624.657500", "101628.605000", "101624.765000", "101628.715000", "101624.875000", "101628.825000", "101624.985000", "101628.935000", "101625.095000", "101629.045000", "101625.205000", "101629.155000", "101625.315000", "101629.265000", "101625.425000", "101629.375000", "101625.535000", "101629.482500", "101625.642500", "101629.592500", "101625.752500", "101629.702500", "101625.862500", "101629.812500", "101625.972500", "101629.922500", "101626.082500", "101630.032500", "101626.192500", "101630.142500", "101626.302500", "101630.252500", "101626.412500", "101630.360000", "101626.522500", "101630.470000", "101626.630000", "101630.580000", "101626.740000", "101630.690000", "101626.850000", "101634.660000", "101630.820000", "101634.770000", "101630.930000", "101634.880000", "101631.040000", "101634.990000", "101631.150000", "101635.100000", "101631.260000", "101635.207500", "101631.370000", "101635.317500", "101631.477500", "101635.427500", "101631.587500", "101635.537500", "101631.697500", "101635.647500", "101631.807500", "101635.757500", "101631.917500", "101635.867500", "101632.027500", "101635.977500", "101632.137500", "101636.087500", "101632.247500", "101636.195000", "101632.357500", "101636.305000", "101632.465000", "101636.415000", "101632.575000", "101636.525000", "101632.685000", "101636.635000", "101632.795000", "101636.745000", "101632.905000", "101636.855000", "101633.015000", "101636.965000", "101633.125000", "101637.075000", "101633.235000", "101637.182500", "101633.342500", "101637.292500", "101633.452500", "101637.402500", "101633.562500", "101637.512500", "101633.672500", "101637.622500", "101633.782500", "101637.732500", "101633.892500", "101637.842500", "101634.002500", "101637.952500", "101634.112500", "101638.060000", "101634.222500", "101638.170000", "101634.330000", "101638.280000", "101634.440000", "101638.390000", "101634.550000", "101642.360000", "101638.520000", "101642.470000", "101638.630000", "101642.580000", "101638.740000", "101642.690000", "101638.850000", "101642.800000", "101638.960000", "101642.907500", "101639.070000", "101643.017500", "101639.177500", "101643.127500", "101639.287500", "101643.237500", "101639.397500", "101643.347500", "101639.507500", "101643.457500", "101639.617500", "101643.567500", "101639.727500", "101643.677500", "101639.837500", "101643.787500", "101639.947500", "101643.895000", "101640.057500", "101644.005000", "101640.165000", "101644.115000", "101640.275000", "101644.225000", "101640.385000", "101644.335000", "101640.495000", "101644.445000", "101640.605000", "101644.555000", "101640.715000", "101644.665000", "101640.825000", "101644.775000", "101640.935000", "101644.882500", "101641.042500", "101644.992500", "101641.152500", "101645.102500", "101641.262500", "101645.212500", "101641.372500", "101645.322500", "101641.482500", "101645.432500", "101641.592500", "101645.542500", "101641.702500", "101645.652500", "101641.812500", "101645.760000", "101641.922500", "101645.870000", "101642.030000", "101645.980000", "101642.140000", "101646.090000", "101642.250000", "101650.060000", "101646.220000", "101650.170000", "101646.330000", "101650.280000", "101646.440000", "101650.390000", "101646.550000", "101650.500000", "101646.660000", "101650.607500", "101646.770000", "101650.717500", "101646.877500", "101650.827500", "101646.987500", "101650.937500", "101647.097500", "101651.047500", "101647.207500", "101651.157500", "101647.317500", "101651.267500", "101647.427500", "101651.377500", "101647.537500", "101651.487500", "101647.647500", "101651.595000", "101647.757500", "101651.705000", "101647.865000", "101651.815000", "101647.975000", "101651.925