{
  "AcquisitionMatrixPE": 80,
  "AcquisitionNumber": 1,
  "AcquisitionTime": "08:58:27.495000",
  "BandwidthPerPixelPhaseEncode": 25,
  "BaseResolution": 80,
  "BodyPartExamined": "BRAIN",
  "CoilCombinationMethod": "Sum of Squares",
  "ConsistencyInfo": "N4_VE11E_LATEST_20181129",
  "ConversionSoftware": "dcm2niix",
  "ConversionSoftwareVersion": "v1.0.20220720",
  "DerivedVendorReportedEchoSpacing": 0.0005,
  "DeviceSerialNumber": "66112",
  "DwellTime": 2.7e-06,
  "EchoTime": 0.03,
  "EchoTrainLength": 80,
  "EffectiveEchoSpacing": 0.0005,
  "FlipAngle": 77,
  "HeudiconvVersion": "0.13.1",
  "ImageOrientationPatientDICOM": [0.984485, 0.175381, 0.00551403, -0.167574, 0.93041, 0.32597],
  "ImageOrientationText": "Tra>Cor(18.8)>Sag(-3.0)",
  "ImageType": [
    "ORIGINAL",
    "PRIMARY",
    "M",
    "ND",
    "NORM",
    "MOSAIC"
],
  "ImagingFrequency": 123.252,
  "InPlanePhaseEncodingDirectionDICOM": "COL",
  "InstitutionAddress": "Maynard 3,Hanover,NH,US,03755",
  "InstitutionName": "Dartmouth College - PBS",
  "InstitutionalDepartmentName": "Department",
  "MRAcquisitionType": "2D",
  "MagneticFieldStrength": 3,
  "Manufacturer": "Siemens",
  "ManufacturersModelName": "Prisma",
  "MatrixCoilMode": "SENSE",
  "Modality": "MR",
  "NonlinearGradientCorrection": false,
  "PartialFourier": 1,
  "PatientPosition": "HFS",
  "PercentPhaseFOV": 100,
  "PercentSampling": 100,
  "PhaseEncodingDirection": "j-",
  "PhaseEncodingSteps": 80,
  "PhaseResolution": 1,
  "PixelBandwidth": 2315,
  "ProcedureStepDescription": "dbic^QA",
  "ProtocolName": "func-bold_fa-77",
  "PulseSequenceDetails": "%SiemensSeq%\\ep2d_bold",
  "ReceiveCoilActiveElements": "HC1-7;NC1,2",
  "ReceiveCoilName": "HeadNeck_64",
  "ReconMatrixPE": 80,
  "RepetitionTime": 2,
  "SAR": 0.028373,
  "ScanOptions": "FS",
  "ScanningSequence": "EP",
  "SequenceName": "*epfid2d1_80",
  "SequenceVariant": "SK",
  "SeriesDescription": "func-bold_fa-77",
  "SeriesNumber": 7,
  "ShimSetting": [4139, -7696, -7515, 228, -37, -284, -66, 80],
  "SliceThickness": 3.5,
  "SliceTiming": [0.99, 0, 1.0575, 0.0675, 1.1225, 0.1325, 1.1875, 0.1975, 1.255, 0.265, 1.32, 0.33, 1.3875, 0.3975, 1.4525, 0.4625, 1.5175, 0.5275, 1.585, 0.595, 1.65, 0.66, 1.7175, 0.7275, 1.7825, 0.7925, 1.8475, 0.8575, 1.915, 0.925],
  "SoftwareVersions": "syngo MR E11",
  "SpacingBetweenSlices": 3.99,
  "StationName": "AWP66112",
  "TotalReadoutTime": 0.0395,
  "TxRefAmp": 217.43,
  "dcmmeta_affine": [
    [-2.9534554481506348, -0.5027214288711548, -0.2076343297958374, 144.7976837158203],
    [-0.5261439085006714, 2.7912299633026123, 1.284126877784729, -99.77804565429688],
    [0.016542095690965652, -0.9779090881347656, 3.772002935409546, -24.09332847595215],
    [0.0, 0.0, 0.0, 1.0]
],
  "dcmmeta_reorient_transform": [
    [0.0, -1.0, 0.0, 79.0],
    [1.0, 0.0, 0.0, 0.0],
    [0.0, 0.0, 1.0, 0.0],
    [0.0, 0.0, 0.0, 1.0]
],
  "dcmmeta_shape": [80, 80, 30, 200],
  "dcmmeta_slice_dim": 2,
  "dcmmeta_version": 0.6,
  "global": {
    "const": {
      "AccessionNumber": "qa64",
      "AcquisitionMatrix": [80, 0, 0, 80],
      "AngioFlag": "N",
      "BitsAllocated": 16,
      "BitsStored": 12,
      "BodyPartExamined": "BRAIN",
      "Columns": 480,
      "EchoNumbers": 1,
      "EchoTime": 30.0,
      "EchoTrainLength": 80,
      "FlipAngle": 77.0,
      "HighBit": 11,
      "ImageOrientationPatient": [0.98448513998106, 0.17538131202635, 0.00551403195348, -0.1675738191185, 0.9304100055956, 0.32596968667907],
      "ImagePositionPatient": [-595.22947858149, -784.20391311651, -300.23837629239],
      "ImageType": [
        "ORIGINAL",
        "PRIMARY",
        "M",
        "ND",
        "NORM",
        "MOSAIC"
],
      "ImagedNucleus": "1H",
      "ImagingFrequency": 123.252385,
      "InPlanePhaseEncodingDirection": "COL",
      "LargestImagePixelValue": 4095,
      "MRAcquisitionType": "2D",
      "MagneticFieldStrength": 3.0,
      "Manufacturer": "SIEMENS",
      "ManufacturerModelName": "Prisma",
      "Modality": "MR",
      "NumberOfAverages": 1.0,
      "NumberOfPhaseEncodingSteps": 80,
      "PercentPhaseFieldOfView": 100.0,
      "PercentSampling": 100.0,
      "PerformedProcedureStepStartTime": "084812.108000",
      "PhotometricInterpretation": "MONOCHROME2",
      "PixelBandwidth": 2315.0,
      "PixelRepresentation": 0,
      "PixelSpacing": [3.0, 3.0],
      "ProtocolName": "func-bold_fa-77",
      "RepetitionTime": 2000.0,
      "Rows": 480,
      "SAR": 0.02837295208385,
      "SamplesPerPixel": 1,
      "ScanOptions": "FS",
      "ScanningSequence": "EP",
      "SequenceName": "*epfid2d1_80",
      "SequenceVariant": "SK",
      "SeriesDescription": "func-bold_fa-77",
      "SeriesNumber": 7,
      "SeriesTime": "085919.672000",
      "SliceLocation": -62.424249975131,
      "SliceThickness": 3.5,
      "SmallestImagePixelValue": 0,
      "SoftwareVersions": "syngo MR E11",
      "SpacingBetweenSlices": 3.9899999761666,
      "SpecificCharacterSet": "ISO_IR 100",
      "StudyID": "2",
      "StudyTime": "084811.957000",
      "TransmitCoilName": "Body",
      "VariableFlipAngleFlag": "N",
      "WindowCenterWidthExplanation": "Algo1"
    },
    "slices": {}
  },
  "time": {
    "samples": {
      "AcquisitionNumber": [1, 2, 3, 4, 5, 6, 7, 8, 9, 10, 11, 12, 13, 14, 15, 16, 17, 18, 19, 20, 21, 22, 23, 24, 25, 26, 27, 28, 29, 30, 31, 32, 33, 34, 35, 36, 37, 38, 39, 40, 41, 42, 43, 44, 45, 46, 47, 48, 49, 50, 51, 52, 53, 54, 55, 56, 57, 58, 59, 60, 61, 62, 63, 64, 65, 66, 67, 68, 69, 70, 71, 72, 73, 74, 75, 76, 77, 78, 79, 80, 81, 82, 83, 84, 85, 86, 87, 88, 89, 90, 91, 92, 93, 94, 95, 96, 97, 98, 99, 100, 101, 102, 103, 104, 105, 106, 107, 108, 109, 110, 111, 112, 113, 114, 115, 116, 117, 118, 119, 120, 121, 122, 123, 124, 125, 126, 127, 128, 129, 130, 131, 132, 133, 134, 135, 136, 137, 138, 139, 140, 141, 142, 143, 144, 145, 146, 147, 148, 149, 150, 151, 152, 153, 154, 155, 156, 157, 158, 159, 160, 161, 162, 163, 164, 165, 166, 167, 168, 169, 170, 171, 172, 173, 174, 175, 176, 177, 178, 179, 180, 181, 182, 183, 184, 185, 186, 187, 188, 189, 190, 191, 192, 193, 194, 195, 196, 197, 198, 199, 200],
      "AcquisitionTime": ["085827.495000", "085829.495000", "085831.495000", "085833.495000", "085835.495000", "085837.495000", "085839.495000", "085841.495000", "085843.495000", "085845.495000", "085847.495000", "085849.495000", "085851.495000", "085853.495000", "085855.495000", "085857.495000", "085859.495000", "085901.495000", "085903.495000", "085905.495000", "085907.495000", "085909.495000", "085911.495000", "085913.495000", "085915.495000", "085917.495000", "085919.495000", "085921.495000", "085923.495000", "085925.495000", "085927.495000", "085929.495000", "085931.495000", "085933.495000", "085935.495000", "085937.495000", "085939.495000", "085941.495000", "085943.495000", "085945.495000", "085947.495000", "085949.495000", "085951.495000", "085953.495000", "085955.495000", "085957.495000", "085959.495000", "090001.495000", "090003.495000", "090005.495000", "090007.495000", "090009.495000", "090011.495000", "090013.495000", "090015.495000", "090017.495000", "090019.495000", "090021.495000", "090023.495000", "090025.495000", "090027.495000", "090029.495000", "090031.495000", "090033.495000", "090035.495000", "090037.495000", "090039.495000", "090041.495000", "090043.495000", "090045.495000", "090047.495000", "090049.495000", "090051.495000", "090053.495000", "090055.495000", "090057.495000", "090059.495000", "090101.495000", "090103.495000", "090105.495000", "090107.495000", "090109.495000", "090111.495000", "090113.495000", "090115.495000", "090117.495000", "090119.495000", "090121.495000", "090123.495000", "090125.495000", "090127.495000", "090129.495000", "090131.495000", "090133.495000", "090135.495000", "090137.495000", "090139.495000", "090141.495000", "090143.495000", "090145.495000", "090147.495000", "090149.495000", "090151.495000", "090153.495000", "090155.495000", "090157.495000", "090159.495000", "090201.495000", "090203.495000", "090205.495000", "090207.495000", "090209.495000", "090211.495000", "090213.495000", "090215.495000", "090217.495000", "090219.495000", "090221.495000", "090223.495000", "090225.495000", "090227.495000", "090229.495000", "090231.495000", "090233.495000", "090235.495000", "090237.495000", "090239.495000", "090241.495000", "090243.495000", "090245.495000", "090247.495000", "090249.495000", "090251.495000", "090253.495000", "090255.495000", "090257.495000", "090259.495000", "090301.495000", "090303.495000", "090305.495000", "090307.495000", "090309.495000", "090311.495000", "090313.495000", "090315.495000", "090317.495000", "090319.495000", "090321.495000", "090323.495000", "090325.495000", "090327.495000", "090329.495000", "090331.495000", "090333.495000", "090335.495000", "090337.495000", "090339.495000", "090341.495000", "090343.495000", "090345.495000", "090347.495000", "090349.495000", "090351.495000", "090353.495000", "090355.495000", "090357.495000", "090359.495000", "090401.495000", "090403.495000", "090405.495000", "090407.495000", "090409.495000", "090411.495000", "090413.495000", "090415.495000", "090417.495000", "090419.495000", "090421.495000", "090423.495000", "090425.495000", "090427.495000", "090429.495000", "090431.495000", "090433.495000", "090435.495000", "090437.495000", "090439.495000", "090441.495000", "090443.495000", "090445.495000", "090447.495000", "090449.495000", "090451.495000", "090453.495000", "090455.495000", "090457.495000", "090459.495000", "090501.495000", "090503.495000", "090505.495000"],
      "ContentTime": ["085919.675000", "085919.678000", "085919.694000", "085919.696000", "085919.699000", "085919.701000", "085919.704000", "085919.706000", "085919.708000", "085919.711000", "085919.713000", "085919.715000", "085919.718000", "085919.720000", "085919.722000", "085919.725000", "085919.727000", "085919.730000", "085919.732000", "085919.734000", "085919.736000", "085919.739000", "085919.741000", "085919.743000", "085919.746000", "085919.748000", "085959.641000", "085959.644000", "085959.646000", "085959.649000", "085959.651000", "085959.653000", "085959.656000", "085959.658000", "085959.660000", "085959.663000", "085959.665000", "085959.668000", "085959.670000", "085959.672000", "085959.674000", "085959.677000", "085959.679000", "085959.681000", "085959.684000", "085959.686000", "090039.640000", "090039.643000", "090039.645000", "090039.647000", "090039.650000", "090039.652000", "090039.655000", "090039.657000", "090039.659000", "090039.662000", "090039.664000", "090039.666000", "090039.669000", "090039.671000", "090039.673000", "090039.676000", "090039.678000", "090039.680000", "090039.683000", "090039.685000", "090119.641000", "090119.644000", "090119.647000", "090119.649000", "090119.652000", "090119.654000", "090119.656000", "090119.659000", "090119.661000", "090119.663000", "090119.668000", "090119.671000", "090119.673000", "090119.675000", "090119.678000", "090119.680000", "090119.682000", "090119.685000", "090119.687000", "090119.690000", "090159.641000", "090159.644000", "090159.647000", "090159.650000", "090159.652000", "090159.654000", "090159.657000", "090159.659000", "090159.661000", "090159.664000", "090159.666000", "090159.668000", "090159.671000", "090159.673000", "090159.675000", "090159.678000", "090159.680000", "090159.682000", "090159.685000", "090159.687000", "090239.641000", "090239.644000", "090239.647000", "090239.649000", "090239.651000", "090239.654000", "090239.656000", "090239.659000", "090239.661000", "090239.663000", "090239.666000", "090239.668000", "090239.670000", "090239.672000", "090239.675000", "090239.677000", "090239.680000", "090239.682000", "090239.684000", "090239.687000", "090259.641000", "090259.643000", "090259.646000", "090259.648000", "090259.650000", "090259.653000", "090259.655000", "090259.666000", "090259.668000", "090259.671000", "090339.641000", "090339.644000", "090339.647000", "090339.649000", "090339.652000", "090339.654000", "090339.656000", "090339.659000", "090339.661000", "090339.663000", "090339.666000", "090339.668000", "090339.670000", "090339.673000", "090339.675000", "090339.677000", "090339.680000", "090339.682000", "090339.684000", "090339.687000", "090419.641000", "090419.644000", "090419.646000", "090419.648000", "090419.651000", "090419.653000", "090419.662000", "090419.664000", "090419.667000", "090419.669000", "090419.672000", "090419.675000", "090419.677000", "090419.679000", "090419.682000", "090419.684000", "090419.693000", "090419.695000", "090419.698000", "090419.700000", "090459.641000", "090459.644000", "090459.647000", "090459.649000", "090459.651000", "090459.654000", "090459.656000", "090459.658000", "090459.661000", "090459.663000", "090459.665000", "090459.668000", "090459.670000", "090459.672000", "090459.675000", "090459.677000", "090459.679000", "090459.681000", "090459.684000", "090459.686000", "090507.424000", "090507.427000", "090507.430000", "090507.432000"],
      "InstanceCreationTime": ["085919.675000", "085919.678000", "085919.694000", "085919.696000", "085919.699000", "085919.701000", "085919.704000", "085919.706000", "085919.708000", "085919.711000", "085919.713000", "085919.715000", "085919.718000", "085919.720000", "085919.722000", "085919.725000", "085919.727000", "085919.730000", "085919.732000", "085919.734000", "085919.736000", "085919.739000", "085919.741000", "085919.743000", "085919.746000", "085919.748000", "085959.641000", "085959.644000", "085959.646000", "085959.649000", "085959.651000", "085959.653000", "085959.656000", "085959.658000", "085959.660000", "085959.663000", "085959.665000", "085959.668000", "085959.670000", "085959.672000", "085959.674000", "085959.677000", "085959.679000", "085959.681000", "085959.684000", "085959.686000", "090039.640000", "090039.643000", "090039.645000", "090039.647000", "090039.650000", "090039.652000", "090039.655000", "090039.657000", "090039.659000", "090039.662000", "090039.664000", "090039.666000", "090039.669000", "090039.671000", "090039.673000", "090039.676000", "090039.678000", "090039.680000", "090039.683000", "090039.685000", "090119.641000", "090119.644000", "090119.647000", "090119.649000", "090119.652000", "090119.654000", "090119.656000", "090119.659000", "090119.661000", "090119.663000", "090119.668000", "090119.671000", "090119.673000", "090119.675000", "090119.678000", "090119.680000", "090119.682000", "090119.685000", "090119.687000", "090119.690000", "090159.641000", "090159.644000", "090159.647000", "090159.650000", "090159.652000", "090159.654000", "090159.657000", "090159.659000", "090159.661000", "090159.664000", "090159.666000", "090159.668000", "090159.671000", "090159.673000", "090159.675000", "090159.678000", "090159.680000", "090159.682000", "090159.685000", "090159.687000", "090239.641000", "090239.644000", "090239.647000", "090239.649000", "090239.651000", "090239.654000", "090239.656000", "090239.659000", "090239.661000", "090239.663000", "090239.666000", "090239.668000", "090239.670000", "090239.672000", "090239.675000", "090239.677000", "090239.680000", "090239.682000", "090239.684000", "090239.687000", "090259.641000", "090259.643000", "090259.646000", "090259.648000", "090259.650000", "090259.653000", "090259.655000", "090259.666000", "090259.668000", "090259.671000", "090339.641000", "090339.644000", "090339.647000", "090339.649000", "090339.652000", "090339.654000", "090339.656000", "090339.659000", "090339.661000", "090339.663000", "090339.666000", "090339.668000", "090339.670000", "090339.673000", "090339.675000", "090339.677000", "090339.680000", "090339.682000", "090339.684000", "090339.687000", "090419.641000", "090419.644000", "090419.646000", "090419.648000", "090419.651000", "090419.653000", "090419.662000", "090419.664000", "090419.667000", "090419.669000", "090419.672000", "090419.675000", "090419.677000", "090419.679000", "090419.682000", "090419.684000", "090419.693000", "090419.695000", "090419.698000", "090419.700000", "090459.641000", "090459.644000", "090459.647000", "090459.649000", "090459.651000", "090459.654000", "090459.656000", "090459.658000", "090459.661000", "090459.663000", "090459.665000", "090459.668000", "090459.670000", "090459.672000", "090459.675000", "090459.677000", "090459.679000", "090459.681000", "090459.684000", "090459.686000", "090507.424000", "090507.427000", "090507.430000", "090507.432000"],
      "InstanceNumber": [1, 2, 3, 4, 5, 6, 7, 8, 9, 10, 11, 12, 13, 14, 15, 16, 17, 18, 19, 20, 21, 22, 23, 24, 25, 26, 27, 28, 29, 30, 31, 32, 33, 34, 35, 36, 37, 38, 39, 40, 41, 42, 43, 44, 45, 46, 47, 48, 49, 50, 51, 52, 53, 54, 55, 56, 57, 58, 59, 60, 61, 62, 63, 64, 65, 66, 67, 68, 69, 70, 71, 72, 73, 74, 75, 76, 77, 78, 79, 80, 81, 82, 83, 84, 85, 86, 87, 88, 89, 90, 91, 92, 93, 94, 95, 96, 97, 98, 99, 100, 101, 102, 103, 104, 105, 106, 107, 108, 109, 110, 111, 112, 113, 114, 115, 116, 117, 118, 119, 120, 121, 122, 123, 124, 125, 126, 127, 128, 129, 130, 131, 132, 133, 134, 135, 136, 137, 138, 139, 140, 141, 142, 143, 144, 145, 146, 147, 148, 149, 150, 151, 152, 153, 154, 155, 156, 157, 158, 159, 160, 161, 162, 163, 164, 165, 166, 167, 168, 169, 170, 171, 172, 173, 174, 175, 176, 177, 178, 179, 180, 181, 182, 183, 184, 185, 186, 187, 188, 189, 190, 191, 192, 193, 194, 195, 196, 197, 198, 199, 200],
      "WindowCenter": [1442.0, 1443.0, 1442.0, 1443.0, 1443.0, 1442.0, 1442.0, 1442.0, 1442.0, 1442.0, 1442.0, 1441.0, 1442.0, 1442.0, 1442.0, 1442.0, 1442.0, 1442.0, 1441.0, 1441.0, 1441.0, 1441.0, 1441.0, 1442.0, 1441.0, 1441.0, 1441.0, 1441.0, 1441.0, 1441.0, 1441.0, 1442.0, 1441.0, 1440.0, 1440.0, 1441.0, 1441.0, 1441.0, 1440.0, 1440.0, 1441.0, 1440.0, 1441.0, 1440.0, 1441.0, 1440.0, 1440.0, 1440.0, 1441.0, 1441.0, 1440.0, 1441.0, 1440.0, 1440.0, 1440.0, 1440.0, 1440.0, 1440.0, 1440.0, 1440.0, 1440.0, 1440.0, 1439.0, 1440.0, 1440.0, 1439.0, 1439.0, 1439.0, 1439.0, 1440.0, 1439.0, 1439.0, 1439.0, 1439.0, 1440.0, 1438.0, 1439.0, 1439.0, 1439.0, 1440.0, 1439.0, 1440.0, 1439.0, 1439.0, 1439.0, 1439.0, 1439.0, 1439.0, 1439.0, 1439.0, 1439.0, 1439.0, 1439.0, 1440.0, 1440.0, 1439.0, 1439.0, 1438.0, 1439.0, 1439.0, 1439.0, 1439.0, 1438.0, 1439.0, 1439.0, 1438.0, 1438.0, 1439.0, 1438.0, 1439.0, 1438.0, 1438.0, 1439.0, 1438.0, 1438.0, 1438.0, 1438.0, 1438.0, 1438.0, 1438.0, 1438.0, 1439.0, 1438.0, 1438.0, 1438.0, 1437.0, 1438.0, 1438.0, 1438.0, 1437.0, 1438.0, 1439.0, 1438.0, 1438.0, 1438.0, 1437.0, 1437.0, 1438.0, 1438.0, 1438.0, 1438.0, 1438.0, 1437.0, 1437.0, 1438.0, 1437.0, 1437.0, 1438.0, 1437.0, 1437.0, 1437.0, 1437.0, 1437.0, 1437.0, 1437.0, 1437.0, 1437.0, 1437.0, 1437.0, 1436.0, 1437.0, 1437.0, 1437.0, 1436.0, 1437.0, 1437.0, 1437.0, 1436.0, 1437.0, 1437.0, 1436.0, 1437.0, 1436.0, 1436.0, 1436.0, 1436.0, 1436.0, 1437.0, 1436.0, 1436.0, 1436.0, 1437.0, 1436.0, 1436.0, 1436.0, 1436.0, 1436.0, 1436.0, 1436.0, 1436.0, 1436.0, 1436.0, 1436.0, 1436.0, 1435.0, 1437.0, 1435.0, 1437.0, 1435.0, 1435.0],
      "WindowWidth": [3377.0, 3377.0, 3378.0, 3377.0, 3377.0, 3378.0, 3377.0, 3377.0, 3377.0, 3377.0, 3377.0, 3378.0, 3377.0, 3377.0, 3377.0, 3377.0, 3377.0, 3377.0, 3378.0, 3378.0, 3377.0, 3377.0, 3377.0, 3377.0, 3377.0, 3377.0, 3377.0, 3377.0, 3377.0, 3377.0, 3377.0, 3377.0, 3377.0, 3377.0, 3377.0, 3376.0, 3376.0, 3376.0, 3377.0, 3377.0, 3376.0, 3376.0, 3376.0, 3376.0, 3376.0, 3376.0, 3376.0, 3376.0, 3376.0, 3376.0, 3377.0, 3376.0, 3376.0, 3376.0, 3376.0, 3376.0, 3376.0, 3376.0, 3376.0, 3376.0, 3376.0, 3376.0, 3376.0, 3376.0, 3376.0, 3376.0, 3376.0, 3376.0, 3376.0, 3376.0, 3376.0, 3376.0, 3376.0, 3376.0, 3375.0, 3376.0, 3376.0, 3376.0, 3376.0, 3376.0, 3376.0, 3375.0, 3376.0, 3376.0, 3376.0, 3375.0, 3375.0, 3375.0, 3375.0, 3375.0, 3376.0, 3375.0, 3376.0, 3375.0, 3375.0, 3376.0, 3376.0, 3376.0, 3376.0, 3376.0, 3375.0, 3375.0, 3375.0, 3375.0, 3375.0, 3375.0, 3375.0, 3375.0, 3375.0, 3375.0, 3375.0, 3375.0, 3374.0, 3375.0, 3375.0, 3375.0, 3375.0, 3374.0, 3375.0, 3374.0, 3375.0, 3374.0, 3375.0, 3375.0, 3375.0, 3375.0, 3375.0, 3375.0, 3375.0, 3375.0, 3374.0, 3374.0, 3374.0, 3374.0, 3374.0, 3375.0, 3375.0, 3374.0, 3374.0, 3374.0, 3374.0, 3374.0, 3374.0, 3374.0, 3374.0, 3374.0, 3375.0, 3374.0, 3375.0, 3374.0, 3374.0, 3374.0, 3374.0, 3374.0, 3374.0, 3374.0, 3374.0, 3374.0, 3374.0, 3374.0, 3374.0, 3374.0, 3374.0, 3374.0, 3373.0, 3373.0, 3374.0, 3374.0, 3373.0, 3374.0, 3374.0, 3373.0, 3374.0, 3374.0, 3374.0, 3374.0, 3374.0, 3373.0, 3374.0, 3374.0, 3374.0, 3373.0, 3373.0, 3373.0, 3373.0, 3373.0, 3373.0, 3373.0, 3373.0, 3373.0, 3373.0, 3373.0, 3373.0, 3373.0, 3373.0, 3373.0, 3373.0, 3373.0, 3373.0, 3373.0]
    },
    "slices": {}
  }
}