{
  "AcquisitionMatrixPE": 80,
  "AcquisitionNumber": 1,
  "AcquisitionTime": "08:51:37.737500",
  "BandwidthPerPixelPhaseEncode": 48.077,
  "BaseResolution": 80,
  "BodyPartExamined": "BRAIN",
  "CoilCombinationMethod": "Sum of Squares",
  "ConsistencyInfo": "N4_VE11E_LATEST_20181129",
  "ConversionSoftware": "dcm2niix",
  "ConversionSoftwareVersion": "v1.0.20220720",
  "DerivedVendorReportedEchoSpacing": 0.000519999,
  "DeviceSerialNumber": "66112",
  "DwellTime": 2.7e-06,
  "EchoTime": 0.035,
  "EchoTrainLength": 39,
  "EffectiveEchoSpacing": 0.00026,
  "FlipAngle": 90,
  "HeudiconvVersion": "0.13.1",
  "ImageOrientationPatientDICOM": [0.984485, 0.175381, 0.00551403, -0.167574, 0.93041, 0.32597],
  "ImageOrientationText": "Tra>Cor(18.8)>Sag(-3.0)",
  "ImageType": [
    "ORIGINAL",
    "PRIMARY",
    "M",
    "ND",
    "NORM",
    "MOSAIC"
],
  "ImagingFrequency": 123.252,
  "InPlanePhaseEncodingDirectionDICOM": "COL",
  "InstitutionAddress": "Maynard 3,Hanover,NH,US,03755",
  "InstitutionName": "Dartmouth College - PBS",
  "InstitutionalDepartmentName": "Department",
  "MRAcquisitionType": "2D",
  "MagneticFieldStrength": 3,
  "Manufacturer": "Siemens",
  "ManufacturersModelName": "Prisma",
  "MatrixCoilMode": "GRAPPA",
  "Modality": "MR",
  "NonlinearGradientCorrection": false,
  "ParallelReductionFactorInPlane": 2,
  "PartialFourier": 1,
  "PatientPosition": "HFS",
  "PercentPhaseFOV": 100,
  "PercentSampling": 100,
  "PhaseEncodingDirection": "j-",
  "PhaseEncodingSteps": 79,
  "PhaseResolution": 1,
  "PixelBandwidth": 2315,
  "ProcedureStepDescription": "dbic^QA",
  "ProtocolName": "func-bold_task-rest_acq-p2",
  "PulseSequenceDetails": "%SiemensSeq%\\ep2d_bold",
  "ReceiveCoilActiveElements": "HC1-7;NC1,2",
  "ReceiveCoilName": "HeadNeck_64",
  "ReconMatrixPE": 80,
  "RefLinesPE": 24,
  "RepetitionTime": 2,
  "SAR": 0.0361048,
  "ScanOptions": "FS",
  "ScanningSequence": "EP",
  "SequenceName": "*epfid2d1_80",
  "SequenceVariant": "SK",
  "SeriesDescription": "func-bold_task-rest_acq-p2",
  "SeriesNumber": 5,
  "ShimSetting": [4139, -7696, -7515, 227, -42, -286, -68, 83],
  "SliceThickness": 3.5,
  "SliceTiming": [0.99, 0, 1.055, 0.065, 1.1225, 0.1325, 1.1875, 0.1975, 1.2525, 0.265, 1.32, 0.33, 1.385, 0.395, 1.4525, 0.4625, 1.5175, 0.5275, 1.5825, 0.595, 1.65, 0.66, 1.715, 0.725, 1.7825, 0.7925, 1.8475, 0.8575, 1.9125, 0.925],
  "SoftwareVersions": "syngo MR E11",
  "SpacingBetweenSlices": 3.99,
  "StationName": "AWP66112",
  "TaskName": "rest",
  "TotalReadoutTime": 0.02054,
  "TxRefAmp": 217.43,
  "dcmmeta_affine": [
    [-2.9534554481506348, -0.5027214288711548, -0.2076343297958374, 147.10243225097656],
    [-0.5261439085006714, 2.7912299633026123, 1.284126877784729, -101.86927032470703],
    [0.016542095690965652, -0.9779090881347656, 3.772002935409546, -27.315153121948242],
    [0.0, 0.0, 0.0, 1.0]
],
  "dcmmeta_reorient_transform": [
    [0.0, -1.0, 0.0, 79.0],
    [1.0, 0.0, 0.0, 0.0],
    [0.0, 0.0, 1.0, 0.0],
    [0.0, 0.0, 0.0, 1.0]
],
  "dcmmeta_shape": [80, 80, 30, 200],
  "dcmmeta_slice_dim": 2,
  "dcmmeta_version": 0.6,
  "global": {
    "const": {
      "AccessionNumber": "qa64",
      "AcquisitionMatrix": [80, 0, 0, 80],
      "AngioFlag": "N",
      "BitsAllocated": 16,
      "BitsStored": 12,
      "BodyPartExamined": "BRAIN",
      "Columns": 480,
      "EchoNumbers": 1,
      "EchoTime": 35.0,
      "EchoTrainLength": 39,
      "FlipAngle": 90.0,
      "HighBit": 11,
      "ImageOrientationPatient": [0.98448513998106, 0.17538131202635, 0.00551403195348, -0.1675738191185, 0.9304100055956, 0.32596968667907],
      "ImagePositionPatient": [-597.53422234827, -782.11269321448, -303.46020093838],
      "ImageType": [
        "ORIGINAL",
        "PRIMARY",
        "M",
        "ND",
        "NORM",
        "MOSAIC"
],
      "ImagedNucleus": "1H",
      "ImagingFrequency": 123.252388,
      "InPlanePhaseEncodingDirection": "COL",
      "LargestImagePixelValue": 4095,
      "MRAcquisitionType": "2D",
      "MagneticFieldStrength": 3.0,
      "Manufacturer": "SIEMENS",
      "ManufacturerModelName": "Prisma",
      "Modality": "MR",
      "NumberOfAverages": 1.0,
      "NumberOfPhaseEncodingSteps": 79,
      "PercentPhaseFieldOfView": 100.0,
      "PercentSampling": 100.0,
      "PerformedProcedureStepStartTime": "084812.108000",
      "PhotometricInterpretation": "MONOCHROME2",
      "PixelBandwidth": 2315.0,
      "PixelRepresentation": 0,
      "PixelSpacing": [3.0, 3.0],
      "ProtocolName": "func-bold_task-rest_acq-p2",
      "RepetitionTime": 2000.0,
      "Rows": 480,
      "SAR": 0.03610479848489,
      "SamplesPerPixel": 1,
      "ScanOptions": "FS",
      "ScanningSequence": "EP",
      "SequenceName": "*epfid2d1_80",
      "SequenceVariant": "SK",
      "SeriesDescription": "func-bold_task-rest_acq-p2",
      "SeriesNumber": 5,
      "SeriesTime": "085219.812000",
      "SliceLocation": -66.263013806469,
      "SliceThickness": 3.5,
      "SmallestImagePixelValue": 0,
      "SoftwareVersions": "syngo MR E11",
      "SpacingBetweenSlices": 3.989999987606,
      "SpecificCharacterSet": "ISO_IR 100",
      "StudyID": "2",
      "StudyTime": "084811.957000",
      "TransmitCoilName": "Body",
      "VariableFlipAngleFlag": "N",
      "WindowCenterWidthExplanation": "Algo1"
    },
    "slices": {}
  },
  "time": {
    "samples": {
      "AcquisitionNumber": [1, 2, 3, 4, 5, 6, 7, 8, 9, 10, 11, 12, 13, 14, 15, 16, 17, 18, 19, 20, 21, 22, 23, 24, 25, 26, 27, 28, 29, 30, 31, 32, 33, 34, 35, 36, 37, 38, 39, 40, 41, 42, 43, 44, 45, 46, 47, 48, 49, 50, 51, 52, 53, 54, 55, 56, 57, 58, 59, 60, 61, 62, 63, 64, 65, 66, 67, 68, 69, 70, 71, 72, 73, 74, 75, 76, 77, 78, 79, 80, 81, 82, 83, 84, 85, 86, 87, 88, 89, 90, 91, 92, 93, 94, 95, 96, 97, 98, 99, 100, 101, 102, 103, 104, 105, 106, 107, 108, 109, 110, 111, 112, 113, 114, 115, 116, 117, 118, 119, 120, 121, 122, 123, 124, 125, 126, 127, 128, 129, 130, 131, 132, 133, 134, 135, 136, 137, 138, 139, 140, 141, 142, 143, 144, 145, 146, 147, 148, 149, 150, 151, 152, 153, 154, 155, 156, 157, 158, 159, 160, 161, 162, 163, 164, 165, 166, 167, 168, 169, 170, 171, 172, 173, 174, 175, 176, 177, 178, 179, 180, 181, 182, 183, 184, 185, 186, 187, 188, 189, 190, 191, 192, 193, 194, 195, 196, 197, 198, 199, 200],
      "AcquisitionTime": ["085137.737500", "085139.737500", "085141.737500", "085143.737500", "085145.737500", "085147.737500", "085149.737500", "085151.737500", "085153.737500", "085155.737500", "085157.737500", "085159.737500", "085201.737500", "085203.737500", "085205.737500", "085207.737500", "085209.737500", "085211.737500", "085213.737500", "085215.737500", "085217.737500", "085219.737500", "085221.737500", "085223.737500", "085225.737500", "085227.737500", "085229.737500", "085231.737500", "085233.737500", "085235.737500", "085237.737500", "085239.737500", "085241.737500", "085243.737500", "085245.737500", "085247.737500", "085249.737500", "085251.737500", "085253.737500", "085255.737500", "085257.737500", "085259.737500", "085301.737500", "085303.737500", "085305.737500", "085307.737500", "085309.737500", "085311.737500", "085313.737500", "085315.737500", "085317.737500", "085319.737500", "085321.737500", "085323.737500", "085325.737500", "085327.737500", "085329.737500", "085331.737500", "085333.737500", "085335.737500", "085337.737500", "085339.737500", "085341.737500", "085343.737500", "085345.737500", "085347.737500", "085349.737500", "085351.737500", "085353.737500", "085355.737500", "085357.737500", "085359.737500", "085401.737500", "085403.737500", "085405.737500", "085407.737500", "085409.737500", "085411.737500", "085413.737500", "085415.737500", "085417.737500", "085419.737500", "085421.737500", "085423.737500", "085425.737500", "085427.737500", "085429.737500", "085431.737500", "085433.737500", "085435.737500", "085437.737500", "085439.737500", "085441.737500", "085443.737500", "085445.737500", "085447.737500", "085449.737500", "085451.737500", "085453.737500", "085455.737500", "085457.737500", "085459.737500", "085501.737500", "085503.737500", "085505.737500", "085507.737500", "085509.737500", "085511.737500", "085513.737500", "085515.737500", "085517.737500", "085519.737500", "085521.737500", "085523.737500", "085525.737500", "085527.737500", "085529.737500", "085531.737500", "085533.737500", "085535.737500", "085537.737500", "085539.737500", "085541.737500", "085543.737500", "085545.737500", "085547.737500", "085549.737500", "085551.737500", "085553.737500", "085555.737500", "085557.737500", "085559.737500", "085601.737500", "085603.737500", "085605.737500", "085607.737500", "085609.737500", "085611.737500", "085613.737500", "085615.737500", "085617.737500", "085619.737500", "085621.737500", "085623.737500", "085625.737500", "085627.737500", "085629.737500", "085631.737500", "085633.737500", "085635.737500", "085637.737500", "085639.737500", "085641.737500", "085643.737500", "085645.737500", "085647.737500", "085649.737500", "085651.737500", "085653.737500", "085655.737500", "085657.737500", "085659.737500", "085701.737500", "085703.737500", "085705.737500", "085707.737500", "085709.737500", "085711.737500", "085713.737500", "085715.737500", "085717.737500", "085719.737500", "085721.737500", "085723.737500", "085725.737500", "085727.737500", "085729.737500", "085731.737500", "085733.737500", "085735.737500", "085737.737500", "085739.737500", "085741.737500", "085743.737500", "085745.737500", "085747.737500", "085749.737500", "085751.737500", "085753.737500", "085755.737500", "085757.737500", "085759.737500", "085801.737500", "085803.737500", "085805.737500", "085807.737500", "085809.737500", "085811.737500", "085813.737500", "085815.737500"],
      "ContentTime": ["085219.816000", "085219.819000", "085219.821000", "085219.824000", "085219.826000", "085219.829000", "085219.831000", "085219.833000", "085219.836000", "085219.838000", "085219.841000", "085219.843000", "085219.853000", "085219.856000", "085219.858000", "085219.861000", "085219.863000", "085219.865000", "085219.868000", "085219.871000", "085219.873000", "085259.811000", "085259.814000", "085259.816000", "085259.819000", "085259.821000", "085259.823000", "085259.826000", "085259.828000", "085259.830000", "085259.833000", "085259.835000", "085259.838000", "085259.840000", "085259.842000", "085259.844000", "085259.851000", "085259.854000", "085259.856000", "085259.858000", "085259.861000", "085319.812000", "085319.814000", "085319.816000", "085319.819000", "085319.821000", "085319.824000", "085319.826000", "085319.828000", "085319.831000", "085319.833000", "085359.810000", "085359.819000", "085359.822000", "085359.824000", "085359.827000", "085359.829000", "085359.831000", "085359.834000", "085359.836000", "085359.839000", "085359.841000", "085359.843000", "085359.847000", "085359.849000", "085359.852000", "085359.854000", "085359.856000", "085359.859000", "085359.861000", "085359.863000", "085439.811000", "085439.814000", "085439.816000", "085439.819000", "085439.821000", "085439.823000", "085439.826000", "085439.828000", "085439.831000", "085439.833000", "085439.835000", "085439.838000", "085439.840000", "085439.842000", "085439.845000", "085439.847000", "085439.850000", "085439.852000", "085439.854000", "085439.857000", "085519.811000", "085519.814000", "085519.816000", "085519.819000", "085519.821000", "085519.823000", "085519.826000", "085519.828000", "085519.830000", "085519.859000", "085519.861000", "085519.863000", "085519.866000", "085519.868000", "085519.871000", "085519.873000", "085519.875000", "085519.878000", "085519.880000", "085519.883000", "085559.810000", "085559.813000", "085559.815000", "085559.818000", "085559.820000", "085559.822000", "085559.825000", "085559.827000", "085559.829000", "085559.832000", "085559.834000", "085559.837000", "085559.839000", "085559.841000", "085559.843000", "085559.846000", "085559.848000", "085559.851000", "085559.860000", "085559.862000", "085639.811000", "085639.814000", "085639.816000", "085639.819000", "085639.821000", "085639.823000", "085639.826000", "085639.828000", "085639.830000", "085639.833000", "085639.835000", "085639.838000", "085639.840000", "085639.842000", "085639.845000", "085639.847000", "085639.850000", "085639.852000", "085639.854000", "085639.857000", "085719.812000", "085719.814000", "085719.816000", "085719.819000", "085719.821000", "085719.824000", "085719.826000", "085719.828000", "085719.831000", "085719.833000", "085719.836000", "085719.838000", "085719.840000", "085719.843000", "085719.845000", "085719.847000", "085719.850000", "085719.852000", "085719.855000", "085719.857000", "085759.811000", "085759.814000", "085759.816000", "085759.819000", "085759.821000", "085759.823000", "085759.826000", "085759.828000", "085759.831000", "085759.833000", "085759.835000", "085759.838000", "085759.840000", "085759.842000", "085759.845000", "085759.847000", "085759.850000", "085759.852000", "085759.854000", "085759.857000", "085817.501000", "085817.507000", "085817.509000", "085817.518000", "085817.521000", "085817.524000", "085817.528000", "085817.534000", "085817.537000"],
      "InstanceCreationTime": ["085219.816000", "085219.819000", "085219.821000", "085219.824000", "085219.826000", "085219.829000", "085219.831000", "085219.833000", "085219.836000", "085219.838000", "085219.841000", "085219.843000", "085219.853000", "085219.856000", "085219.858000", "085219.861000", "085219.863000", "085219.865000", "085219.868000", "085219.871000", "085219.873000", "085259.811000", "085259.814000", "085259.816000", "085259.819000", "085259.821000", "085259.823000", "085259.826000", "085259.828000", "085259.830000", "085259.833000", "085259.835000", "085259.838000", "085259.840000", "085259.842000", "085259.844000", "085259.851000", "085259.854000", "085259.856000", "085259.858000", "085259.861000", "085319.812000", "085319.814000", "085319.816000", "085319.819000", "085319.821000", "085319.824000", "085319.826000", "085319.828000", "085319.831000", "085319.833000", "085359.810000", "085359.819000", "085359.822000", "085359.824000", "085359.827000", "085359.829000", "085359.831000", "085359.834000", "085359.836000", "085359.839000", "085359.841000", "085359.843000", "085359.847000", "085359.849000", "085359.852000", "085359.854000", "085359.856000", "085359.859000", "085359.861000", "085359.863000", "085439.811000", "085439.814000", "085439.816000", "085439.819000", "085439.821000", "085439.823000", "085439.826000", "085439.828000", "085439.831000", "085439.833000", "085439.835000", "085439.838000", "085439.840000", "085439.842000", "085439.845000", "085439.847000", "085439.850000", "085439.852000", "085439.854000", "085439.857000", "085519.811000", "085519.814000", "085519.816000", "085519.819000", "085519.821000", "085519.823000", "085519.826000", "085519.828000", "085519.830000", "085519.859000", "085519.861000", "085519.863000", "085519.866000", "085519.868000", "085519.871000", "085519.873000", "085519.875000", "085519.878000", "085519.880000", "085519.883000", "085559.810000", "085559.813000", "085559.815000", "085559.818000", "085559.820000", "085559.822000", "085559.825000", "085559.827000", "085559.829000", "085559.832000", "085559.834000", "085559.837000", "085559.839000", "085559.841000", "085559.843000", "085559.846000", "085559.848000", "085559.851000", "085559.860000", "085559.862000", "085639.811000", "085639.814000", "085639.816000", "085639.819000", "085639.821000", "085639.823000", "085639.826000", "085639.828000", "085639.830000", "085639.833000", "085639.835000", "085639.838000", "085639.840000", "085639.842000", "085639.845000", "085639.847000", "085639.850000", "085639.852000", "085639.854000", "085639.857000", "085719.812000", "085719.814000", "085719.816000", "085719.819000", "085719.821000", "085719.824000", "085719.826000", "085719.828000", "085719.831000", "085719.833000", "085719.836000", "085719.838000", "085719.840000", "085719.843000", "085719.845000", "085719.847000", "085719.850000", "085719.852000", "085719.855000", "085719.857000", "085759.811000", "085759.814000", "085759.816000", "085759.819000", "085759.821000", "085759.823000", "085759.826000", "085759.828000", "085759.831000", "085759.833000", "085759.835000", "085759.838000", "085759.840000", "085759.842000", "085759.845000", "085759.847000", "085759.850000", "085759.852000", "085759.854000", "085759.857000", "085817.501000", "085817.507000", "085817.509000", "085817.518000", "085817.521000", "085817.524000", "085817.528000", "085817.534000", "085817.537000"],
      "InstanceNumber": [1, 2, 3, 4, 5, 6, 7, 8, 9, 10, 11, 12, 13, 14, 15, 16, 17, 18, 19, 20, 21, 22, 23, 24, 25, 26, 27, 28, 29, 30, 31, 32, 33, 34, 35, 36, 37, 38, 39, 40, 41, 42, 43, 44, 45, 46, 47, 48, 49, 50, 51, 52, 53, 54, 55, 56, 57, 58, 59, 60, 61, 62, 63, 64, 65, 66, 67, 68, 69, 70, 71, 72, 73, 74, 75, 76, 77, 78, 79, 80, 81, 82, 83, 84, 85, 86, 87, 88, 89, 90, 91, 92, 93, 94, 95, 96, 97, 98, 99, 100, 101, 102, 103, 104, 105, 106, 107, 108, 109, 110, 111, 112, 113, 114, 115, 116, 117, 118, 119, 120, 121, 122, 123, 124, 125, 126, 127, 128, 129, 130, 131, 132, 133, 134, 135, 136, 137, 138, 139, 140, 141, 142, 143, 144, 145, 146, 147, 148, 149, 150, 151, 152, 153, 154, 155, 156, 157, 158, 159, 160, 161, 162, 163, 164, 165, 166, 167, 168, 169, 170, 171, 172, 173, 174, 175, 176, 177, 178, 179, 180, 181, 182, 183, 184, 185, 186, 187, 188, 189, 190, 191, 192, 193, 194, 195, 196, 197, 198, 199, 200],
      "WindowCenter": [1549.0, 1547.0, 1547.0, 1546.0, 1547.0, 1546.0, 1547.0, 1546.0, 1546.0, 1545.0, 1545.0, 1546.0, 1546.0, 1546.0, 1545.0, 1544.0, 1545.0, 1545.0, 1544.0, 1544.0, 1544.0, 1543.0, 1543.0, 1544.0, 1543.0, 1542.0, 1542.0, 1542.0, 1543.0, 1542.0, 1542.0, 1542.0, 1542.0, 1542.0, 1542.0, 1541.0, 1542.0, 1541.0, 1541.0, 1542.0, 1541.0, 1541.0, 1540.0, 1541.0, 1540.0, 1540.0, 1540.0, 1540.0, 1540.0, 1540.0, 1539.0, 1539.0, 1540.0, 1539.0, 1540.0, 1539.0, 1539.0, 1539.0, 1539.0, 1539.0, 1538.0, 1539.0, 1538.0, 1539.0, 1539.0, 1539.0, 1538.0, 1538.0, 1538.0, 1538.0, 1538.0, 1537.0, 1538.0, 1538.0, 1538.0, 1537.0, 1538.0, 1538.0, 1537.0, 1537.0, 1536.0, 1537.0, 1537.0, 1538.0, 1537.0, 1537.0, 1537.0, 1537.0, 1537.0, 1537.0, 1537.0, 1536.0, 1536.0, 1536.0, 1536.0, 1536.0, 1537.0, 1536.0, 1536.0, 1536.0, 1536.0, 1536.0, 1536.0, 1536.0, 1536.0, 1535.0, 1535.0, 1535.0, 1535.0, 1535.0, 1535.0, 1535.0, 1535.0, 1535.0, 1535.0, 1535.0, 1535.0, 1534.0, 1534.0, 1535.0, 1535.0, 1535.0, 1535.0, 1535.0, 1534.0, 1535.0, 1534.0, 1534.0, 1534.0, 1534.0, 1535.0, 1534.0, 1534.0, 1534.0, 1534.0, 1534.0, 1534.0, 1534.0, 1534.0, 1534.0, 1534.0, 1533.0, 1534.0, 1534.0, 1534.0, 1534.0, 1533.0, 1534.0, 1534.0, 1534.0, 1534.0, 1533.0, 1534.0, 1534.0, 1534.0, 1534.0, 1534.0, 1534.0, 1534.0, 1534.0, 1534.0, 1533.0, 1533.0, 1533.0, 1532.0, 1534.0, 1532.0, 1533.0, 1533.0, 1533.0, 1533.0, 1533.0, 1533.0, 1533.0, 1532.0, 1532.0, 1533.0, 1533.0, 1533.0, 1532.0, 1532.0, 1532.0, 1532.0, 1532.0, 1532.0, 1532.0, 1532.0, 1532.0, 1532.0, 1532.0, 1532.0, 1532.0, 1533.0, 1532.0, 1532.0, 1532.0, 1532.0, 1533.0, 1532.0, 1533.0],
      "WindowWidth": [3437.0, 3437.0, 3436.0, 3436.0, 3436.0, 3436.0, 3435.0, 3435.0, 3435.0, 3435.0, 3435.0, 3435.0, 3435.0, 3434.0, 3434.0, 3434.0, 3434.0, 3434.0, 3434.0, 3434.0, 3433.0, 3433.0, 3433.0, 3433.0, 3433.0, 3433.0, 3433.0, 3433.0, 3433.0, 3433.0, 3433.0, 3432.0, 3432.0, 3432.0, 3432.0, 3432.0, 3432.0, 3432.0, 3432.0, 3431.0, 3431.0, 3431.0, 3431.0, 3432.0, 3432.0, 3431.0, 3431.0, 3431.0, 3431.0, 3431.0, 3431.0, 3431.0, 3431.0, 3431.0, 3430.0, 3431.0, 3431.0, 3431.0, 3431.0, 3430.0, 3431.0, 3430.0, 3430.0, 3430.0, 3430.0, 3430.0, 3430.0, 3430.0, 3430.0, 3430.0, 3430.0, 3430.0, 3429.0, 3429.0, 3429.0, 3430.0, 3429.0, 3429.0, 3429.0, 3430.0, 3430.0, 3429.0, 3429.0, 3429.0, 3429.0, 3429.0, 3429.0, 3429.0, 3429.0, 3429.0, 3429.0, 3429.0, 3429.0, 3429.0, 3429.0, 3429.0, 3428.0, 3428.0, 3428.0, 3428.0, 3428.0, 3428.0, 3428.0, 3428.0, 3428.0, 3428.0, 3428.0, 3428.0, 3428.0, 3428.0, 3428.0, 3428.0, 3428.0, 3428.0, 3427.0, 3427.0, 3427.0, 3428.0, 3428.0, 3427.0, 3427.0, 3427.0, 3427.0, 3427.0, 3427.0, 3427.0, 3427.0, 3427.0, 3427.0, 3427.0, 3427.0, 3427.0, 3427.0, 3427.0, 3427.0, 3427.0, 3427.0, 3427.0, 3427.0, 3427.0, 3427.0, 3427.0, 3427.0, 3427.0, 3427.0, 3427.0, 3427.0, 3427.0, 3427.0, 3427.0, 3427.0, 3427.0, 3427.0, 3427.0, 3427.0, 3427.0, 3427.0, 3427.0, 3426.0, 3427.0, 3427.0, 3427.0, 3427.0, 3427.0, 3427.0, 3427.0, 3427.0, 3427.0, 3427.0, 3427.0, 3427.0, 3427.0, 3427.0, 3427.0, 3427.0, 3427.0, 3427.0, 3427.0, 3426.0, 3426.0, 3427.0, 3427.0, 3427.0, 3427.0, 3427.0, 3427.0, 3427.0, 3427.0, 3427.0, 3427.0, 3427.0, 3427.0, 3426.0, 3426.0, 3427.0, 3427.0, 3426.0, 3426.0, 3427.0, 3426.0]
    },
    "slices": {}
  }
}