{
  "AcquisitionMatrixPE": 80,
  "AcquisitionNumber": 1,
  "AcquisitionTime": "09:05:14.495000",
  "BandwidthPerPixelPhaseEncode": 25,
  "BaseResolution": 80,
  "BodyPartExamined": "BRAIN",
  "CoilCombinationMethod": "Sum of Squares",
  "ConsistencyInfo": "N4_VE11E_LATEST_20181129",
  "ConversionSoftware": "dcm2niix",
  "ConversionSoftwareVersion": "v1.0.20220720",
  "DerivedVendorReportedEchoSpacing": 0.0005,
  "DeviceSerialNumber": "66112",
  "DwellTime": 2.7e-06,
  "EchoTime": 0.03,
  "EchoTrainLength": 80,
  "EffectiveEchoSpacing": 0.0005,
  "FlipAngle": 10,
  "HeudiconvVersion": "0.13.1",
  "ImageOrientationPatientDICOM": [0.984485, 0.175381, 0.00551403, -0.167574, 0.93041, 0.32597],
  "ImageOrientationText": "Tra>Cor(18.8)>Sag(-3.0)",
  "ImageType": [
    "ORIGINAL",
    "PRIMARY",
    "M",
    "ND",
    "NORM",
    "MOSAIC"
],
  "ImagingFrequency": 123.252,
  "InPlanePhaseEncodingDirectionDICOM": "COL",
  "InstitutionAddress": "Maynard 3,Hanover,NH,US,03755",
  "InstitutionName": "Dartmouth College - PBS",
  "InstitutionalDepartmentName": "Department",
  "MRAcquisitionType": "2D",
  "MagneticFieldStrength": 3,
  "Manufacturer": "Siemens",
  "ManufacturersModelName": "Prisma",
  "MatrixCoilMode": "SENSE",
  "Modality": "MR",
  "NonlinearGradientCorrection": false,
  "PartialFourier": 1,
  "PatientPosition": "HFS",
  "PercentPhaseFOV": 100,
  "PercentSampling": 100,
  "PhaseEncodingDirection": "j-",
  "PhaseEncodingSteps": 80,
  "PhaseResolution": 1,
  "PixelBandwidth": 2315,
  "ProcedureStepDescription": "dbic^QA",
  "ProtocolName": "func-bold_fa-10",
  "PulseSequenceDetails": "%SiemensSeq%\\ep2d_bold",
  "ReceiveCoilActiveElements": "HC1-7;NC1,2",
  "ReceiveCoilName": "HeadNeck_64",
  "ReconMatrixPE": 80,
  "RepetitionTime": 2,
  "SAR": 0.00761102,
  "ScanOptions": "FS",
  "ScanningSequence": "EP",
  "SequenceName": "*epfid2d1_80",
  "SequenceVariant": "SK",
  "SeriesDescription": "func-bold_fa-10",
  "SeriesNumber": 9,
  "ShimSetting": [4139, -7696, -7515, 228, -37, -284, -66, 80],
  "SliceThickness": 3.5,
  "SliceTiming": [0.99, 0, 1.055, 0.065, 1.1225, 0.1325, 1.1875, 0.1975, 1.2525, 0.2625, 1.32, 0.33, 1.385, 0.395, 1.45, 0.4625, 1.5175, 0.5275, 1.5825, 0.5925, 1.65, 0.66, 1.715, 0.725, 1.78, 0.7925, 1.8475, 0.8575, 1.9125, 0.9225],
  "SoftwareVersions": "syngo MR E11",
  "SpacingBetweenSlices": 3.99,
  "StationName": "AWP66112",
  "TotalReadoutTime": 0.0395,
  "TxRefAmp": 217.43,
  "dcmmeta_affine": [
    [-2.9534554481506348, -0.5027214288711548, -0.2076343297958374, 144.7976837158203],
    [-0.5261439085006714, 2.7912299633026123, 1.284126877784729, -99.77804565429688],
    [0.016542095690965652, -0.9779090881347656, 3.772002935409546, -24.09332847595215],
    [0.0, 0.0, 0.0, 1.0]
],
  "dcmmeta_reorient_transform": [
    [0.0, -1.0, 0.0, 79.0],
    [1.0, 0.0, 0.0, 0.0],
    [0.0, 0.0, 1.0, 0.0],
    [0.0, 0.0, 0.0, 1.0]
],
  "dcmmeta_shape": [80, 80, 30, 200],
  "dcmmeta_slice_dim": 2,
  "dcmmeta_version": 0.6,
  "global": {
    "const": {
      "AccessionNumber": "qa64",
      "AcquisitionMatrix": [80, 0, 0, 80],
      "AngioFlag": "N",
      "BitsAllocated": 16,
      "BitsStored": 12,
      "BodyPartExamined": "BRAIN",
      "Columns": 480,
      "EchoNumbers": 1,
      "EchoTime": 30.0,
      "EchoTrainLength": 80,
      "FlipAngle": 10.0,
      "HighBit": 11,
      "ImageOrientationPatient": [0.98448513998106, 0.17538131202635, 0.00551403195348, -0.1675738191185, 0.9304100055956, 0.32596968667907],
      "ImagePositionPatient": [-595.22947858149, -784.20391311651, -300.23837629239],
      "ImageType": [
        "ORIGINAL",
        "PRIMARY",
        "M",
        "ND",
        "NORM",
        "MOSAIC"
],
      "ImagedNucleus": "1H",
      "ImagingFrequency": 123.252385,
      "InPlanePhaseEncodingDirection": "COL",
      "MRAcquisitionType": "2D",
      "MagneticFieldStrength": 3.0,
      "Manufacturer": "SIEMENS",
      "ManufacturerModelName": "Prisma",
      "Modality": "MR",
      "NumberOfAverages": 1.0,
      "NumberOfPhaseEncodingSteps": 80,
      "PercentPhaseFieldOfView": 100.0,
      "PercentSampling": 100.0,
      "PerformedProcedureStepStartTime": "084812.108000",
      "PhotometricInterpretation": "MONOCHROME2",
      "PixelBandwidth": 2315.0,
      "PixelRepresentation": 0,
      "PixelSpacing": [3.0, 3.0],
      "ProtocolName": "func-bold_fa-10",
      "RepetitionTime": 2000.0,
      "Rows": 480,
      "SAR": 0.00761101884678,
      "SamplesPerPixel": 1,
      "ScanOptions": "FS",
      "ScanningSequence": "EP",
      "SequenceName": "*epfid2d1_80",
      "SequenceVariant": "SK",
      "SeriesDescription": "func-bold_fa-10",
      "SeriesNumber": 9,
      "SeriesTime": "090559.727000",
      "SliceLocation": -62.424249975131,
      "SliceThickness": 3.5,
      "SmallestImagePixelValue": 0,
      "SoftwareVersions": "syngo MR E11",
      "SpacingBetweenSlices": 3.9899999761666,
      "SpecificCharacterSet": "ISO_IR 100",
      "StudyID": "2",
      "StudyTime": "084811.957000",
      "TransmitCoilName": "Body",
      "VariableFlipAngleFlag": "N",
      "WindowCenterWidthExplanation": "Algo1"
    },
    "slices": {}
  },
  "time": {
    "samples": {
      "AcquisitionNumber": [1, 2, 3, 4, 5, 6, 7, 8, 9, 10, 11, 12, 13, 14, 15, 16, 17, 18, 19, 20, 21, 22, 23, 24, 25, 26, 27, 28, 29, 30, 31, 32, 33, 34, 35, 36, 37, 38, 39, 40, 41, 42, 43, 44, 45, 46, 47, 48, 49, 50, 51, 52, 53, 54, 55, 56, 57, 58, 59, 60, 61, 62, 63, 64, 65, 66, 67, 68, 69, 70, 71, 72, 73, 74, 75, 76, 77, 78, 79, 80, 81, 82, 83, 84, 85, 86, 87, 88, 89, 90, 91, 92, 93, 94, 95, 96, 97, 98, 99, 100, 101, 102, 103, 104, 105, 106, 107, 108, 109, 110, 111, 112, 113, 114, 115, 116, 117, 118, 119, 120, 121, 122, 123, 124, 125, 126, 127, 128, 129, 130, 131, 132, 133, 134, 135, 136, 137, 138, 139, 140, 141, 142, 143, 144, 145, 146, 147, 148, 149, 150, 151, 152, 153, 154, 155, 156, 157, 158, 159, 160, 161, 162, 163, 164, 165, 166, 167, 168, 169, 170, 171, 172, 173, 174, 175, 176, 177, 178, 179, 180, 181, 182, 183, 184, 185, 186, 187, 188, 189, 190, 191, 192, 193, 194, 195, 196, 197, 198, 199, 200],
      "AcquisitionTime": ["090514.495000", "090516.495000", "090518.495000", "090520.495000", "090522.495000", "090524.495000", "090526.495000", "090528.495000", "090530.495000", "090532.495000", "090534.495000", "090536.495000", "090538.495000", "090540.495000", "090542.495000", "090544.495000", "090546.495000", "090548.495000", "090550.495000", "090552.495000", "090554.495000", "090556.495000", "090558.495000", "090600.495000", "090602.495000", "090604.495000", "090606.495000", "090608.495000", "090610.495000", "090612.495000", "090614.495000", "090616.495000", "090618.495000", "090620.495000", "090622.495000", "090624.495000", "090626.495000", "090628.495000", "090630.495000", "090632.495000", "090634.495000", "090636.495000", "090638.495000", "090640.495000", "090642.495000", "090644.495000", "090646.495000", "090648.495000", "090650.495000", "090652.495000", "090654.495000", "090656.495000", "090658.495000", "090700.495000", "090702.495000", "090704.495000", "090706.495000", "090708.495000", "090710.495000", "090712.495000", "090714.495000", "090716.495000", "090718.495000", "090720.495000", "090722.495000", "090724.495000", "090726.495000", "090728.495000", "090730.495000", "090732.495000", "090734.495000", "090736.495000", "090738.495000", "090740.495000", "090742.495000", "090744.495000", "090746.495000", "090748.495000", "090750.495000", "090752.495000", "090754.495000", "090756.495000", "090758.495000", "090800.495000", "090802.495000", "090804.495000", "090806.495000", "090808.495000", "090810.495000", "090812.495000", "090814.495000", "090816.495000", "090818.495000", "090820.495000", "090822.495000", "090824.495000", "090826.495000", "090828.495000", "090830.495000", "090832.495000", "090834.495000", "090836.495000", "090838.495000", "090840.495000", "090842.495000", "090844.495000", "090846.495000", "090848.495000", "090850.495000", "090852.495000", "090854.495000", "090856.495000", "090858.495000", "090900.495000", "090902.495000", "090904.495000", "090906.495000", "090908.495000", "090910.495000", "090912.495000", "090914.495000", "090916.495000", "090918.495000", "090920.495000", "090922.495000", "090924.495000", "090926.495000", "090928.495000", "090930.495000", "090932.495000", "090934.495000", "090936.495000", "090938.495000", "090940.495000", "090942.495000", "090944.495000", "090946.495000", "090948.495000", "090950.495000", "090952.495000", "090954.495000", "090956.495000", "090958.495000", "091000.495000", "091002.495000", "091004.495000", "091006.495000", "091008.495000", "091010.495000", "091012.495000", "091014.495000", "091016.495000", "091018.495000", "091020.495000", "091022.495000", "091024.495000", "091026.495000", "091028.495000", "091030.495000", "091032.495000", "091034.495000", "091036.495000", "091038.495000", "091040.495000", "091042.495000", "091044.495000", "091046.495000", "091048.495000", "091050.495000", "091052.495000", "091054.495000", "091056.495000", "091058.495000", "091100.495000", "091102.495000", "091104.495000", "091106.495000", "091108.495000", "091110.495000", "091112.495000", "091114.495000", "091116.495000", "091118.495000", "091120.495000", "091122.495000", "091124.495000", "091126.495000", "091128.495000", "091130.495000", "091132.495000", "091134.495000", "091136.495000", "091138.495000", "091140.495000", "091142.495000", "091144.495000", "091146.495000", "091148.495000", "091150.495000", "091152.495000"],
      "ContentTime": ["090559.731000", "090559.734000", "090559.736000", "090559.744000", "090559.747000", "090559.749000", "090559.751000", "090559.754000", "090559.756000", "090559.758000", "090559.761000", "090559.763000", "090559.765000", "090559.768000", "090559.770000", "090559.772000", "090559.774000", "090559.777000", "090559.779000", "090559.781000", "090559.784000", "090559.786000", "090639.726000", "090639.729000", "090639.731000", "090639.733000", "090639.736000", "090639.738000", "090639.740000", "090639.742000", "090639.745000", "090639.747000", "090639.750000", "090639.752000", "090639.754000", "090639.756000", "090639.759000", "090639.761000", "090639.763000", "090639.766000", "090639.768000", "090639.770000", "090719.726000", "090719.729000", "090719.731000", "090719.734000", "090719.736000", "090719.738000", "090719.741000", "090719.743000", "090719.745000", "090719.754000", "090719.756000", "090719.758000", "090719.761000", "090719.763000", "090719.765000", "090719.768000", "090719.770000", "090719.772000", "090719.775000", "090719.777000", "090759.726000", "090759.729000", "090759.731000", "090759.734000", "090759.736000", "090759.738000", "090759.741000", "090759.743000", "090759.745000", "090759.748000", "090759.750000", "090759.753000", "090759.755000", "090759.757000", "090759.759000", "090759.762000", "090759.764000", "090759.766000", "090759.769000", "090759.771000", "090839.726000", "090839.729000", "090839.731000", "090839.734000", "090839.736000", "090839.738000", "090839.740000", "090839.743000", "090839.745000", "090839.747000", "090839.750000", "090839.752000", "090839.754000", "090839.757000", "090839.759000", "090839.761000", "090839.763000", "090839.766000", "090839.768000", "090839.770000", "090919.726000", "090919.729000", "090919.731000", "090919.733000", "090919.736000", "090919.738000", "090919.740000", "090919.743000", "090919.745000", "090919.747000", "090919.750000", "090919.752000", "090919.754000", "090919.756000", "090919.759000", "090919.761000", "090919.764000", "090919.766000", "090919.768000", "090919.771000", "090959.725000", "090959.728000", "090959.730000", "090959.732000", "090959.735000", "090959.737000", "090959.739000", "090959.741000", "090959.744000", "090959.746000", "090959.748000", "090959.751000", "090959.753000", "090959.755000", "090959.757000", "090959.760000", "090959.762000", "090959.764000", "090959.767000", "090959.769000", "091039.728000", "091039.730000", "091039.733000", "091039.735000", "091039.738000", "091039.740000", "091039.742000", "091039.745000", "091039.747000", "091039.749000", "091039.751000", "091039.754000", "091039.756000", "091039.758000", "091039.761000", "091039.763000", "091039.765000", "091039.768000", "091039.770000", "091039.772000", "091119.726000", "091119.729000", "091119.731000", "091119.733000", "091119.736000", "091119.738000", "091119.740000", "091119.742000", "091119.745000", "091119.747000", "091119.749000", "091119.752000", "091119.754000", "091119.756000", "091119.759000", "091119.761000", "091119.763000", "091119.766000", "091119.768000", "091119.770000", "091153.903000", "091153.906000", "091153.908000", "091153.911000", "091153.913000", "091153.915000", "091153.918000", "091153.920000", "091153.922000", "091153.925000", "091153.927000", "091153.930000", "091153.932000", "091153.937000", "091153.940000", "091153.943000", "091153.946000", "091153.948000"],
      "InstanceCreationTime": ["090559.731000", "090559.734000", "090559.736000", "090559.744000", "090559.747000", "090559.749000", "090559.751000", "090559.754000", "090559.756000", "090559.758000", "090559.761000", "090559.763000", "090559.765000", "090559.768000", "090559.770000", "090559.772000", "090559.774000", "090559.777000", "090559.779000", "090559.781000", "090559.784000", "090559.786000", "090639.726000", "090639.729000", "090639.731000", "090639.733000", "090639.736000", "090639.738000", "090639.740000", "090639.742000", "090639.745000", "090639.747000", "090639.750000", "090639.752000", "090639.754000", "090639.756000", "090639.759000", "090639.761000", "090639.763000", "090639.766000", "090639.768000", "090639.770000", "090719.726000", "090719.729000", "090719.731000", "090719.734000", "090719.736000", "090719.738000", "090719.741000", "090719.743000", "090719.745000", "090719.754000", "090719.756000", "090719.758000", "090719.761000", "090719.763000", "090719.765000", "090719.768000", "090719.770000", "090719.772000", "090719.775000", "090719.777000", "090759.726000", "090759.729000", "090759.731000", "090759.734000", "090759.736000", "090759.738000", "090759.741000", "090759.743000", "090759.745000", "090759.748000", "090759.750000", "090759.753000", "090759.755000", "090759.757000", "090759.759000", "090759.762000", "090759.764000", "090759.766000", "090759.769000", "090759.771000", "090839.726000", "090839.729000", "090839.731000", "090839.734000", "090839.736000", "090839.738000", "090839.740000", "090839.743000", "090839.745000", "090839.747000", "090839.750000", "090839.752000", "090839.754000", "090839.757000", "090839.759000", "090839.761000", "090839.763000", "090839.766000", "090839.768000", "090839.770000", "090919.726000", "090919.729000", "090919.731000", "090919.733000", "090919.736000", "090919.738000", "090919.740000", "090919.743000", "090919.745000", "090919.747000", "090919.750000", "090919.752000", "090919.754000", "090919.756000", "090919.759000", "090919.761000", "090919.764000", "090919.766000", "090919.768000", "090919.771000", "090959.725000", "090959.728000", "090959.730000", "090959.732000", "090959.735000", "090959.737000", "090959.739000", "090959.741000", "090959.744000", "090959.746000", "090959.748000", "090959.751000", "090959.753000", "090959.755000", "090959.757000", "090959.760000", "090959.762000", "090959.764000", "090959.767000", "090959.769000", "091039.728000", "091039.730000", "091039.733000", "091039.735000", "091039.738000", "091039.740000", "091039.742000", "091039.745000", "091039.747000", "091039.749000", "091039.751000", "091039.754000", "091039.756000", "091039.758000", "091039.761000", "091039.763000", "091039.765000", "091039.768000", "091039.770000", "091039.772000", "091119.726000", "091119.729000", "091119.731000", "091119.733000", "091119.736000", "091119.738000", "091119.740000", "091119.742000", "091119.745000", "091119.747000", "091119.749000", "091119.752000", "091119.754000", "091119.756000", "091119.759000", "091119.761000", "091119.763000", "091119.766000", "091119.768000", "091119.770000", "091153.903000", "091153.906000", "091153.908000", "091153.911000", "091153.913000", "091153.915000", "091153.918000", "091153.920000", "091153.922000", "091153.925000", "091153.927000", "091153.930000", "091153.932000", "091153.937000", "091153.940000", "091153.943000", "091153.946000", "091153.948000"],
      "InstanceNumber": [1, 2, 3, 4, 5, 6, 7, 8, 9, 10, 11, 12, 13, 14, 15, 16, 17, 18, 19, 20, 21, 22, 23, 24, 25, 26, 27, 28, 29, 30, 31, 32, 33, 34, 35, 36, 37, 38, 39, 40, 41, 42, 43, 44, 45, 46, 47, 48, 49, 50, 51, 52, 53, 54, 55, 56, 57, 58, 59, 60, 61, 62, 63, 64, 65, 66, 67, 68, 69, 70, 71, 72, 73, 74, 75, 76, 77, 78, 79, 80, 81, 82, 83, 84, 85, 86, 87, 88, 89, 90, 91, 92, 93, 94, 95, 96, 97, 98, 99, 100, 101, 102, 103, 104, 105, 106, 107, 108, 109, 110, 111, 112, 113, 114, 115, 116, 117, 118, 119, 120, 121, 122, 123, 124, 125, 126, 127, 128, 129, 130, 131, 132, 133, 134, 135, 136, 137, 138, 139, 140, 141, 142, 143, 144, 145, 146, 147, 148, 149, 150, 151, 152, 153, 154, 155, 156, 157, 158, 159, 160, 161, 162, 163, 164, 165, 166, 167, 168, 169, 170, 171, 172, 173, 174, 175, 176, 177, 178, 179, 180, 181, 182, 183, 184, 185, 186, 187, 188, 189, 190, 191, 192, 193, 194, 195, 196, 197, 198, 199, 200],
      "LargestImagePixelValue": [708, 708, 708, 708, 709, 708, 710, 707, 709, 709, 709, 711, 706, 709, 707, 708, 710, 716, 709, 711, 710, 704, 710, 708, 708, 706, 708, 710, 709, 709, 710, 707, 707, 705, 708, 708, 708, 708, 708, 704, 708, 707, 710, 707, 710, 707, 706, 706, 707, 707, 711, 708, 708, 707, 708, 707, 708, 710, 707, 707, 707, 709, 707, 711, 710, 707, 704, 704, 709, 708, 707, 707, 705, 708, 707, 709, 708, 707, 707, 708, 706, 706, 707, 708, 704, 706, 706, 706, 705, 708, 708, 706, 708, 706, 706, 704, 707, 706, 705, 707, 708, 708, 708, 703, 708, 704, 707, 708, 707, 709, 705, 704, 707, 707, 706, 707, 708, 708, 704, 706, 708, 707, 706, 706, 705, 706, 707, 711, 706, 706, 705, 704, 708, 707, 707, 705, 705, 707, 705, 709, 705, 704, 709, 709, 707, 707, 708, 708, 707, 705, 705, 705, 706, 704, 706, 707, 705, 705, 707, 704, 706, 708, 705, 705, 706, 707, 707, 706, 706, 706, 704, 706, 707, 709, 708, 709, 707, 707, 704, 705, 706, 708, 704, 704, 703, 705, 707, 706, 705, 706, 706, 705, 705, 702, 703, 703, 706, 704, 705, 706],
      "WindowCenter": [467.0, 467.0, 468.0, 468.0, 468.0, 467.0, 468.0, 467.0, 467.0, 468.0, 468.0, 468.0, 467.0, 467.0, 467.0, 467.0, 469.0, 468.0, 467.0, 468.0, 468.0, 467.0, 468.0, 467.0, 467.0, 467.0, 467.0, 468.0, 467.0, 467.0, 468.0, 467.0, 467.0, 467.0, 467.0, 467.0, 467.0, 467.0, 467.0, 467.0, 467.0, 467.0, 468.0, 467.0, 468.0, 467.0, 467.0, 467.0, 467.0, 467.0, 468.0, 467.0, 467.0, 467.0, 467.0, 467.0, 467.0, 468.0, 467.0, 467.0, 467.0, 467.0, 467.0, 468.0, 468.0, 467.0, 467.0, 467.0, 467.0, 467.0, 467.0, 467.0, 467.0, 467.0, 467.0, 467.0, 467.0, 467.0, 467.0, 467.0, 467.0, 467.0, 467.0, 467.0, 467.0, 467.0, 467.0, 467.0, 467.0, 467.0, 467.0, 467.0, 467.0, 467.0, 467.0, 467.0, 467.0, 467.0, 467.0, 467.0, 467.0, 467.0, 467.0, 467.0, 467.0, 467.0, 467.0, 467.0, 467.0, 467.0, 467.0, 467.0, 467.0, 467.0, 467.0, 467.0, 467.0, 467.0, 467.0, 467.0, 467.0, 467.0, 467.0, 467.0, 467.0, 467.0, 467.0, 468.0, 467.0, 467.0, 467.0, 467.0, 467.0, 467.0, 467.0, 467.0, 467.0, 467.0, 467.0, 467.0, 467.0, 467.0, 467.0, 467.0, 467.0, 467.0, 467.0, 467.0, 467.0, 467.0, 467.0, 467.0, 467.0, 467.0, 467.0, 467.0, 467.0, 467.0, 467.0, 467.0, 467.0, 467.0, 467.0, 467.0, 467.0, 467.0, 467.0, 467.0, 467.0, 467.0, 467.0, 467.0, 467.0, 467.0, 467.0, 467.0, 467.0, 467.0, 467.0, 467.0, 467.0, 466.0, 466.0, 467.0, 467.0, 467.0, 466.0, 467.0, 467.0, 467.0, 467.0, 467.0, 467.0, 466.0, 467.0, 466.0, 467.0, 467.0, 467.0, 467.0],
      "WindowWidth": [969.0, 969.0, 969.0, 969.0, 969.0, 969.0, 970.0, 969.0, 969.0, 969.0, 969.0, 970.0, 969.0, 969.0, 969.0, 969.0, 970.0, 970.0, 969.0, 970.0, 970.0, 969.0, 970.0, 969.0, 969.0, 969.0, 969.0, 969.0, 969.0, 969.0, 970.0, 969.0, 969.0, 969.0, 969.0, 969.0, 969.0, 969.0, 969.0, 969.0, 969.0, 969.0, 969.0, 969.0, 969.0, 968.0, 969.0, 969.0, 969.0, 969.0, 969.0, 969.0, 969.0, 968.0, 969.0, 969.0, 969.0, 969.0, 968.0, 968.0, 969.0, 969.0, 969.0, 969.0, 969.0, 969.0, 968.0, 969.0, 969.0, 968.0, 969.0, 969.0, 968.0, 968.0, 968.0, 968.0, 969.0, 969.0, 969.0, 968.0, 968.0, 968.0, 969.0, 968.0, 968.0, 968.0, 968.0, 969.0, 968.0, 968.0, 968.0, 968.0, 968.0, 968.0, 968.0, 968.0, 968.0, 968.0, 968.0, 968.0, 968.0, 968.0, 968.0, 968.0, 968.0, 968.0, 968.0, 968.0, 968.0, 968.0, 968.0, 968.0, 968.0, 968.0, 968.0, 968.0, 968.0, 968.0, 968.0, 968.0, 968.0, 968.0, 968.0, 967.0, 968.0, 968.0, 968.0, 969.0, 967.0, 967.0, 967.0, 967.0, 968.0, 968.0, 968.0, 967.0, 967.0, 967.0, 967.0, 967.0, 968.0, 967.0, 967.0, 967.0, 967.0, 967.0, 967.0, 967.0, 967.0, 967.0, 967.0, 967.0, 967.0, 967.0, 967.0, 967.0, 967.0, 967.0, 967.0, 967.0, 967.0, 967.0, 967.0, 967.0, 967.0, 967.0, 967.0, 967.0, 967.0, 967.0, 967.0, 967.0, 967.0, 967.0, 967.0, 967.0, 967.0, 967.0, 967.0, 967.0, 967.0, 966.0, 966.0, 967.0, 967.0, 967.0, 966.0, 967.0, 967.0, 967.0, 967.0, 967.0, 967.0, 966.0, 967.0, 967.0, 967.0, 967.0, 967.0, 967.0]
    },
    "slices": {}
  }
}