{
  "AcquisitionMatrixPE": 80,
  "AcquisitionNumber": 1,
  "AcquisitionTime": "09:09:13.502500",
  "BandwidthPerPixelPhaseEncode": 25,
  "BaseResolution": 80,
  "BodyPartExamined": "BRAIN",
  "CoilCombinationMethod": "Sum of Squares",
  "ConsistencyInfo": "N4_VE11E_LATEST_20181129",
  "ConversionSoftware": "dcm2niix",
  "ConversionSoftwareVersion": "v1.0.20220720",
  "DerivedVendorReportedEchoSpacing": 0.0005,
  "DeviceSerialNumber": "66112",
  "DwellTime": 2.7e-06,
  "EchoTime": 0.03,
  "EchoTrainLength": 80,
  "EffectiveEchoSpacing": 0.0005,
  "FlipAngle": 10,
  "HeudiconvVersion": "0.13.1",
  "ImageOrientationPatientDICOM": [0.998402, 0.0564011, 0.0034587, -0.0545958, 0.94704, 0.316442],
  "ImageOrientationText": "Tra>Cor(18.4)>Sag(-0.8)",
  "ImageType": [
    "ORIGINAL",
    "PRIMARY",
    "M",
    "ND",
    "NORM",
    "MOSAIC"
],
  "ImagingFrequency": 123.259,
  "InPlanePhaseEncodingDirectionDICOM": "COL",
  "InstitutionAddress": "Maynard 3,Hanover,NH,US,03755",
  "InstitutionName": "Dartmouth College - PBS",
  "InstitutionalDepartmentName": "Department",
  "MRAcquisitionType": "2D",
  "MagneticFieldStrength": 3,
  "Manufacturer": "Siemens",
  "ManufacturersModelName": "Prisma",
  "MatrixCoilMode": "SENSE",
  "Modality": "MR",
  "NonlinearGradientCorrection": false,
  "PartialFourier": 1,
  "PatientPosition": "HFS",
  "PercentPhaseFOV": 100,
  "PercentSampling": 100,
  "PhaseEncodingDirection": "j-",
  "PhaseEncodingSteps": 80,
  "PhaseResolution": 1,
  "PixelBandwidth": 2315,
  "ProcedureStepDescription": "dbic^QA",
  "ProtocolName": "func-bold_fa-10",
  "PulseSequenceDetails": "%SiemensSeq%\\ep2d_bold",
  "ReceiveCoilActiveElements": "HC1-7;NC1,2",
  "ReceiveCoilName": "HeadNeck_64",
  "ReconMatrixPE": 80,
  "RepetitionTime": 2,
  "SAR": 0.00862061,
  "ScanOptions": "FS",
  "ScanningSequence": "EP",
  "SequenceName": "*epfid2d1_80",
  "SequenceVariant": "SK",
  "SeriesDescription": "func-bold_fa-10",
  "SeriesNumber": 7,
  "ShimSetting": [4215, -7757, -7486, -105, -143, -156, -38, 98],
  "SliceThickness": 3.5,
  "SliceTiming": [0.99, 0, 1.0575, 0.0675, 1.1225, 0.1325, 1.19, 0.2, 1.255, 0.265, 1.32, 0.33, 1.3875, 0.3975, 1.4525, 0.4625, 1.52, 0.53, 1.585, 0.595, 1.65, 0.66, 1.7175, 0.7275, 1.7825, 0.7925, 1.85, 0.86, 1.915, 0.925],
  "SoftwareVersions": "syngo MR E11",
  "SpacingBetweenSlices": 3.99,
  "StationName": "AWP66112",
  "TotalReadoutTime": 0.0395,
  "TxRefAmp": 212.579,
  "dcmmeta_affine": [
    [-2.995206594467163, -0.16378742456436157, -0.05814284458756447, 127.32544708251953],
    [-0.16920338571071625, 2.841118812561035, 1.2613383531570435, -119.24962615966797],
    [0.01037609949707985, -0.9493250250816345, 3.7849366664886475, -13.155051231384277],
    [0.0, 0.0, 0.0, 1.0]
],
  "dcmmeta_reorient_transform": [
    [0.0, -1.0, 0.0, 79.0],
    [1.0, 0.0, 0.0, 0.0],
    [0.0, 0.0, 1.0, 0.0],
    [0.0, 0.0, 0.0, 1.0]
],
  "dcmmeta_shape": [80, 80, 30, 200],
  "dcmmeta_slice_dim": 2,
  "dcmmeta_version": 0.6,
  "global": {
    "const": {
      "AccessionNumber": "qa64",
      "AcquisitionMatrix": [80, 0, 0, 80],
      "AngioFlag": "N",
      "BitsAllocated": 16,
      "BitsStored": 12,
      "BodyPartExamined": "BRAIN",
      "Columns": 480,
      "EchoNumbers": 1,
      "EchoTime": 30.0,
      "EchoTrainLength": 80,
      "FlipAngle": 10.0,
      "HighBit": 11,
      "ImageOrientationPatient": [0.99840219865565, 0.05640112689901, 0.00345869976814, -0.0545958095023, 0.94703957953213, 0.31644167295791],
      "ImagePositionPatient": [-680.67007137325, -707.26317727513, -280.09195168185],
      "ImageType": [
        "ORIGINAL",
        "PRIMARY",
        "M",
        "ND",
        "NORM",
        "MOSAIC"
],
      "ImagedNucleus": "1H",
      "ImagingFrequency": 123.259204,
      "InPlanePhaseEncodingDirection": "COL",
      "MRAcquisitionType": "2D",
      "MagneticFieldStrength": 3.0,
      "Manufacturer": "SIEMENS",
      "ManufacturerModelName": "Prisma",
      "Modality": "MR",
      "NumberOfAverages": 1.0,
      "NumberOfPhaseEncodingSteps": 80,
      "PercentPhaseFieldOfView": 100.0,
      "PercentSampling": 100.0,
      "PerformedProcedureStepStartTime": "085048.850000",
      "PhotometricInterpretation": "MONOCHROME2",
      "PixelBandwidth": 2315.0,
      "PixelRepresentation": 0,
      "PixelSpacing": [3.0, 3.0],
      "ProtocolName": "func-bold_fa-10",
      "RepetitionTime": 2000.0,
      "Rows": 480,
      "SAR": 0.00862061017604,
      "SamplesPerPixel": 1,
      "ScanOptions": "FS",
      "ScanningSequence": "EP",
      "SequenceName": "*epfid2d1_80",
      "SequenceVariant": "SK",
      "SeriesDescription": "func-bold_fa-10",
      "SeriesNumber": 7,
      "SeriesTime": "091008.519000",
      "SliceLocation": -52.032136291577,
      "SliceThickness": 3.5,
      "SmallestImagePixelValue": 0,
      "SoftwareVersions": "syngo MR E11",
      "SpacingBetweenSlices": 3.9899999728598,
      "SpecificCharacterSet": "ISO_IR 100",
      "StudyID": "25",
      "StudyTime": "085048.676000",
      "TransmitCoilName": "Body",
      "VariableFlipAngleFlag": "N",
      "WindowCenterWidthExplanation": "Algo1"
    },
    "slices": {}
  },
  "time": {
    "samples": {
      "AcquisitionNumber": [1, 2, 3, 4, 5, 6, 7, 8, 9, 10, 11, 12, 13, 14, 15, 16, 17, 18, 19, 20, 21, 22, 23, 24, 25, 26, 27, 28, 29, 30, 31, 32, 33, 34, 35, 36, 37, 38, 39, 40, 41, 42, 43, 44, 45, 46, 47, 48, 49, 50, 51, 52, 53, 54, 55, 56, 57, 58, 59, 60, 61, 62, 63, 64, 65, 66, 67, 68, 69, 70, 71, 72, 73, 74, 75, 76, 77, 78, 79, 80, 81, 82, 83, 84, 85, 86, 87, 88, 89, 90, 91, 92, 93, 94, 95, 96, 97, 98, 99, 100, 101, 102, 103, 104, 105, 106, 107, 108, 109, 110, 111, 112, 113, 114, 115, 116, 117, 118, 119, 120, 121, 122, 123, 124, 125, 126, 127, 128, 129, 130, 131, 132, 133, 134, 135, 136, 137, 138, 139, 140, 141, 142, 143, 144, 145, 146, 147, 148, 149, 150, 151, 152, 153, 154, 155, 156, 157, 158, 159, 160, 161, 162, 163, 164, 165, 166, 167, 168, 169, 170, 171, 172, 173, 174, 175, 176, 177, 178, 179, 180, 181, 182, 183, 184, 185, 186, 187, 188, 189, 190, 191, 192, 193, 194, 195, 196, 197, 198, 199, 200],
      "AcquisitionTime": ["090913.502500", "090915.502500", "090917.502500", "090919.502500", "090921.502500", "090923.502500", "090925.502500", "090927.502500", "090929.502500", "090931.502500", "090933.502500", "090935.502500", "090937.502500", "090939.502500", "090941.502500", "090943.502500", "090945.502500", "090947.502500", "090949.502500", "090951.502500", "090953.502500", "090955.502500", "090957.502500", "090959.502500", "091001.502500", "091003.502500", "091005.502500", "091007.502500", "091009.502500", "091011.502500", "091013.502500", "091015.502500", "091017.502500", "091019.502500", "091021.502500", "091023.502500", "091025.502500", "091027.502500", "091029.502500", "091031.502500", "091033.502500", "091035.502500", "091037.502500", "091039.502500", "091041.502500", "091043.502500", "091045.502500", "091047.502500", "091049.502500", "091051.502500", "091053.502500", "091055.502500", "091057.502500", "091059.502500", "091101.502500", "091103.502500", "091105.502500", "091107.502500", "091109.502500", "091111.502500", "091113.502500", "091115.502500", "091117.502500", "091119.502500", "091121.502500", "091123.502500", "091125.502500", "091127.502500", "091129.502500", "091131.502500", "091133.502500", "091135.502500", "091137.502500", "091139.502500", "091141.502500", "091143.502500", "091145.502500", "091147.502500", "091149.502500", "091151.502500", "091153.502500", "091155.502500", "091157.502500", "091159.502500", "091201.502500", "091203.502500", "091205.502500", "091207.502500", "091209.502500", "091211.502500", "091213.502500", "091215.502500", "091217.502500", "091219.502500", "091221.502500", "091223.502500", "091225.502500", "091227.502500", "091229.502500", "091231.502500", "091233.502500", "091235.502500", "091237.502500", "091239.502500", "091241.502500", "091243.502500", "091245.502500", "091247.502500", "091249.502500", "091251.502500", "091253.502500", "091255.502500", "091257.502500", "091259.502500", "091301.502500", "091303.502500", "091305.502500", "091307.502500", "091309.502500", "091311.502500", "091313.502500", "091315.502500", "091317.502500", "091319.502500", "091321.502500", "091323.502500", "091325.502500", "091327.502500", "091329.502500", "091331.502500", "091333.502500", "091335.502500", "091337.502500", "091339.502500", "091341.502500", "091343.502500", "091345.502500", "091347.502500", "091349.502500", "091351.502500", "091353.502500", "091355.502500", "091357.502500", "091359.502500", "091401.502500", "091403.502500", "091405.502500", "091407.502500", "091409.502500", "091411.502500", "091413.502500", "091415.502500", "091417.502500", "091419.502500", "091421.502500", "091423.502500", "091425.502500", "091427.502500", "091429.502500", "091431.502500", "091433.502500", "091435.502500", "091437.502500", "091439.502500", "091441.502500", "091443.502500", "091445.502500", "091447.502500", "091449.502500", "091451.502500", "091453.502500", "091455.502500", "091457.502500", "091459.502500", "091501.502500", "091503.502500", "091505.502500", "091507.502500", "091509.502500", "091511.502500", "091513.502500", "091515.502500", "091517.502500", "091519.502500", "091521.502500", "091523.502500", "091525.502500", "091527.502500", "091529.502500", "091531.502500", "091533.502500", "091535.502500", "091537.502500", "091539.502500", "091541.502500", "091543.502500", "091545.502500", "091547.502500", "091549.502500", "091551.502500"],
      "ContentTime": ["091008.522000", "091008.526000", "091008.528000", "091008.530000", "091008.532000", "091008.535000", "091008.537000", "091008.539000", "091008.542000", "091008.544000", "091008.547000", "091008.550000", "091008.552000", "091008.561000", "091008.563000", "091008.565000", "091008.567000", "091008.570000", "091008.572000", "091008.574000", "091008.577000", "091008.579000", "091008.582000", "091008.584000", "091008.586000", "091008.588000", "091008.591000", "091048.518000", "091048.521000", "091048.523000", "091048.525000", "091048.527000", "091048.530000", "091048.532000", "091048.534000", "091048.537000", "091048.539000", "091048.541000", "091048.543000", "091048.547000", "091048.549000", "091048.552000", "091048.554000", "091048.556000", "091048.564000", "091048.566000", "091048.568000", "091128.518000", "091128.521000", "091128.523000", "091128.525000", "091128.528000", "091128.530000", "091128.532000", "091128.535000", "091128.537000", "091128.539000", "091128.542000", "091128.544000", "091128.547000", "091128.549000", "091128.551000", "091128.554000", "091128.556000", "091128.558000", "091128.561000", "091128.563000", "091208.517000", "091208.520000", "091208.522000", "091208.525000", "091208.527000", "091208.529000", "091208.531000", "091208.534000", "091208.536000", "091208.539000", "091208.541000", "091208.544000", "091208.547000", "091208.549000", "091208.552000", "091208.554000", "091208.556000", "091208.559000", "091208.561000", "091208.563000", "091248.518000", "091248.521000", "091248.523000", "091248.525000", "091248.527000", "091248.530000", "091248.532000", "091248.534000", "091248.536000", "091248.539000", "091248.541000", "091248.543000", "091248.546000", "091248.549000", "091248.551000", "091248.553000", "091248.556000", "091248.558000", "091248.560000", "091248.563000", "091328.518000", "091328.521000", "091328.523000", "091328.525000", "091328.528000", "091328.530000", "091328.532000", "091328.534000", "091328.537000", "091328.539000", "091328.541000", "091328.544000", "091328.547000", "091328.550000", "091328.552000", "091328.554000", "091328.557000", "091328.559000", "091328.561000", "091328.563000", "091408.517000", "091408.520000", "091408.522000", "091408.524000", "091408.526000", "091408.529000", "091408.531000", "091408.533000", "091408.536000", "091408.538000", "091408.540000", "091408.542000", "091408.545000", "091408.548000", "091408.550000", "091408.553000", "091408.555000", "091408.557000", "091408.559000", "091408.562000", "091448.517000", "091448.520000", "091448.522000", "091448.524000", "091448.527000", "091448.529000", "091448.531000", "091448.533000", "091448.536000", "091448.539000", "091448.541000", "091448.544000", "091448.547000", "091448.549000", "091448.551000", "091448.554000", "091448.556000", "091448.558000", "091448.561000", "091448.563000", "091528.518000", "091528.521000", "091528.523000", "091528.525000", "091528.527000", "091528.530000", "091528.532000", "091528.534000", "091528.536000", "091528.539000", "091528.541000", "091528.543000", "091528.547000", "091528.549000", "091528.552000", "091528.554000", "091528.556000", "091528.558000", "091528.561000", "091528.563000", "091552.588000", "091552.590000", "091552.593000", "091552.595000", "091552.598000", "091552.600000", "091552.602000", "091552.604000", "091552.607000", "091552.609000", "091552.611000", "091552.614000", "091552.632000"],
      "InstanceCreationTime": ["091008.522000", "091008.526000", "091008.528000", "091008.530000", "091008.532000", "091008.535000", "091008.537000", "091008.539000", "091008.542000", "091008.544000", "091008.547000", "091008.550000", "091008.552000", "091008.561000", "091008.563000", "091008.565000", "091008.567000", "091008.570000", "091008.572000", "091008.574000", "091008.577000", "091008.579000", "091008.582000", "091008.584000", "091008.586000", "091008.588000", "091008.591000", "091048.518000", "091048.521000", "091048.523000", "091048.525000", "091048.527000", "091048.530000", "091048.532000", "091048.534000", "091048.537000", "091048.539000", "091048.541000", "091048.543000", "091048.547000", "091048.549000", "091048.552000", "091048.554000", "091048.556000", "091048.564000", "091048.566000", "091048.568000", "091128.518000", "091128.521000", "091128.523000", "091128.525000", "091128.528000", "091128.530000", "091128.532000", "091128.535000", "091128.537000", "091128.539000", "091128.542000", "091128.544000", "091128.547000", "091128.549000", "091128.551000", "091128.554000", "091128.556000", "091128.558000", "091128.561000", "091128.563000", "091208.517000", "091208.520000", "091208.522000", "091208.525000", "091208.527000", "091208.529000", "091208.531000", "091208.534000", "091208.536000", "091208.539000", "091208.541000", "091208.544000", "091208.547000", "091208.549000", "091208.552000", "091208.554000", "091208.556000", "091208.559000", "091208.561000", "091208.563000", "091248.518000", "091248.521000", "091248.523000", "091248.525000", "091248.527000", "091248.530000", "091248.532000", "091248.534000", "091248.536000", "091248.539000", "091248.541000", "091248.543000", "091248.546000", "091248.549000", "091248.551000", "091248.553000", "091248.556000", "091248.558000", "091248.560000", "091248.563000", "091328.518000", "091328.521000", "091328.523000", "091328.525000", "091328.528000", "091328.530000", "091328.532000", "091328.534000", "091328.537000", "091328.539000", "091328.541000", "091328.544000", "091328.547000", "091328.550000", "091328.552000", "091328.554000", "091328.557000", "091328.559000", "091328.561000", "091328.563000", "091408.517000", "091408.520000", "091408.522000", "091408.524000", "091408.526000", "091408.529000", "091408.531000", "091408.533000", "091408.536000", "091408.538000", "091408.540000", "091408.542000", "091408.545000", "091408.548000", "091408.550000", "091408.553000", "091408.555000", "091408.557000", "091408.559000", "091408.562000", "091448.517000", "091448.520000", "091448.522000", "091448.524000", "091448.527000", "091448.529000", "091448.531000", "091448.533000", "091448.536000", "091448.539000", "091448.541000", "091448.544000", "091448.547000", "091448.549000", "091448.551000", "091448.554000", "091448.556000", "091448.558000", "091448.561000", "091448.563000", "091528.518000", "091528.521000", "091528.523000", "091528.525000", "091528.527000", "091528.530000", "091528.532000", "091528.534000", "091528.536000", "091528.539000", "091528.541000", "091528.543000", "091528.547000", "091528.549000", "091528.552000", "091528.554000", "091528.556000", "091528.558000", "091528.561000", "091528.563000", "091552.588000", "091552.590000", "091552.593000", "091552.595000", "091552.598000", "091552.600000", "091552.602000", "091552.604000", "091552.607000", "091552.609000", "091552.611000", "091552.614000", "091552.632000"],
      "InstanceNumber": [1, 2, 3, 4, 5, 6, 7, 8, 9, 10, 11, 12, 13, 14, 15, 16, 17, 18, 19, 20, 21, 22, 23, 24, 25, 26, 27, 28, 29, 30, 31, 32, 33, 34, 35, 36, 37, 38, 39, 40, 41, 42, 43, 44, 45, 46, 47, 48, 49, 50, 51, 52, 53, 54, 55, 56, 57, 58, 59, 60, 61, 62, 63, 64, 65, 66, 67, 68, 69, 70, 71, 72, 73, 74, 75, 76, 77, 78, 79, 80, 81, 82, 83, 84, 85, 86, 87, 88, 89, 90, 91, 92, 93, 94, 95, 96, 97, 98, 99, 100, 101, 102, 103, 104, 105, 106, 107, 108, 109, 110, 111, 112, 113, 114, 115, 116, 117, 118, 119, 120, 121, 122, 123, 124, 125, 126, 127, 128, 129, 130, 131, 132, 133, 134, 135, 136, 137, 138, 139, 140, 141, 142, 143, 144, 145, 146, 147, 148, 149, 150, 151, 152, 153, 154, 155, 156, 157, 158, 159, 160, 161, 162, 163, 164, 165, 166, 167, 168, 169, 170, 171, 172, 173, 174, 175, 176, 177, 178, 179, 180, 181, 182, 183, 184, 185, 186, 187, 188, 189, 190, 191, 192, 193, 194, 195, 196, 197, 198, 199, 200],
      "LargestImagePixelValue": [691, 689, 691, 691, 694, 692, 694, 688, 689, 692, 692, 695, 692, 695, 694, 690, 692, 695, 690, 688, 696, 690, 698, 692, 694, 693, 692, 691, 689, 690, 694, 689, 694, 690, 693, 687, 689, 692, 694, 692, 690, 692, 694, 690, 691, 692, 694, 691, 690, 692, 697, 696, 696, 694, 690, 693, 691, 690, 694, 692, 692, 696, 695, 693, 687, 690, 693, 692, 693, 693, 692, 688, 691, 695, 692, 694, 692, 695, 695, 694, 697, 694, 691, 692, 694, 699, 694, 694, 692, 694, 699, 693, 693, 697, 695, 692, 690, 692, 694, 694, 690, 691, 690, 691, 692, 698, 694, 694, 692, 692, 692, 692, 694, 692, 693, 697, 696, 694, 694, 695, 693, 695, 694, 694, 696, 697, 697, 700, 696, 693, 691, 694, 691, 694, 693, 694, 692, 694, 693, 695, 694, 694, 692, 692, 698, 697, 697, 692, 694, 695, 695, 691, 696, 695, 691, 696, 694, 700, 695, 697, 699, 697, 693, 693, 699, 697, 695, 698, 696, 695, 694, 695, 694, 695, 692, 696, 696, 693, 695, 694, 695, 699, 693, 694, 697, 694, 694, 696, 702, 695, 696, 701, 694, 696, 701, 694, 698, 698, 699, 700],
      "WindowCenter": [461.0, 460.0, 461.0, 460.0, 461.0, 461.0, 460.0, 459.0, 459.0, 460.0, 460.0, 460.0, 460.0, 460.0, 460.0, 460.0, 460.0, 460.0, 460.0, 459.0, 460.0, 460.0, 460.0, 460.0, 460.0, 460.0, 460.0, 460.0, 459.0, 460.0, 460.0, 459.0, 460.0, 460.0, 460.0, 459.0, 459.0, 460.0, 460.0, 460.0, 460.0, 460.0, 460.0, 460.0, 460.0, 460.0, 460.0, 460.0, 460.0, 460.0, 460.0, 460.0, 459.0, 460.0, 459.0, 459.0, 460.0, 459.0, 460.0, 459.0, 460.0, 460.0, 460.0, 460.0, 459.0, 460.0, 460.0, 460.0, 460.0, 459.0, 460.0, 459.0, 460.0, 460.0, 460.0, 460.0, 459.0, 460.0, 460.0, 460.0, 459.0, 459.0, 460.0, 460.0, 459.0, 459.0, 460.0, 460.0, 459.0, 460.0, 459.0, 459.0, 459.0, 459.0, 459.0, 460.0, 460.0, 459.0, 460.0, 459.0, 460.0, 460.0, 460.0, 459.0, 459.0, 460.0, 459.0, 460.0, 459.0, 459.0, 459.0, 460.0, 459.0, 460.0, 460.0, 459.0, 459.0, 459.0, 459.0, 459.0, 459.0, 459.0, 459.0, 459.0, 459.0, 459.0, 459.0, 459.0, 459.0, 459.0, 459.0, 459.0, 459.0, 459.0, 459.0, 459.0, 459.0, 459.0, 459.0, 459.0, 459.0, 459.0, 459.0, 459.0, 459.0, 459.0, 459.0, 459.0, 459.0, 459.0, 459.0, 459.0, 459.0, 459.0, 459.0, 459.0, 459.0, 459.0, 459.0, 459.0, 459.0, 459.0, 459.0, 459.0, 459.0, 459.0, 459.0, 459.0, 459.0, 459.0, 459.0, 459.0, 459.0, 459.0, 459.0, 459.0, 459.0, 459.0, 459.0, 459.0, 460.0, 459.0, 459.0, 459.0, 459.0, 459.0, 459.0, 459.0, 459.0, 459.0, 459.0, 459.0, 459.0, 459.0, 459.0, 459.0, 459.0, 459.0, 459.0, 459.0],
      "WindowWidth": [956.0, 954.0, 956.0, 955.0, 956.0, 956.0, 955.0, 953.0, 953.0, 955.0, 955.0, 955.0, 955.0, 955.0, 955.0, 955.0, 954.0, 955.0, 954.0, 953.0, 955.0, 954.0, 954.0, 955.0, 954.0, 955.0, 955.0, 954.0, 953.0, 955.0, 955.0, 953.0, 955.0, 955.0, 955.0, 953.0, 953.0, 955.0, 954.0, 954.0, 954.0, 954.0, 954.0, 954.0, 954.0, 954.0, 954.0, 954.0, 954.0, 954.0, 954.0, 954.0, 954.0, 954.0, 954.0, 954.0, 954.0, 954.0, 954.0, 954.0, 954.0, 954.0, 954.0, 954.0, 953.0, 954.0, 954.0, 954.0, 954.0, 954.0, 954.0, 953.0, 954.0, 954.0, 954.0, 954.0, 954.0, 954.0, 954.0, 954.0, 953.0, 953.0, 954.0, 954.0, 953.0, 953.0, 954.0, 954.0, 953.0, 954.0, 953.0, 953.0, 953.0, 953.0, 953.0, 954.0, 954.0, 953.0, 954.0, 953.0, 954.0, 954.0, 954.0, 953.0, 953.0, 954.0, 953.0, 954.0, 953.0, 953.0, 953.0, 954.0, 953.0, 954.0, 954.0, 953.0, 953.0, 953.0, 953.0, 953.0, 953.0, 953.0, 953.0, 953.0, 953.0, 953.0, 953.0, 953.0, 953.0, 953.0, 953.0, 953.0, 953.0, 953.0, 953.0, 953.0, 953.0, 953.0, 953.0, 953.0, 953.0, 953.0, 953.0, 953.0, 953.0, 953.0, 953.0, 953.0, 953.0, 953.0, 953.0, 953.0, 953.0, 953.0, 953.0, 953.0, 953.0, 953.0, 953.0, 953.0, 953.0, 953.0, 953.0, 953.0, 953.0, 953.0, 953.0, 953.0, 953.0, 953.0, 953.0, 953.0, 953.0, 953.0, 953.0, 953.0, 953.0, 953.0, 953.0, 953.0, 954.0, 953.0, 953.0, 953.0, 953.0, 953.0, 953.0, 953.0, 953.0, 953.0, 953.0, 953.0, 953.0, 953.0, 953.0, 953.0, 953.0, 953.0, 953.0, 953.0]
    },
    "slices": {}
  }
}