{
  "AcquisitionMatrixPE": 80,
  "AcquisitionNumber": 1,
  "AcquisitionTime": "09:02:26.432500",
  "BandwidthPerPixelPhaseEncode": 25,
  "BaseResolution": 80,
  "BodyPartExamined": "BRAIN",
  "CoilCombinationMethod": "Sum of Squares",
  "ConsistencyInfo": "N4_VE11E_LATEST_20181129",
  "ConversionSoftware": "dcm2niix",
  "ConversionSoftwareVersion": "v1.0.20220720",
  "DerivedVendorReportedEchoSpacing": 0.0005,
  "DeviceSerialNumber": "66112",
  "DwellTime": 2.7e-06,
  "EchoTime": 0.03,
  "EchoTrainLength": 80,
  "EffectiveEchoSpacing": 0.0005,
  "FlipAngle": 77,
  "HeudiconvVersion": "0.13.1",
  "ImageOrientationPatientDICOM": [0.998402, 0.0564011, 0.0034587, -0.0545958, 0.94704, 0.316442],
  "ImageOrientationText": "Tra>Cor(18.4)>Sag(-0.8)",
  "ImageType": [
    "ORIGINAL",
    "PRIMARY",
    "M",
    "ND",
    "NORM",
    "MOSAIC"
],
  "ImagingFrequency": 123.259,
  "InPlanePhaseEncodingDirectionDICOM": "COL",
  "InstitutionAddress": "Maynard 3,Hanover,NH,US,03755",
  "InstitutionName": "Dartmouth College - PBS",
  "InstitutionalDepartmentName": "Department",
  "MRAcquisitionType": "2D",
  "MagneticFieldStrength": 3,
  "Manufacturer": "Siemens",
  "ManufacturersModelName": "Prisma",
  "MatrixCoilMode": "SENSE",
  "Modality": "MR",
  "NonlinearGradientCorrection": false,
  "PartialFourier": 1,
  "PatientPosition": "HFS",
  "PercentPhaseFOV": 100,
  "PercentSampling": 100,
  "PhaseEncodingDirection": "j-",
  "PhaseEncodingSteps": 80,
  "PhaseResolution": 1,
  "PixelBandwidth": 2315,
  "ProcedureStepDescription": "dbic^QA",
  "ProtocolName": "func-bold_fa-77",
  "PulseSequenceDetails": "%SiemensSeq%\\ep2d_bold",
  "ReceiveCoilActiveElements": "HC1-7;NC1,2",
  "ReceiveCoilName": "HeadNeck_64",
  "ReconMatrixPE": 80,
  "RepetitionTime": 2,
  "SAR": 0.0321366,
  "ScanOptions": "FS",
  "ScanningSequence": "EP",
  "SequenceName": "*epfid2d1_80",
  "SequenceVariant": "SK",
  "SeriesDescription": "func-bold_fa-77",
  "SeriesNumber": 6,
  "ShimSetting": [4215, -7757, -7486, -105, -143, -156, -38, 98],
  "SliceThickness": 3.5,
  "SliceTiming": [0.99, 0, 1.0575, 0.0675, 1.1225, 0.1325, 1.19, 0.2, 1.255, 0.265, 1.32, 0.33, 1.3875, 0.3975, 1.4525, 0.4625, 1.52, 0.53, 1.585, 0.595, 1.65, 0.66, 1.7175, 0.7275, 1.7825, 0.7925, 1.85, 0.86, 1.915, 0.925],
  "SoftwareVersions": "syngo MR E11",
  "SpacingBetweenSlices": 3.99,
  "StationName": "AWP66112",
  "TotalReadoutTime": 0.0395,
  "TxRefAmp": 212.579,
  "dcmmeta_affine": [
    [-2.995206594467163, -0.16378742456436157, -0.05814284458756447, 127.32544708251953],
    [-0.16920338571071625, 2.841118812561035, 1.2613383531570435, -119.24962615966797],
    [0.01037609949707985, -0.9493250250816345, 3.7849366664886475, -13.155051231384277],
    [0.0, 0.0, 0.0, 1.0]
],
  "dcmmeta_reorient_transform": [
    [0.0, -1.0, 0.0, 79.0],
    [1.0, 0.0, 0.0, 0.0],
    [0.0, 0.0, 1.0, 0.0],
    [0.0, 0.0, 0.0, 1.0]
],
  "dcmmeta_shape": [80, 80, 30, 200],
  "dcmmeta_slice_dim": 2,
  "dcmmeta_version": 0.6,
  "global": {
    "const": {
      "AccessionNumber": "qa64",
      "AcquisitionMatrix": [80, 0, 0, 80],
      "AngioFlag": "N",
      "BitsAllocated": 16,
      "BitsStored": 12,
      "BodyPartExamined": "BRAIN",
      "Columns": 480,
      "EchoNumbers": 1,
      "EchoTime": 30.0,
      "EchoTrainLength": 80,
      "FlipAngle": 77.0,
      "HighBit": 11,
      "ImageOrientationPatient": [0.99840219865565, 0.05640112689901, 0.00345869976814, -0.0545958095023, 0.94703957953213, 0.31644167295791],
      "ImagePositionPatient": [-680.67007137325, -707.26317727513, -280.09195168185],
      "ImageType": [
        "ORIGINAL",
        "PRIMARY",
        "M",
        "ND",
        "NORM",
        "MOSAIC"
],
      "ImagedNucleus": "1H",
      "ImagingFrequency": 123.259204,
      "InPlanePhaseEncodingDirection": "COL",
      "LargestImagePixelValue": 4095,
      "MRAcquisitionType": "2D",
      "MagneticFieldStrength": 3.0,
      "Manufacturer": "SIEMENS",
      "ManufacturerModelName": "Prisma",
      "Modality": "MR",
      "NumberOfAverages": 1.0,
      "NumberOfPhaseEncodingSteps": 80,
      "PercentPhaseFieldOfView": 100.0,
      "PercentSampling": 100.0,
      "PerformedProcedureStepStartTime": "085048.850000",
      "PhotometricInterpretation": "MONOCHROME2",
      "PixelBandwidth": 2315.0,
      "PixelRepresentation": 0,
      "PixelSpacing": [3.0, 3.0],
      "ProtocolName": "func-bold_fa-77",
      "RepetitionTime": 2000.0,
      "Rows": 480,
      "SAR": 0.03213658497165,
      "SamplesPerPixel": 1,
      "ScanOptions": "FS",
      "ScanningSequence": "EP",
      "SequenceName": "*epfid2d1_80",
      "SequenceVariant": "SK",
      "SeriesDescription": "func-bold_fa-77",
      "SeriesNumber": 6,
      "SeriesTime": "090308.434000",
      "SliceLocation": -52.032136291577,
      "SliceThickness": 3.5,
      "SmallestImagePixelValue": 0,
      "SoftwareVersions": "syngo MR E11",
      "SpacingBetweenSlices": 3.9899999728598,
      "SpecificCharacterSet": "ISO_IR 100",
      "StudyID": "25",
      "StudyTime": "085048.676000",
      "TransmitCoilName": "Body",
      "VariableFlipAngleFlag": "N",
      "WindowCenterWidthExplanation": "Algo1"
    },
    "slices": {}
  },
  "time": {
    "samples": {
      "AcquisitionNumber": [1, 2, 3, 4, 5, 6, 7, 8, 9, 10, 11, 12, 13, 14, 15, 16, 17, 18, 19, 20, 21, 22, 23, 24, 25, 26, 27, 28, 29, 30, 31, 32, 33, 34, 35, 36, 37, 38, 39, 40, 41, 42, 43, 44, 45, 46, 47, 48, 49, 50, 51, 52, 53, 54, 55, 56, 57, 58, 59, 60, 61, 62, 63, 64, 65, 66, 67, 68, 69, 70, 71, 72, 73, 74, 75, 76, 77, 78, 79, 80, 81, 82, 83, 84, 85, 86, 87, 88, 89, 90, 91, 92, 93, 94, 95, 96, 97, 98, 99, 100, 101, 102, 103, 104, 105, 106, 107, 108, 109, 110, 111, 112, 113, 114, 115, 116, 117, 118, 119, 120, 121, 122, 123, 124, 125, 126, 127, 128, 129, 130, 131, 132, 133, 134, 135, 136, 137, 138, 139, 140, 141, 142, 143, 144, 145, 146, 147, 148, 149, 150, 151, 152, 153, 154, 155, 156, 157, 158, 159, 160, 161, 162, 163, 164, 165, 166, 167, 168, 169, 170, 171, 172, 173, 174, 175, 176, 177, 178, 179, 180, 181, 182, 183, 184, 185, 186, 187, 188, 189, 190, 191, 192, 193, 194, 195, 196, 197, 198, 199, 200],
      "AcquisitionTime": ["090226.432500", "090228.432500", "090230.432500", "090232.432500", "090234.432500", "090236.432500", "090238.432500", "090240.432500", "090242.432500", "090244.432500", "090246.432500", "090248.432500", "090250.432500", "090252.432500", "090254.432500", "090256.432500", "090258.432500", "090300.432500", "090302.432500", "090304.432500", "090306.432500", "090308.432500", "090310.432500", "090312.432500", "090314.432500", "090316.432500", "090318.432500", "090320.432500", "090322.432500", "090324.432500", "090326.432500", "090328.432500", "090330.432500", "090332.432500", "090334.432500", "090336.432500", "090338.432500", "090340.432500", "090342.432500", "090344.432500", "090346.432500", "090348.432500", "090350.432500", "090352.432500", "090354.432500", "090356.432500", "090358.432500", "090400.432500", "090402.432500", "090404.432500", "090406.432500", "090408.432500", "090410.432500", "090412.432500", "090414.432500", "090416.432500", "090418.432500", "090420.432500", "090422.432500", "090424.432500", "090426.432500", "090428.432500", "090430.432500", "090432.432500", "090434.432500", "090436.432500", "090438.432500", "090440.432500", "090442.432500", "090444.432500", "090446.432500", "090448.432500", "090450.432500", "090452.432500", "090454.432500", "090456.432500", "090458.432500", "090500.432500", "090502.432500", "090504.432500", "090506.432500", "090508.432500", "090510.432500", "090512.432500", "090514.432500", "090516.432500", "090518.432500", "090520.432500", "090522.432500", "090524.432500", "090526.432500", "090528.432500", "090530.432500", "090532.432500", "090534.432500", "090536.432500", "090538.432500", "090540.432500", "090542.432500", "090544.432500", "090546.432500", "090548.432500", "090550.432500", "090552.432500", "090554.432500", "090556.432500", "090558.432500", "090600.432500", "090602.432500", "090604.432500", "090606.432500", "090608.432500", "090610.432500", "090612.432500", "090614.432500", "090616.432500", "090618.432500", "090620.432500", "090622.432500", "090624.432500", "090626.432500", "090628.432500", "090630.432500", "090632.432500", "090634.432500", "090636.432500", "090638.432500", "090640.432500", "090642.432500", "090644.432500", "090646.432500", "090648.432500", "090650.432500", "090652.432500", "090654.432500", "090656.432500", "090658.432500", "090700.432500", "090702.432500", "090704.432500", "090706.432500", "090708.432500", "090710.432500", "090712.432500", "090714.432500", "090716.432500", "090718.432500", "090720.432500", "090722.432500", "090724.432500", "090726.432500", "090728.432500", "090730.432500", "090732.432500", "090734.432500", "090736.432500", "090738.432500", "090740.432500", "090742.432500", "090744.432500", "090746.432500", "090748.432500", "090750.432500", "090752.432500", "090754.432500", "090756.432500", "090758.432500", "090800.432500", "090802.432500", "090804.432500", "090806.432500", "090808.432500", "090810.432500", "090812.432500", "090814.432500", "090816.432500", "090818.432500", "090820.432500", "090822.432500", "090824.432500", "090826.432500", "090828.432500", "090830.432500", "090832.432500", "090834.432500", "090836.432500", "090838.432500", "090840.432500", "090842.432500", "090844.432500", "090846.432500", "090848.432500", "090850.432500", "090852.432500", "090854.432500", "090856.432500", "090858.432500", "090900.432500", "090902.432500", "090904.432500"],
      "ContentTime": ["090308.437000", "090308.440000", "090308.443000", "090308.445000", "090308.453000", "090308.456000", "090308.458000", "090308.460000", "090308.463000", "090308.465000", "090308.467000", "090308.470000", "090308.472000", "090308.475000", "090308.477000", "090308.479000", "090308.482000", "090308.484000", "090308.486000", "090308.489000", "090308.491000", "090348.433000", "090348.436000", "090348.438000", "090348.441000", "090348.443000", "090348.445000", "090348.448000", "090348.450000", "090348.452000", "090348.455000", "090348.457000", "090348.459000", "090348.462000", "090348.464000", "090348.466000", "090348.469000", "090348.471000", "090348.473000", "090348.476000", "090348.478000", "090428.433000", "090428.436000", "090428.438000", "090428.441000", "090428.443000", "090428.452000", "090428.454000", "090428.457000", "090428.459000", "090428.461000", "090428.464000", "090428.466000", "090428.468000", "090428.471000", "090428.473000", "090428.475000", "090428.477000", "090428.480000", "090428.482000", "090428.485000", "090508.432000", "090508.435000", "090508.437000", "090508.440000", "090508.442000", "090508.444000", "090508.447000", "090508.449000", "090508.451000", "090508.454000", "090508.456000", "090508.458000", "090508.461000", "090508.463000", "090508.465000", "090508.468000", "090508.470000", "090508.472000", "090508.475000", "090508.477000", "090548.433000", "090548.436000", "090548.438000", "090548.441000", "090548.443000", "090548.445000", "090548.448000", "090548.450000", "090548.452000", "090548.455000", "090548.457000", "090548.459000", "090548.462000", "090548.464000", "090548.466000", "090548.469000", "090548.471000", "090548.473000", "090548.476000", "090548.478000", "090628.433000", "090628.436000", "090628.438000", "090628.441000", "090628.443000", "090628.445000", "090628.452000", "090628.455000", "090628.457000", "090628.460000", "090628.462000", "090628.464000", "090628.466000", "090628.469000", "090628.471000", "090628.474000", "090628.476000", "090628.478000", "090628.481000", "090628.483000", "090708.432000", "090708.453000", "090708.455000", "090708.457000", "090708.460000", "090708.462000", "090708.465000", "090708.467000", "090708.469000", "090708.472000", "090708.474000", "090708.476000", "090708.479000", "090708.481000", "090708.484000", "090708.486000", "090708.488000", "090708.491000", "090708.493000", "090708.495000", "090748.432000", "090748.435000", "090748.437000", "090748.440000", "090748.442000", "090748.444000", "090748.447000", "090748.449000", "090748.451000", "090748.454000", "090748.456000", "090748.458000", "090748.461000", "090748.463000", "090748.465000", "090748.468000", "090748.470000", "090748.472000", "090748.475000", "090748.477000", "090828.433000", "090828.436000", "090828.438000", "090828.440000", "090828.443000", "090828.445000", "090828.447000", "090828.450000", "090828.452000", "090828.455000", "090828.457000", "090828.459000", "090828.461000", "090828.464000", "090828.466000", "090828.469000", "090828.471000", "090828.473000", "090828.476000", "090828.478000", "090906.063000", "090906.066000", "090906.068000", "090906.071000", "090906.073000", "090906.076000", "090906.078000", "090906.081000", "090906.083000", "090906.086000", "090906.089000", "090906.092000", "090906.102000", "090906.106000", "090906.110000", "090906.116000", "090906.123000", "090906.126000", "090906.130000"],
      "InstanceCreationTime": ["090308.437000", "090308.440000", "090308.443000", "090308.445000", "090308.453000", "090308.456000", "090308.458000", "090308.460000", "090308.463000", "090308.465000", "090308.467000", "090308.470000", "090308.472000", "090308.475000", "090308.477000", "090308.479000", "090308.482000", "090308.484000", "090308.486000", "090308.489000", "090308.491000", "090348.433000", "090348.436000", "090348.438000", "090348.441000", "090348.443000", "090348.445000", "090348.448000", "090348.450000", "090348.452000", "090348.455000", "090348.457000", "090348.459000", "090348.462000", "090348.464000", "090348.466000", "090348.469000", "090348.471000", "090348.473000", "090348.476000", "090348.478000", "090428.433000", "090428.436000", "090428.438000", "090428.441000", "090428.443000", "090428.452000", "090428.454000", "090428.457000", "090428.459000", "090428.461000", "090428.464000", "090428.466000", "090428.468000", "090428.471000", "090428.473000", "090428.475000", "090428.477000", "090428.480000", "090428.482000", "090428.485000", "090508.432000", "090508.435000", "090508.437000", "090508.440000", "090508.442000", "090508.444000", "090508.447000", "090508.449000", "090508.451000", "090508.454000", "090508.456000", "090508.458000", "090508.461000", "090508.463000", "090508.465000", "090508.468000", "090508.470000", "090508.472000", "090508.475000", "090508.477000", "090548.433000", "090548.436000", "090548.438000", "090548.441000", "090548.443000", "090548.445000", "090548.448000", "090548.450000", "090548.452000", "090548.455000", "090548.457000", "090548.459000", "090548.462000", "090548.464000", "090548.466000", "090548.469000", "090548.471000", "090548.473000", "090548.476000", "090548.478000", "090628.433000", "090628.436000", "090628.438000", "090628.441000", "090628.443000", "090628.445000", "090628.452000", "090628.455000", "090628.457000", "090628.460000", "090628.462000", "090628.464000", "090628.466000", "090628.469000", "090628.471000", "090628.474000", "090628.476000", "090628.478000", "090628.481000", "090628.483000", "090708.432000", "090708.453000", "090708.455000", "090708.457000", "090708.460000", "090708.462000", "090708.465000", "090708.467000", "090708.469000", "090708.472000", "090708.474000", "090708.476000", "090708.479000", "090708.481000", "090708.484000", "090708.486000", "090708.488000", "090708.491000", "090708.493000", "090708.495000", "090748.432000", "090748.435000", "090748.437000", "090748.440000", "090748.442000", "090748.444000", "090748.447000", "090748.449000", "090748.451000", "090748.454000", "090748.456000", "090748.458000", "090748.461000", "090748.463000", "090748.465000", "090748.468000", "090748.470000", "090748.472000", "090748.475000", "090748.477000", "090828.433000", "090828.436000", "090828.438000", "090828.440000", "090828.443000", "090828.445000", "090828.447000", "090828.450000", "090828.452000", "090828.455000", "090828.457000", "090828.459000", "090828.461000", "090828.464000", "090828.466000", "090828.469000", "090828.471000", "090828.473000", "090828.476000", "090828.478000", "090906.063000", "090906.066000", "090906.068000", "090906.071000", "090906.073000", "090906.076000", "090906.078000", "090906.081000", "090906.083000", "090906.086000", "090906.089000", "090906.092000", "090906.102000", "090906.106000", "090906.110000", "090906.116000", "090906.123000", "090906.126000", "090906.130000"],
      "InstanceNumber": [1, 2, 3, 4, 5, 6, 7, 8, 9, 10, 11, 12, 13, 14, 15, 16, 17, 18, 19, 20, 21, 22, 23, 24, 25, 26, 27, 28, 29, 30, 31, 32, 33, 34, 35, 36, 37, 38, 39, 40, 41, 42, 43, 44, 45, 46, 47, 48, 49, 50, 51, 52, 53, 54, 55, 56, 57, 58, 59, 60, 61, 62, 63, 64, 65, 66, 67, 68, 69, 70, 71, 72, 73, 74, 75, 76, 77, 78, 79, 80, 81, 82, 83, 84, 85, 86, 87, 88, 89, 90, 91, 92, 93, 94, 95, 96, 97, 98, 99, 100, 101, 102, 103, 104, 105, 106, 107, 108, 109, 110, 111, 112, 113, 114, 115, 116, 117, 118, 119, 120, 121, 122, 123, 124, 125, 126, 127, 128, 129, 130, 131, 132, 133, 134, 135, 136, 137, 138, 139, 140, 141, 142, 143, 144, 145, 146, 147, 148, 149, 150, 151, 152, 153, 154, 155, 156, 157, 158, 159, 160, 161, 162, 163, 164, 165, 166, 167, 168, 169, 170, 171, 172, 173, 174, 175, 176, 177, 178, 179, 180, 181, 182, 183, 184, 185, 186, 187, 188, 189, 190, 191, 192, 193, 194, 195, 196, 197, 198, 199, 200],
      "WindowCenter": [1396.0, 1396.0, 1396.0, 1396.0, 1396.0, 1396.0, 1395.0, 1395.0, 1396.0, 1395.0, 1395.0, 1395.0, 1395.0, 1395.0, 1395.0, 1395.0, 1395.0, 1395.0, 1395.0, 1395.0, 1395.0, 1395.0, 1395.0, 1394.0, 1395.0, 1394.0, 1394.0, 1394.0, 1394.0, 1395.0, 1394.0, 1394.0, 1395.0, 1394.0, 1395.0, 1394.0, 1394.0, 1394.0, 1393.0, 1394.0, 1393.0, 1394.0, 1394.0, 1393.0, 1394.0, 1393.0, 1394.0, 1394.0, 1394.0, 1393.0, 1394.0, 1393.0, 1393.0, 1393.0, 1394.0, 1394.0, 1393.0, 1393.0, 1393.0, 1393.0, 1393.0, 1393.0, 1393.0, 1393.0, 1393.0, 1392.0, 1392.0, 1392.0, 1393.0, 1393.0, 1392.0, 1392.0, 1393.0, 1393.0, 1392.0, 1392.0, 1393.0, 1392.0, 1392.0, 1392.0, 1392.0, 1392.0, 1392.0, 1392.0, 1392.0, 1392.0, 1392.0, 1392.0, 1392.0, 1392.0, 1392.0, 1393.0, 1392.0, 1392.0, 1392.0, 1391.0, 1391.0, 1391.0, 1391.0, 1391.0, 1391.0, 1392.0, 1391.0, 1391.0, 1391.0, 1391.0, 1391.0, 1392.0, 1391.0, 1390.0, 1391.0, 1391.0, 1391.0, 1391.0, 1390.0, 1391.0, 1390.0, 1390.0, 1390.0, 1391.0, 1391.0, 1390.0, 1390.0, 1391.0, 1391.0, 1390.0, 1391.0, 1390.0, 1390.0, 1390.0, 1390.0, 1391.0, 1391.0, 1391.0, 1391.0, 1391.0, 1390.0, 1390.0, 1390.0, 1390.0, 1389.0, 1389.0, 1390.0, 1390.0, 1389.0, 1390.0, 1390.0, 1390.0, 1390.0, 1390.0, 1390.0, 1390.0, 1389.0, 1389.0, 1390.0, 1390.0, 1390.0, 1390.0, 1390.0, 1390.0, 1389.0, 1390.0, 1390.0, 1389.0, 1390.0, 1390.0, 1390.0, 1390.0, 1390.0, 1389.0, 1389.0, 1389.0, 1390.0, 1389.0, 1389.0, 1389.0, 1390.0, 1389.0, 1389.0, 1389.0, 1389.0, 1388.0, 1389.0, 1388.0, 1389.0, 1388.0, 1389.0, 1389.0, 1389.0, 1388.0, 1388.0, 1389.0, 1389.0, 1389.0, 1388.0, 1388.0, 1388.0, 1389.0, 1389.0, 1388.0],
      "WindowWidth": [3326.0, 3326.0, 3326.0, 3326.0, 3326.0, 3326.0, 3326.0, 3326.0, 3326.0, 3326.0, 3326.0, 3326.0, 3326.0, 3326.0, 3326.0, 3326.0, 3326.0, 3326.0, 3326.0, 3326.0, 3326.0, 3326.0, 3326.0, 3326.0, 3326.0, 3326.0, 3326.0, 3326.0, 3326.0, 3326.0, 3326.0, 3326.0, 3326.0, 3326.0, 3326.0, 3326.0, 3326.0, 3326.0, 3326.0, 3326.0, 3326.0, 3326.0, 3325.0, 3326.0, 3325.0, 3326.0, 3325.0, 3325.0, 3325.0, 3326.0, 3325.0, 3326.0, 3325.0, 3325.0, 3325.0, 3325.0, 3325.0, 3325.0, 3325.0, 3325.0, 3325.0, 3325.0, 3325.0, 3325.0, 3325.0, 3326.0, 3325.0, 3325.0, 3325.0, 3325.0, 3325.0, 3325.0, 3325.0, 3325.0, 3325.0, 3325.0, 3325.0, 3325.0, 3325.0, 3325.0, 3325.0, 3325.0, 3325.0, 3325.0, 3325.0, 3325.0, 3325.0, 3325.0, 3325.0, 3325.0, 3325.0, 3325.0, 3325.0, 3325.0, 3325.0, 3326.0, 3326.0, 3326.0, 3326.0, 3326.0, 3326.0, 3325.0, 3326.0, 3326.0, 3326.0, 3326.0, 3326.0, 3325.0, 3326.0, 3326.0, 3326.0, 3326.0, 3326.0, 3326.0, 3326.0, 3325.0, 3326.0, 3326.0, 3326.0, 3325.0, 3325.0, 3326.0, 3326.0, 3325.0, 3325.0, 3326.0, 3325.0, 3325.0, 3326.0, 3326.0, 3325.0, 3325.0, 3325.0, 3325.0, 3325.0, 3325.0, 3325.0, 3325.0, 3325.0, 3325.0, 3325.0, 3325.0, 3325.0, 3325.0, 3325.0, 3325.0, 3325.0, 3325.0, 3325.0, 3325.0, 3325.0, 3325.0, 3325.0, 3325.0, 3325.0, 3325.0, 3325.0, 3325.0, 3325.0, 3325.0, 3325.0, 3325.0, 3325.0, 3325.0, 3325.0, 3325.0, 3325.0, 3325.0, 3325.0, 3325.0, 3325.0, 3325.0, 3325.0, 3325.0, 3325.0, 3325.0, 3325.0, 3325.0, 3325.0, 3325.0, 3325.0, 3325.0, 3325.0, 3325.0, 3325.0, 3325.0, 3325.0, 3325.0, 3325.0, 3325.0, 3325.0, 3325.0, 3325.0, 3325.0, 3325.0, 3325.0, 3325.0, 3325.0, 3325.0, 3325.0]
    },
    "slices": {}
  }
}