{
  "AcquisitionMatrixPE": 80,
  "AcquisitionNumber": 1,
  "AcquisitionTime": "08:54:49.537500",
  "BandwidthPerPixelPhaseEncode": 25,
  "BaseResolution": 80,
  "BodyPartExamined": "BRAIN",
  "CoilCombinationMethod": "Sum of Squares",
  "ConsistencyInfo": "N4_VE11E_LATEST_20181129",
  "ConversionSoftware": "dcm2niix",
  "ConversionSoftwareVersion": "v1.0.20220720",
  "DerivedVendorReportedEchoSpacing": 0.0005,
  "DeviceSerialNumber": "66112",
  "DwellTime": 2.7e-06,
  "EchoTime": 0.03,
  "EchoTrainLength": 80,
  "EffectiveEchoSpacing": 0.0005,
  "FlipAngle": 77,
  "HeudiconvVersion": "0.13.1",
  "ImageOrientationPatientDICOM": [0.990963, -0.134105, 0.00290185, 0.126594, 0.942173, 0.310296],
  "ImageOrientationText": "Tra>Cor(17.9)>Sag(2.5)",
  "ImageType": [
    "ORIGINAL",
    "PRIMARY",
    "M",
    "ND",
    "NORM",
    "MOSAIC"
],
  "ImagingFrequency": 123.252,
  "InPlanePhaseEncodingDirectionDICOM": "COL",
  "InstitutionAddress": "Maynard 3,Hanover,NH,US,03755",
  "InstitutionName": "Dartmouth College - PBS",
  "InstitutionalDepartmentName": "Department",
  "MRAcquisitionType": "2D",
  "MagneticFieldStrength": 3,
  "Manufacturer": "Siemens",
  "ManufacturersModelName": "Prisma",
  "MatrixCoilMode": "SENSE",
  "Modality": "MR",
  "NonlinearGradientCorrection": false,
  "PartialFourier": 1,
  "PatientPosition": "HFS",
  "PercentPhaseFOV": 100,
  "PercentSampling": 100,
  "PhaseEncodingDirection": "j-",
  "PhaseEncodingSteps": 80,
  "PhaseResolution": 1,
  "PixelBandwidth": 2315,
  "ProcedureStepDescription": "dbic^QA",
  "ProtocolName": "func-bold_fa-77",
  "PulseSequenceDetails": "%SiemensSeq%\\ep2d_bold",
  "ReceiveCoilActiveElements": "HC1-7;NC1,2",
  "ReceiveCoilName": "HeadNeck_64",
  "ReconMatrixPE": 80,
  "RepetitionTime": 2,
  "SAR": 0.0326027,
  "ScanOptions": "FS",
  "ScanningSequence": "EP",
  "SequenceName": "*epfid2d1_80",
  "SequenceVariant": "SK",
  "SeriesDescription": "func-bold_fa-77",
  "SeriesNumber": 7,
  "ShimSetting": [4140, -7707, -7509, 166, -93, -249, -47, 74],
  "SliceThickness": 3.5,
  "SliceTiming": [0.99, 0, 1.055, 0.065, 1.12, 0.13, 1.1875, 0.1975, 1.2525, 0.2625, 1.32, 0.33, 1.385, 0.395, 1.45, 0.46, 1.5175, 0.5275, 1.5825, 0.5925, 1.65, 0.66, 1.715, 0.725, 1.78, 0.79, 1.8475, 0.8575, 1.9125, 0.9225],
  "SoftwareVersions": "syngo MR E11",
  "SpacingBetweenSlices": 3.99,
  "StationName": "AWP66112",
  "TotalReadoutTime": 0.0395,
  "TxRefAmp": 218.935,
  "dcmmeta_affine": [
    [-2.972888708114624, 0.37978124618530273, 0.17694196105003357, 102.56535339355469],
    [0.40231505036354065, 2.826519250869751, 1.2254284620285034, -129.10675048828125],
    [0.008705539628863335, -0.9308894872665405, 3.7930352687835693, -25.66991424560547],
    [0.0, 0.0, 0.0, 1.0]
],
  "dcmmeta_reorient_transform": [
    [0.0, -1.0, 0.0, 79.0],
    [1.0, 0.0, 0.0, 0.0],
    [0.0, 0.0, 1.0, 0.0],
    [0.0, 0.0, 0.0, 1.0]
],
  "dcmmeta_shape": [80, 80, 30, 200],
  "dcmmeta_slice_dim": 2,
  "dcmmeta_version": 0.6,
  "global": {
    "const": {
      "AccessionNumber": "qa64",
      "AcquisitionMatrix": [80, 0, 0, 80],
      "AngioFlag": "N",
      "BitsAllocated": 16,
      "BitsStored": 12,
      "BodyPartExamined": "BRAIN",
      "Columns": 480,
      "EchoNumbers": 1,
      "EchoTime": 30.0,
      "EchoTrainLength": 80,
      "FlipAngle": 77.0,
      "HighBit": 11,
      "ImageOrientationPatient": [0.99096287706756, -0.1341050169089, 0.0029018466267, 0.12659374731566, 0.94217308035803, 0.31029648691088],
      "ImagePositionPatient": [-803.1020429877, -579.02910060259, -287.12918106747],
      "ImageType": [
        "ORIGINAL",
        "PRIMARY",
        "M",
        "ND",
        "NORM",
        "MOSAIC"
],
      "ImagedNucleus": "1H",
      "ImagingFrequency": 123.252358,
      "InPlanePhaseEncodingDirection": "COL",
      "MRAcquisitionType": "2D",
      "MagneticFieldStrength": 3.0,
      "Manufacturer": "SIEMENS",
      "ManufacturerModelName": "Prisma",
      "Modality": "MR",
      "NumberOfAverages": 1.0,
      "NumberOfPhaseEncodingSteps": 80,
      "PercentPhaseFieldOfView": 100.0,
      "PercentSampling": 100.0,
      "PerformedProcedureStepStartTime": "083725.803000",
      "PhotometricInterpretation": "MONOCHROME2",
      "PixelBandwidth": 2315.0,
      "PixelRepresentation": 0,
      "PixelSpacing": [3.0, 3.0],
      "ProtocolName": "func-bold_fa-77",
      "RepetitionTime": 2000.0,
      "Rows": 480,
      "SAR": 0.03260270468044,
      "SamplesPerPixel": 1,
      "ScanOptions": "FS",
      "ScanningSequence": "EP",
      "SequenceName": "*epfid2d1_80",
      "SequenceVariant": "SK",
      "SeriesDescription": "func-bold_fa-77",
      "SeriesNumber": 7,
      "SeriesTime": "085544.660000",
      "SliceLocation": -59.50623457362,
      "SliceThickness": 3.5,
      "SmallestImagePixelValue": 0,
      "SoftwareVersions": "syngo MR E11",
      "SpacingBetweenSlices": 3.9899999262717,
      "SpecificCharacterSet": "ISO_IR 100",
      "StudyID": "1",
      "StudyTime": "083725.731000",
      "TransmitCoilName": "Body",
      "VariableFlipAngleFlag": "N",
      "WindowCenterWidthExplanation": "Algo1"
    },
    "slices": {}
  },
  "time": {
    "samples": {
      "AcquisitionNumber": [1, 2, 3, 4, 5, 6, 7, 8, 9, 10, 11, 12, 13, 14, 15, 16, 17, 18, 19, 20, 21, 22, 23, 24, 25, 26, 27, 28, 29, 30, 31, 32, 33, 34, 35, 36, 37, 38, 39, 40, 41, 42, 43, 44, 45, 46, 47, 48, 49, 50, 51, 52, 53, 54, 55, 56, 57, 58, 59, 60, 61, 62, 63, 64, 65, 66, 67, 68, 69, 70, 71, 72, 73, 74, 75, 76, 77, 78, 79, 80, 81, 82, 83, 84, 85, 86, 87, 88, 89, 90, 91, 92, 93, 94, 95, 96, 97, 98, 99, 100, 101, 102, 103, 104, 105, 106, 107, 108, 109, 110, 111, 112, 113, 114, 115, 116, 117, 118, 119, 120, 121, 122, 123, 124, 125, 126, 127, 128, 129, 130, 131, 132, 133, 134, 135, 136, 137, 138, 139, 140, 141, 142, 143, 144, 145, 146, 147, 148, 149, 150, 151, 152, 153, 154, 155, 156, 157, 158, 159, 160, 161, 162, 163, 164, 165, 166, 167, 168, 169, 170, 171, 172, 173, 174, 175, 176, 177, 178, 179, 180, 181, 182, 183, 184, 185, 186, 187, 188, 189, 190, 191, 192, 193, 194, 195, 196, 197, 198, 199, 200],
      "AcquisitionTime": ["085449.537500", "085451.537500", "085453.537500", "085455.537500", "085457.537500", "085459.537500", "085501.537500", "085503.537500", "085505.537500", "085507.537500", "085509.537500", "085511.537500", "085513.537500", "085515.537500", "085517.537500", "085519.537500", "085521.537500", "085523.537500", "085525.537500", "085527.537500", "085529.537500", "085531.537500", "085533.537500", "085535.537500", "085537.537500", "085539.537500", "085541.537500", "085543.537500", "085545.537500", "085547.537500", "085549.537500", "085551.537500", "085553.537500", "085555.537500", "085557.537500", "085559.537500", "085601.537500", "085603.537500", "085605.537500", "085607.537500", "085609.537500", "085611.537500", "085613.537500", "085615.537500", "085617.537500", "085619.537500", "085621.537500", "085623.537500", "085625.537500", "085627.537500", "085629.537500", "085631.537500", "085633.537500", "085635.537500", "085637.537500", "085639.537500", "085641.537500", "085643.537500", "085645.537500", "085647.537500", "085649.537500", "085651.537500", "085653.537500", "085655.537500", "085657.537500", "085659.537500", "085701.537500", "085703.537500", "085705.537500", "085707.537500", "085709.537500", "085711.537500", "085713.537500", "085715.537500", "085717.537500", "085719.537500", "085721.537500", "085723.537500", "085725.537500", "085727.537500", "085729.537500", "085731.537500", "085733.537500", "085735.537500", "085737.537500", "085739.537500", "085741.537500", "085743.537500", "085745.537500", "085747.537500", "085749.537500", "085751.537500", "085753.537500", "085755.537500", "085757.537500", "085759.537500", "085801.537500", "085803.537500", "085805.537500", "085807.537500", "085809.537500", "085811.537500", "085813.537500", "085815.537500", "085817.537500", "085819.537500", "085821.537500", "085823.537500", "085825.537500", "085827.537500", "085829.537500", "085831.537500", "085833.537500", "085835.537500", "085837.537500", "085839.537500", "085841.537500", "085843.537500", "085845.537500", "085847.537500", "085849.537500", "085851.537500", "085853.537500", "085855.537500", "085857.537500", "085859.537500", "085901.537500", "085903.537500", "085905.537500", "085907.537500", "085909.537500", "085911.537500", "085913.537500", "085915.537500", "085917.537500", "085919.537500", "085921.537500", "085923.537500", "085925.537500", "085927.537500", "085929.537500", "085931.537500", "085933.537500", "085935.537500", "085937.537500", "085939.537500", "085941.537500", "085943.537500", "085945.537500", "085947.537500", "085949.537500", "085951.537500", "085953.537500", "085955.537500", "085957.537500", "085959.537500", "090001.537500", "090003.537500", "090005.537500", "090007.537500", "090009.537500", "090011.537500", "090013.537500", "090015.537500", "090017.537500", "090019.537500", "090021.537500", "090023.537500", "090025.537500", "090027.537500", "090029.537500", "090031.537500", "090033.537500", "090035.537500", "090037.537500", "090039.537500", "090041.537500", "090043.537500", "090045.537500", "090047.537500", "090049.537500", "090051.537500", "090053.537500", "090055.537500", "090057.537500", "090059.537500", "090101.537500", "090103.537500", "090105.537500", "090107.537500", "090109.537500", "090111.537500", "090113.537500", "090115.537500", "090117.537500", "090119.537500", "090121.537500", "090123.537500", "090125.537500", "090127.537500"],
      "ContentTime": ["085544.664000", "085544.675000", "085544.677000", "085544.680000", "085544.682000", "085544.684000", "085544.687000", "085544.689000", "085544.691000", "085544.694000", "085544.696000", "085544.698000", "085544.700000", "085544.703000", "085544.705000", "085544.707000", "085544.710000", "085544.712000", "085544.715000", "085544.717000", "085544.719000", "085544.722000", "085544.724000", "085544.727000", "085544.729000", "085544.731000", "085544.734000", "085624.659000", "085624.662000", "085624.664000", "085624.666000", "085624.669000", "085624.671000", "085624.673000", "085624.676000", "085624.678000", "085624.680000", "085624.683000", "085624.685000", "085624.688000", "085624.690000", "085624.692000", "085624.694000", "085624.697000", "085624.699000", "085624.701000", "085624.711000", "085704.660000", "085704.663000", "085704.665000", "085704.668000", "085704.670000", "085704.672000", "085704.675000", "085704.677000", "085704.679000", "085704.681000", "085704.684000", "085704.686000", "085704.688000", "085704.691000", "085704.693000", "085704.695000", "085704.698000", "085704.700000", "085704.702000", "085704.705000", "085744.660000", "085744.663000", "085744.665000", "085744.667000", "085744.670000", "085744.672000", "085744.674000", "085744.677000", "085744.679000", "085744.681000", "085744.684000", "085744.686000", "085744.688000", "085744.691000", "085744.693000", "085744.695000", "085744.698000", "085744.700000", "085744.702000", "085744.705000", "085824.659000", "085824.662000", "085824.664000", "085824.667000", "085824.669000", "085824.672000", "085824.674000", "085824.676000", "085824.679000", "085824.681000", "085824.683000", "085824.686000", "085824.688000", "085824.690000", "085824.693000", "085824.695000", "085824.697000", "085824.700000", "085824.702000", "085824.704000", "085904.659000", "085904.662000", "085904.664000", "085904.666000", "085904.669000", "085904.671000", "085904.673000", "085904.676000", "085904.678000", "085904.680000", "085904.683000", "085904.685000", "085904.687000", "085904.690000", "085904.692000", "085904.694000", "085904.697000", "085904.699000", "085904.701000", "085904.704000", "085944.660000", "085944.663000", "085944.665000", "085944.668000", "085944.670000", "085944.672000", "085944.675000", "085944.677000", "085944.679000", "085944.681000", "085944.684000", "085944.686000", "085944.688000", "085944.691000", "085944.693000", "085944.695000", "085944.698000", "085944.700000", "085944.702000", "085944.705000", "090024.659000", "090024.662000", "090024.664000", "090024.667000", "090024.669000", "090024.671000", "090024.674000", "090024.676000", "090024.678000", "090024.681000", "090024.683000", "090024.685000", "090024.687000", "090024.690000", "090024.692000", "090024.694000", "090024.697000", "090024.699000", "090024.701000", "090024.704000", "090104.659000", "090104.662000", "090104.664000", "090104.666000", "090104.669000", "090104.671000", "090104.673000", "090104.676000", "090104.678000", "090104.680000", "090104.683000", "090104.685000", "090104.687000", "090104.690000", "090104.692000", "090104.694000", "090104.697000", "090104.699000", "090104.701000", "090104.704000", "090129.440000", "090129.442000", "090129.445000", "090129.447000", "090129.449000", "090129.452000", "090129.454000", "090129.456000", "090129.459000", "090129.461000", "090129.464000", "090129.467000", "090129.469000"],
      "InstanceCreationTime": ["085544.664000", "085544.675000", "085544.677000", "085544.680000", "085544.682000", "085544.684000", "085544.687000", "085544.689000", "085544.691000", "085544.694000", "085544.696000", "085544.698000", "085544.700000", "085544.703000", "085544.705000", "085544.707000", "085544.710000", "085544.712000", "085544.715000", "085544.717000", "085544.719000", "085544.722000", "085544.724000", "085544.727000", "085544.729000", "085544.731000", "085544.734000", "085624.659000", "085624.662000", "085624.664000", "085624.666000", "085624.669000", "085624.671000", "085624.673000", "085624.676000", "085624.678000", "085624.680000", "085624.683000", "085624.685000", "085624.688000", "085624.690000", "085624.692000", "085624.694000", "085624.697000", "085624.699000", "085624.701000", "085624.711000", "085704.660000", "085704.663000", "085704.665000", "085704.668000", "085704.670000", "085704.672000", "085704.675000", "085704.677000", "085704.679000", "085704.681000", "085704.684000", "085704.686000", "085704.688000", "085704.691000", "085704.693000", "085704.695000", "085704.698000", "085704.700000", "085704.702000", "085704.705000", "085744.660000", "085744.663000", "085744.665000", "085744.667000", "085744.670000", "085744.672000", "085744.674000", "085744.677000", "085744.679000", "085744.681000", "085744.684000", "085744.686000", "085744.688000", "085744.691000", "085744.693000", "085744.695000", "085744.698000", "085744.700000", "085744.702000", "085744.705000", "085824.659000", "085824.662000", "085824.664000", "085824.667000", "085824.669000", "085824.672000", "085824.674000", "085824.676000", "085824.679000", "085824.681000", "085824.683000", "085824.686000", "085824.688000", "085824.690000", "085824.693000", "085824.695000", "085824.697000", "085824.700000", "085824.702000", "085824.704000", "085904.659000", "085904.662000", "085904.664000", "085904.666000", "085904.669000", "085904.671000", "085904.673000", "085904.676000", "085904.678000", "085904.680000", "085904.683000", "085904.685000", "085904.687000", "085904.690000", "085904.692000", "085904.694000", "085904.697000", "085904.699000", "085904.701000", "085904.704000", "085944.660000", "085944.663000", "085944.665000", "085944.668000", "085944.670000", "085944.672000", "085944.675000", "085944.677000", "085944.679000", "085944.681000", "085944.684000", "085944.686000", "085944.688000", "085944.691000", "085944.693000", "085944.695000", "085944.698000", "085944.700000", "085944.702000", "085944.705000", "090024.659000", "090024.662000", "090024.664000", "090024.667000", "090024.669000", "090024.671000", "090024.674000", "090024.676000", "090024.678000", "090024.681000", "090024.683000", "090024.685000", "090024.687000", "090024.690000", "090024.692000", "090024.694000", "090024.697000", "090024.699000", "090024.701000", "090024.704000", "090104.659000", "090104.662000", "090104.664000", "090104.666000", "090104.669000", "090104.671000", "090104.673000", "090104.676000", "090104.678000", "090104.680000", "090104.683000", "090104.685000", "090104.687000", "090104.690000", "090104.692000", "090104.694000", "090104.697000", "090104.699000", "090104.701000", "090104.704000", "090129.440000", "090129.442000", "090129.445000", "090129.447000", "090129.449000", "090129.452000", "090129.454000", "090129.456000", "090129.459000", "090129.461000", "090129.464000", "090129.467000", "090129.469000"],
      "InstanceNumber": [1, 2, 3, 4, 5, 6, 7, 8, 9, 10, 11, 12, 13, 14, 15, 16, 17, 18, 19, 20, 21, 22, 23, 24, 25, 26, 27, 28, 29, 30, 31, 32, 33, 34, 35, 36, 37, 38, 39, 40, 41, 42, 43, 44, 45, 46, 47, 48, 49, 50, 51, 52, 53, 54, 55, 56, 57, 58, 59, 60, 61, 62, 63, 64, 65, 66, 67, 68, 69, 70, 71, 72, 73, 74, 75, 76, 77, 78, 79, 80, 81, 82, 83, 84, 85, 86, 87, 88, 89, 90, 91, 92, 93, 94, 95, 96, 97, 98, 99, 100, 101, 102, 103, 104, 105, 106, 107, 108, 109, 110, 111, 112, 113, 114, 115, 116, 117, 118, 119, 120, 121, 122, 123, 124, 125, 126, 127, 128, 129, 130, 131, 132, 133, 134, 135, 136, 137, 138, 139, 140, 141, 142, 143, 144, 145, 146, 147, 148, 149, 150, 151, 152, 153, 154, 155, 156, 157, 158, 159, 160, 161, 162, 163, 164, 165, 166, 167, 168, 169, 170, 171, 172, 173, 174, 175, 176, 177, 178, 179, 180, 181, 182, 183, 184, 185, 186, 187, 188, 189, 190, 191, 192, 193, 194, 195, 196, 197, 198, 199, 200],
      "LargestImagePixelValue": [3518, 3519, 3520, 3523, 3517, 3519, 3530, 3523, 3529, 3526, 3525, 3526, 3524, 3519, 3519, 3527, 3524, 3523, 3520, 3525, 3526, 3523, 3526, 3523, 3525, 3530, 3524, 3522, 3525, 3525, 3524, 3530, 3528, 3532, 3521, 3515, 3522, 3527, 3526, 3541, 3533, 3527, 3520, 3522, 3515, 3518, 3528, 3541, 3536, 3527, 3526, 3533, 3528, 3513, 3504, 3505, 3517, 3525, 3530, 3539, 3536, 3523, 3510, 3511, 3522, 3542, 3559, 3550, 3540, 3533, 3525, 3517, 3509, 3501, 3510, 3511, 3530, 3538, 3539, 3538, 3529, 3531, 3532, 3535, 3530, 3527, 3517, 3522, 3520, 3519, 3522, 3520, 3525, 3526, 3541, 3549, 3534, 3517, 3507, 3521, 3524, 3527, 3536, 3530, 3525, 3531, 3520, 3519, 3524, 3523, 3530, 3529, 3523, 3514, 3521, 3512, 3525, 3532, 3532, 3537, 3531, 3533, 3520, 3517, 3530, 3527, 3545, 3539, 3532, 3536, 3536, 3529, 3518, 3513, 3524, 3528, 3526, 3518, 3511, 3515, 3512, 3526, 3533, 3533, 3530, 3522, 3526, 3529, 3528, 3512, 3507, 3522, 3542, 3523, 3517, 3504, 3511, 3533, 3540, 3539, 3523, 3505, 3520, 3530, 3538, 3534, 3525, 3525, 3522, 3518, 3523, 3518, 3532, 3538, 3535, 3535, 3529, 3533, 3525, 3517, 3510, 3514, 3519, 3531, 3526, 3526, 3520, 3516, 3517, 3530, 3531, 3524, 3523, 3521, 3526, 3516, 3522, 3520, 3522, 3527],
      "WindowCenter": [1325.0, 1325.0, 1325.0, 1324.0, 1324.0, 1324.0, 1323.0, 1325.0, 1324.0, 1324.0, 1324.0, 1324.0, 1324.0, 1325.0, 1324.0, 1324.0, 1324.0, 1324.0, 1324.0, 1324.0, 1324.0, 1324.0, 1324.0, 1324.0, 1324.0, 1325.0, 1324.0, 1324.0, 1324.0, 1324.0, 1324.0, 1324.0, 1324.0, 1324.0, 1324.0, 1325.0, 1324.0, 1324.0, 1324.0, 1324.0, 1324.0, 1324.0, 1324.0, 1324.0, 1324.0, 1324.0, 1324.0, 1324.0, 1324.0, 1324.0, 1324.0, 1324.0, 1324.0, 1323.0, 1324.0, 1324.0, 1324.0, 1324.0, 1325.0, 1324.0, 1324.0, 1324.0, 1325.0, 1324.0, 1324.0, 1324.0, 1324.0, 1324.0, 1324.0, 1324.0, 1324.0, 1324.0, 1325.0, 1325.0, 1324.0, 1325.0, 1324.0, 1325.0, 1324.0, 1324.0, 1324.0, 1324.0, 1324.0, 1324.0, 1324.0, 1324.0, 1324.0, 1324.0, 1324.0, 1324.0, 1323.0, 1324.0, 1324.0, 1324.0, 1323.0, 1324.0, 1324.0, 1324.0, 1324.0, 1324.0, 1323.0, 1324.0, 1323.0, 1324.0, 1324.0, 1324.0, 1324.0, 1324.0, 1324.0, 1324.0, 1323.0, 1324.0, 1324.0, 1323.0, 1324.0, 1323.0, 1324.0, 1324.0, 1323.0, 1323.0, 1324.0, 1324.0, 1323.0, 1324.0, 1324.0, 1324.0, 1324.0, 1324.0, 1324.0, 1324.0, 1323.0, 1324.0, 1323.0, 1324.0, 1323.0, 1324.0, 1323.0, 1324.0, 1324.0, 1324.0, 1324.0, 1323.0, 1324.0, 1324.0, 1324.0, 1324.0, 1324.0, 1323.0, 1324.0, 1324.0, 1324.0, 1324.0, 1323.0, 1324.0, 1324.0, 1324.0, 1323.0, 1323.0, 1324.0, 1323.0, 1323.0, 1323.0, 1323.0, 1323.0, 1324.0, 1323.0, 1323.0, 1323.0, 1323.0, 1323.0, 1323.0, 1323.0, 1323.0, 1322.0, 1323.0, 1323.0, 1323.0, 1323.0, 1323.0, 1323.0, 1323.0, 1324.0, 1323.0, 1323.0, 1323.0, 1323.0, 1323.0, 1323.0, 1323.0, 1323.0, 1323.0, 1323.0, 1323.0, 1323.0, 1323.0, 1323.0, 1323.0, 1323.0, 1323.0, 1323.0],
      "WindowWidth": [3184.0, 3184.0, 3184.0, 3184.0, 3184.0, 3184.0, 3183.0, 3183.0, 3184.0, 3184.0, 3184.0, 3184.0, 3184.0, 3184.0, 3184.0, 3184.0, 3184.0, 3184.0, 3184.0, 3184.0, 3184.0, 3184.0, 3184.0, 3184.0, 3184.0, 3184.0, 3184.0, 3185.0, 3185.0, 3184.0, 3184.0, 3184.0, 3184.0, 3185.0, 3184.0, 3184.0, 3184.0, 3184.0, 3184.0, 3184.0, 3184.0, 3184.0, 3185.0, 3184.0, 3184.0, 3184.0, 3184.0, 3184.0, 3184.0, 3184.0, 3184.0, 3185.0, 3184.0, 3184.0, 3184.0, 3184.0, 3184.0, 3185.0, 3185.0, 3185.0, 3185.0, 3185.0, 3185.0, 3185.0, 3185.0, 3185.0, 3185.0, 3185.0, 3185.0, 3185.0, 3185.0, 3185.0, 3185.0, 3185.0, 3185.0, 3185.0, 3185.0, 3185.0, 3185.0, 3185.0, 3185.0, 3185.0, 3185.0, 3185.0, 3185.0, 3185.0, 3185.0, 3185.0, 3184.0, 3184.0, 3185.0, 3184.0, 3184.0, 3185.0, 3185.0, 3184.0, 3185.0, 3185.0, 3185.0, 3185.0, 3185.0, 3185.0, 3185.0, 3185.0, 3185.0, 3185.0, 3185.0, 3184.0, 3185.0, 3185.0, 3185.0, 3185.0, 3185.0, 3185.0, 3185.0, 3185.0, 3185.0, 3184.0, 3185.0, 3185.0, 3185.0, 3185.0, 3185.0, 3185.0, 3185.0, 3185.0, 3185.0, 3185.0, 3185.0, 3185.0, 3185.0, 3185.0, 3185.0, 3185.0, 3186.0, 3185.0, 3185.0, 3185.0, 3185.0, 3185.0, 3185.0, 3186.0, 3185.0, 3185.0, 3185.0, 3185.0, 3185.0, 3185.0, 3185.0, 3185.0, 3185.0, 3185.0, 3186.0, 3185.0, 3185.0, 3185.0, 3185.0, 3186.0, 3185.0, 3185.0, 3185.0, 3185.0, 3185.0, 3185.0, 3185.0, 3185.0, 3185.0, 3185.0, 3185.0, 3185.0, 3185.0, 3185.0, 3185.0, 3185.0, 3185.0, 3185.0, 3185.0, 3185.0, 3185.0, 3185.0, 3185.0, 3184.0, 3185.0, 3185.0, 3185.0, 3184.0, 3185.0, 3185.0, 3185.0, 3185.0, 3184.0, 3185.0, 3185.0, 3185.0, 3185.0, 3185.0, 3185.0, 3185.0, 3185.0, 3185.0]
    },
    "slices": {}
  }
}