{
  "AcquisitionMatrixPE": 80,
  "AcquisitionNumber": 1,
  "AcquisitionTime": "08:48:2.745000",
  "BandwidthPerPixelPhaseEncode": 48.077,
  "BaseResolution": 80,
  "BodyPartExamined": "BRAIN",
  "CoilCombinationMethod": "Sum of Squares",
  "ConsistencyInfo": "N4_VE11E_LATEST_20181129",
  "ConversionSoftware": "dcm2niix",
  "ConversionSoftwareVersion": "v1.0.20220720",
  "DerivedVendorReportedEchoSpacing": 0.000519999,
  "DeviceSerialNumber": "66112",
  "DwellTime": 2.7e-06,
  "EchoTime": 0.035,
  "EchoTrainLength": 39,
  "EffectiveEchoSpacing": 0.00026,
  "FlipAngle": 90,
  "HeudiconvVersion": "0.13.1",
  "ImageOrientationPatientDICOM": [0.990963, -0.134105, 0.00290185, 0.126594, 0.942173, 0.310296],
  "ImageOrientationText": "Tra>Cor(17.9)>Sag(2.5)",
  "ImageType": [
    "ORIGINAL",
    "PRIMARY",
    "M",
    "ND",
    "NORM",
    "MOSAIC"
],
  "ImagingFrequency": 123.252,
  "InPlanePhaseEncodingDirectionDICOM": "COL",
  "InstitutionAddress": "Maynard 3,Hanover,NH,US,03755",
  "InstitutionName": "Dartmouth College - PBS",
  "InstitutionalDepartmentName": "Department",
  "MRAcquisitionType": "2D",
  "MagneticFieldStrength": 3,
  "Manufacturer": "Siemens",
  "ManufacturersModelName": "Prisma",
  "MatrixCoilMode": "GRAPPA",
  "Modality": "MR",
  "NonlinearGradientCorrection": false,
  "ParallelReductionFactorInPlane": 2,
  "PartialFourier": 1,
  "PatientPosition": "HFS",
  "PercentPhaseFOV": 100,
  "PercentSampling": 100,
  "PhaseEncodingDirection": "j-",
  "PhaseEncodingSteps": 79,
  "PhaseResolution": 1,
  "PixelBandwidth": 2315,
  "ProcedureStepDescription": "dbic^QA",
  "ProtocolName": "func-bold_task-rest_acq-p2",
  "PulseSequenceDetails": "%SiemensSeq%\\ep2d_bold",
  "ReceiveCoilActiveElements": "HC1-7;NC1,2",
  "ReceiveCoilName": "HeadNeck_64",
  "ReconMatrixPE": 80,
  "RefLinesPE": 24,
  "RepetitionTime": 2,
  "SAR": 0.0414872,
  "ScanOptions": "FS",
  "ScanningSequence": "EP",
  "SequenceName": "*epfid2d1_80",
  "SequenceVariant": "SK",
  "SeriesDescription": "func-bold_task-rest_acq-p2",
  "SeriesNumber": 5,
  "ShimSetting": [4140, -7707, -7509, 164, -92, -248, -47, 74],
  "SliceThickness": 3.5,
  "SliceTiming": [0.99, 0, 1.0575, 0.0675, 1.1225, 0.1325, 1.1875, 0.1975, 1.255, 0.265, 1.32, 0.33, 1.3875, 0.3975, 1.4525, 0.4625, 1.5175, 0.5275, 1.585, 0.595, 1.65, 0.66, 1.7175, 0.7275, 1.7825, 0.7925, 1.8475, 0.8575, 1.915, 0.925],
  "SoftwareVersions": "syngo MR E11",
  "SpacingBetweenSlices": 3.99,
  "StationName": "AWP66112",
  "TaskName": "rest",
  "TotalReadoutTime": 0.02054,
  "TxRefAmp": 218.935,
  "dcmmeta_affine": [
    [-2.972888708114624, 0.37978124618530273, 0.17694196105003357, 104.16796875],
    [0.40231505036354065, 2.826519250869751, 1.225428581237793, -131.5667724609375],
    [0.008705539628863335, -0.9308894872665405, 3.7930352687835693, -26.294544219970703],
    [0.0, 0.0, 0.0, 1.0]
],
  "dcmmeta_reorient_transform": [
    [0.0, -1.0, 0.0, 79.0],
    [1.0, 0.0, 0.0, 0.0],
    [0.0, 0.0, 1.0, 0.0],
    [0.0, 0.0, 0.0, 1.0]
],
  "dcmmeta_shape": [80, 80, 30, 200],
  "dcmmeta_slice_dim": 2,
  "dcmmeta_version": 0.6,
  "global": {
    "const": {
      "AccessionNumber": "qa64",
      "AcquisitionMatrix": [80, 0, 0, 80],
      "AngioFlag": "N",
      "BitsAllocated": 16,
      "BitsStored": 12,
      "BodyPartExamined": "BRAIN",
      "Columns": 480,
      "EchoNumbers": 1,
      "EchoTime": 35.0,
      "EchoTrainLength": 39,
      "FlipAngle": 90.0,
      "HighBit": 11,
      "ImageOrientationPatient": [0.99096287706756, -0.1341050169089, 0.0029018466267, 0.12659374731566, 0.94217308035803, 0.31029648691088],
      "ImagePositionPatient": [-804.70466438656, -576.56908506724, -287.75381104183],
      "ImageType": [
        "ORIGINAL",
        "PRIMARY",
        "M",
        "ND",
        "NORM",
        "MOSAIC"
],
      "ImagedNucleus": "1H",
      "ImagingFrequency": 123.252358,
      "InPlanePhaseEncodingDirection": "COL",
      "MRAcquisitionType": "2D",
      "MagneticFieldStrength": 3.0,
      "Manufacturer": "SIEMENS",
      "ManufacturerModelName": "Prisma",
      "Modality": "MR",
      "NumberOfAverages": 1.0,
      "NumberOfPhaseEncodingSteps": 79,
      "PercentPhaseFieldOfView": 100.0,
      "PercentSampling": 100.0,
      "PerformedProcedureStepStartTime": "083725.803000",
      "PhotometricInterpretation": "MONOCHROME2",
      "PixelBandwidth": 2315.0,
      "PixelRepresentation": 0,
      "PixelSpacing": [3.0, 3.0],
      "ProtocolName": "func-bold_task-rest_acq-p2",
      "RepetitionTime": 2000.0,
      "Rows": 480,
      "SAR": 0.04148719090184,
      "SamplesPerPixel": 1,
      "ScanOptions": "FS",
      "ScanningSequence": "EP",
      "SequenceName": "*epfid2d1_80",
      "SequenceVariant": "SK",
      "SeriesDescription": "func-bold_task-rest_acq-p2",
      "SeriesNumber": 5,
      "SeriesTime": "084844.573000",
      "SliceLocation": -60.784491652698,
      "SliceThickness": 3.5,
      "SmallestImagePixelValue": 0,
      "SoftwareVersions": "syngo MR E11",
      "SpacingBetweenSlices": 3.9900000439838,
      "SpecificCharacterSet": "ISO_IR 100",
      "StudyID": "1",
      "StudyTime": "083725.731000",
      "TransmitCoilName": "Body",
      "VariableFlipAngleFlag": "N",
      "WindowCenterWidthExplanation": "Algo1"
    },
    "slices": {}
  },
  "time": {
    "samples": {
      "AcquisitionNumber": [1, 2, 3, 4, 5, 6, 7, 8, 9, 10, 11, 12, 13, 14, 15, 16, 17, 18, 19, 20, 21, 22, 23, 24, 25, 26, 27, 28, 29, 30, 31, 32, 33, 34, 35, 36, 37, 38, 39, 40, 41, 42, 43, 44, 45, 46, 47, 48, 49, 50, 51, 52, 53, 54, 55, 56, 57, 58, 59, 60, 61, 62, 63, 64, 65, 66, 67, 68, 69, 70, 71, 72, 73, 74, 75, 76, 77, 78, 79, 80, 81, 82, 83, 84, 85, 86, 87, 88, 89, 90, 91, 92, 93, 94, 95, 96, 97, 98, 99, 100, 101, 102, 103, 104, 105, 106, 107, 108, 109, 110, 111, 112, 113, 114, 115, 116, 117, 118, 119, 120, 121, 122, 123, 124, 125, 126, 127, 128, 129, 130, 131, 132, 133, 134, 135, 136, 137, 138, 139, 140, 141, 142, 143, 144, 145, 146, 147, 148, 149, 150, 151, 152, 153, 154, 155, 156, 157, 158, 159, 160, 161, 162, 163, 164, 165, 166, 167, 168, 169, 170, 171, 172, 173, 174, 175, 176, 177, 178, 179, 180, 181, 182, 183, 184, 185, 186, 187, 188, 189, 190, 191, 192, 193, 194, 195, 196, 197, 198, 199, 200],
      "AcquisitionTime": ["084802.745000", "084804.745000", "084806.745000", "084808.745000", "084810.745000", "084812.745000", "084814.745000", "084816.745000", "084818.745000", "084820.745000", "084822.745000", "084824.745000", "084826.745000", "084828.745000", "084830.745000", "084832.745000", "084834.745000", "084836.745000", "084838.745000", "084840.745000", "084842.745000", "084844.745000", "084846.745000", "084848.745000", "084850.745000", "084852.745000", "084854.745000", "084856.745000", "084858.745000", "084900.745000", "084902.745000", "084904.745000", "084906.745000", "084908.745000", "084910.745000", "084912.745000", "084914.745000", "084916.745000", "084918.745000", "084920.745000", "084922.745000", "084924.745000", "084926.745000", "084928.745000", "084930.745000", "084932.745000", "084934.745000", "084936.745000", "084938.745000", "084940.745000", "084942.745000", "084944.745000", "084946.745000", "084948.745000", "084950.745000", "084952.745000", "084954.745000", "084956.745000", "084958.745000", "085000.745000", "085002.745000", "085004.745000", "085006.745000", "085008.745000", "085010.745000", "085012.745000", "085014.745000", "085016.745000", "085018.745000", "085020.745000", "085022.745000", "085024.745000", "085026.745000", "085028.745000", "085030.745000", "085032.745000", "085034.745000", "085036.745000", "085038.745000", "085040.745000", "085042.745000", "085044.745000", "085046.745000", "085048.745000", "085050.745000", "085052.745000", "085054.745000", "085056.745000", "085058.745000", "085100.745000", "085102.745000", "085104.745000", "085106.745000", "085108.745000", "085110.745000", "085112.745000", "085114.745000", "085116.745000", "085118.745000", "085120.745000", "085122.745000", "085124.745000", "085126.745000", "085128.745000", "085130.745000", "085132.745000", "085134.745000", "085136.745000", "085138.745000", "085140.745000", "085142.745000", "085144.745000", "085146.745000", "085148.745000", "085150.745000", "085152.745000", "085154.745000", "085156.745000", "085158.745000", "085200.745000", "085202.745000", "085204.745000", "085206.745000", "085208.745000", "085210.745000", "085212.745000", "085214.745000", "085216.745000", "085218.745000", "085220.745000", "085222.745000", "085224.745000", "085226.745000", "085228.745000", "085230.745000", "085232.745000", "085234.745000", "085236.745000", "085238.745000", "085240.745000", "085242.745000", "085244.745000", "085246.745000", "085248.745000", "085250.745000", "085252.745000", "085254.745000", "085256.745000", "085258.745000", "085300.745000", "085302.745000", "085304.745000", "085306.745000", "085308.745000", "085310.745000", "085312.745000", "085314.745000", "085316.745000", "085318.745000", "085320.745000", "085322.745000", "085324.745000", "085326.745000", "085328.745000", "085330.745000", "085332.745000", "085334.745000", "085336.745000", "085338.745000", "085340.745000", "085342.745000", "085344.745000", "085346.745000", "085348.745000", "085350.745000", "085352.745000", "085354.745000", "085356.745000", "085358.745000", "085400.745000", "085402.745000", "085404.745000", "085406.745000", "085408.745000", "085410.745000", "085412.745000", "085414.745000", "085416.745000", "085418.745000", "085420.745000", "085422.745000", "085424.745000", "085426.745000", "085428.745000", "085430.745000", "085432.745000", "085434.745000", "085436.745000", "085438.745000", "085440.745000"],
      "ContentTime": ["084844.576000", "084844.580000", "084844.582000", "084844.584000", "084844.587000", "084844.589000", "084844.591000", "084844.594000", "084844.596000", "084844.598000", "084844.601000", "084844.603000", "084844.605000", "084844.608000", "084844.610000", "084844.613000", "084844.615000", "084844.617000", "084844.620000", "084844.622000", "084844.624000", "084924.571000", "084924.574000", "084924.576000", "084924.579000", "084924.581000", "084924.590000", "084924.593000", "084924.595000", "084924.597000", "084924.600000", "084924.602000", "084924.605000", "084924.607000", "084924.609000", "084924.612000", "084924.614000", "084924.616000", "084924.619000", "084924.621000", "084924.623000", "085004.572000", "085004.575000", "085004.594000", "085004.596000", "085004.599000", "085004.601000", "085004.603000", "085004.606000", "085004.608000", "085004.610000", "085004.613000", "085004.615000", "085004.617000", "085004.620000", "085004.622000", "085004.624000", "085004.627000", "085004.642000", "085004.644000", "085004.647000", "085044.572000", "085044.575000", "085044.578000", "085044.580000", "085044.582000", "085044.585000", "085044.587000", "085044.589000", "085044.592000", "085044.594000", "085044.597000", "085044.599000", "085044.601000", "085044.604000", "085044.606000", "085044.608000", "085044.611000", "085044.613000", "085044.615000", "085044.618000", "085124.571000", "085124.574000", "085124.576000", "085124.579000", "085124.581000", "085124.583000", "085124.586000", "085124.588000", "085124.591000", "085124.593000", "085124.595000", "085124.598000", "085124.600000", "085124.602000", "085124.605000", "085124.607000", "085124.609000", "085124.612000", "085124.614000", "085124.616000", "085204.571000", "085204.574000", "085204.576000", "085204.579000", "085204.581000", "085204.583000", "085204.586000", "085204.588000", "085204.590000", "085204.593000", "085204.595000", "085204.597000", "085204.600000", "085204.602000", "085204.604000", "085204.607000", "085204.609000", "085204.612000", "085204.614000", "085204.616000", "085244.572000", "085244.575000", "085244.577000", "085244.580000", "085244.582000", "085244.584000", "085244.587000", "085244.589000", "085244.591000", "085244.594000", "085244.596000", "085244.599000", "085244.642000", "085244.644000", "085244.646000", "085244.649000", "085244.651000", "085244.653000", "085244.663000", "085244.665000", "085324.571000", "085324.574000", "085324.576000", "085324.578000", "085324.581000", "085324.583000", "085324.585000", "085324.588000", "085324.590000", "085324.592000", "085324.595000", "085324.597000", "085324.600000", "085324.602000", "085324.604000", "085324.607000", "085324.609000", "085324.611000", "085324.614000", "085324.616000", "085404.571000", "085404.574000", "085404.576000", "085404.579000", "085404.581000", "085404.583000", "085404.586000", "085404.588000", "085404.590000", "085404.593000", "085404.595000", "085404.597000", "085404.600000", "085404.602000", "085404.604000", "085404.607000", "085404.609000", "085404.611000", "085404.614000", "085404.616000", "085441.927000", "085441.935000", "085441.937000", "085441.940000", "085441.942000", "085441.949000", "085441.951000", "085441.954000", "085441.956000", "085441.959000", "085441.961000", "085441.964000", "085441.971000", "085441.974000", "085441.977000", "085441.980000", "085441.983000", "085441.985000", "085441.988000"],
      "InstanceCreationTime": ["084844.576000", "084844.580000", "084844.582000", "084844.584000", "084844.587000", "084844.589000", "084844.591000", "084844.594000", "084844.596000", "084844.598000", "084844.601000", "084844.603000", "084844.605000", "084844.608000", "084844.610000", "084844.613000", "084844.615000", "084844.617000", "084844.620000", "084844.622000", "084844.624000", "084924.571000", "084924.574000", "084924.576000", "084924.579000", "084924.581000", "084924.590000", "084924.593000", "084924.595000", "084924.597000", "084924.600000", "084924.602000", "084924.605000", "084924.607000", "084924.609000", "084924.612000", "084924.614000", "084924.616000", "084924.619000", "084924.621000", "084924.623000", "085004.572000", "085004.575000", "085004.594000", "085004.596000", "085004.599000", "085004.601000", "085004.603000", "085004.606000", "085004.608000", "085004.610000", "085004.613000", "085004.615000", "085004.617000", "085004.620000", "085004.622000", "085004.624000", "085004.627000", "085004.642000", "085004.644000", "085004.647000", "085044.572000", "085044.575000", "085044.578000", "085044.580000", "085044.582000", "085044.585000", "085044.587000", "085044.589000", "085044.592000", "085044.594000", "085044.597000", "085044.599000", "085044.601000", "085044.604000", "085044.606000", "085044.608000", "085044.611000", "085044.613000", "085044.615000", "085044.618000", "085124.571000", "085124.574000", "085124.576000", "085124.579000", "085124.581000", "085124.583000", "085124.586000", "085124.588000", "085124.591000", "085124.593000", "085124.595000", "085124.598000", "085124.600000", "085124.602000", "085124.605000", "085124.607000", "085124.609000", "085124.612000", "085124.614000", "085124.616000", "085204.571000", "085204.574000", "085204.576000", "085204.579000", "085204.581000", "085204.583000", "085204.586000", "085204.588000", "085204.590000", "085204.593000", "085204.595000", "085204.597000", "085204.600000", "085204.602000", "085204.604000", "085204.607000", "085204.609000", "085204.612000", "085204.614000", "085204.616000", "085244.572000", "085244.575000", "085244.577000", "085244.580000", "085244.582000", "085244.584000", "085244.587000", "085244.589000", "085244.591000", "085244.594000", "085244.596000", "085244.599000", "085244.642000", "085244.644000", "085244.646000", "085244.649000", "085244.651000", "085244.653000", "085244.663000", "085244.665000", "085324.571000", "085324.574000", "085324.576000", "085324.578000", "085324.581000", "085324.583000", "085324.585000", "085324.588000", "085324.590000", "085324.592000", "085324.595000", "085324.597000", "085324.600000", "085324.602000", "085324.604000", "085324.607000", "085324.609000", "085324.611000", "085324.614000", "085324.616000", "085404.571000", "085404.574000", "085404.576000", "085404.579000", "085404.581000", "085404.583000", "085404.586000", "085404.588000", "085404.590000", "085404.593000", "085404.595000", "085404.597000", "085404.600000", "085404.602000", "085404.604000", "085404.607000", "085404.609000", "085404.611000", "085404.614000", "085404.616000", "085441.927000", "085441.935000", "085441.937000", "085441.940000", "085441.942000", "085441.949000", "085441.951000", "085441.954000", "085441.956000", "085441.959000", "085441.961000", "085441.964000", "085441.971000", "085441.974000", "085441.977000", "085441.980000", "085441.983000", "085441.985000", "085441.988000"],
      "InstanceNumber": [1, 2, 3, 4, 5, 6, 7, 8, 9, 10, 11, 12, 13, 14, 15, 16, 17, 18, 19, 20, 21, 22, 23, 24, 25, 26, 27, 28, 29, 30, 31, 32, 33, 34, 35, 36, 37, 38, 39, 40, 41, 42, 43, 44, 45, 46, 47, 48, 49, 50, 51, 52, 53, 54, 55, 56, 57, 58, 59, 60, 61, 62, 63, 64, 65, 66, 67, 68, 69, 70, 71, 72, 73, 74, 75, 76, 77, 78, 79, 80, 81, 82, 83, 84, 85, 86, 87, 88, 89, 90, 91, 92, 93, 94, 95, 96, 97, 98, 99, 100, 101, 102, 103, 104, 105, 106, 107, 108, 109, 110, 111, 112, 113, 114, 115, 116, 117, 118, 119, 120, 121, 122, 123, 124, 125, 126, 127, 128, 129, 130, 131, 132, 133, 134, 135, 136, 137, 138, 139, 140, 141, 142, 143, 144, 145, 146, 147, 148, 149, 150, 151, 152, 153, 154, 155, 156, 157, 158, 159, 160, 161, 162, 163, 164, 165, 166, 167, 168, 169, 170, 171, 172, 173, 174, 175, 176, 177, 178, 179, 180, 181, 182, 183, 184, 185, 186, 187, 188, 189, 190, 191, 192, 193, 194, 195, 196, 197, 198, 199, 200],
      "LargestImagePixelValue": [3642, 3646, 3643, 3643, 3640, 3648, 3647, 3643, 3639, 3642, 3648, 3640, 3655, 3642, 3642, 3632, 3632, 3636, 3632, 3643, 3638, 3638, 3652, 3639, 3644, 3637, 3642, 3647, 3641, 3656, 3647, 3651, 3650, 3656, 3642, 3676, 3655, 3656, 3649, 3650, 3643, 3648, 3643, 3652, 3656, 3650, 3649, 3648, 3644, 3652, 3654, 3639, 3652, 3642, 3647, 3642, 3646, 3651, 3644, 3645, 3655, 3656, 3662, 3650, 3658, 3642, 3660, 3648, 3665, 3646, 3661, 3653, 3655, 3646, 3652, 3664, 3645, 3636, 3647, 3647, 3651, 3652, 3659, 3656, 3647, 3654, 3642, 3643, 3643, 3644, 3652, 3648, 3650, 3650, 3668, 3652, 3651, 3644, 3648, 3652, 3653, 3656, 3648, 3654, 3652, 3642, 3658, 3652, 3644, 3642, 3641, 3646, 3638, 3652, 3648, 3635, 3639, 3646, 3662, 3647, 3664, 3649, 3647, 3649, 3646, 3651, 3661, 3644, 3644, 3646, 3658, 3654, 3645, 3659, 3657, 3649, 3660, 3660, 3651, 3651, 3640, 3641, 3657, 3658, 3653, 3644, 3649, 3647, 3646, 3661, 3660, 3659, 3658, 3644, 3646, 3655, 3646, 3662, 3653, 3657, 3647, 3651, 3643, 3648, 3644, 3653, 3640, 3647, 3645, 3639, 3646, 3646, 3638, 3649, 3650, 3650, 3640, 3641, 3647, 3657, 3645, 3642, 3642, 3657, 3659, 3654, 3641, 3654, 3649, 3647, 3659, 3654, 3666, 3650, 3649, 3647, 3642, 3645, 3654, 3660],
      "WindowCenter": [1380.0, 1379.0, 1379.0, 1380.0, 1380.0, 1379.0, 1380.0, 1379.0, 1379.0, 1380.0, 1379.0, 1379.0, 1379.0, 1379.0, 1379.0, 1379.0, 1379.0, 1379.0, 1379.0, 1379.0, 1379.0, 1379.0, 1379.0, 1379.0, 1379.0, 1379.0, 1379.0, 1379.0, 1379.0, 1379.0, 1379.0, 1379.0, 1379.0, 1379.0, 1379.0, 1379.0, 1379.0, 1379.0, 1379.0, 1379.0, 1379.0, 1380.0, 1379.0, 1379.0, 1379.0, 1380.0, 1379.0, 1379.0, 1379.0, 1379.0, 1380.0, 1379.0, 1379.0, 1379.0, 1379.0, 1379.0, 1379.0, 1379.0, 1379.0, 1379.0, 1379.0, 1379.0, 1379.0, 1379.0, 1379.0, 1379.0, 1379.0, 1379.0, 1379.0, 1379.0, 1378.0, 1379.0, 1379.0, 1378.0, 1379.0, 1379.0, 1379.0, 1379.0, 1380.0, 1379.0, 1380.0, 1379.0, 1379.0, 1379.0, 1379.0, 1379.0, 1379.0, 1380.0, 1379.0, 1380.0, 1379.0, 1379.0, 1379.0, 1379.0, 1380.0, 1380.0, 1379.0, 1379.0, 1379.0, 1379.0, 1379.0, 1379.0, 1379.0, 1379.0, 1379.0, 1379.0, 1380.0, 1380.0, 1379.0, 1380.0, 1379.0, 1379.0, 1379.0, 1380.0, 1380.0, 1379.0, 1380.0, 1379.0, 1379.0, 1380.0, 1379.0, 1379.0, 1379.0, 1380.0, 1379.0, 1379.0, 1380.0, 1380.0, 1379.0, 1379.0, 1379.0, 1379.0, 1380.0, 1380.0, 1380.0, 1379.0, 1379.0, 1379.0, 1379.0, 1378.0, 1380.0, 1378.0, 1379.0, 1379.0, 1379.0, 1380.0, 1379.0, 1379.0, 1379.0, 1380.0, 1380.0, 1379.0, 1380.0, 1379.0, 1379.0, 1379.0, 1379.0, 1380.0, 1379.0, 1379.0, 1379.0, 1379.0, 1379.0, 1379.0, 1380.0, 1380.0, 1379.0, 1379.0, 1379.0, 1379.0, 1379.0, 1380.0, 1379.0, 1380.0, 1379.0, 1379.0, 1379.0, 1380.0, 1380.0, 1379.0, 1379.0, 1379.0, 1380.0, 1378.0, 1380.0, 1380.0, 1380.0, 1379.0, 1379.0, 1379.0, 1380.0, 1379.0, 1379.0, 1378.0, 1379.0, 1380.0, 1379.0, 1379.0, 1379.0, 1379.0],
      "WindowWidth": [3218.0, 3216.0, 3216.0, 3216.0, 3216.0, 3216.0, 3216.0, 3216.0, 3216.0, 3216.0, 3216.0, 3216.0, 3216.0, 3216.0, 3216.0, 3216.0, 3216.0, 3216.0, 3216.0, 3216.0, 3216.0, 3216.0, 3216.0, 3216.0, 3216.0, 3216.0, 3216.0, 3216.0, 3216.0, 3217.0, 3217.0, 3217.0, 3217.0, 3217.0, 3216.0, 3217.0, 3217.0, 3217.0, 3217.0, 3217.0, 3217.0, 3217.0, 3217.0, 3217.0, 3217.0, 3217.0, 3217.0, 3217.0, 3217.0, 3217.0, 3217.0, 3217.0, 3217.0, 3217.0, 3217.0, 3217.0, 3217.0, 3217.0, 3217.0, 3217.0, 3217.0, 3217.0, 3217.0, 3217.0, 3217.0, 3217.0, 3217.0, 3217.0, 3217.0, 3217.0, 3217.0, 3217.0, 3217.0, 3217.0, 3217.0, 3217.0, 3217.0, 3217.0, 3217.0, 3217.0, 3217.0, 3218.0, 3217.0, 3218.0, 3217.0, 3217.0, 3217.0, 3217.0, 3217.0, 3217.0, 3217.0, 3218.0, 3218.0, 3217.0, 3217.0, 3217.0, 3217.0, 3217.0, 3217.0, 3217.0, 3217.0, 3217.0, 3217.0, 3217.0, 3217.0, 3217.0, 3217.0, 3217.0, 3217.0, 3217.0, 3217.0, 3217.0, 3217.0, 3217.0, 3217.0, 3217.0, 3217.0, 3217.0, 3217.0, 3216.0, 3217.0, 3217.0, 3217.0, 3217.0, 3217.0, 3217.0, 3217.0, 3217.0, 3218.0, 3218.0, 3217.0, 3217.0, 3217.0, 3217.0, 3216.0, 3217.0, 3217.0, 3217.0, 3217.0, 3217.0, 3217.0, 3217.0, 3217.0, 3217.0, 3217.0, 3217.0, 3217.0, 3217.0, 3217.0, 3217.0, 3217.0, 3217.0, 3217.0, 3217.0, 3217.0, 3217.0, 3217.0, 3217.0, 3217.0, 3217.0, 3217.0, 3217.0, 3217.0, 3217.0, 3217.0, 3217.0, 3217.0, 3217.0, 3217.0, 3217.0, 3217.0, 3217.0, 3217.0, 3217.0, 3217.0, 3217.0, 3217.0, 3217.0, 3217.0, 3217.0, 3217.0, 3217.0, 3217.0, 3217.0, 3217.0, 3217.0, 3217.0, 3217.0, 3217.0, 3217.0, 3217.0, 3217.0, 3217.0, 3217.0, 3217.0, 3216.0, 3217.0, 3217.0, 3217.0, 3217.0]
    },
    "slices": {}
  }
}