{
  "AcquisitionMatrixPE": 80,
  "AcquisitionNumber": 1,
  "AcquisitionTime": "10:25:46.515000",
  "BandwidthPerPixelPhaseEncode": 25,
  "BaseResolution": 80,
  "BodyPartExamined": "BRAIN",
  "CoilCombinationMethod": "Sum of Squares",
  "ConsistencyInfo": "N4_VE11C_LATEST_20160120",
  "ConversionSoftware": "dcm2niix",
  "ConversionSoftwareVersion": "v1.0.20220720",
  "DerivedVendorReportedEchoSpacing": 0.0005,
  "DeviceSerialNumber": "66112",
  "DwellTime": 2.7e-06,
  "EchoTime": 0.03,
  "EchoTrainLength": 80,
  "EffectiveEchoSpacing": 0.0005,
  "FlipAngle": 77,
  "HeudiconvVersion": "0.13.1",
  "ImageOrientationPatientDICOM": [0.98487, 0.173009, 0.00998424, -0.167639, 0.936536, 0.307893],
  "ImageOrientationText": "Tra>Cor(17.8)>Sag(-2.5)",
  "ImageType": [
    "ORIGINAL",
    "PRIMARY",
    "M",
    "ND",
    "NORM",
    "MOSAIC"
],
  "ImagingFrequency": 123.252,
  "InPlanePhaseEncodingDirectionDICOM": "COL",
  "InstitutionAddress": "Maynard 3,Hanover,NH,US,03755",
  "InstitutionName": "Dartmouth College - PBS",
  "InstitutionalDepartmentName": "Department",
  "MRAcquisitionType": "2D",
  "MagneticFieldStrength": 3,
  "Manufacturer": "Siemens",
  "ManufacturersModelName": "Prisma",
  "MatrixCoilMode": "SENSE",
  "Modality": "MR",
  "NonlinearGradientCorrection": false,
  "PartialFourier": 1,
  "PatientPosition": "HFS",
  "PercentPhaseFOV": 100,
  "PercentSampling": 100,
  "PhaseEncodingDirection": "j-",
  "PhaseEncodingSteps": 80,
  "PhaseResolution": 1,
  "PixelBandwidth": 2315,
  "ProcedureStepDescription": "dbic^QA",
  "ProtocolName": "func-bold_fa-77",
  "PulseSequenceDetails": "%SiemensSeq%\\ep2d_bold",
  "ReceiveCoilActiveElements": "HEA;HEP",
  "ReceiveCoilName": "Head_32",
  "ReconMatrixPE": 80,
  "RepetitionTime": 2,
  "SAR": 0.0436301,
  "ScanOptions": "FS",
  "ScanningSequence": "EP",
  "SequenceName": "*epfid2d1_80",
  "SequenceVariant": "SK",
  "SeriesDescription": "func-bold_fa-77",
  "SeriesNumber": 8,
  "ShimSetting": [4143, -7695, -7522, 252, -74, -16, 9, 46],
  "SliceThickness": 3.5,
  "SliceTiming": [0.99, 0, 1.055, 0.065, 1.1225, 0.1325, 1.1875, 0.1975, 1.2525, 0.2625, 1.32, 0.33, 1.385, 0.395, 1.4525, 0.4625, 1.5175, 0.5275, 1.5825, 0.5925, 1.65, 0.66, 1.715, 0.725, 1.7825, 0.7925, 1.8475, 0.8575, 1.9125, 0.9225],
  "SoftwareVersions": "syngo MR E11",
  "SpacingBetweenSlices": 3.99,
  "StationName": "AWP66112",
  "TotalReadoutTime": 0.0395,
  "TxRefAmp": 222.075,
  "dcmmeta_affine": [
    [-2.9546091556549072, -0.5029178261756897, -0.17523106932640076, 143.86720275878906],
    [-0.519025981426239, 2.8096067905426025, 1.2165839672088623, -102.57038879394531],
    [0.029952723532915115, -0.9236791133880615, 3.7959606647491455, -8.048918724060059],
    [0.0, 0.0, 0.0, 1.0]
],
  "dcmmeta_reorient_transform": [
    [0.0, -1.0, 0.0, 79.0],
    [1.0, 0.0, 0.0, 0.0],
    [0.0, 0.0, 1.0, 0.0],
    [0.0, 0.0, 0.0, 1.0]
],
  "dcmmeta_shape": [80, 80, 30, 200],
  "dcmmeta_slice_dim": 2,
  "dcmmeta_version": 0.6,
  "global": {
    "const": {
      "AccessionNumber": "qa",
      "AcquisitionMatrix": [80, 0, 0, 80],
      "AngioFlag": "N",
      "BitsAllocated": 16,
      "BitsStored": 12,
      "BodyPartExamined": "BRAIN",
      "Columns": 480,
      "EchoNumbers": 1,
      "EchoTime": 30.0,
      "EchoTrainLength": 80,
      "FlipAngle": 77.0,
      "HighBit": 11,
      "ImageOrientationPatient": [0.98486969732876, 0.17300865359135, 0.0099842408857, -0.1676392765124, 0.93653561219301, 0.30789303347865],
      "ImagePositionPatient": [-594.47494710097, -785.11511362853, -271.74593182334],
      "ImageType": [
        "ORIGINAL",
        "PRIMARY",
        "M",
        "ND",
        "NORM",
        "MOSAIC"
],
      "ImagedNucleus": "1H",
      "ImagingFrequency": 123.252356,
      "InPlanePhaseEncodingDirection": "COL",
      "MRAcquisitionType": "2D",
      "MagneticFieldStrength": 3.0,
      "Manufacturer": "SIEMENS",
      "ManufacturerModelName": "Prisma",
      "Modality": "MR",
      "NumberOfAverages": 1.0,
      "NumberOfPhaseEncodingSteps": 80,
      "PercentPhaseFieldOfView": 100.0,
      "PercentSampling": 100.0,
      "PerformedProcedureStepStartTime": "100300.055000",
      "PhotometricInterpretation": "MONOCHROME2",
      "PixelBandwidth": 2315.0,
      "PixelRepresentation": 0,
      "PixelSpacing": [3.0, 3.0],
      "ProtocolName": "func-bold_fa-77",
      "RepetitionTime": 2000.0,
      "Rows": 480,
      "SAR": 0.04363011456561,
      "SamplesPerPixel": 1,
      "ScanOptions": "FS",
      "ScanningSequence": "EP",
      "SequenceName": "*epfid2d1_80",
      "SequenceVariant": "SK",
      "SeriesDescription": "func-bold_fa-77",
      "SeriesNumber": 8,
      "SeriesTime": "102627.682000",
      "SliceLocation": -45.250343734133,
      "SliceThickness": 3.5,
      "SmallestImagePixelValue": 0,
      "SoftwareVersions": "syngo MR E11",
      "SpacingBetweenSlices": 3.9899999744354,
      "SpecificCharacterSet": "ISO_IR 100",
      "StudyID": "29",
      "StudyTime": "100300.004000",
      "TransmitCoilName": "Body",
      "VariableFlipAngleFlag": "N",
      "WindowCenterWidthExplanation": "Algo1",
      "dBdt": 0.0},
    "slices": {}
  },
  "time": {
    "samples": {
      "AcquisitionNumber": [1, 2, 3, 4, 5, 6, 7, 8, 9, 10, 11, 12, 13, 14, 15, 16, 17, 18, 19, 20, 21, 22, 23, 24, 25, 26, 27, 28, 29, 30, 31, 32, 33, 34, 35, 36, 37, 38, 39, 40, 41, 42, 43, 44, 45, 46, 47, 48, 49, 50, 51, 52, 53, 54, 55, 56, 57, 58, 59, 60, 61, 62, 63, 64, 65, 66, 67, 68, 69, 70, 71, 72, 73, 74, 75, 76, 77, 78, 79, 80, 81, 82, 83, 84, 85, 86, 87, 88, 89, 90, 91, 92, 93, 94, 95, 96, 97, 98, 99, 100, 101, 102, 103, 104, 105, 106, 107, 108, 109, 110, 111, 112, 113, 114, 115, 116, 117, 118, 119, 120, 121, 122, 123, 124, 125, 126, 127, 128, 129, 130, 131, 132, 133, 134, 135, 136, 137, 138, 139, 140, 141, 142, 143, 144, 145, 146, 147, 148, 149, 150, 151, 152, 153, 154, 155, 156, 157, 158, 159, 160, 161, 162, 163, 164, 165, 166, 167, 168, 169, 170, 171, 172, 173, 174, 175, 176, 177, 178, 179, 180, 181, 182, 183, 184, 185, 186, 187, 188, 189, 190, 191, 192, 193, 194, 195, 196, 197, 198, 199, 200],
      "AcquisitionTime": ["102546.515000", "102548.515000", "102550.515000", "102552.515000", "102554.515000", "102556.515000", "102558.515000", "102600.515000", "102602.515000", "102604.515000", "102606.515000", "102608.515000", "102610.515000", "102612.515000", "102614.515000", "102616.515000", "102618.515000", "102620.515000", "102622.515000", "102624.515000", "102626.515000", "102628.515000", "102630.515000", "102632.515000", "102634.515000", "102636.515000", "102638.515000", "102640.515000", "102642.515000", "102644.515000", "102646.515000", "102648.515000", "102650.515000", "102652.515000", "102654.515000", "102656.515000", "102658.515000", "102700.515000", "102702.515000", "102704.515000", "102706.515000", "102708.515000", "102710.515000", "102712.515000", "102714.515000", "102716.515000", "102718.515000", "102720.515000", "102722.515000", "102724.515000", "102726.515000", "102728.515000", "102730.515000", "102732.515000", "102734.515000", "102736.515000", "102738.515000", "102740.515000", "102742.515000", "102744.515000", "102746.515000", "102748.515000", "102750.515000", "102752.515000", "102754.515000", "102756.515000", "102758.515000", "102800.515000", "102802.515000", "102804.515000", "102806.515000", "102808.515000", "102810.515000", "102812.515000", "102814.515000", "102816.515000", "102818.515000", "102820.515000", "102822.515000", "102824.515000", "102826.515000", "102828.515000", "102830.515000", "102832.515000", "102834.515000", "102836.515000", "102838.515000", "102840.515000", "102842.515000", "102844.515000", "102846.515000", "102848.515000", "102850.515000", "102852.515000", "102854.515000", "102856.515000", "102858.515000", "102900.515000", "102902.515000", "102904.515000", "102906.515000", "102908.515000", "102910.515000", "102912.515000", "102914.515000", "102916.515000", "102918.515000", "102920.515000", "102922.515000", "102924.515000", "102926.515000", "102928.515000", "102930.515000", "102932.515000", "102934.515000", "102936.515000", "102938.515000", "102940.515000", "102942.515000", "102944.515000", "102946.515000", "102948.515000", "102950.515000", "102952.515000", "102954.515000", "102956.515000", "102958.515000", "103000.515000", "103002.515000", "103004.515000", "103006.515000", "103008.515000", "103010.515000", "103012.515000", "103014.515000", "103016.515000", "103018.515000", "103020.515000", "103022.515000", "103024.515000", "103026.515000", "103028.515000", "103030.515000", "103032.515000", "103034.515000", "103036.515000", "103038.515000", "103040.515000", "103042.515000", "103044.515000", "103046.515000", "103048.515000", "103050.515000", "103052.515000", "103054.515000", "103056.515000", "103058.515000", "103100.515000", "103102.515000", "103104.515000", "103106.515000", "103108.515000", "103110.515000", "103112.515000", "103114.515000", "103116.515000", "103118.515000", "103120.515000", "103122.515000", "103124.515000", "103126.515000", "103128.515000", "103130.515000", "103132.515000", "103134.515000", "103136.515000", "103138.515000", "103140.515000", "103142.515000", "103144.515000", "103146.515000", "103148.515000", "103150.515000", "103152.515000", "103154.515000", "103156.515000", "103158.515000", "103200.515000", "103202.515000", "103204.515000", "103206.515000", "103208.515000", "103210.515000", "103212.515000", "103214.515000", "103216.515000", "103218.515000", "103220.515000", "103222.515000", "103224.515000"],
      "ContentTime": ["102627.685000", "102627.688000", "102627.691000", "102627.694000", "102627.696000", "102627.698000", "102627.701000", "102627.703000", "102627.706000", "102627.717000", "102627.720000", "102627.722000", "102627.725000", "102627.727000", "102627.730000", "102627.732000", "102627.735000", "102627.737000", "102627.740000", "102627.742000", "102707.679000", "102707.682000", "102707.685000", "102707.687000", "102707.690000", "102707.692000", "102707.695000", "102707.697000", "102707.700000", "102707.702000", "102707.705000", "102707.707000", "102707.710000", "102707.712000", "102707.715000", "102707.717000", "102707.720000", "102707.722000", "102707.725000", "102707.727000", "102747.679000", "102747.682000", "102747.685000", "102747.687000", "102747.690000", "102747.692000", "102747.695000", "102747.697000", "102747.700000", "102747.702000", "102747.705000", "102747.707000", "102747.710000", "102747.721000", "102747.723000", "102747.726000", "102747.728000", "102747.731000", "102747.733000", "102747.736000", "102827.681000", "102827.683000", "102827.686000", "102827.689000", "102827.691000", "102827.694000", "102827.696000", "102827.699000", "102827.701000", "102827.704000", "102827.706000", "102827.709000", "102827.711000", "102827.713000", "102827.716000", "102827.718000", "102827.721000", "102827.723000", "102827.726000", "102827.728000", "102907.680000", "102907.683000", "102907.686000", "102907.688000", "102907.691000", "102907.693000", "102907.696000", "102907.698000", "102907.701000", "102907.703000", "102907.706000", "102907.708000", "102907.711000", "102907.713000", "102907.716000", "102907.718000", "102907.721000", "102907.723000", "102907.726000", "102907.728000", "102947.679000", "102947.682000", "102947.685000", "102947.687000", "102947.690000", "102947.692000", "102947.695000", "102947.697000", "102947.700000", "102947.702000", "102947.705000", "102947.707000", "102947.710000", "102947.712000", "102947.715000", "102947.718000", "102947.720000", "102947.722000", "102947.725000", "102947.728000", "103027.680000", "103027.683000", "103027.686000", "103027.688000", "103027.691000", "103027.693000", "103027.696000", "103027.698000", "103027.701000", "103027.704000", "103027.706000", "103027.709000", "103027.711000", "103027.713000", "103027.716000", "103027.719000", "103027.721000", "103027.724000", "103027.726000", "103027.729000", "103107.680000", "103107.683000", "103107.686000", "103107.688000", "103107.691000", "103107.693000", "103107.696000", "103107.698000", "103107.701000", "103107.704000", "103107.706000", "103107.709000", "103107.711000", "103107.714000", "103107.716000", "103107.719000", "103107.721000", "103107.724000", "103107.726000", "103107.729000", "103147.679000", "103147.682000", "103147.685000", "103147.687000", "103147.690000", "103147.692000", "103147.695000", "103147.697000", "103147.700000", "103147.702000", "103147.705000", "103147.707000", "103147.710000", "103147.712000", "103147.715000", "103147.717000", "103147.720000", "103147.722000", "103147.725000", "103147.727000", "103226.306000", "103226.317000", "103226.320000", "103226.322000", "103226.325000", "103226.328000", "103226.330000", "103226.333000", "103226.335000", "103226.339000", "103226.343000", "103226.347000", "103226.351000", "103226.353000", "103226.359000", "103226.362000", "103226.365000", "103226.368000", "103226.371000", "103226.373000"],
      "InstanceCreationTime": ["102627.685000", "102627.688000", "102627.691000", "102627.694000", "102627.696000", "102627.698000", "102627.701000", "102627.703000", "102627.706000", "102627.717000", "102627.720000", "102627.722000", "102627.725000", "102627.727000", "102627.730000", "102627.732000", "102627.735000", "102627.737000", "102627.740000", "102627.742000", "102707.679000", "102707.682000", "102707.685000", "102707.687000", "102707.690000", "102707.692000", "102707.695000", "102707.697000", "102707.700000", "102707.702000", "102707.705000", "102707.707000", "102707.710000", "102707.712000", "102707.715000", "102707.717000", "102707.720000", "102707.722000", "102707.725000", "102707.727000", "102747.679000", "102747.682000", "102747.685000", "102747.687000", "102747.690000", "102747.692000", "102747.695000", "102747.697000", "102747.700000", "102747.702000", "102747.705000", "102747.707000", "102747.710000", "102747.721000", "102747.723000", "102747.726000", "102747.728000", "102747.731000", "102747.733000", "102747.736000", "102827.681000", "102827.683000", "102827.686000", "102827.689000", "102827.691000", "102827.694000", "102827.696000", "102827.699000", "102827.701000", "102827.704000", "102827.706000", "102827.709000", "102827.711000", "102827.713000", "102827.716000", "102827.718000", "102827.721000", "102827.723000", "102827.726000", "102827.728000", "102907.680000", "102907.683000", "102907.686000", "102907.688000", "102907.691000", "102907.693000", "102907.696000", "102907.698000", "102907.701000", "102907.703000", "102907.706000", "102907.708000", "102907.711000", "102907.713000", "102907.716000", "102907.718000", "102907.721000", "102907.723000", "102907.726000", "102907.728000", "102947.679000", "102947.682000", "102947.685000", "102947.687000", "102947.690000", "102947.692000", "102947.695000", "102947.697000", "102947.700000", "102947.702000", "102947.705000", "102947.707000", "102947.710000", "102947.712000", "102947.715000", "102947.718000", "102947.720000", "102947.722000", "102947.725000", "102947.728000", "103027.680000", "103027.683000", "103027.686000", "103027.688000", "103027.691000", "103027.693000", "103027.696000", "103027.698000", "103027.701000", "103027.704000", "103027.706000", "103027.709000", "103027.711000", "103027.713000", "103027.716000", "103027.719000", "103027.721000", "103027.724000", "103027.726000", "103027.729000", "103107.680000", "103107.683000", "103107.686000", "103107.688000", "103107.691000", "103107.693000", "103107.696000", "103107.698000", "103107.701000", "103107.704000", "103107.706000", "103107.709000", "103107.711000", "103107.714000", "103107.716000", "103107.719000", "103107.721000", "103107.724000", "103107.726000", "103107.729000", "103147.679000", "103147.682000", "103147.685000", "103147.687000", "103147.690000", "103147.692000", "103147.695000", "103147.697000", "103147.700000", "103147.702000", "103147.705000", "103147.707000", "103147.710000", "103147.712000", "103147.715000", "103147.717000", "103147.720000", "103147.722000", "103147.725000", "103147.727000", "103226.306000", "103226.317000", "103226.320000", "103226.322000", "103226.325000", "103226.328000", "103226.330000", "103226.333000", "103226.335000", "103226.339000", "103226.343000", "103226.347000", "103226.351000", "103226.353000", "103226.359000", "103226.362000", "103226.365000", "103226.368000", "103226.371000", "103226.373000"],
      "InstanceNumber": [1, 2, 3, 4, 5, 6, 7, 8, 9, 10, 11, 12, 13, 14, 15, 16, 17, 18, 19, 20, 21, 22, 23, 24, 25, 26, 27, 28, 29, 30, 31, 32, 33, 34, 35, 36, 37, 38, 39, 40, 41, 42, 43, 44, 45, 46, 47, 48, 49, 50, 51, 52, 53, 54, 55, 56, 57, 58, 59, 60, 61, 62, 63, 64, 65, 66, 67, 68, 69, 70, 71, 72, 73, 74, 75, 76, 77, 78, 79, 80, 81, 82, 83, 84, 85, 86, 87, 88, 89, 90, 91, 92, 93, 94, 95, 96, 97, 98, 99, 100, 101, 102, 103, 104, 105, 106, 107, 108, 109, 110, 111, 112, 113, 114, 115, 116, 117, 118, 119, 120, 121, 122, 123, 124, 125, 126, 127, 128, 129, 130, 131, 132, 133, 134, 135, 136, 137, 138, 139, 140, 141, 142, 143, 144, 145, 146, 147, 148, 149, 150, 151, 152, 153, 154, 155, 156, 157, 158, 159, 160, 161, 162, 163, 164, 165, 166, 167, 168, 169, 170, 171, 172, 173, 174, 175, 176, 177, 178, 179, 180, 181, 182, 183, 184, 185, 186, 187, 188, 189, 190, 191, 192, 193, 194, 195, 196, 197, 198, 199, 200],
      "LargestImagePixelValue": [2266, 2266, 2266, 2267, 2267, 2266, 2266, 2266, 2264, 2266, 2264, 2265, 2264, 2267, 2264, 2267, 2266, 2265, 2265, 2265, 2265, 2265, 2263, 2267, 2265, 2268, 2265, 2265, 2267, 2265, 2265, 2264, 2265, 2265, 2263, 2265, 2265, 2265, 2264, 2265, 2265, 2264, 2266, 2265, 2267, 2266, 2266, 2265, 2265, 2266, 2265, 2265, 2263, 2265, 2264, 2263, 2264, 2266, 2266, 2265, 2266, 2265, 2265, 2266, 2264, 2265, 2265, 2266, 2266, 2263, 2266, 2264, 2265, 2265, 2262, 2260, 2263, 2263, 2264, 2264, 2264, 2261, 2263, 2262, 2265, 2262, 2262, 2263, 2261, 2262, 2262, 2262, 2262, 2260, 2261, 2263, 2261, 2261, 2260, 2262, 2261, 2262, 2263, 2262, 2262, 2260, 2261, 2262, 2261, 2261, 2261, 2262, 2261, 2260, 2264, 2261, 2261, 2261, 2261, 2261, 2259, 2261, 2259, 2262, 2260, 2262, 2264, 2262, 2261, 2263, 2261, 2262, 2262, 2261, 2258, 2261, 2259, 2260, 2259, 2258, 2259, 2261, 2260, 2262, 2259, 2260, 2262, 2259, 2262, 2260, 2263, 2260, 2262, 2261, 2260, 2258, 2260, 2260, 2259, 2259, 2261, 2261, 2259, 2261, 2258, 2260, 2259, 2261, 2262, 2259, 2260, 2260, 2260, 2259, 2260, 2259, 2258, 2258, 2259, 2259, 2259, 2257, 2260, 2258, 2261, 2260, 2259, 2259, 2261, 2262, 2258, 2260, 2262, 2260, 2259, 2259, 2258, 2256, 2258, 2258],
      "WindowCenter": [1033.0, 1032.0, 1033.0, 1032.0, 1031.0, 1032.0, 1032.0, 1033.0, 1031.0, 1030.0, 1033.0, 1033.0, 1032.0, 1032.0, 1031.0, 1031.0, 1032.0, 1032.0, 1033.0, 1032.0, 1033.0, 1031.0, 1032.0, 1032.0, 1032.0, 1033.0, 1032.0, 1030.0, 1033.0, 1031.0, 1032.0, 1032.0, 1032.0, 1031.0, 1032.0, 1032.0, 1032.0, 1032.0, 1033.0, 1032.0, 1031.0, 1032.0, 1033.0, 1031.0, 1033.0, 1031.0, 1032.0, 1032.0, 1032.0, 1032.0, 1032.0, 1032.0, 1032.0, 1033.0, 1032.0, 1034.0, 1030.0, 1031.0, 1033.0, 1032.0, 1032.0, 1032.0, 1032.0, 1031.0, 1032.0, 1031.0, 1031.0, 1033.0, 1032.0, 1032.0, 1033.0, 1033.0, 1032.0, 1031.0, 1032.0, 1031.0, 1031.0, 1031.0, 1033.0, 1032.0, 1032.0, 1032.0, 1031.0, 1030.0, 1031.0, 1033.0, 1032.0, 1030.0, 1032.0, 1032.0, 1031.0, 1033.0, 1031.0, 1031.0, 1030.0, 1030.0, 1030.0, 1032.0, 1032.0, 1031.0, 1032.0, 1030.0, 1031.0, 1031.0, 1031.0, 1031.0, 1031.0, 1031.0, 1031.0, 1032.0, 1030.0, 1031.0, 1032.0, 1032.0, 1031.0, 1029.0, 1030.0, 1032.0, 1031.0, 1030.0, 1032.0, 1030.0, 1031.0, 1031.0, 1031.0, 1031.0, 1030.0, 1030.0, 1032.0, 1032.0, 1032.0, 1032.0, 1031.0, 1032.0, 1029.0, 1031.0, 1030.0, 1032.0, 1032.0, 1032.0, 1030.0, 1031.0, 1031.0, 1031.0, 1032.0, 1032.0, 1031.0, 1032.0, 1030.0, 1032.0, 1032.0, 1031.0, 1030.0, 1032.0, 1031.0, 1031.0, 1031.0, 1031.0, 1032.0, 1030.0, 1030.0, 1030.0, 1031.0, 1031.0, 1032.0, 1030.0, 1029.0, 1030.0, 1031.0, 1031.0, 1031.0, 1032.0, 1030.0, 1032.0, 1032.0, 1031.0, 1031.0, 1030.0, 1031.0, 1031.0, 1031.0, 1031.0, 1030.0, 1029.0, 1032.0, 1032.0, 1031.0, 1031.0, 1032.0, 1031.0, 1032.0, 1031.0, 1032.0, 1031.0, 1031.0, 1030.0, 1031.0, 1030.0, 1031.0, 1031.0],
      "WindowWidth": [2325.0, 2324.0, 2325.0, 2324.0, 2323.0, 2324.0, 2324.0, 2325.0, 2324.0, 2323.0, 2324.0, 2325.0, 2324.0, 2324.0, 2323.0, 2323.0, 2323.0, 2324.0, 2324.0, 2324.0, 2324.0, 2323.0, 2324.0, 2324.0, 2324.0, 2325.0, 2324.0, 2322.0, 2324.0, 2323.0, 2324.0, 2323.0, 2323.0, 2323.0, 2323.0, 2323.0, 2323.0, 2323.0, 2324.0, 2323.0, 2323.0, 2323.0, 2324.0, 2322.0, 2324.0, 2323.0, 2323.0, 2323.0, 2324.0, 2323.0, 2323.0, 2323.0, 2322.0, 2324.0, 2323.0, 2325.0, 2322.0, 2323.0, 2324.0, 2323.0, 2323.0, 2324.0, 2323.0, 2323.0, 2323.0, 2322.0, 2322.0, 2324.0, 2323.0, 2323.0, 2324.0, 2324.0, 2323.0, 2322.0, 2323.0, 2322.0, 2322.0, 2322.0, 2324.0, 2323.0, 2323.0, 2324.0, 2322.0, 2322.0, 2323.0, 2323.0, 2323.0, 2321.0, 2323.0, 2323.0, 2322.0, 2323.0, 2322.0, 2322.0, 2321.0, 2321.0, 2321.0, 2323.0, 2322.0, 2321.0, 2322.0, 2321.0, 2322.0, 2322.0, 2322.0, 2322.0, 2321.0, 2321.0, 2321.0, 2322.0, 2320.0, 2321.0, 2321.0, 2322.0, 2322.0, 2321.0, 2321.0, 2323.0, 2322.0, 2321.0, 2323.0, 2321.0, 2321.0, 2321.0, 2321.0, 2322.0, 2321.0, 2321.0, 2323.0, 2322.0, 2323.0, 2322.0, 2321.0, 2322.0, 2320.0, 2322.0, 2321.0, 2323.0, 2322.0, 2322.0, 2320.0, 2322.0, 2321.0, 2322.0, 2322.0, 2322.0, 2321.0, 2322.0, 2320.0, 2322.0, 2322.0, 2321.0, 2320.0, 2322.0, 2321.0, 2321.0, 2321.0, 2321.0, 2322.0, 2320.0, 2320.0, 2320.0, 2321.0, 2321.0, 2322.0, 2320.0, 2319.0, 2321.0, 2321.0, 2321.0, 2322.0, 2322.0, 2320.0, 2322.0, 2322.0, 2322.0, 2322.0, 2320.0, 2321.0, 2322.0, 2321.0, 2321.0, 2321.0, 2320.0, 2323.0, 2322.0, 2322.0, 2322.0, 2322.0, 2322.0, 2322.0, 2322.0, 2322.0, 2321.0, 2321.0, 2320.0, 2321.0, 2320.0, 2321.0, 2321.0]
    },
    "slices": {}
  }
}