{
  "AcquisitionMatrixPE": 80,
  "AcquisitionNumber": 1,
  "AcquisitionTime": "10:32:33.510000",
  "BandwidthPerPixelPhaseEncode": 25,
  "BaseResolution": 80,
  "BodyPartExamined": "BRAIN",
  "CoilCombinationMethod": "Sum of Squares",
  "ConsistencyInfo": "N4_VE11C_LATEST_20160120",
  "ConversionSoftware": "dcm2niix",
  "ConversionSoftwareVersion": "v1.0.20220720",
  "DerivedVendorReportedEchoSpacing": 0.0005,
  "DeviceSerialNumber": "66112",
  "DwellTime": 2.7e-06,
  "EchoTime": 0.03,
  "EchoTrainLength": 80,
  "EffectiveEchoSpacing": 0.0005,
  "FlipAngle": 10,
  "HeudiconvVersion": "0.13.1",
  "ImageOrientationPatientDICOM": [0.98487, 0.173009, 0.00998424, -0.167639, 0.936536, 0.307893],
  "ImageOrientationText": "Tra>Cor(17.8)>Sag(-2.5)",
  "ImageType": [
    "ORIGINAL",
    "PRIMARY",
    "M",
    "ND",
    "NORM",
    "MOSAIC"
],
  "ImagingFrequency": 123.252,
  "InPlanePhaseEncodingDirectionDICOM": "COL",
  "InstitutionAddress": "Maynard 3,Hanover,NH,US,03755",
  "InstitutionName": "Dartmouth College - PBS",
  "InstitutionalDepartmentName": "Department",
  "MRAcquisitionType": "2D",
  "MagneticFieldStrength": 3,
  "Manufacturer": "Siemens",
  "ManufacturersModelName": "Prisma",
  "MatrixCoilMode": "SENSE",
  "Modality": "MR",
  "NonlinearGradientCorrection": false,
  "PartialFourier": 1,
  "PatientPosition": "HFS",
  "PercentPhaseFOV": 100,
  "PercentSampling": 100,
  "PhaseEncodingDirection": "j-",
  "PhaseEncodingSteps": 80,
  "PhaseResolution": 1,
  "PixelBandwidth": 2315,
  "ProcedureStepDescription": "dbic^QA",
  "ProtocolName": "func-bold_fa-10",
  "PulseSequenceDetails": "%SiemensSeq%\\ep2d_bold",
  "ReceiveCoilActiveElements": "HEA;HEP",
  "ReceiveCoilName": "Head_32",
  "ReconMatrixPE": 80,
  "RepetitionTime": 2,
  "SAR": 0.0117037,
  "ScanOptions": "FS",
  "ScanningSequence": "EP",
  "SequenceName": "*epfid2d1_80",
  "SequenceVariant": "SK",
  "SeriesDescription": "func-bold_fa-10",
  "SeriesNumber": 10,
  "ShimSetting": [4143, -7695, -7522, 252, -74, -16, 9, 46],
  "SliceThickness": 3.5,
  "SliceTiming": [0.99, 0, 1.055, 0.065, 1.12, 0.1325, 1.1875, 0.1975, 1.2525, 0.2625, 1.32, 0.33, 1.385, 0.395, 1.45, 0.4625, 1.5175, 0.5275, 1.5825, 0.5925, 1.65, 0.66, 1.715, 0.725, 1.78, 0.7925, 1.8475, 0.8575, 1.9125, 0.9225],
  "SoftwareVersions": "syngo MR E11",
  "SpacingBetweenSlices": 3.99,
  "StationName": "AWP66112",
  "TotalReadoutTime": 0.0395,
  "TxRefAmp": 222.075,
  "dcmmeta_affine": [
    [-2.9546091556549072, -0.5029178261756897, -0.17523106932640076, 143.86720275878906],
    [-0.519025981426239, 2.8096067905426025, 1.2165839672088623, -102.57038879394531],
    [0.029952723532915115, -0.9236791133880615, 3.7959606647491455, -8.048918724060059],
    [0.0, 0.0, 0.0, 1.0]
],
  "dcmmeta_reorient_transform": [
    [0.0, -1.0, 0.0, 79.0],
    [1.0, 0.0, 0.0, 0.0],
    [0.0, 0.0, 1.0, 0.0],
    [0.0, 0.0, 0.0, 1.0]
],
  "dcmmeta_shape": [80, 80, 30, 200],
  "dcmmeta_slice_dim": 2,
  "dcmmeta_version": 0.6,
  "global": {
    "const": {
      "AccessionNumber": "qa",
      "AcquisitionMatrix": [80, 0, 0, 80],
      "AngioFlag": "N",
      "BitsAllocated": 16,
      "BitsStored": 12,
      "BodyPartExamined": "BRAIN",
      "Columns": 480,
      "EchoNumbers": 1,
      "EchoTime": 30.0,
      "EchoTrainLength": 80,
      "FlipAngle": 10.0,
      "HighBit": 11,
      "ImageOrientationPatient": [0.98486969732876, 0.17300865359135, 0.0099842408857, -0.1676392765124, 0.93653561219301, 0.30789303347865],
      "ImagePositionPatient": [-594.47494710097, -785.11511362853, -271.74593182334],
      "ImageType": [
        "ORIGINAL",
        "PRIMARY",
        "M",
        "ND",
        "NORM",
        "MOSAIC"
],
      "ImagedNucleus": "1H",
      "ImagingFrequency": 123.252359,
      "InPlanePhaseEncodingDirection": "COL",
      "MRAcquisitionType": "2D",
      "MagneticFieldStrength": 3.0,
      "Manufacturer": "SIEMENS",
      "ManufacturerModelName": "Prisma",
      "Modality": "MR",
      "NumberOfAverages": 1.0,
      "NumberOfPhaseEncodingSteps": 80,
      "PercentPhaseFieldOfView": 100.0,
      "PercentSampling": 100.0,
      "PerformedProcedureStepStartTime": "100300.055000",
      "PhotometricInterpretation": "MONOCHROME2",
      "PixelBandwidth": 2315.0,
      "PixelRepresentation": 0,
      "PixelSpacing": [3.0, 3.0],
      "ProtocolName": "func-bold_fa-10",
      "RepetitionTime": 2000.0,
      "Rows": 480,
      "SAR": 0.01170373987058,
      "SamplesPerPixel": 1,
      "ScanOptions": "FS",
      "ScanningSequence": "EP",
      "SequenceName": "*epfid2d1_80",
      "SequenceVariant": "SK",
      "SeriesDescription": "func-bold_fa-10",
      "SeriesNumber": 10,
      "SeriesTime": "103327.753000",
      "SliceLocation": -45.250343734133,
      "SliceThickness": 3.5,
      "SmallestImagePixelValue": 0,
      "SoftwareVersions": "syngo MR E11",
      "SpacingBetweenSlices": 3.9899999744354,
      "SpecificCharacterSet": "ISO_IR 100",
      "StudyID": "29",
      "StudyTime": "100300.004000",
      "TransmitCoilName": "Body",
      "VariableFlipAngleFlag": "N",
      "WindowCenterWidthExplanation": "Algo1",
      "dBdt": 0.0},
    "slices": {}
  },
  "time": {
    "samples": {
      "AcquisitionNumber": [1, 2, 3, 4, 5, 6, 7, 8, 9, 10, 11, 12, 13, 14, 15, 16, 17, 18, 19, 20, 21, 22, 23, 24, 25, 26, 27, 28, 29, 30, 31, 32, 33, 34, 35, 36, 37, 38, 39, 40, 41, 42, 43, 44, 45, 46, 47, 48, 49, 50, 51, 52, 53, 54, 55, 56, 57, 58, 59, 60, 61, 62, 63, 64, 65, 66, 67, 68, 69, 70, 71, 72, 73, 74, 75, 76, 77, 78, 79, 80, 81, 82, 83, 84, 85, 86, 87, 88, 89, 90, 91, 92, 93, 94, 95, 96, 97, 98, 99, 100, 101, 102, 103, 104, 105, 106, 107, 108, 109, 110, 111, 112, 113, 114, 115, 116, 117, 118, 119, 120, 121, 122, 123, 124, 125, 126, 127, 128, 129, 130, 131, 132, 133, 134, 135, 136, 137, 138, 139, 140, 141, 142, 143, 144, 145, 146, 147, 148, 149, 150, 151, 152, 153, 154, 155, 156, 157, 158, 159, 160, 161, 162, 163, 164, 165, 166, 167, 168, 169, 170, 171, 172, 173, 174, 175, 176, 177, 178, 179, 180, 181, 182, 183, 184, 185, 186, 187, 188, 189, 190, 191, 192, 193, 194, 195, 196, 197, 198, 199, 200],
      "AcquisitionTime": ["103233.510000", "103235.510000", "103237.510000", "103239.510000", "103241.510000", "103243.510000", "103245.510000", "103247.510000", "103249.510000", "103251.510000", "103253.510000", "103255.510000", "103257.510000", "103259.510000", "103301.510000", "103303.510000", "103305.510000", "103307.510000", "103309.510000", "103311.510000", "103313.510000", "103315.510000", "103317.510000", "103319.510000", "103321.510000", "103323.510000", "103325.510000", "103327.510000", "103329.510000", "103331.510000", "103333.510000", "103335.510000", "103337.510000", "103339.510000", "103341.510000", "103343.510000", "103345.510000", "103347.510000", "103349.510000", "103351.510000", "103353.510000", "103355.510000", "103357.510000", "103359.510000", "103401.510000", "103403.510000", "103405.510000", "103407.510000", "103409.510000", "103411.510000", "103413.510000", "103415.510000", "103417.510000", "103419.510000", "103421.510000", "103423.510000", "103425.510000", "103427.510000", "103429.510000", "103431.510000", "103433.510000", "103435.510000", "103437.510000", "103439.510000", "103441.510000", "103443.510000", "103445.510000", "103447.510000", "103449.510000", "103451.510000", "103453.510000", "103455.510000", "103457.510000", "103459.510000", "103501.510000", "103503.510000", "103505.510000", "103507.510000", "103509.510000", "103511.510000", "103513.510000", "103515.510000", "103517.510000", "103519.510000", "103521.510000", "103523.510000", "103525.510000", "103527.510000", "103529.510000", "103531.510000", "103533.510000", "103535.510000", "103537.510000", "103539.510000", "103541.510000", "103543.510000", "103545.510000", "103547.510000", "103549.510000", "103551.510000", "103553.510000", "103555.510000", "103557.510000", "103559.510000", "103601.510000", "103603.510000", "103605.510000", "103607.510000", "103609.510000", "103611.510000", "103613.510000", "103615.510000", "103617.510000", "103619.510000", "103621.510000", "103623.510000", "103625.510000", "103627.510000", "103629.510000", "103631.510000", "103633.510000", "103635.510000", "103637.510000", "103639.510000", "103641.510000", "103643.510000", "103645.510000", "103647.510000", "103649.510000", "103651.510000", "103653.510000", "103655.510000", "103657.510000", "103659.510000", "103701.510000", "103703.510000", "103705.510000", "103707.510000", "103709.510000", "103711.510000", "103713.510000", "103715.510000", "103717.510000", "103719.510000", "103721.510000", "103723.510000", "103725.510000", "103727.510000", "103729.510000", "103731.510000", "103733.510000", "103735.510000", "103737.510000", "103739.510000", "103741.510000", "103743.510000", "103745.510000", "103747.510000", "103749.510000", "103751.510000", "103753.510000", "103755.510000", "103757.510000", "103759.510000", "103801.510000", "103803.510000", "103805.510000", "103807.510000", "103809.510000", "103811.510000", "103813.510000", "103815.510000", "103817.510000", "103819.510000", "103821.510000", "103823.510000", "103825.510000", "103827.510000", "103829.510000", "103831.510000", "103833.510000", "103835.510000", "103837.510000", "103839.510000", "103841.510000", "103843.510000", "103845.510000", "103847.510000", "103849.510000", "103851.510000", "103853.510000", "103855.510000", "103857.510000", "103859.510000", "103901.510000", "103903.510000", "103905.510000", "103907.510000", "103909.510000", "103911.510000"],
      "ContentTime": ["103327.756000", "103327.759000", "103327.762000", "103327.764000", "103327.767000", "103327.769000", "103327.772000", "103327.783000", "103327.786000", "103327.788000", "103327.791000", "103327.793000", "103327.795000", "103327.798000", "103327.800000", "103327.803000", "103327.805000", "103327.808000", "103327.810000", "103327.813000", "103327.815000", "103327.818000", "103327.820000", "103327.823000", "103327.825000", "103327.828000", "103327.830000", "103407.750000", "103407.753000", "103407.756000", "103407.758000", "103407.761000", "103407.763000", "103407.766000", "103407.768000", "103407.771000", "103407.773000", "103407.776000", "103407.778000", "103407.781000", "103407.783000", "103407.786000", "103407.788000", "103407.797000", "103407.799000", "103407.802000", "103407.804000", "103447.750000", "103447.753000", "103447.756000", "103447.758000", "103447.760000", "103447.763000", "103447.765000", "103447.768000", "103447.770000", "103447.773000", "103447.775000", "103447.778000", "103447.780000", "103447.783000", "103447.785000", "103447.788000", "103447.790000", "103447.793000", "103447.795000", "103447.798000", "103527.751000", "103527.754000", "103527.757000", "103527.759000", "103527.761000", "103527.764000", "103527.766000", "103527.769000", "103527.771000", "103527.774000", "103527.776000", "103527.779000", "103527.781000", "103527.784000", "103527.786000", "103527.789000", "103527.791000", "103527.794000", "103527.796000", "103527.799000", "103607.751000", "103607.754000", "103607.757000", "103607.759000", "103607.762000", "103607.764000", "103607.767000", "103607.769000", "103607.772000", "103607.774000", "103607.777000", "103607.779000", "103607.781000", "103607.784000", "103607.786000", "103607.789000", "103607.791000", "103607.794000", "103607.796000", "103607.799000", "103647.750000", "103647.753000", "103647.756000", "103647.758000", "103647.761000", "103647.763000", "103647.766000", "103647.768000", "103647.771000", "103647.773000", "103647.776000", "103647.778000", "103647.781000", "103647.783000", "103647.786000", "103647.788000", "103647.791000", "103647.793000", "103647.795000", "103647.798000", "103727.751000", "103727.754000", "103727.757000", "103727.759000", "103727.762000", "103727.764000", "103727.767000", "103727.769000", "103727.772000", "103727.774000", "103727.777000", "103727.779000", "103727.782000", "103727.784000", "103727.787000", "103727.789000", "103727.791000", "103727.794000", "103727.796000", "103727.799000", "103807.751000", "103807.754000", "103807.757000", "103807.759000", "103807.762000", "103807.764000", "103807.767000", "103807.769000", "103807.772000", "103807.774000", "103807.777000", "103807.779000", "103807.782000", "103807.784000", "103807.787000", "103807.789000", "103807.792000", "103807.794000", "103807.797000", "103807.799000", "103827.751000", "103827.754000", "103827.757000", "103827.759000", "103827.762000", "103827.764000", "103827.767000", "103827.769000", "103827.772000", "103827.774000", "103907.750000", "103907.753000", "103907.756000", "103907.758000", "103907.761000", "103907.763000", "103907.766000", "103907.768000", "103907.771000", "103907.773000", "103907.776000", "103907.778000", "103907.781000", "103907.783000", "103907.785000", "103907.788000", "103907.790000", "103907.793000", "103907.795000", "103907.798000", "103912.691000", "103912.694000", "103912.697000"],
      "InstanceCreationTime": ["103327.756000", "103327.759000", "103327.762000", "103327.764000", "103327.767000", "103327.769000", "103327.772000", "103327.783000", "103327.786000", "103327.788000", "103327.791000", "103327.793000", "103327.795000", "103327.798000", "103327.800000", "103327.803000", "103327.805000", "103327.808000", "103327.810000", "103327.813000", "103327.815000", "103327.818000", "103327.820000", "103327.823000", "103327.825000", "103327.828000", "103327.830000", "103407.750000", "103407.753000", "103407.756000", "103407.758000", "103407.761000", "103407.763000", "103407.766000", "103407.768000", "103407.771000", "103407.773000", "103407.776000", "103407.778000", "103407.781000", "103407.783000", "103407.786000", "103407.788000", "103407.797000", "103407.799000", "103407.802000", "103407.804000", "103447.750000", "103447.753000", "103447.756000", "103447.758000", "103447.760000", "103447.763000", "103447.765000", "103447.768000", "103447.770000", "103447.773000", "103447.775000", "103447.778000", "103447.780000", "103447.783000", "103447.785000", "103447.788000", "103447.790000", "103447.793000", "103447.795000", "103447.798000", "103527.751000", "103527.754000", "103527.757000", "103527.759000", "103527.761000", "103527.764000", "103527.766000", "103527.769000", "103527.771000", "103527.774000", "103527.776000", "103527.779000", "103527.781000", "103527.784000", "103527.786000", "103527.789000", "103527.791000", "103527.794000", "103527.796000", "103527.799000", "103607.751000", "103607.754000", "103607.757000", "103607.759000", "103607.762000", "103607.764000", "103607.767000", "103607.769000", "103607.772000", "103607.774000", "103607.777000", "103607.779000", "103607.781000", "103607.784000", "103607.786000", "103607.789000", "103607.791000", "103607.794000", "103607.796000", "103607.799000", "103647.750000", "103647.753000", "103647.756000", "103647.758000", "103647.761000", "103647.763000", "103647.766000", "103647.768000", "103647.771000", "103647.773000", "103647.776000", "103647.778000", "103647.781000", "103647.783000", "103647.786000", "103647.788000", "103647.791000", "103647.793000", "103647.795000", "103647.798000", "103727.751000", "103727.754000", "103727.757000", "103727.759000", "103727.762000", "103727.764000", "103727.767000", "103727.769000", "103727.772000", "103727.774000", "103727.777000", "103727.779000", "103727.782000", "103727.784000", "103727.787000", "103727.789000", "103727.791000", "103727.794000", "103727.796000", "103727.799000", "103807.751000", "103807.754000", "103807.757000", "103807.759000", "103807.762000", "103807.764000", "103807.767000", "103807.769000", "103807.772000", "103807.774000", "103807.777000", "103807.779000", "103807.782000", "103807.784000", "103807.787000", "103807.789000", "103807.792000", "103807.794000", "103807.797000", "103807.799000", "103827.751000", "103827.754000", "103827.757000", "103827.759000", "103827.762000", "103827.764000", "103827.767000", "103827.769000", "103827.772000", "103827.774000", "103907.750000", "103907.753000", "103907.756000", "103907.758000", "103907.761000", "103907.763000", "103907.766000", "103907.768000", "103907.771000", "103907.773000", "103907.776000", "103907.778000", "103907.781000", "103907.783000", "103907.785000", "103907.788000", "103907.790000", "103907.793000", "103907.795000", "103907.798000", "103912.691000", "103912.694000", "103912.697000"],
      "InstanceNumber": [1, 2, 3, 4, 5, 6, 7, 8, 9, 10, 11, 12, 13, 14, 15, 16, 17, 18, 19, 20, 21, 22, 23, 24, 25, 26, 27, 28, 29, 30, 31, 32, 33, 34, 35, 36, 37, 38, 39, 40, 41, 42, 43, 44, 45, 46, 47, 48, 49, 50, 51, 52, 53, 54, 55, 56, 57, 58, 59, 60, 61, 62, 63, 64, 65, 66, 67, 68, 69, 70, 71, 72, 73, 74, 75, 76, 77, 78, 79, 80, 81, 82, 83, 84, 85, 86, 87, 88, 89, 90, 91, 92, 93, 94, 95, 96, 97, 98, 99, 100, 101, 102, 103, 104, 105, 106, 107, 108, 109, 110, 111, 112, 113, 114, 115, 116, 117, 118, 119, 120, 121, 122, 123, 124, 125, 126, 127, 128, 129, 130, 131, 132, 133, 134, 135, 136, 137, 138, 139, 140, 141, 142, 143, 144, 145, 146, 147, 148, 149, 150, 151, 152, 153, 154, 155, 156, 157, 158, 159, 160, 161, 162, 163, 164, 165, 166, 167, 168, 169, 170, 171, 172, 173, 174, 175, 176, 177, 178, 179, 180, 181, 182, 183, 184, 185, 186, 187, 188, 189, 190, 191, 192, 193, 194, 195, 196, 197, 198, 199, 200],
      "LargestImagePixelValue": [379, 379, 380, 384, 379, 379, 379, 382, 378, 380, 380, 381, 383, 383, 383, 383, 383, 383, 381, 382, 384, 382, 383, 382, 383, 384, 383, 383, 383, 383, 378, 383, 383, 384, 383, 383, 383, 383, 385, 382, 382, 383, 383, 385, 385, 383, 384, 384, 381, 383, 382, 384, 383, 382, 384, 384, 384, 383, 383, 383, 381, 383, 384, 382, 383, 382, 383, 383, 383, 383, 379, 379, 382, 382, 383, 383, 383, 382, 381, 379, 380, 382, 384, 383, 381, 383, 384, 384, 383, 382, 382, 383, 384, 383, 382, 382, 383, 380, 383, 382, 384, 383, 382, 380, 382, 383, 384, 384, 383, 383, 383, 383, 383, 382, 383, 382, 383, 383, 384, 379, 381, 380, 383, 383, 382, 383, 383, 384, 382, 384, 382, 382, 384, 384, 383, 383, 383, 382, 381, 381, 383, 383, 382, 381, 382, 381, 382, 381, 383, 380, 382, 383, 383, 382, 383, 382, 383, 383, 382, 384, 383, 383, 382, 383, 383, 383, 384, 383, 383, 383, 384, 381, 384, 383, 385, 383, 382, 382, 382, 383, 381, 383, 379, 380, 380, 380, 379, 383, 379, 382, 380, 381, 379, 380, 381, 380, 380, 380, 384, 382],
      "WindowCenter": [306.0, 306.0, 306.0, 307.0, 306.0, 305.0, 306.0, 306.0, 306.0, 306.0, 306.0, 306.0, 307.0, 308.0, 307.0, 308.0, 308.0, 308.0, 308.0, 308.0, 308.0, 308.0, 307.0, 307.0, 308.0, 307.0, 307.0, 308.0, 307.0, 308.0, 307.0, 307.0, 308.0, 306.0, 308.0, 307.0, 307.0, 308.0, 307.0, 307.0, 308.0, 307.0, 307.0, 307.0, 308.0, 307.0, 307.0, 308.0, 307.0, 307.0, 308.0, 307.0, 307.0, 307.0, 308.0, 308.0, 308.0, 307.0, 307.0, 307.0, 308.0, 307.0, 307.0, 307.0, 307.0, 307.0, 308.0, 308.0, 308.0, 306.0, 306.0, 306.0, 306.0, 307.0, 307.0, 307.0, 307.0, 307.0, 306.0, 307.0, 308.0, 308.0, 307.0, 308.0, 307.0, 308.0, 307.0, 307.0, 308.0, 307.0, 307.0, 307.0, 307.0, 307.0, 307.0, 307.0, 306.0, 306.0, 308.0, 307.0, 307.0, 307.0, 306.0, 306.0, 307.0, 307.0, 307.0, 307.0, 307.0, 308.0, 307.0, 307.0, 307.0, 307.0, 307.0, 307.0, 307.0, 307.0, 307.0, 307.0, 306.0, 306.0, 307.0, 307.0, 307.0, 307.0, 307.0, 307.0, 307.0, 307.0, 307.0, 307.0, 307.0, 307.0, 308.0, 307.0, 307.0, 307.0, 307.0, 307.0, 307.0, 307.0, 307.0, 307.0, 307.0, 307.0, 307.0, 307.0, 307.0, 306.0, 307.0, 307.0, 307.0, 307.0, 307.0, 307.0, 307.0, 307.0, 307.0, 307.0, 307.0, 307.0, 307.0, 307.0, 307.0, 308.0, 307.0, 307.0, 307.0, 307.0, 306.0, 306.0, 307.0, 307.0, 307.0, 307.0, 307.0, 307.0, 307.0, 307.0, 307.0, 306.0, 306.0, 306.0, 306.0, 305.0, 305.0, 306.0, 306.0, 306.0, 306.0, 306.0, 306.0, 306.0, 305.0, 305.0, 307.0, 307.0, 307.0, 307.0],
      "WindowWidth": [661.0, 662.0, 661.0, 663.0, 661.0, 661.0, 663.0, 663.0, 661.0, 662.0, 662.0, 663.0, 665.0, 665.0, 665.0, 665.0, 665.0, 665.0, 665.0, 665.0, 665.0, 665.0, 665.0, 665.0, 665.0, 665.0, 665.0, 665.0, 665.0, 665.0, 663.0, 665.0, 665.0, 663.0, 665.0, 665.0, 665.0, 665.0, 665.0, 665.0, 665.0, 665.0, 665.0, 665.0, 665.0, 665.0, 665.0, 665.0, 665.0, 665.0, 665.0, 665.0, 665.0, 665.0, 665.0, 665.0, 665.0, 665.0, 665.0, 665.0, 665.0, 665.0, 665.0, 665.0, 665.0, 665.0, 665.0, 665.0, 665.0, 663.0, 662.0, 661.0, 663.0, 664.0, 665.0, 665.0, 665.0, 664.0, 663.0, 665.0, 665.0, 665.0, 665.0, 665.0, 665.0, 665.0, 664.0, 664.0, 665.0, 664.0, 665.0, 664.0, 665.0, 665.0, 664.0, 664.0, 663.0, 663.0, 665.0, 665.0, 665.0, 663.0, 663.0, 662.0, 665.0, 664.0, 665.0, 665.0, 665.0, 665.0, 664.0, 665.0, 665.0, 664.0, 664.0, 664.0, 663.0, 665.0, 665.0, 663.0, 663.0, 663.0, 665.0, 664.0, 665.0, 664.0, 665.0, 664.0, 664.0, 665.0, 664.0, 664.0, 664.0, 664.0, 665.0, 665.0, 664.0, 665.0, 665.0, 664.0, 664.0, 664.0, 664.0, 664.0, 664.0, 664.0, 664.0, 663.0, 664.0, 663.0, 665.0, 664.0, 665.0, 665.0, 664.0, 664.0, 664.0, 665.0, 664.0, 664.0, 664.0, 664.0, 664.0, 664.0, 664.0, 665.0, 665.0, 664.0, 664.0, 664.0, 663.0, 663.0, 665.0, 664.0, 664.0, 664.0, 664.0, 664.0, 664.0, 664.0, 664.0, 663.0, 661.0, 661.0, 661.0, 661.0, 661.0, 663.0, 662.0, 661.0, 661.0, 661.0, 662.0, 661.0, 661.0, 661.0, 663.0, 664.0, 664.0, 664.0]
    },
    "slices": {}
  }
}