{
  "AcquisitionMatrixPE": 80,
  "AcquisitionNumber": 1,
  "AcquisitionTime": "10:18:57.202500",
  "BandwidthPerPixelPhaseEncode": 44.643,
  "BaseResolution": 80,
  "BodyPartExamined": "BRAIN",
  "CoilCombinationMethod": "Sum of Squares",
  "ConsistencyInfo": "N4_VE11C_LATEST_20160120",
  "ConversionSoftware": "dcm2niix",
  "ConversionSoftwareVersion": "v1.0.20220720",
  "DerivedVendorReportedEchoSpacing": 0.000559998,
  "DeviceSerialNumber": "66112",
  "DwellTime": 2.7e-06,
  "EchoTime": 0.035,
  "EchoTrainLength": 39,
  "EffectiveEchoSpacing": 0.000279999,
  "FlipAngle": 90,
  "HeudiconvVersion": "0.13.1",
  "ImageOrientationPatientDICOM": [0.98487, 0.173009, 0.00998424, -0.167639, 0.936536, 0.307893],
  "ImageOrientationText": "Tra>Cor(17.8)>Sag(-2.5)",
  "ImageType": [
    "ORIGINAL",
    "PRIMARY",
    "M",
    "ND",
    "NORM",
    "MOSAIC"
],
  "ImagingFrequency": 123.252,
  "InPlanePhaseEncodingDirectionDICOM": "COL",
  "InstitutionAddress": "Maynard 3,Hanover,NH,US,03755",
  "InstitutionName": "Dartmouth College - PBS",
  "InstitutionalDepartmentName": "Department",
  "MRAcquisitionType": "2D",
  "MagneticFieldStrength": 3,
  "Manufacturer": "Siemens",
  "ManufacturersModelName": "Prisma",
  "Modality": "MR",
  "MultibandAccelerationFactor": 4,
  "NonlinearGradientCorrection": false,
  "ParallelReductionFactorInPlane": 2,
  "PartialFourier": 1,
  "PatientPosition": "HFS",
  "PercentPhaseFOV": 100,
  "PercentSampling": 100,
  "PhaseEncodingDirection": "j-",
  "PhaseEncodingSteps": 79,
  "PhaseResolution": 1,
  "PixelBandwidth": 2315,
  "ProcedureStepDescription": "dbic^QA",
  "ProtocolName": "func-bold_task-rest_acq-p2-s4-3.5mm",
  "PulseSequenceDetails": "%SiemensSeq%\\ep2d_bold",
  "ReceiveCoilActiveElements": "HEA;HEP",
  "ReceiveCoilName": "Head_32",
  "ReconMatrixPE": 80,
  "RefLinesPE": 24,
  "RepetitionTime": 2,
  "SAR": 0.020877,
  "ScanOptions": "FS",
  "ScanningSequence": "EP",
  "SequenceName": "*epfid2d1_80",
  "SequenceVariant": "SK",
  "SeriesDescription": "func-bold_task-rest_acq-p2-s4-3.5mm",
  "SeriesNumber": 7,
  "ShimSetting": [4143, -7696, -7521, 255, -73, -21, 8, 46],
  "SliceThickness": 3.5,
  "SliceTiming": [1.485, 0, 0.99, 0.2475, 1.2375, 0.7425, 1.7325, 0.495, 1.485, 0, 0.99, 0.2475, 1.2375, 0.7425, 1.7325, 0.495, 1.485, 0, 0.99, 0.2475, 1.2375, 0.7425, 1.7325, 0.495, 1.485, 0, 0.99, 0.2475, 1.2375, 0.7425, 1.7325, 0.495],
  "SoftwareVersions": "syngo MR E11",
  "SpacingBetweenSlices": 3.99,
  "StationName": "AWP66112",
  "TaskName": "rest",
  "TotalReadoutTime": 0.0221199,
  "TxRefAmp": 222.075,
  "dcmmeta_affine": [
    [-2.9546091556549072, -0.5029178261756897, -0.17523106932640076, 144.1830291748047],
    [-0.519025981426239, 2.8096067905426025, 1.2165839672088623, -104.76290893554688],
    [0.029952723532915115, -0.9236791133880615, 3.7959606647491455, -14.886988639831543],
    [0.0, 0.0, 0.0, 1.0]
],
  "dcmmeta_reorient_transform": [
    [0.0, -1.0, 0.0, 79.0],
    [1.0, 0.0, 0.0, 0.0],
    [0.0, 0.0, 1.0, 0.0],
    [0.0, 0.0, 0.0, 1.0]
],
  "dcmmeta_shape": [80, 80, 32, 200],
  "dcmmeta_slice_dim": 2,
  "dcmmeta_version": 0.6,
  "global": {
    "const": {
      "AccessionNumber": "qa",
      "AcquisitionMatrix": [80, 0, 0, 80],
      "AngioFlag": "N",
      "BitsAllocated": 16,
      "BitsStored": 12,
      "BodyPartExamined": "BRAIN",
      "Columns": 480,
      "EchoNumbers": 1,
      "EchoTime": 35.0,
      "EchoTrainLength": 39,
      "FlipAngle": 90.0,
      "HighBit": 11,
      "ImageOrientationPatient": [0.98486969732876, 0.17300865359135, 0.0099842408857, -0.1676392765124, 0.93653561219301, 0.30789303347865],
      "ImagePositionPatient": [-594.79077828535, -782.92259062591, -278.58400173911],
      "ImageType": [
        "ORIGINAL",
        "PRIMARY",
        "M",
        "ND",
        "NORM",
        "MOSAIC"
],
      "ImagedNucleus": "1H",
      "ImagingFrequency": 123.252356,
      "InPlanePhaseEncodingDirection": "COL",
      "MRAcquisitionType": "2D",
      "MagneticFieldStrength": 3.0,
      "Manufacturer": "SIEMENS",
      "ManufacturerModelName": "Prisma",
      "Modality": "MR",
      "NumberOfAverages": 1.0,
      "NumberOfPhaseEncodingSteps": 79,
      "PercentPhaseFieldOfView": 100.0,
      "PercentSampling": 100.0,
      "PerformedProcedureStepStartTime": "100300.055000",
      "PhotometricInterpretation": "MONOCHROME2",
      "PixelBandwidth": 2315.0,
      "PixelRepresentation": 0,
      "PixelSpacing": [3.0, 3.0],
      "ProtocolName": "func-bold_task-rest_acq-p2-s4-3.5mm",
      "RepetitionTime": 2000.0,
      "Rows": 480,
      "SAR": 0.02087700836717,
      "SamplesPerPixel": 1,
      "ScanOptions": "FS",
      "ScanningSequence": "EP",
      "SequenceName": "*epfid2d1_80",
      "SequenceVariant": "SK",
      "SeriesDescription": "func-bold_task-rest_acq-p2-s4-3.5mm",
      "SeriesNumber": 7,
      "SeriesTime": "101947.612000",
      "SliceLocation": -52.438257601647,
      "SliceThickness": 3.5,
      "SmallestImagePixelValue": 0,
      "SoftwareVersions": "syngo MR E11",
      "SpacingBetweenSlices": 3.9900000141295,
      "SpecificCharacterSet": "ISO_IR 100",
      "StudyID": "29",
      "StudyTime": "100300.004000",
      "TransmitCoilName": "Body",
      "VariableFlipAngleFlag": "N",
      "WindowCenterWidthExplanation": "Algo1",
      "dBdt": 0.0},
    "slices": {}
  },
  "time": {
    "samples": {
      "AcquisitionNumber": [1, 2, 3, 4, 5, 6, 7, 8, 9, 10, 11, 12, 13, 14, 15, 16, 17, 18, 19, 20, 21, 22, 23, 24, 25, 26, 27, 28, 29, 30, 31, 32, 33, 34, 35, 36, 37, 38, 39, 40, 41, 42, 43, 44, 45, 46, 47, 48, 49, 50, 51, 52, 53, 54, 55, 56, 57, 58, 59, 60, 61, 62, 63, 64, 65, 66, 67, 68, 69, 70, 71, 72, 73, 74, 75, 76, 77, 78, 79, 80, 81, 82, 83, 84, 85, 86, 87, 88, 89, 90, 91, 92, 93, 94, 95, 96, 97, 98, 99, 100, 101, 102, 103, 104, 105, 106, 107, 108, 109, 110, 111, 112, 113, 114, 115, 116, 117, 118, 119, 120, 121, 122, 123, 124, 125, 126, 127, 128, 129, 130, 131, 132, 133, 134, 135, 136, 137, 138, 139, 140, 141, 142, 143, 144, 145, 146, 147, 148, 149, 150, 151, 152, 153, 154, 155, 156, 157, 158, 159, 160, 161, 162, 163, 164, 165, 166, 167, 168, 169, 170, 171, 172, 173, 174, 175, 176, 177, 178, 179, 180, 181, 182, 183, 184, 185, 186, 187, 188, 189, 190, 191, 192, 193, 194, 195, 196, 197, 198, 199, 200],
      "AcquisitionTime": ["101857.202500", "101859.202500", "101901.202500", "101903.202500", "101905.202500", "101907.202500", "101909.202500", "101911.202500", "101913.202500", "101915.202500", "101917.202500", "101919.202500", "101921.202500", "101923.202500", "101925.202500", "101927.202500", "101929.202500", "101931.202500", "101933.202500", "101935.202500", "101937.202500", "101939.202500", "101941.202500", "101943.202500", "101945.202500", "101947.202500", "101949.202500", "101951.202500", "101953.202500", "101955.202500", "101957.202500", "101959.202500", "102001.202500", "102003.202500", "102005.202500", "102007.202500", "102009.202500", "102011.202500", "102013.202500", "102015.202500", "102017.202500", "102019.202500", "102021.202500", "102023.202500", "102025.202500", "102027.202500", "102029.202500", "102031.202500", "102033.202500", "102035.202500", "102037.202500", "102039.202500", "102041.202500", "102043.202500", "102045.202500", "102047.202500", "102049.202500", "102051.202500", "102053.202500", "102055.202500", "102057.202500", "102059.202500", "102101.202500", "102103.202500", "102105.202500", "102107.202500", "102109.202500", "102111.202500", "102113.202500", "102115.202500", "102117.202500", "102119.202500", "102121.202500", "102123.202500", "102125.202500", "102127.202500", "102129.202500", "102131.202500", "102133.202500", "102135.202500", "102137.202500", "102139.202500", "102141.202500", "102143.202500", "102145.202500", "102147.202500", "102149.202500", "102151.202500", "102153.202500", "102155.202500", "102157.202500", "102159.202500", "102201.202500", "102203.202500", "102205.202500", "102207.202500", "102209.202500", "102211.202500", "102213.202500", "102215.202500", "102217.202500", "102219.202500", "102221.202500", "102223.202500", "102225.202500", "102227.202500", "102229.202500", "102231.202500", "102233.202500", "102235.202500", "102237.202500", "102239.202500", "102241.202500", "102243.202500", "102245.202500", "102247.202500", "102249.202500", "102251.202500", "102253.202500", "102255.202500", "102257.202500", "102259.202500", "102301.202500", "102303.202500", "102305.202500", "102307.202500", "102309.202500", "102311.202500", "102313.202500", "102315.202500", "102317.202500", "102319.202500", "102321.202500", "102323.202500", "102325.202500", "102327.202500", "102329.202500", "102331.202500", "102333.202500", "102335.202500", "102337.202500", "102339.202500", "102341.202500", "102343.202500", "102345.202500", "102347.202500", "102349.202500", "102351.202500", "102353.202500", "102355.202500", "102357.202500", "102359.202500", "102401.202500", "102403.202500", "102405.202500", "102407.202500", "102409.202500", "102411.202500", "102413.202500", "102415.202500", "102417.202500", "102419.202500", "102421.202500", "102423.202500", "102425.202500", "102427.202500", "102429.202500", "102431.202500", "102433.202500", "102435.202500", "102437.202500", "102439.202500", "102441.202500", "102443.202500", "102445.202500", "102447.202500", "102449.202500", "102451.202500", "102453.202500", "102455.202500", "102457.202500", "102459.202500", "102501.202500", "102503.202500", "102505.202500", "102507.202500", "102509.202500", "102511.202500", "102513.202500", "102515.202500", "102517.202500", "102519.202500", "102521.202500", "102523.202500", "102525.202500", "102527.202500", "102529.202500", "102531.202500", "102533.202500", "102535.202500"],
      "ContentTime": ["101947.615000", "101947.619000", "101947.621000", "101947.624000", "101947.637000", "101947.639000", "101947.642000", "101947.644000", "101947.647000", "101947.654000", "101947.657000", "101947.660000", "101947.667000", "101947.670000", "101947.672000", "101947.675000", "101947.677000", "101947.680000", "101947.682000", "101947.685000", "101947.687000", "101947.690000", "101947.692000", "101947.695000", "101947.697000", "102027.609000", "102027.612000", "102027.615000", "102027.617000", "102027.620000", "102027.623000", "102027.625000", "102027.628000", "102027.630000", "102027.633000", "102027.635000", "102027.638000", "102027.640000", "102027.648000", "102027.651000", "102027.653000", "102027.656000", "102027.658000", "102027.661000", "102027.663000", "102107.610000", "102107.612000", "102107.615000", "102107.617000", "102107.620000", "102107.623000", "102107.625000", "102107.628000", "102107.630000", "102107.633000", "102107.635000", "102107.638000", "102107.640000", "102107.643000", "102107.645000", "102107.648000", "102107.650000", "102107.653000", "102107.656000", "102107.658000", "102147.610000", "102147.613000", "102147.616000", "102147.618000", "102147.621000", "102147.624000", "102147.626000", "102147.629000", "102147.631000", "102147.634000", "102147.636000", "102147.639000", "102147.641000", "102147.644000", "102147.646000", "102147.649000", "102147.651000", "102147.654000", "102147.656000", "102147.659000", "102227.610000", "102227.612000", "102227.615000", "102227.618000", "102227.620000", "102227.623000", "102227.625000", "102227.628000", "102227.630000", "102227.633000", "102227.635000", "102227.638000", "102227.640000", "102227.643000", "102227.645000", "102227.648000", "102227.650000", "102227.653000", "102227.655000", "102227.658000", "102307.610000", "102307.612000", "102307.615000", "102307.617000", "102307.620000", "102307.622000", "102307.625000", "102307.627000", "102307.630000", "102307.633000", "102307.635000", "102307.638000", "102307.640000", "102307.643000", "102307.645000", "102307.648000", "102307.651000", "102307.653000", "102307.656000", "102307.658000", "102347.610000", "102347.613000", "102347.616000", "102347.619000", "102347.621000", "102347.624000", "102347.626000", "102347.629000", "102347.631000", "102347.634000", "102347.636000", "102347.639000", "102347.641000", "102347.644000", "102347.646000", "102347.649000", "102347.651000", "102347.654000", "102347.656000", "102347.659000", "102427.610000", "102427.613000", "102427.616000", "102427.618000", "102427.621000", "102427.624000", "102427.626000", "102427.629000", "102427.631000", "102427.634000", "102427.636000", "102427.639000", "102427.641000", "102427.644000", "102427.646000", "102427.649000", "102427.651000", "102427.654000", "102427.656000", "102427.659000", "102507.609000", "102507.612000", "102507.615000", "102507.617000", "102507.620000", "102507.623000", "102507.625000", "102507.628000", "102507.630000", "102507.633000", "102507.635000", "102507.638000", "102507.640000", "102507.643000", "102507.645000", "102507.648000", "102507.650000", "102507.653000", "102507.655000", "102507.658000", "102535.967000", "102535.970000", "102535.973000", "102535.975000", "102535.978000", "102535.981000", "102535.984000", "102535.986000", "102535.989000", "102535.991000", "102535.994000", "102535.997000", "102536.007000", "102536.010000", "102536.020000"],
      "InstanceCreationTime": ["101947.615000", "101947.619000", "101947.621000", "101947.624000", "101947.637000", "101947.639000", "101947.642000", "101947.644000", "101947.647000", "101947.654000", "101947.657000", "101947.660000", "101947.667000", "101947.670000", "101947.672000", "101947.675000", "101947.677000", "101947.680000", "101947.682000", "101947.685000", "101947.687000", "101947.690000", "101947.692000", "101947.695000", "101947.697000", "102027.609000", "102027.612000", "102027.615000", "102027.617000", "102027.620000", "102027.623000", "102027.625000", "102027.628000", "102027.630000", "102027.633000", "102027.635000", "102027.638000", "102027.640000", "102027.648000", "102027.651000", "102027.653000", "102027.656000", "102027.658000", "102027.661000", "102027.663000", "102107.610000", "102107.612000", "102107.615000", "102107.617000", "102107.620000", "102107.623000", "102107.625000", "102107.628000", "102107.630000", "102107.633000", "102107.635000", "102107.638000", "102107.640000", "102107.643000", "102107.645000", "102107.648000", "102107.650000", "102107.653000", "102107.656000", "102107.658000", "102147.610000", "102147.613000", "102147.616000", "102147.618000", "102147.621000", "102147.624000", "102147.626000", "102147.629000", "102147.631000", "102147.634000", "102147.636000", "102147.639000", "102147.641000", "102147.644000", "102147.646000", "102147.649000", "102147.651000", "102147.654000", "102147.656000", "102147.659000", "102227.610000", "102227.612000", "102227.615000", "102227.618000", "102227.620000", "102227.623000", "102227.625000", "102227.628000", "102227.630000", "102227.633000", "102227.635000", "102227.638000", "102227.640000", "102227.643000", "102227.645000", "102227.648000", "102227.650000", "102227.653000", "102227.655000", "102227.658000", "102307.610000", "102307.612000", "102307.615000", "102307.617000", "102307.620000", "102307.622000", "102307.625000", "102307.627000", "102307.630000", "102307.633000", "102307.635000", "102307.638000", "102307.640000", "102307.643000", "102307.645000", "102307.648000", "102307.651000", "102307.653000", "102307.656000", "102307.658000", "102347.610000", "102347.613000", "102347.616000", "102347.619000", "102347.621000", "102347.624000", "102347.626000", "102347.629000", "102347.631000", "102347.634000", "102347.636000", "102347.639000", "102347.641000", "102347.644000", "102347.646000", "102347.649000", "102347.651000", "102347.654000", "102347.656000", "102347.659000", "102427.610000", "102427.613000", "102427.616000", "102427.618000", "102427.621000", "102427.624000", "102427.626000", "102427.629000", "102427.631000", "102427.634000", "102427.636000", "102427.639000", "102427.641000", "102427.644000", "102427.646000", "102427.649000", "102427.651000", "102427.654000", "102427.656000", "102427.659000", "102507.609000", "102507.612000", "102507.615000", "102507.617000", "102507.620000", "102507.623000", "102507.625000", "102507.628000", "102507.630000", "102507.633000", "102507.635000", "102507.638000", "102507.640000", "102507.643000", "102507.645000", "102507.648000", "102507.650000", "102507.653000", "102507.655000", "102507.658000", "102535.967000", "102535.970000", "102535.973000", "102535.975000", "102535.978000", "102535.981000", "102535.984000", "102535.986000", "102535.989000", "102535.991000", "102535.994000", "102535.997000", "102536.007000", "102536.010000", "102536.020000"],
      "InstanceNumber": [1, 2, 3, 4, 5, 6, 7, 8, 9, 10, 11, 12, 13, 14, 15, 16, 17, 18, 19, 20, 21, 22, 23, 24, 25, 26, 27, 28, 29, 30, 31, 32, 33, 34, 35, 36, 37, 38, 39, 40, 41, 42, 43, 44, 45, 46, 47, 48, 49, 50, 51, 52, 53, 54, 55, 56, 57, 58, 59, 60, 61, 62, 63, 64, 65, 66, 67, 68, 69, 70, 71, 72, 73, 74, 75, 76, 77, 78, 79, 80, 81, 82, 83, 84, 85, 86, 87, 88, 89, 90, 91, 92, 93, 94, 95, 96, 97, 98, 99, 100, 101, 102, 103, 104, 105, 106, 107, 108, 109, 110, 111, 112, 113, 114, 115, 116, 117, 118, 119, 120, 121, 122, 123, 124, 125, 126, 127, 128, 129, 130, 131, 132, 133, 134, 135, 136, 137, 138, 139, 140, 141, 142, 143, 144, 145, 146, 147, 148, 149, 150, 151, 152, 153, 154, 155, 156, 157, 158, 159, 160, 161, 162, 163, 164, 165, 166, 167, 168, 169, 170, 171, 172, 173, 174, 175, 176, 177, 178, 179, 180, 181, 182, 183, 184, 185, 186, 187, 188, 189, 190, 191, 192, 193, 194, 195, 196, 197, 198, 199, 200],
      "LargestImagePixelValue": [2320, 2318, 2315, 2313, 2316, 2316, 2316, 2318, 2323, 2314, 2314, 2313, 2315, 2314, 2318, 2319, 2321, 2317, 2318, 2314, 2315, 2319, 2317, 2318, 2321, 2318, 2322, 2321, 2321, 2315, 2325, 2317, 2317, 2317, 2320, 2321, 2327, 2317, 2319, 2319, 2319, 2318, 2322, 2320, 2320, 2317, 2323, 2319, 2320, 2318, 2321, 2320, 2317, 2320, 2323, 2321, 2316, 2323, 2319, 2321, 2323, 2322, 2322, 2322, 2318, 2321, 2321, 2322, 2322, 2319, 2324, 2320, 2322, 2320, 2318, 2325, 2324, 2321, 2322, 2324, 2320, 2324, 2319, 2322, 2321, 2322, 2326, 2319, 2319, 2323, 2318, 2324, 2323, 2321, 2320, 2323, 2317, 2325, 2317, 2323, 2322, 2326, 2320, 2327, 2319, 2322, 2326, 2317, 2320, 2323, 2322, 2321, 2322, 2323, 2324, 2331, 2326, 2323, 2325, 2327, 2323, 2322, 2324, 2320, 2325, 2326, 2322, 2323, 2327, 2326, 2325, 2326, 2319, 2321, 2325, 2326, 2325, 2328, 2326, 2322, 2324, 2330, 2326, 2323, 2324, 2325, 2325, 2321, 2325, 2324, 2325, 2324, 2322, 2323, 2321, 2322, 2331, 2327, 2325, 2321, 2326, 2322, 2322, 2325, 2321, 2328, 2320, 2324, 2326, 2326, 2325, 2324, 2322, 2324, 2330, 2323, 2325, 2326, 2327, 2324, 2327, 2326, 2327, 2325, 2324, 2326, 2327, 2326, 2330, 2325, 2322, 2327, 2322, 2322, 2324, 2322, 2324, 2322, 2322, 2323],
      "WindowCenter": [967.0, 966.0, 966.0, 967.0, 966.0, 967.0, 967.0, 967.0, 967.0, 967.0, 967.0, 966.0, 967.0, 967.0, 967.0, 967.0, 966.0, 966.0, 966.0, 967.0, 966.0, 966.0, 966.0, 967.0, 966.0, 966.0, 966.0, 967.0, 967.0, 967.0, 967.0, 967.0, 967.0, 967.0, 967.0, 967.0, 967.0, 967.0, 967.0, 967.0, 967.0, 967.0, 967.0, 967.0, 967.0, 967.0, 967.0, 967.0, 967.0, 967.0, 967.0, 967.0, 967.0, 967.0, 967.0, 967.0, 967.0, 967.0, 967.0, 967.0, 967.0, 967.0, 967.0, 967.0, 967.0, 967.0, 967.0, 967.0, 967.0, 967.0, 967.0, 967.0, 967.0, 967.0, 967.0, 967.0, 967.0, 967.0, 967.0, 967.0, 967.0, 967.0, 967.0, 967.0, 967.0, 967.0, 967.0, 967.0, 967.0, 967.0, 967.0, 967.0, 967.0, 967.0, 967.0, 967.0, 967.0, 967.0, 967.0, 967.0, 967.0, 967.0, 967.0, 967.0, 967.0, 967.0, 967.0, 967.0, 967.0, 967.0, 967.0, 967.0, 967.0, 967.0, 967.0, 967.0, 967.0, 967.0, 967.0, 967.0, 967.0, 967.0, 967.0, 967.0, 967.0, 966.0, 966.0, 967.0, 967.0, 967.0, 967.0, 967.0, 967.0, 966.0, 967.0, 967.0, 967.0, 967.0, 966.0, 967.0, 967.0, 967.0, 967.0, 967.0, 967.0, 967.0, 966.0, 966.0, 966.0, 967.0, 967.0, 967.0, 967.0, 967.0, 967.0, 967.0, 967.0, 967.0, 967.0, 967.0, 967.0, 967.0, 967.0, 967.0, 967.0, 967.0, 967.0, 967.0, 967.0, 967.0, 967.0, 967.0, 967.0, 967.0, 967.0, 967.0, 967.0, 967.0, 967.0, 967.0, 967.0, 967.0, 967.0, 967.0, 967.0, 967.0, 967.0, 966.0, 967.0, 967.0, 967.0, 967.0, 967.0, 967.0, 967.0, 967.0, 967.0, 967.0, 967.0, 967.0],
      "WindowWidth": [2276.0, 2277.0, 2277.0, 2276.0, 2277.0, 2276.0, 2276.0, 2276.0, 2276.0, 2277.0, 2277.0, 2277.0, 2277.0, 2277.0, 2277.0, 2277.0, 2277.0, 2277.0, 2277.0, 2276.0, 2277.0, 2277.0, 2277.0, 2277.0, 2277.0, 2277.0, 2277.0, 2277.0, 2277.0, 2277.0, 2277.0, 2277.0, 2277.0, 2277.0, 2277.0, 2277.0, 2277.0, 2277.0, 2277.0, 2277.0, 2277.0, 2277.0, 2277.0, 2277.0, 2277.0, 2277.0, 2277.0, 2277.0, 2278.0, 2277.0, 2277.0, 2277.0, 2278.0, 2277.0, 2277.0, 2277.0, 2277.0, 2277.0, 2277.0, 2277.0, 2277.0, 2277.0, 2277.0, 2277.0, 2277.0, 2277.0, 2277.0, 2278.0, 2277.0, 2277.0, 2277.0, 2277.0, 2277.0, 2277.0, 2277.0, 2277.0, 2277.0, 2277.0, 2277.0, 2277.0, 2277.0, 2278.0, 2277.0, 2277.0, 2277.0, 2277.0, 2277.0, 2277.0, 2277.0, 2277.0, 2278.0, 2278.0, 2277.0, 2277.0, 2277.0, 2277.0, 2278.0, 2277.0, 2277.0, 2277.0, 2277.0, 2277.0, 2278.0, 2278.0, 2277.0, 2277.0, 2278.0, 2277.0, 2278.0, 2277.0, 2277.0, 2277.0, 2277.0, 2277.0, 2277.0, 2277.0, 2277.0, 2276.0, 2276.0, 2276.0, 2277.0, 2276.0, 2276.0, 2276.0, 2276.0, 2277.0, 2277.0, 2276.0, 2276.0, 2277.0, 2277.0, 2277.0, 2277.0, 2277.0, 2277.0, 2277.0, 2277.0, 2277.0, 2277.0, 2277.0, 2277.0, 2277.0, 2277.0, 2277.0, 2277.0, 2277.0, 2277.0, 2277.0, 2277.0, 2277.0, 2277.0, 2277.0, 2277.0, 2277.0, 2277.0, 2277.0, 2277.0, 2277.0, 2277.0, 2277.0, 2277.0, 2277.0, 2277.0, 2277.0, 2277.0, 2277.0, 2277.0, 2277.0, 2277.0, 2277.0, 2277.0, 2277.0, 2277.0, 2277.0, 2277.0, 2277.0, 2277.0, 2277.0, 2277.0, 2277.0, 2277.0, 2277.0, 2277.0, 2277.0, 2277.0, 2277.0, 2277.0, 2277.0, 2277.0, 2277.0, 2277.0, 2277.0, 2277.0, 2277.0, 2278.0, 2277.0, 2278.0, 2277.0, 2278.0, 2277.0]
    },
    "slices": {}
  }
}