{
  "AcquisitionMatrixPE": 122,
  "AcquisitionNumber": 1,
  "AcquisitionTime": "12:12:2.077500",
  "BandwidthPerPixelPhaseEncode": 28.76,
  "BaseResolution": 122,
  "BodyPartExamined": "BRAIN",
  "CoilCombinationMethod": "Adaptive Combine",
  "ConsistencyInfo": "N4_VE11C_LATEST_20160120",
  "ConversionSoftware": "dcm2niix",
  "ConversionSoftwareVersion": "v1.0.20220720",
  "DerivedVendorReportedEchoSpacing": 0.000570008,
  "DeviceSerialNumber": "66112",
  "DiffusionScheme": "Monopolar",
  "DwellTime": 2e-06,
  "EchoTime": 0.075,
  "EchoTrainLength": 61,
  "EffectiveEchoSpacing": 0.000285004,
  "FlipAngle": 90,
  "HeudiconvVersion": "0.13.1",
  "ImageOrientationPatientDICOM": [0.986451, 0.163696, 0.0108626, -0.15924, 0.939469, 0.303383],
  "ImageOrientationText": "Tra>Cor(17.5)>Sag(-2.3)",
  "ImageType": [
    "ORIGINAL",
    "PRIMARY",
    "DIFFUSION",
    "NONE",
    "ND",
    "NORM"
],
  "ImagingFrequency": 123.252,
  "InPlanePhaseEncodingDirectionDICOM": "COL",
  "InstitutionAddress": "Maynard 3,Hanover,NH,US,03755",
  "InstitutionName": "Dartmouth College - PBS",
  "InstitutionalDepartmentName": "Department",
  "MRAcquisitionType": "2D",
  "MagneticFieldStrength": 3,
  "Manufacturer": "Siemens",
  "ManufacturersModelName": "Prisma",
  "MatrixCoilMode": "GRAPPA",
  "Modality": "MR",
  "NonlinearGradientCorrection": false,
  "ParallelReductionFactorInPlane": 2,
  "PartialFourier": 1,
  "PatientPosition": "HFS",
  "PercentPhaseFOV": 100,
  "PercentSampling": 100,
  "PhaseEncodingDirection": "j-",
  "PhaseEncodingSteps": 122,
  "PhaseResolution": 1,
  "PixelBandwidth": 2050,
  "ProcedureStepDescription": "dbic^QA",
  "ProtocolName": "dwi_acq-DTI-30-p2",
  "PulseSequenceDetails": "%SiemensSeq%\\ep2d_diff",
  "ReceiveCoilActiveElements": "HEA;HEP",
  "ReceiveCoilName": "Head_32",
  "ReconMatrixPE": 122,
  "RefLinesPE": 38,
  "RepetitionTime": 7.7,
  "SAR": 0.101719,
  "ScanOptions": "FS",
  "ScanningSequence": "EP",
  "SequenceName": "*ep_b0",
  "SequenceVariant": "SK\\SP",
  "SeriesDescription": "dwi_acq-DTI-30-p2",
  "SeriesNumber": 8,
  "ShimSetting": [4144, -7689, -7524, 257, -51, -252, -70, 54],
  "SliceThickness": 2,
  "SliceTiming": [3.84375, 0, 3.95312, 0.10938, 4.0625, 0.22656, 4.17188, 0.33594, 4.28125, 0.44531, 4.39062, 0.54688, 4.5, 0.66406, 4.60938, 0.77344, 4.71875, 0.88281, 4.82812, 0.99219, 4.9375, 1.10156, 5.04688, 1.21094, 5.16406, 1.32031, 5.27344, 1.42969, 5.375, 1.53906, 5.48438, 1.64844, 5.60156, 1.75781, 5.71094, 1.86719, 5.82031, 1.97656, 5.92969, 2.08594, 6.03906, 2.19531, 6.14844, 2.30469, 6.25781, 2.42188, 6.36719, 2.52344, 6.47656, 2.63281, 6.58594, 2.74219, 6.69531, 2.85938, 6.80469, 2.96875, 6.91406, 3.07812, 7.02344, 3.1875, 7.13281, 3.29688, 7.24219, 3.40625, 7.35156, 3.51562, 7.46094, 3.625, 7.57031, 3.73438],
  "SoftwareVersions": "syngo MR E11",
  "SpacingBetweenSlices": 2,
  "SpoilingState": true,
  "StationName": "AWP66112",
  "TotalReadoutTime": 0.0344855,
  "TxRefAmp": 224.223,
  "dcmmeta_affine": [
    [-1.9405595064163208, -0.3132593631744385, -0.07891467213630676, 142.05068969726562],
    [-0.32202455401420593, 1.8481353521347046, 0.6020050048828125, -111.58299255371094],
    [0.02136913128197193, -0.5968182682991028, 1.9056129455566406, -40.836402893066406],
    [0.0, 0.0, 0.0, 1.0]
],
  "dcmmeta_reorient_transform": [
    [0.0, -1.0, 0.0, 121.0],
    [1.0, 0.0, 0.0, 0.0],
    [0.0, 0.0, -1.0, 69.0],
    [0.0, 0.0, 0.0, 1.0]
],
  "dcmmeta_shape": [122, 122, 70, 31],
  "dcmmeta_slice_dim": 2,
  "dcmmeta_version": 0.6,
  "global": {
    "const": {
      "AccessionNumber": "qa",
      "AcquisitionMatrix": [122, 0, 0, 122],
      "AngioFlag": "N",
      "BitsAllocated": 16,
      "BitsStored": 12,
      "BodyPartExamined": "BRAIN",
      "Columns": 122,
      "EchoNumbers": 1,
      "EchoTime": 75.0,
      "EchoTrainLength": 61,
      "FlipAngle": 90.0,
      "HighBit": 11,
      "ImageOrientationPatient": [0.98645105518527, 0.16369581161421, 0.01086264165958, -0.1592401747177, 0.93946876390518, 0.30338261058003],
      "ImageType": [
        "ORIGINAL",
        "PRIMARY",
        "DIFFUSION",
        "NONE",
        "ND",
        "NORM"
],
      "ImagedNucleus": "1H",
      "ImagingFrequency": 123.252467,
      "InPlanePhaseEncodingDirection": "COL",
      "MRAcquisitionType": "2D",
      "MagneticFieldStrength": 3.0,
      "Manufacturer": "SIEMENS",
      "ManufacturerModelName": "Prisma",
      "Modality": "MR",
      "NumberOfAverages": 1.0,
      "NumberOfPhaseEncodingSteps": 122,
      "PercentPhaseFieldOfView": 100.0,
      "PercentSampling": 100.0,
      "PerformedProcedureStepStartTime": "114137.309000",
      "PhotometricInterpretation": "MONOCHROME2",
      "PixelBandwidth": 2050.0,
      "PixelRepresentation": 0,
      "PixelSpacing": [1.9672131538391, 1.9672131538391],
      "ProtocolName": "dwi_acq-DTI-30-p2",
      "RepetitionTime": 7700.0,
      "Rows": 122,
      "SAR": 0.10171891525601,
      "SamplesPerPixel": 1,
      "ScanOptions": "FS",
      "ScanningSequence": "EP",
      "SequenceVariant": [
        "SK",
        "SP"
],
      "SeriesDescription": "dwi_acq-DTI-30-p2",
      "SeriesNumber": 8,
      "SeriesTime": "121202.732000",
      "SliceThickness": 2.0,
      "SmallestImagePixelValue": 0,
      "SoftwareVersions": "syngo MR E11",
      "SpacingBetweenSlices": 2.0,
      "SpecificCharacterSet": "ISO_IR 100",
      "StudyID": "82",
      "StudyTime": "114137.188000",
      "TransmitCoilName": "Body",
      "VariableFlipAngleFlag": "N",
      "WindowCenterWidthExplanation": "Algo1",
      "dBdt": 0.0},
    "slices": {
      "AcquisitionTime": ["121202.077500", "121158.237500", "121202.187500", "121158.347500", "121202.297500", "121158.457500", "121202.407500", "121158.567500", "121202.517500", "121158.677500", "121202.625000", "121158.785000", "121202.735000", "121158.895000", "121202.845000", "121159.005000", "121202.955000", "121159.115000", "121203.065000", "121159.225000", "121203.175000", "121159.335000", "121203.285000", "121159.445000", "121203.395000", "121159.555000", "121203.505000", "121159.665000", "121203.612500", "121159.772500", "121203.722500", "121159.882500", "121203.832500", "121159.992500", "121203.942500", "121200.102500", "121204.052500", "121200.212500", "121204.162500", "121200.322500", "121204.272500", "121200.432500", "121204.382500", "121200.542500", "121204.490000", "121200.652500", "121204.600000", "121200.760000", "121204.710000", "121200.870000", "121204.820000", "121200.980000", "121204.930000", "121201.090000", "121205.040000", "121201.200000", "121205.150000", "121201.310000", "121205.260000", "121201.420000", "121205.370000", "121201.530000", "121205.477500", "121201.637500", "121205.587500", "121201.747500", "121205.697500", "121201.857500", "121205.807500", "121201.967500", "121209.777500", "121205.937500", "121209.887500", "121206.047500", "121209.997500", "121206.157500", "121210.107500", "121206.267500", "121210.217500", "121206.377500", "121210.325000", "121206.485000", "121210.435000", "121206.595000", "121210.545000", "121206.705000", "121210.655000", "121206.815000", "121210.765000", "121206.925000", "121210.875000", "121207.035000", "121210.985000", "121207.145000", "121211.095000", "121207.255000", "121211.205000", "121207.365000", "121211.312500", "121207.472500", "121211.422500", "121207.582500", "121211.532500", "121207.692500", "121211.642500", "121207.802500", "121211.752500", "121207.912500", "121211.862500", "121208.022500", "121211.972500", "121208.132500", "121212.082500", "121208.242500", "121212.190000", "121208.352500", "121212.300000", "121208.460000", "121212.410000", "121208.570000", "121212.520000", "121208.680000", "121212.630000", "121208.790000", "121212.740000", "121208.900000", "121212.850000", "121209.010000", "121212.960000", "121209.120000", "121213.070000", "121209.230000", "121213.177500", "121209.337500", "121213.287500", "121209.447500", "121213.397500", "121209.557500", "121213.507500", "121209.667500", "121217.477500", "121213.637500", "121217.587500", "121213.747500", "121217.697500", "121213.857500", "121217.807500", "121213.967500", "121217.917500", "121214.077500", "121218.025000", "121214.185000", "121218.135000", "121214.295000", "121218.245000", "121214.405000", "121218.355000", "121214.515000", "121218.465000", "121214.625000", "121218.575000", "121214.735000", "121218.685000", "121214.845000", "121218.795000", "121214.955000", "121218.905000", "121215.065000", "121219.012500", "121215.172500", "121219.122500", "121215.282500", "121219.232500", "121215.392500", "121219.342500", "121215.502500", "121219.452500", "121215.612500", "121219.562500", "121215.722500", "121219.672500", "121215.832500", "121219.782500", "121215.942500", "121219.890000", "121216.052500", "121220.000000", "121216.160000", "121220.110000", "121216.270000", "121220.220000", "121216.380000", "121220.330000", "121216.490000", "121220.440000", "121216.600000", "121220.550000", "121216.710000", "121220.660000", "121216.820000", "121220.770000", "121216.930000", "121220.877500", "121217.037500", "121220.987500", "121217.147500", "121221.097500", "121217.257500", "121221.207500", "121217.367500", "121225.177500", "121221.337500", "121225.287500", "121221.447500", "121225.397500", "121221.557500", "121225.507500", "121221.667500", "121225.617500", "121221.777500", "121225.725000", "121221.885000", "121225.835000", "121221.995000", "121225.945000", "121222.105000", "121226.055000", "121222.215000", "121226.165000", "121222.325000", "121226.275000", "121222.435000", "121226.385000", "121222.545000", "121226.495000", "121222.655000", "121226.605000", "121222.765000", "121226.712500", "121222.872500", "121226.822500", "121222.982500", "121226.932500", "121223.092500", "121227.042500", "121223.202500", "121227.152500", "121223.312500", "121227.262500", "121223.422500", "121227.372500", "121223.532500", "121227.482500", "121223.642500", "121227.590000", "121223.752500", "121227.700000", "121223.860000", "121227.810000", "121223.970000", "121227.920000", "121224.080000", "121228.030000", "121224.190000", "121228.140000", "121224.300000", "121228.250000", "121224.410000", "121228.360000", "121224.520000", "121228.470000", "121224.630000", "121228.577500", "121224.737500", "121228.687500", "121224.847500", "121228.797500", "121224.957500", "121228.907500", "121225.067500", "121232.877500", "121229.037500", "121232.987500", "121229.147500", "121233.097500", "121229.257500", "121233.207500", "121229.367500", "121233.317500", "121229.477500", "121233.425000", "121229.585000", "121233.535000", "121229.695000", "121233.645000", "121229.805000", "121233.755000", "121229.915000", "121233.865000", "121230.025000", "121233.975000", "121230.135000", "121234.085000", "121230.245000", "121234.195000", "121230.355000", "121234.305000", "121230.465000", "121234.412500", "121230.572500", "121234.522500", "121230.682500", "121234.632500", "121230.792500", "121234.742500", "121230.902500", "121234.852500", "121231.012500", "121234.962500", "121231.122500", "121235.072500", "121231.232500", "121235.182500", "121231.342500", "121235.290000", "121231.452500", "121235.400000", "121231.560000", "121235.510000", "121231.670000", "121235.620000", "121231.780000", "121235.730000", "121231.890000", "121235.840000", "121232.000000", "121235.950000", "121232.110000", "121236.060000", "121232.220000", "121236.170000", "121232.330000", "121236.277500", "121232.437500", "121236.387500", "121232.547500", "121236.497500", "121232.657500", "121236.607500", "121232.767500", "121240.577500", "121236.737500", "121240.687500", "121236.847500", "121240.797500", "121236.957500", "121240.907500", "121237.067500", "121241.017500", "121237.177500", "121241.125000", "121237.285000", "121241.235000", "121237.395000", "121241.345000", "121237.505000", "121241.455000", "121237.615000", "121241.565000", "121237.725000", "121241.675000", "121237.835000", "121241.785000", "121237.945000", "121241.895000", "121238.055000", "121242.005000", "121238.165000", "121242.112500", "121238.272500", "121242.222500", "121238.382500", "121242.332500", "121238.492500", "121242.442500", "121238.602500", "121242.552500", "121238.712500", "121242.662500", "121238.822500", "121242.772500", "121238.932500", "121242.882500", "121239.042500", "121242.990000", "121239.152500", "121243.100000", "121239.260000", "121243.210000", "121239.370000", "121243.320000", "121239.480000", "121243.430000", "121239.590000", "121243.540000", "121239.700000", "121243.650000", "121239.810000", "121243.760000", "121239.920000", "121243.870000", "121240.030000", "121243.977500", "121240.137500", "121244.087500", "121240.247500", "121244.197500", "121240.357500", "121244.307500", "121240.467500", "121248.277500", "121244.437500", "121248.387500", "121244.547500", "121248.497500", "121244.657500", "121248.607500", "121244.767500", "121248.717500", "121244.877500", "121248.825000", "121244.985000", "121248.935000", "121245.095000", "121249.045000", "121245.205000", "121249.155000", "121245.315000", "121249.265000", "121245.425000", "121249.375000", "121245.535000", "121249.485000", "121245.645000", "121249.595000", "121245.755000", "121249.705000", "121245.865000", "121249.812500", "121245.972500", "121249.922500", "121246.082500", "121250.032500", "121246.192500", "121250.142500", "121246.302500", "121250.252500", "121246.412500", "121250.362500", "121246.522500", "121250.472500", "121246.632500", "121250.582500", "121246.742500", "121250.690000", "121246.852500", "121250.800000", "121246.960000", "121250.910000", "121247.070000", "121251.020000", "121247.180000", "121251.130000", "121247.290000", "121251.240000", "121247.400000", "121251.350000", "121247.510000", "121251.460000", "121247.620000", "121251.570000", "121247.730000", "121251.677500", "121247.837500", "121251.787500", "121247.947500", "121251.897500", "121248.057500", "121252.007500", "121248.167500", "121255.977500", "121252.137500", "121256.087500", "121252.247500", "121256.197500", "121252.357500", "121256.307500", "121252.467500", "121256.417500", "121252.577500", "121256.525000", "121252.685000", "121256.635000", "121252.795000", "121256.745000", "121252.905000", "121256.855000", "121253.015000", "121256.965000", "121253.125000", "121257.075000", "121253.235000", "121257.185000", "121253.345000", "121257.295000", "121253.455000", "121257.405000", "121253.565000", "121257.512500", "121253.672500", "121257.622500", "121253.782500", "121257.732500", "121253.892500", "121257.842500", "121254.002500", "121257.952500", "121254.112500", "121258.062500", "121254.222500", "121258.172500", "121254.332500", "121258.282500", "121254.442500", "121258.390000", "121254.552500", "121258.500000", "121254.660000", "121258.610000", "121254.770000", "121258.720000", "121254.880000", "121258.830000", "121254.990000", "121258.940000", "121255.100000", "121259.050000", "121255.210000", "121259.160000", "121255.320000", "121259.270000", "121255.430000", "121259.377500", "121255.537500", "121259.487500", "121255.647500", "121259.597500", "121255.757500", "121259.707500", "121255.867500", "121303.677500", "121259.837500", "121303.787500", "121259.947500", "121303.897500", "121300.057500", "121304.007500", "121300.167500", "121304.117500", "121300.277500", "121304.225000", "121300.385000", "121304.335000", "121300.495000", "121304.445000", "121300.605000", "121304.555000", "121300.715000", "121304.665000", "121300.825000", "121304.775000", "121300.935000", "121304.885000", "121301.045000", "121304.995000", "121301.155000", "121305.105000", "121301.265000", "121305.212500", "121301.372500", "121305.322500", "121301.482500", "121305.432500", "121301.592500", "121305.542500", "121301.702500", "121305.652500", "121301.812500", "121305.762500", "121301.922500", "121305.872500", "121302.032500", "121305.982500", "121302.142500", "121306.090000", "121302.252500", "121306.200000", "121302.360000", "121306.310000", "121302.470000", "121306.420000", "121302.580000", "121306.530000", "121302.690000", "121306.640000", "121302.800000", "121306.750000", "121302.910000", "121306.860000", "121303.020000", "121306.970000", "121303.130000", "121307.077500", "121303.237500", "121307.187500", "121303.347500", "121307.297500", "121303.457500", "121307.407500", "121303.567500", "121311.377500", "121307.537500", "121311.487500", "121307.647500", "121311.597500", "121307.757500", "121311.707500", "121307.867500", "121311.817500", "121307.977500", "121311.925000", "121308.085000", "121312.035000", "121308.195000", "121312.145000", "121308.305000", "121312.255000", "121308.415000", "121312.365000", "121308.525000", "121312.475000", "121308.635000", "121312.585000", "121308.745000", "121312.695000", "121308.855000", "121312.805000", "121308.965000", "121312.912500", "121309.072500", "121313.022500", "121309.182500", "121313.132500", "121309.292500", "121313.242500", "121309.402500", "121313.352500", "121309.512500", "121313.462500", "121309.622500", "121313.572500", "121309.732500", "121313.682500", "121309.842500", "121313.790000", "121309.952500", "121313.900000", "121310.060000", "121314.010000", "121310.170000", "121314.120000", "121310.280000", "121314.230000", "121310.390000", "121314.340000", "121310.500000", "121314.450000", "121310.610000", "121314.560000", "121310.720000", "121314.670000", "121310.830000", "121314.777500", "121310.937500", "121314.887500", "121311.047500", "121314.997500", "121311.157500", "121315.107500", "121311.267500", "121319.077500", "121315.237500", "121319.187500", "121315.347500", "121319.297500", "121315.457500", "121319.407500", "121315.567500", "121319.517500", "121315.677500", "121319.625000", "121315.785000", "121319.735000", "121315.895000", "121319.845000", "121316.005000", "121319.955000", "121316.115000", "121320.065000", "121316.225000", "121320.175000", "121316.335000", "121320.285000", "121316.445000", "121320.395000", "121316.555000", "121320.505000", "121316.665000", "121320.612500", "121316.772500", "121320.722500", "121316.882500", "121320.832500", "121316.992500", "121320.942500", "121317.102500", "121321.052500", "121317.212500", "121321.162500", "121317.322500", "121321.272500", "121317.432500", "121321.382500", "121317.542500", "121321.490000", "121317.652500", "121321.600000", "121317.760000", "121321.710000", "121317.870000", "121321.820000", "121317.980000", "121321.930000", "121318.090000", "121322.040000", "121318.200000", "121322.150000", "121318.310000", "121322.260000", "121318.420000", "121322.370000", "121318.530000", "121322.477500", "121318.637500", "121322.587500", "121318.747500", "121322.697500", "121318.857500", "121322.807500", "121318.967500", "121326.777500", "121322.937500", "121326.887500", "121323.047500", "121326.997500", "121323.157500", "121327.107500", "121323.267500", "121327.217500", "121323.377500", "121327.325000", "121323.485000", "121327.435000", "121323.595000", "121327.545000", "121323.705000", "121327.655000", "121323.815000", "121327.765000", "121323.925000", "121327.875000", "121324.035000", "121327.985000", "121324.145000", "121328.095000", "121324.255000", "121328.205000", "121324.365000", "121328.312500", "121324.472500", "121328.422500", "121324.582500", "121328.532500", "121324.692500", "121328.642500", "121324.802500", "121328.752500", "121324.912500", "121328.862500", "121325.022500", "121328.972500", "121325.132500", "121329.082500", "121325.242500", "121329.190000", "121325.352500", "121329.300000", "121325.460000", "121329.410000", "121325.570000", "121329.520000", "121325.680000", "121329.630000", "121325.790000", "121329.740000", "121325.900000", "121329.850000", "121326.010000", "121329.960000", "121326.120000", "121330.070000", "121326.230000", "121330.177500", "121326.337500", "121330.287500", "121326.447500", "121330.397500", "121326.557500", "121330.507500", "121326.667500", "121334.477500", "121330.637500", "121334.587500", "121330.747500", "121334.697500", "121330.857500", "121334.807500", "121330.967500", "121334.917500", "121331.077500", "121335.025000", "121331.185000", "121335.135000", "121331.295000", "121335.245000", "121331.405000", "121335.355000", "121331.515000", "121335.465000", "121331.625000", "121335.575000", "121331.735000", "121335.685000", "121331.845000", "121335.795000", "121331.955000", "121335.905000", "121332.065000", "121336.012500", "121332.172500", "121336.122500", "121332.282500", "121336.232500", "121332.392500", "121336.342500", "121332.502500", "121336.452500", "121332.612500", "121336.562500", "121332.722500", "121336.672500", "121332.832500", "121336.782500", "121332.942500", "121336.890000", "121333.052500", "121337.000000", "121333.160000", "121337.110000", "121333.270000", "121337.220000", "121333.380000", "121337.330000", "121333.490000", "121337.440000", "121333.600000", "121337.550000", "121333.710000", "121337.660000", "121333.820000", "121337.770000", "121333.930000", "121337.877500", "121334.037500", "121337.987500", "121334.147500", "121338.097500", "121334.257500", "121338.207500", "121334.367500", "121342.177500", "121338.337500", "121342.287500", "121338.447500", "121342.397500", "121338.557500", "121342.507500", "121338.667500", "121342.617500", "121338.777500", "121342.725000", "121338.885000", "121342.835000", "121338.995000", "121342.945000", "121339.105000", "121343.055000", "121339.215000", "121343.165000", "121339.325000", "121343.275000", "121339.435000", "121343.385000", "121339.545000", "121343.495000", "121339.655000", "121343.605000", "121339.765000", "121343.712500", "121339.872500", "121343.822500", "121339.982500", "121343.932500", "121340.092500", "121344.042500", "121340.202500", "121344.152500", "121340.312500", "121344.262500", "121340.422500", "121344.372500", "121340.532500", "121344.482500", "121340.642500", "121344.590000", "121340.752500", "121344.700000", "121340.860000", "121344.810000", "121340.970000", "121344.920000", "121341.080000", "121345.030000", "121341.190000", "121345.140000", "121341.300000", "121345.250000", "121341.410000", "121345.360000", "121341.520000", "121345.470000", "121341.630000", "121345.577500", "121341.737500", "121345.687500", "121341.847500", "121345.797500", "121341.957500", "121345.907500", "121342.067500", "121349.877500", "121346.037500", "121349.987500", "121346.147500", "121350.097500", "121346.257500", "121350.207500", "121346.367500", "121350.317500", "121346.477500", "121350.425000", "121346.585000", "121350.535000", "121346.695000", "121350.645000", "121346.805000", "121350.755000", "121346.915000", "121350.865000", "121347.025000", "121350.975000", "121347.135000", "121351.085000", "121347.245000", "121351.195000", "121347.355000", "121351.305000", "121347.465000", "121351.412500", "121347.572500", "121351.522500", "121347.682500", "121351.632500", "121347.792500", "121351.742500", "121347.902500", "121351.852500", "121348.012500", "121351.962500", "121348.122500", "121352.072500", "121348.232500", "121352.182500", "121348.342500", "121352.290000", "121348.452500", "121352.400000", "121348.560000", "121352.510000", "121348.670000", "121352.620000", "121348.780000", "121352.730000", "121348.890000", "121352.840000", "121349.000000", "121352.950000", "121349.110000", "121353.060000", "121349.220000", "121353.170000", "121349.330000", "121353.277500", "121349.437500", "121353.387500", "121349.547500", "121353.497500", "121349.657500", "121353.607500", "121349.767500", "121357.577500", "121353.737500", "121357.687500", "121353.847500", "121357.797500", "121353.957500", "121357.907500", "121354.067500", "121358.017500", "121354.177500", "121358.125000", "121354.285000", "121358.235000", "121354.395000", "121358.345000", "121354.505000", "121358.455000", "121354.615000", "121358.565000", "121354.725000", "121358.675000", "121354.835000", "121358.785000", "121354.945000", "121358.895000", "121355.055000", "121359.005000", "121355.165000", "121359.112500", "121355.272500", "121359.222500", "121355.382500", "121359.332500", "121355.492500", "121359.442500", "121355.602500", "121359.552500", "121355.712500", "121359.662500", "121355.822500", "121359.772500", "121355.932500", "121359.882500", "121356.042500", "121359.990000", "121356.152500", "121400.100000", "121356.260000", "121400.210000", "121356.370000", "121400.320000", "121356.480000", "121400.430000", "121356.590000", "121400.540000", "121356.700000", "121400.650000", "121356.810000", "121400.760000", "121356.920000", "121400.870000", "121357.030000", "121400.977500", "121357.137500", "121401.087500", "121357.247500", "121401.197500", "121357.357500", "121401.307500", "121357.467500", "121405.277500", "121401.437500", "121405.387500", "121401.547500", "121405.497500", "121401.657500", "121405.607500", "121401.767500", "121405.717500", "121401.877500", "121405.825000", "121401.985000", "121405.935000", "121402.095000", "121406.045000", "121402.205000", "121406.155000", "121402.315000", "121406.265000", "121402.425000", "121406.375000", "121402.535000", "121406.485000", "121402.645000", "121406.595000", "121402.755000", "121406.705000", "121402.865000", "121406.812500", "121402.972500", "121406.922500", "121403.082500", "121407.032500", "121403.192500", "121407.142500", "121403.302500", "121407.252500", "121403.412500", "121407.362500", "121403.522500", "121407.472500", "121403.632500", "121407.582500", "121403.742500", "121407.690000", "121403.852500", "121407.800000", "121403.960000", "121407.910000", "121404.070000", "121408.020000", "121404.180000", "121408.130000", "121404.290000", "121408.240000", "121404.400000", "121408.350000", "121404.510000", "121408.460000", "121404.620000", "121408.570000", "121404.730000", "121408.677500", "121404.837500", "121408.787500", "121404.947500", "121408.897500", "121405.057500", "121409.007500", "121405.167500", "121412.977500", "121409.137500", "121413.087500", "121409.247500", "121413.197500", "121409.357500", "121413.307500", "121409.467500", "121413.417500", "121409.577500", "121413.525000", "121409.685000", "121413.635000", "121409.795000", "121413.745000", "121409.905000", "121413.855000", "121410.015000", "121413.965000", "121410.125000", "121414.075000", "121410.235000", "121414.185000", "121410.345000", "121414.295000", "121410.455000", "121414.405000", "121410.565000", "121414.512500", "121410.672500", "121414.622500", "121410.782500", "121414.732500", "121410.892500", "121414.842500", "121411.002500", "121414.952500", "121411.112500", "121415.062500", "121411.222500", "121415.172500", "121411.332500", "121415.282500", "121411.442500", "121415.390000", "121411.552500", "121415.500000", "121411.660000", "121415.610000", "121411.770000", "121415.720000", "121411.880000", "121415.830000", "121411.990000", "121415.940000", "121412.100000", "121416.050000", "121412.210000", "121416.160000", "121412.320000", "121416.270000", "121412.430000", "121416.377500", "121412.537500", "121416.487500", "121412.647500", "121416.597500", "121412.757500", "121416.707500", "121412.867500", "121420.677500", "121416.837500", "121420.787500", "121416.947500", "121420.897500", "121417.057500", "121421.007500", "121417.167500", "121421.117500", "121417.277500", "121421.225000", "121417.385000", "121421.335000", "121417.495000", "121421.445000", "121417.605000", "121421.555000", "121417.715000", "121421.665000", "121417.825000", "121421.775000", "121417.935000", "121421.885000", "121418.045000", "121421.995000", "121418.155000", "121422.105000", "121418.265000", "121422.212500", "121418.372500", "121422.322500", "121418.482500", "121422.432500", "121418.592500", "121422.542500", "121418.702500", "121422.652500", "121418.812500", "121422.762500", "121418.922500", "121422.872500", "121419.032500", "121422.982500", "121419.142500", "121423.090000", "121419.252500", "121423.200000", "121419.360000", "121423.310000", "121419.470000", "121423.420000", "121419.580000", "121423.530000", "121419.690000", "121423.640000", "121419.800000", "121423.750000", "121419.910000", "121423.860000", "121420.020000", "121423.970000", "121420.130000", "121424.077500", "121420.237500", "121424.187500", "121420.347500", "121424.297500", "121420.457500", "121424.407500", "121420.567500", "121428.377500", "121424.537500", "121428.487500", "121424.647500", "121428.597500", "121424.757500", "121428.707500", "121424.867500", "121428.817500", "121424.977500", "121428.925000", "121425.085000", "121429.035000", "121425.195000", "121429.145000", "121425.305000", "121429.255000", "121425.415000", "121429.365000", "121425.525000", "121429.475000", "121425.635000", "121429.585000", "121425.745000", "121429.695000", "121425.855000", "121429.805000", "121425.965000", "121429.912500", "121426.072500", "121430.022500", "121426.182500", "121430.132500", "121426.292500", "121430.242500", "121426.402500", "121430.352500", "121426.512500", "121430.462500", "121426.622500", "121430.572500", "121426.732500", "121430.682500", "121426.842500", "121430.790000", "121426.952500", "121430.900000", "121427.060000", "121431.010000", "121427.170000", "121431.120000", "121427.280000", "121431.230000", "121427.390000", "121431.340000", "121427.500000", "121431.450000", "121427.610000", "121431.560000", "121427.720000", "121431.670000", "121427.830000", "121431.777500", "121427.937500", "121431.887500", "121428.047500", "121431.997500", "121428.157500", "121432.107500", "121428.267500", "121436.077500", "121432.237500", "121436.187500", "121432.347500", "121436.297500", "121432.457500", "121436.407500", "121432.567500", "121436.517500", "121432.677500", "121436.625000", "121432.785000", "121436.735000", "121432.895000", "121436.845000", "121433.005000", "121436.955000", "121433.115000", "121437.065000", "121433.225000", "121437.175000", "121433.335000", "121437.285000", "121433.445000", "121437.395000", "121433.555000", "121437.505000", "121433.665000", "121437.612500", "121433.772500", "121437.722500", "121433.882500", "121437.832500", "121433.992500", "121437.942