{
  "AcquisitionMatrixPE": 122,
  "AcquisitionNumber": 1,
  "AcquisitionTime": "12:16:23.472500",
  "BandwidthPerPixelPhaseEncode": 27.785,
  "BaseResolution": 122,
  "BodyPartExamined": "BRAIN",
  "CoilCombinationMethod": "Adaptive Combine",
  "ConsistencyInfo": "N4_VE11C_LATEST_20160120",
  "ConversionSoftware": "dcm2niix",
  "ConversionSoftwareVersion": "v1.0.20220720",
  "DerivedVendorReportedEchoSpacing": 0.000590011,
  "DeviceSerialNumber": "66112",
  "DiffusionScheme": "Monopolar",
  "DwellTime": 2e-06,
  "EchoTime": 0.068,
  "EchoTrainLength": 61,
  "EffectiveEchoSpacing": 0.000295005,
  "FlipAngle": 90,
  "HeudiconvVersion": "0.13.1",
  "ImageOrientationPatientDICOM": [0.986451, 0.163696, 0.0108626, -0.15924, 0.939469, 0.303383],
  "ImageOrientationText": "Tra>Cor(17.5)>Sag(-2.3)",
  "ImageType": [
    "ORIGINAL",
    "PRIMARY",
    "DIFFUSION",
    "NONE",
    "ND",
    "NORM"
],
  "ImagingFrequency": 123.252,
  "InPlanePhaseEncodingDirectionDICOM": "COL",
  "InstitutionAddress": "Maynard 3,Hanover,NH,US,03755",
  "InstitutionName": "Dartmouth College - PBS",
  "InstitutionalDepartmentName": "Department",
  "MRAcquisitionType": "2D",
  "MagneticFieldStrength": 3,
  "Manufacturer": "Siemens",
  "ManufacturersModelName": "Prisma",
  "Modality": "MR",
  "MultibandAccelerationFactor": 4,
  "NonlinearGradientCorrection": false,
  "ParallelReductionFactorInPlane": 2,
  "PartialFourier": 1,
  "PatientPosition": "HFS",
  "PercentPhaseFOV": 100,
  "PercentSampling": 100,
  "PhaseEncodingDirection": "j-",
  "PhaseEncodingSteps": 122,
  "PhaseResolution": 1,
  "PixelBandwidth": 2050,
  "ProcedureStepDescription": "dbic^QA",
  "ProtocolName": "dwi_acq-DTI-30-p2-s4",
  "PulseSequenceDetails": "%SiemensSeq%\\ep2d_diff",
  "ReceiveCoilActiveElements": "HEA;HEP",
  "ReceiveCoilName": "Head_32",
  "ReconMatrixPE": 122,
  "RefLinesPE": 38,
  "RepetitionTime": 3.6,
  "SAR": 0.163017,
  "ScanOptions": "FS",
  "ScanningSequence": "EP",
  "SequenceName": "*ep_b0",
  "SequenceVariant": "SK\\SP",
  "SeriesDescription": "dwi_acq-DTI-30-p2-s4",
  "SeriesNumber": 9,
  "ShimSetting": [4144, -7689, -7524, 256, -52, -253, -71, 54],
  "SliceThickness": 2,
  "SliceTiming": [2.58594, 0, 1.78906, 0.20312, 1.99219, 0.39844, 2.19531, 0.60156, 2.39062, 1, 2.78906, 1.19531, 2.98438, 1.39844, 3.1875, 1.59375, 3.38281, 0.79688, 2.58594, 0, 1.78906, 0.20312, 1.99219, 0.39844, 2.19531, 0.60156, 2.39062, 1, 2.78906, 1.19531, 2.98438, 1.39844, 3.1875, 1.59375, 3.38281, 0.79688, 2.58594, 0, 1.78906, 0.20312, 1.99219, 0.39844, 2.19531, 0.60156, 2.39062, 1, 2.78906, 1.19531, 2.98438, 1.39844, 3.1875, 1.59375, 3.38281, 0.79688, 2.58594, 0, 1.78906, 0.20312, 1.99219, 0.39844, 2.19531, 0.60156, 2.39062, 1, 2.78906, 1.19531, 2.98438, 1.39844, 3.1875, 1.59375, 3.38281, 0.79688],
  "SoftwareVersions": "syngo MR E11",
  "SpacingBetweenSlices": 2,
  "SpoilingState": true,
  "StationName": "AWP66112",
  "TotalReadoutTime": 0.0356956,
  "TxRefAmp": 224.223,
  "dcmmeta_affine": [
    [-1.9405595064163208, -0.3132593631744385, -0.07891470193862915, 142.1295928955078],
    [-0.32202455401420593, 1.8481353521347046, 0.6020030975341797, -112.18486785888672],
    [0.02136913128197193, -0.5968182682991028, 1.9056129455566406, -42.74201583862305],
    [0.0, 0.0, 0.0, 1.0]
],
  "dcmmeta_reorient_transform": [
    [0.0, -1.0, 0.0, 121.0],
    [1.0, 0.0, 0.0, 0.0],
    [0.0, 0.0, -1.0, 71.0],
    [0.0, 0.0, 0.0, 1.0]
],
  "dcmmeta_shape": [122, 122, 72, 31],
  "dcmmeta_slice_dim": 2,
  "dcmmeta_version": 0.6,
  "global": {
    "const": {
      "AccessionNumber": "qa",
      "AcquisitionMatrix": [122, 0, 0, 122],
      "AngioFlag": "N",
      "BitsAllocated": 16,
      "BitsStored": 12,
      "BodyPartExamined": "BRAIN",
      "Columns": 122,
      "EchoNumbers": 1,
      "EchoTime": 68.0,
      "EchoTrainLength": 61,
      "FlipAngle": 90.0,
      "HighBit": 11,
      "ImageOrientationPatient": [0.98645105518527, 0.16369581161421, 0.01086264165958, -0.1592401747177, 0.93946876390518, 0.30338261058003],
      "ImageType": [
        "ORIGINAL",
        "PRIMARY",
        "DIFFUSION",
        "NONE",
        "ND",
        "NORM"
],
      "ImagedNucleus": "1H",
      "ImagingFrequency": 123.25247,
      "InPlanePhaseEncodingDirection": "COL",
      "MRAcquisitionType": "2D",
      "MagneticFieldStrength": 3.0,
      "Manufacturer": "SIEMENS",
      "ManufacturerModelName": "Prisma",
      "Modality": "MR",
      "NumberOfAverages": 1.0,
      "NumberOfPhaseEncodingSteps": 122,
      "PercentPhaseFieldOfView": 100.0,
      "PercentSampling": 100.0,
      "PerformedProcedureStepStartTime": "114137.309000",
      "PhotometricInterpretation": "MONOCHROME2",
      "PixelBandwidth": 2050.0,
      "PixelRepresentation": 0,
      "PixelSpacing": [1.9672131538391, 1.9672131538391],
      "ProtocolName": "dwi_acq-DTI-30-p2-s4",
      "RepetitionTime": 3600.0,
      "Rows": 122,
      "SAR": 0.1630171360081,
      "SamplesPerPixel": 1,
      "ScanOptions": "FS",
      "ScanningSequence": "EP",
      "SequenceVariant": [
        "SK",
        "SP"
],
      "SeriesDescription": "dwi_acq-DTI-30-p2-s4",
      "SeriesNumber": 9,
      "SeriesTime": "121632.641000",
      "SliceThickness": 2.0,
      "SmallestImagePixelValue": 0,
      "SoftwareVersions": "syngo MR E11",
      "SpacingBetweenSlices": 2.0,
      "SpecificCharacterSet": "ISO_IR 100",
      "StudyID": "82",
      "StudyTime": "114137.188000",
      "TransmitCoilName": "Body",
      "VariableFlipAngleFlag": "N",
      "WindowCenterWidthExplanation": "Algo1",
      "dBdt": 0.0},
    "slices": {
      "AcquisitionTime": ["121623.472500", "121620.885000", "121622.675000", "121621.085000", "121622.875000", "121621.285000", "121623.075000", "121621.482500", "121623.272500", "121621.880000", "121623.670000", "121622.080000", "121623.870000", "121622.277500", "121624.067500", "121622.477500", "121624.267500", "121621.682500", "121623.472500", "121620.885000", "121622.675000", "121621.085000", "121622.875000", "121621.285000", "121623.075000", "121621.482500", "121623.272500", "121621.880000", "121623.670000", "121622.080000", "121623.870000", "121622.277500", "121624.067500", "121622.477500", "121624.267500", "121621.682500", "121623.472500", "121620.885000", "121622.675000", "121621.085000", "121622.875000", "121621.285000", "121623.075000", "121621.482500", "121623.272500", "121621.880000", "121623.670000", "121622.080000", "121623.870000", "121622.277500", "121624.067500", "121622.477500", "121624.267500", "121621.682500", "121623.472500", "121620.885000", "121622.675000", "121621.085000", "121622.875000", "121621.285000", "121623.075000", "121621.482500", "121623.272500", "121621.880000", "121623.670000", "121622.080000", "121623.870000", "121622.277500", "121624.067500", "121622.477500", "121624.267500", "121621.682500", "121627.072500", "121624.485000", "121626.275000", "121624.685000", "121626.475000", "121624.885000", "121626.675000", "121625.082500", "121626.872500", "121625.480000", "121627.270000", "121625.680000", "121627.470000", "121625.877500", "121627.667500", "121626.077500", "121627.867500", "121625.282500", "121627.072500", "121624.485000", "121626.275000", "121624.685000", "121626.475000", "121624.885000", "121626.675000", "121625.082500", "121626.872500", "121625.480000", "121627.270000", "121625.680000", "121627.470000", "121625.877500", "121627.667500", "121626.077500", "121627.867500", "121625.282500", "121627.072500", "121624.485000", "121626.275000", "121624.685000", "121626.475000", "121624.885000", "121626.675000", "121625.082500", "121626.872500", "121625.480000", "121627.270000", "121625.680000", "121627.470000", "121625.877500", "121627.667500", "121626.077500", "121627.867500", "121625.282500", "121627.072500", "121624.485000", "121626.275000", "121624.685000", "121626.475000", "121624.885000", "121626.675000", "121625.082500", "121626.872500", "121625.480000", "121627.270000", "121625.680000", "121627.470000", "121625.877500", "121627.667500", "121626.077500", "121627.867500", "121625.282500", "121630.672500", "121628.085000", "121629.875000", "121628.285000", "121630.075000", "121628.485000", "121630.275000", "121628.682500", "121630.472500", "121629.080000", "121630.870000", "121629.280000", "121631.070000", "121629.477500", "121631.267500", "121629.677500", "121631.467500", "121628.882500", "121630.672500", "121628.085000", "121629.875000", "121628.285000", "121630.075000", "121628.485000", "121630.275000", "121628.682500", "121630.472500", "121629.080000", "121630.870000", "121629.280000", "121631.070000", "121629.477500", "121631.267500", "121629.677500", "121631.467500", "121628.882500", "121630.672500", "121628.085000", "121629.875000", "121628.285000", "121630.075000", "121628.485000", "121630.275000", "121628.682500", "121630.472500", "121629.080000", "121630.870000", "121629.280000", "121631.070000", "121629.477500", "121631.267500", "121629.677500", "121631.467500", "121628.882500", "121630.672500", "121628.085000", "121629.875000", "121628.285000", "121630.075000", "121628.485000", "121630.275000", "121628.682500", "121630.472500", "121629.080000", "121630.870000", "121629.280000", "121631.070000", "121629.477500", "121631.267500", "121629.677500", "121631.467500", "121628.882500", "121634.272500", "121631.685000", "121633.475000", "121631.885000", "121633.675000", "121632.085000", "121633.875000", "121632.282500", "121634.072500", "121632.680000", "121634.470000", "121632.880000", "121634.670000", "121633.077500", "121634.867500", "121633.277500", "121635.067500", "121632.482500", "121634.272500", "121631.685000", "121633.475000", "121631.885000", "121633.675000", "121632.085000", "121633.875000", "121632.282500", "121634.072500", "121632.680000", "121634.470000", "121632.880000", "121634.670000", "121633.077500", "121634.867500", "121633.277500", "121635.067500", "121632.482500", "121634.272500", "121631.685000", "121633.475000", "121631.885000", "121633.675000", "121632.085000", "121633.875000", "121632.282500", "121634.072500", "121632.680000", "121634.470000", "121632.880000", "121634.670000", "121633.077500", "121634.867500", "121633.277500", "121635.067500", "121632.482500", "121634.272500", "121631.685000", "121633.475000", "121631.885000", "121633.675000", "121632.085000", "121633.875000", "121632.282500", "121634.072500", "121632.680000", "121634.470000", "121632.880000", "121634.670000", "121633.077500", "121634.867500", "121633.277500", "121635.067500", "121632.482500", "121637.872500", "121635.285000", "121637.075000", "121635.485000", "121637.275000", "121635.685000", "121637.475000", "121635.882500", "121637.672500", "121636.280000", "121638.070000", "121636.480000", "121638.270000", "121636.677500", "121638.467500", "121636.877500", "121638.667500", "121636.082500", "121637.872500", "121635.285000", "121637.075000", "121635.485000", "121637.275000", "121635.685000", "121637.475000", "121635.882500", "121637.672500", "121636.280000", "121638.070000", "121636.480000", "121638.270000", "121636.677500", "121638.467500", "121636.877500", "121638.667500", "121636.082500", "121637.872500", "121635.285000", "121637.075000", "121635.485000", "121637.275000", "121635.685000", "121637.475000", "121635.882500", "121637.672500", "121636.280000", "121638.070000", "121636.480000", "121638.270000", "121636.677500", "121638.467500", "121636.877500", "121638.667500", "121636.082500", "121637.872500", "121635.285000", "121637.075000", "121635.485000", "121637.275000", "121635.685000", "121637.475000", "121635.882500", "121637.672500", "121636.280000", "121638.070000", "121636.480000", "121638.270000", "121636.677500", "121638.467500", "121636.877500", "121638.667500", "121636.082500", "121641.472500", "121638.885000", "121640.675000", "121639.085000", "121640.875000", "121639.285000", "121641.075000", "121639.482500", "121641.272500", "121639.880000", "121641.670000", "121640.080000", "121641.870000", "121640.277500", "121642.067500", "121640.477500", "121642.267500", "121639.682500", "121641.472500", "121638.885000", "121640.675000", "121639.085000", "121640.875000", "121639.285000", "121641.075000", "121639.482500", "121641.272500", "121639.880000", "121641.670000", "121640.080000", "121641.870000", "121640.277500", "121642.067500", "121640.477500", "121642.267500", "121639.682500", "121641.472500", "121638.885000", "121640.675000", "121639.085000", "121640.875000", "121639.285000", "121641.075000", "121639.482500", "121641.272500", "121639.880000", "121641.670000", "121640.080000", "121641.870000", "121640.277500", "121642.067500", "121640.477500", "121642.267500", "121639.682500", "121641.472500", "121638.885000", "121640.675000", "121639.085000", "121640.875000", "121639.285000", "121641.075000", "121639.482500", "121641.272500", "121639.880000", "121641.670000", "121640.080000", "121641.870000", "121640.277500", "121642.067500", "121640.477500", "121642.267500", "121639.682500", "121645.072500", "121642.485000", "121644.275000", "121642.685000", "121644.475000", "121642.885000", "121644.675000", "121643.082500", "121644.872500", "121643.480000", "121645.270000", "121643.680000", "121645.470000", "121643.877500", "121645.667500", "121644.077500", "121645.867500", "121643.282500", "121645.072500", "121642.485000", "121644.275000", "121642.685000", "121644.475000", "121642.885000", "121644.675000", "121643.082500", "121644.872500", "121643.480000", "121645.270000", "121643.680000", "121645.470000", "121643.877500", "121645.667500", "121644.077500", "121645.867500", "121643.282500", "121645.072500", "121642.485000", "121644.275000", "121642.685000", "121644.475000", "121642.885000", "121644.675000", "121643.082500", "121644.872500", "121643.480000", "121645.270000", "121643.680000", "121645.470000", "121643.877500", "121645.667500", "121644.077500", "121645.867500", "121643.282500", "121645.072500", "121642.485000", "121644.275000", "121642.685000", "121644.475000", "121642.885000", "121644.675000", "121643.082500", "121644.872500", "121643.480000", "121645.270000", "121643.680000", "121645.470000", "121643.877500", "121645.667500", "121644.077500", "121645.867500", "121643.282500", "121648.672500", "121646.085000", "121647.875000", "121646.285000", "121648.075000", "121646.485000", "121648.275000", "121646.682500", "121648.472500", "121647.080000", "121648.870000", "121647.280000", "121649.070000", "121647.477500", "121649.267500", "121647.677500", "121649.467500", "121646.882500", "121648.672500", "121646.085000", "121647.875000", "121646.285000", "121648.075000", "121646.485000", "121648.275000", "121646.682500", "121648.472500", "121647.080000", "121648.870000", "121647.280000", "121649.070000", "121647.477500", "121649.267500", "121647.677500", "121649.467500", "121646.882500", "121648.672500", "121646.085000", "121647.875000", "121646.285000", "121648.075000", "121646.485000", "121648.275000", "121646.682500", "121648.472500", "121647.080000", "121648.870000", "121647.280000", "121649.070000", "121647.477500", "121649.267500", "121647.677500", "121649.467500", "121646.882500", "121648.672500", "121646.085000", "121647.875000", "121646.285000", "121648.075000", "121646.485000", "121648.275000", "121646.682500", "121648.472500", "121647.080000", "121648.870000", "121647.280000", "121649.070000", "121647.477500", "121649.267500", "121647.677500", "121649.467500", "121646.882500", "121652.272500", "121649.685000", "121651.475000", "121649.885000", "121651.675000", "121650.085000", "121651.875000", "121650.282500", "121652.072500", "121650.680000", "121652.470000", "121650.880000", "121652.670000", "121651.077500", "121652.867500", "121651.277500", "121653.067500", "121650.482500", "121652.272500", "121649.685000", "121651.475000", "121649.885000", "121651.675000", "121650.085000", "121651.875000", "121650.282500", "121652.072500", "121650.680000", "121652.470000", "121650.880000", "121652.670000", "121651.077500", "121652.867500", "121651.277500", "121653.067500", "121650.482500", "121652.272500", "121649.685000", "121651.475000", "121649.885000", "121651.675000", "121650.085000", "121651.875000", "121650.282500", "121652.072500", "121650.680000", "121652.470000", "121650.880000", "121652.670000", "121651.077500", "121652.867500", "121651.277500", "121653.067500", "121650.482500", "121652.272500", "121649.685000", "121651.475000", "121649.885000", "121651.675000", "121650.085000", "121651.875000", "121650.282500", "121652.072500", "121650.680000", "121652.470000", "121650.880000", "121652.670000", "121651.077500", "121652.867500", "121651.277500", "121653.067500", "121650.482500", "121655.872500", "121653.285000", "121655.075000", "121653.485000", "121655.275000", "121653.685000", "121655.475000", "121653.882500", "121655.672500", "121654.280000", "121656.070000", "121654.480000", "121656.270000", "121654.677500", "121656.467500", "121654.877500", "121656.667500", "121654.082500", "121655.872500", "121653.285000", "121655.075000", "121653.485000", "121655.275000", "121653.685000", "121655.475000", "121653.882500", "121655.672500", "121654.280000", "121656.070000", "121654.480000", "121656.270000", "121654.677500", "121656.467500", "121654.877500", "121656.667500", "121654.082500", "121655.872500", "121653.285000", "121655.075000", "121653.485000", "121655.275000", "121653.685000", "121655.475000", "121653.882500", "121655.672500", "121654.280000", "121656.070000", "121654.480000", "121656.270000", "121654.677500", "121656.467500", "121654.877500", "121656.667500", "121654.082500", "121655.872500", "121653.285000", "121655.075000", "121653.485000", "121655.275000", "121653.685000", "121655.475000", "121653.882500", "121655.672500", "121654.280000", "121656.070000", "121654.480000", "121656.270000", "121654.677500", "121656.467500", "121654.877500", "121656.667500", "121654.082500", "121659.472500", "121656.885000", "121658.675000", "121657.085000", "121658.875000", "121657.285000", "121659.075000", "121657.482500", "121659.272500", "121657.880000", "121659.670000", "121658.080000", "121659.870000", "121658.277500", "121700.067500", "121658.477500", "121700.267500", "121657.682500", "121659.472500", "121656.885000", "121658.675000", "121657.085000", "121658.875000", "121657.285000", "121659.075000", "121657.482500", "121659.272500", "121657.880000", "121659.670000", "121658.080000", "121659.870000", "121658.277500", "121700.067500", "121658.477500", "121700.267500", "121657.682500", "121659.472500", "121656.885000", "121658.675000", "121657.085000", "121658.875000", "121657.285000", "121659.075000", "121657.482500", "121659.272500", "121657.880000", "121659.670000", "121658.080000", "121659.870000", "121658.277500", "121700.067500", "121658.477500", "121700.267500", "121657.682500", "121659.472500", "121656.885000", "121658.675000", "121657.085000", "121658.875000", "121657.285000", "121659.075000", "121657.482500", "121659.272500", "121657.880000", "121659.670000", "121658.080000", "121659.870000", "121658.277500", "121700.067500", "121658.477500", "121700.267500", "121657.682500", "121703.072500", "121700.485000", "121702.275000", "121700.685000", "121702.475000", "121700.885000", "121702.675000", "121701.082500", "121702.872500", "121701.480000", "121703.270000", "121701.680000", "121703.470000", "121701.877500", "121703.667500", "121702.077500", "121703.867500", "121701.282500", "121703.072500", "121700.485000", "121702.275000", "121700.685000", "121702.475000", "121700.885000", "121702.675000", "121701.082500", "121702.872500", "121701.480000", "121703.270000", "121701.680000", "121703.470000", "121701.877500", "121703.667500", "121702.077500", "121703.867500", "121701.282500", "121703.072500", "121700.485000", "121702.275000", "121700.685000", "121702.475000", "121700.885000", "121702.675000", "121701.082500", "121702.872500", "121701.480000", "121703.270000", "121701.680000", "121703.470000", "121701.877500", "121703.667500", "121702.077500", "121703.867500", "121701.282500", "121703.072500", "121700.485000", "121702.275000", "121700.685000", "121702.475000", "121700.885000", "121702.675000", "121701.082500", "121702.872500", "121701.480000", "121703.270000", "121701.680000", "121703.470000", "121701.877500", "121703.667500", "121702.077500", "121703.867500", "121701.282500", "121706.672500", "121704.085000", "121705.875000", "121704.285000", "121706.075000", "121704.485000", "121706.275000", "121704.682500", "121706.472500", "121705.080000", "121706.870000", "121705.280000", "121707.070000", "121705.477500", "121707.267500", "121705.677500", "121707.467500", "121704.882500", "121706.672500", "121704.085000", "121705.875000", "121704.285000", "121706.075000", "121704.485000", "121706.275000", "121704.682500", "121706.472500", "121705.080000", "121706.870000", "121705.280000", "121707.070000", "121705.477500", "121707.267500", "121705.677500", "121707.467500", "121704.882500", "121706.672500", "121704.085000", "121705.875000", "121704.285000", "121706.075000", "121704.485000", "121706.275000", "121704.682500", "121706.472500", "121705.080000", "121706.870000", "121705.280000", "121707.070000", "121705.477500", "121707.267500", "121705.677500", "121707.467500", "121704.882500", "121706.672500", "121704.085000", "121705.875000", "121704.285000", "121706.075000", "121704.485000", "121706.275000", "121704.682500", "121706.472500", "121705.080000", "121706.870000", "121705.280000", "121707.070000", "121705.477500", "121707.267500", "121705.677500", "121707.467500", "121704.882500", "121710.272500", "121707.685000", "121709.475000", "121707.885000", "121709.675000", "121708.085000", "121709.875000", "121708.282500", "121710.072500", "121708.680000", "121710.470000", "121708.880000", "121710.670000", "121709.077500", "121710.867500", "121709.277500", "121711.067500", "121708.482500", "121710.272500", "121707.685000", "121709.475000", "121707.885000", "121709.675000", "121708.085000", "121709.875000", "121708.282500", "121710.072500", "121708.680000", "121710.470000", "121708.880000", "121710.670000", "121709.077500", "121710.867500", "121709.277500", "121711.067500", "121708.482500", "121710.272500", "121707.685000", "121709.475000", "121707.885000", "121709.675000", "121708.085000", "121709.875000", "121708.282500", "121710.072500", "121708.680000", "121710.470000", "121708.880000", "121710.670000", "121709.077500", "121710.867500", "121709.277500", "121711.067500", "121708.482500", "121710.272500", "121707.685000", "121709.475000", "121707.885000", "121709.675000", "121708.085000", "121709.875000", "121708.282500", "121710.072500", "121708.680000", "121710.470000", "121708.880000", "121710.670000", "121709.077500", "121710.867500", "121709.277500", "121711.067500", "121708.482500", "121713.872500", "121711.285000", "121713.075000", "121711.485000", "121713.275000", "121711.685000", "121713.475000", "121711.882500", "121713.672500", "121712.280000", "121714.070000", "121712.480000", "121714.270000", "121712.677500", "121714.467500", "121712.877500", "121714.667500", "121712.082500", "121713.872500", "121711.285000", "121713.075000", "121711.485000", "121713.275000", "121711.685000", "121713.475000", "121711.882500", "121713.672500", "121712.280000", "121714.070000", "121712.480000", "121714.270000", "121712.677500", "121714.467500", "121712.877500", "121714.667500", "121712.082500", "121713.872500", "121711.285000", "121713.075000", "121711.485000", "121713.275000", "121711.685000", "121713.475000", "121711.882500", "121713.672500", "121712.280000", "121714.070000", "121712.480000", "121714.270000", "121712.677500", "121714.467500", "121712.877500", "121714.667500", "121712.082500", "121713.872500", "121711.285000", "121713.075000", "121711.485000", "121713.275000", "121711.685000", "121713.475000", "121711.882500", "121713.672500", "121712.280000", "121714.070000", "121712.480000", "121714.270000", "121712.677500", "121714.467500", "121712.877500", "121714.667500", "121712.082500", "121717.472500", "121714.885000", "121716.675000", "121715.085000", "121716.875000", "121715.285000", "121717.075000", "121715.482500", "121717.272500", "121715.880000", "121717.670000", "121716.080000", "121717.870000", "121716.277500", "121718.067500", "121716.477500", "121718.267500", "121715.682500", "121717.472500", "121714.885000", "121716.675000", "121715.085000", "121716.875000", "121715.285000", "121717.075000", "121715.482500", "121717.272500", "121715.880000", "121717.670000", "121716.080000", "121717.870000", "121716.277500", "121718.067500", "121716.477500", "121718.267500", "121715.682500", "121717.472500", "121714.885000", "121716.675000", "121715.085000", "121716.875000", "121715.285000", "121717.075000", "121715.482500", "121717.272500", "121715.880000", "121717.670000", "121716.080000", "121717.870000", "121716.277500", "121718.067500", "121716.477500", "121718.267500", "121715.682500", "121717.472500", "121714.885000", "121716.675000", "121715.085000", "121716.875000", "121715.285000", "121717.075000", "121715.482500", "121717.272500", "121715.880000", "121717.670000", "121716.080000", "121717.870000", "121716.277500", "121718.067500", "121716.477500", "121718.267500", "121715.682500", "121721.072500", "121718.485000", "121720.275000", "121718.685000", "121720.475000", "121718.885000", "121720.675000", "121719.082500", "121720.872500", "121719.480000", "121721.270000", "121719.680000", "121721.470000", "121719.877500", "121721.667500", "121720.077500", "121721.867500", "121719.282500", "121721.072500", "121718.485000", "121720.275000", "121718.685000", "121720.475000", "121718.885000", "121720.675000", "121719.082500", "121720.872500", "121719.480000", "121721.270000", "121719.680000", "121721.470000", "121719.877500", "121721.667500", "121720.077500", "121721.867500", "121719.282500", "121721.072500", "121718.485000", "121720.275000", "121718.685000", "121720.475000", "121718.885000", "121720.675000", "121719.082500", "121720.872500", "121719.480000", "121721.270000", "121719.680000", "121721.470000", "121719.877500", "121721.667500", "121720.077500", "121721.867500", "121719.282500", "121721.072500", "121718.485000", "121720.275000", "121718.685000", "121720.475000", "121718.885000", "121720.675000", "121719.082500", "121720.872500", "121719.480000", "121721.270000", "121719.680000", "121721.470000", "121719.877500", "121721.667500", "121720.077500", "121721.867500", "121719.282500", "121724.672500", "121722.085000", "121723.875000", "121722.285000", "121724.075000", "121722.485000", "121724.275000", "121722.682500", "121724.472500", "121723.080000", "121724.870000", "121723.280000", "121725.070000", "121723.477500", "121725.267500", "121723.677500", "121725.467500", "121722.882500", "121724.672500", "121722.085000", "121723.875000", "121722.285000", "121724.075000", "121722.485000", "121724.275000", "121722.682500", "121724.472500", "121723.080000", "121724.870000", "121723.280000", "121725.070000", "121723.477500", "121725.267500", "121723.677500", "121725.467500", "121722.882500", "121724.672500", "121722.085000", "121723.875000", "121722.285000", "121724.075000", "121722.485000", "121724.275000", "121722.682500", "121724.472500", "121723.080000", "121724.870000", "121723.280000", "121725.070000", "121723.477500", "121725.267500", "121723.677500", "121725.467500", "121722.882500", "121724.672500", "121722.085000", "121723.875000", "121722.285000", "121724.075000", "121722.485000", "121724.275000", "121722.682500", "121724.472500", "121723.080000", "121724.870000", "121723.280000", "121725.070000", "121723.477500", "121725.267500", "121723.677500", "121725.467500", "121722.882500", "121728.272500", "121725.685000", "121727.475000", "121725.885000", "121727.675000", "121726.085000", "121727.875000", "121726.282500", "121728.072500", "121726.680000", "121728.470000", "121726.880000", "121728.670000", "121727.077500", "121728.867500", "121727.277500", "121729.067500", "121726.482500", "121728.272500", "121725.685000", "121727.475000", "121725.885000", "121727.675000", "121726.085000", "121727.875000", "121726.282500", "121728.072500", "121726.680000", "121728.470000", "121726.880000", "121728.670000", "121727.077500", "121728.867500", "121727.277500", "121729.067500", "121726.482500", "121728.272500", "121725.685000", "121727.475000", "121725.885000", "121727.675000", "121726.085000", "121727.875000", "121726.282500", "121728.072500", "121726.680000", "121728.470000", "121726.880000", "121728.670000", "121727.077500", "121728.867500", "121727.277500", "121729.067500", "121726.482500", "121728.272500", "121725.685000", "121727.475000", "121725.885000", "121727.675000", "121726.085000", "121727.875000", "121726.282500", "121728.072500", "121726.680000", "121728.470000", "121726.880000", "121728.670000", "121727.077500", "121728.867500", "121727.277500", "121729.067500", "121726.482500", "121731.872500", "121729.285000", "121731.075000", "121729.485000", "121731.275000", "121729.685000", "121731.475000", "121729.882500", "121731.672500", "121730.280000", "121732.070000", "121730.480000", "121732.270000", "121730.677500", "121732.467500", "121730.877500", "121732.667500", "121730.082500", "121731.872500", "121729.285000", "121731.075000", "121729.485000", "121731.275000", "121729.685000", "121731.475000", "121729.882500", "121731.672500", "121730.280000", "121732.070000", "121730.480000", "121732.270000", "121730.677500", "121732.467500", "121730.877500", "121732.667500", "121730.082500", "121731.872500", "121729.285000", "121731.075000", "121729.485000", "121731.275000", "121729.685000", "121731.475000", "121729.882500", "121731.672500", "121730.280000", "121732.070000", "121730.480000", "121732.270000", "121730.677500", "121732.467500", "121730.877500", "121732.667500", "121730.082500", "121731.872500", "121729.285000", "121731.075000", "121729.485000", "121731.275000", "121729.685000", "121731.475000", "121729.882500", "121731.672500", "121730.280000", "121732.070000", "121730.480000", "121732.2700