{
  "AcquisitionMatrixPE": 80,
  "AcquisitionNumber": 1,
  "AcquisitionTime": "09:54:33.470000",
  "BandwidthPerPixelPhaseEncode": 25,
  "BaseResolution": 80,
  "BodyPartExamined": "BRAIN",
  "CoilCombinationMethod": "Sum of Squares",
  "ConsistencyInfo": "N4_VE11E_LATEST_20181129",
  "ConversionSoftware": "dcm2niix",
  "ConversionSoftwareVersion": "v1.0.20220720",
  "DerivedVendorReportedEchoSpacing": 0.0005,
  "DeviceSerialNumber": "66112",
  "DwellTime": 2.7e-06,
  "EchoTime": 0.03,
  "EchoTrainLength": 80,
  "EffectiveEchoSpacing": 0.0005,
  "FlipAngle": 10,
  "HeudiconvVersion": "0.13.1",
  "ImageOrientationPatientDICOM": [0.991002, 0.133602, 0.00813923, -0.129588, 0.942449, 0.308217],
  "ImageOrientationText": "Tra>Cor(17.9)>Sag(-1.9)",
  "ImageType": [
    "ORIGINAL",
    "PRIMARY",
    "M",
    "ND",
    "NORM",
    "MOSAIC"
],
  "ImagingFrequency": 123.252,
  "InPlanePhaseEncodingDirectionDICOM": "COL",
  "InstitutionAddress": "Maynard 3,Hanover,NH,US,03755",
  "InstitutionName": "Dartmouth College - PBS",
  "InstitutionalDepartmentName": "Department",
  "MRAcquisitionType": "2D",
  "MagneticFieldStrength": 3,
  "Manufacturer": "Siemens",
  "ManufacturersModelName": "Prisma",
  "MatrixCoilMode": "SENSE",
  "Modality": "MR",
  "NonlinearGradientCorrection": false,
  "PartialFourier": 1,
  "PatientPosition": "HFS",
  "PercentPhaseFOV": 100,
  "PercentSampling": 100,
  "PhaseEncodingDirection": "j-",
  "PhaseEncodingSteps": 80,
  "PhaseResolution": 1,
  "PixelBandwidth": 2315,
  "ProcedureStepDescription": "dbic^QA",
  "ProtocolName": "func-bold_fa-10",
  "PulseSequenceDetails": "%SiemensSeq%\\ep2d_bold",
  "ReceiveCoilActiveElements": "HEA;HEP",
  "ReceiveCoilName": "Head_32",
  "ReconMatrixPE": 80,
  "RepetitionTime": 2,
  "SAR": 0.0116344,
  "ScanOptions": "FS",
  "ScanningSequence": "EP",
  "SequenceName": "*epfid2d1_80",
  "SequenceVariant": "SK",
  "SeriesDescription": "func-bold_fa-10",
  "SeriesNumber": 10,
  "ShimSetting": [4143, -7701, -7510, 284, -81, -67, -17, 49],
  "SliceThickness": 3.5,
  "SliceTiming": [0.99, 0, 1.055, 0.065, 1.12, 0.13, 1.1875, 0.1975, 1.2525, 0.2625, 1.32, 0.33, 1.385, 0.395, 1.45, 0.46, 1.5175, 0.5275, 1.5825, 0.5925, 1.65, 0.66, 1.715, 0.725, 1.78, 0.79, 1.8475, 0.8575, 1.9125, 0.9225],
  "SoftwareVersions": "syngo MR E11",
  "SpacingBetweenSlices": 3.99,
  "StationName": "AWP66112",
  "TotalReadoutTime": 0.0395,
  "TxRefAmp": 231.393,
  "dcmmeta_affine": [
    [-2.9730048179626465, -0.3887643814086914, -0.13369566202163696, 136.27096557617188],
    [-0.4008072018623352, 2.827345848083496, 1.2229269742965698, -103.8255844116211],
    [0.024417690932750702, -0.9246501326560974, 3.7956125736236572, -15.025628089904785],
    [0.0, 0.0, 0.0, 1.0]
],
  "dcmmeta_reorient_transform": [
    [0.0, -1.0, 0.0, 79.0],
    [1.0, 0.0, 0.0, 0.0],
    [0.0, 0.0, 1.0, 0.0],
    [0.0, 0.0, 0.0, 1.0]
],
  "dcmmeta_shape": [80, 80, 30, 200],
  "dcmmeta_slice_dim": 2,
  "dcmmeta_version": 0.6,
  "global": {
    "const": {
      "AccessionNumber": "qa",
      "AcquisitionMatrix": [80, 0, 0, 80],
      "AngioFlag": "N",
      "BitsAllocated": 16,
      "BitsStored": 12,
      "BodyPartExamined": "BRAIN",
      "Columns": 480,
      "EchoNumbers": 1,
      "EchoTime": 30.0,
      "EchoTrainLength": 80,
      "FlipAngle": 10.0,
      "HighBit": 11,
      "ImageOrientationPatient": [0.99100158999406, 0.13360240100618, 0.00813923059154, -0.1295881307198, 0.94244860702786, 0.30821670864475],
      "ImagePositionPatient": [-622.40664741499, -765.16534185049, -277.88655151869],
      "ImageType": [
        "ORIGINAL",
        "PRIMARY",
        "M",
        "ND",
        "NORM",
        "MOSAIC"
],
      "ImagedNucleus": "1H",
      "ImagingFrequency": 123.252363,
      "InPlanePhaseEncodingDirection": "COL",
      "MRAcquisitionType": "2D",
      "MagneticFieldStrength": 3.0,
      "Manufacturer": "SIEMENS",
      "ManufacturerModelName": "Prisma",
      "Modality": "MR",
      "NumberOfAverages": 1.0,
      "NumberOfPhaseEncodingSteps": 80,
      "PercentPhaseFieldOfView": 100.0,
      "PercentSampling": 100.0,
      "PerformedProcedureStepStartTime": "093051.012000",
      "PhotometricInterpretation": "MONOCHROME2",
      "PixelBandwidth": 2315.0,
      "PixelRepresentation": 0,
      "PixelSpacing": [3.0, 3.0],
      "ProtocolName": "func-bold_fa-10",
      "RepetitionTime": 2000.0,
      "Rows": 480,
      "SAR": 0.01163440431639,
      "SamplesPerPixel": 1,
      "ScanOptions": "FS",
      "ScanningSequence": "EP",
      "SequenceName": "*epfid2d1_80",
      "SequenceVariant": "SK",
      "SeriesDescription": "func-bold_fa-10",
      "SeriesNumber": 10,
      "SeriesTime": "095514.768000",
      "SliceLocation": -50.682057308887,
      "SliceThickness": 3.5,
      "SmallestImagePixelValue": 0,
      "SoftwareVersions": "syngo MR E11",
      "SpacingBetweenSlices": 3.9899999943622,
      "SpecificCharacterSet": "ISO_IR 100",
      "StudyID": "1",
      "StudyTime": "093050.962000",
      "TransmitCoilName": "Body",
      "VariableFlipAngleFlag": "N",
      "WindowCenterWidthExplanation": "Algo1"
    },
    "slices": {}
  },
  "time": {
    "samples": {
      "AcquisitionNumber": [1, 2, 3, 4, 5, 6, 7, 8, 9, 10, 11, 12, 13, 14, 15, 16, 17, 18, 19, 20, 21, 22, 23, 24, 25, 26, 27, 28, 29, 30, 31, 32, 33, 34, 35, 36, 37, 38, 39, 40, 41, 42, 43, 44, 45, 46, 47, 48, 49, 50, 51, 52, 53, 54, 55, 56, 57, 58, 59, 60, 61, 62, 63, 64, 65, 66, 67, 68, 69, 70, 71, 72, 73, 74, 75, 76, 77, 78, 79, 80, 81, 82, 83, 84, 85, 86, 87, 88, 89, 90, 91, 92, 93, 94, 95, 96, 97, 98, 99, 100, 101, 102, 103, 104, 105, 106, 107, 108, 109, 110, 111, 112, 113, 114, 115, 116, 117, 118, 119, 120, 121, 122, 123, 124, 125, 126, 127, 128, 129, 130, 131, 132, 133, 134, 135, 136, 137, 138, 139, 140, 141, 142, 143, 144, 145, 146, 147, 148, 149, 150, 151, 152, 153, 154, 155, 156, 157, 158, 159, 160, 161, 162, 163, 164, 165, 166, 167, 168, 169, 170, 171, 172, 173, 174, 175, 176, 177, 178, 179, 180, 181, 182, 183, 184, 185, 186, 187, 188, 189, 190, 191, 192, 193, 194, 195, 196, 197, 198, 199, 200],
      "AcquisitionTime": ["095433.470000", "095435.470000", "095437.470000", "095439.470000", "095441.470000", "095443.470000", "095445.470000", "095447.470000", "095449.470000", "095451.470000", "095453.470000", "095455.470000", "095457.470000", "095459.470000", "095501.470000", "095503.470000", "095505.470000", "095507.470000", "095509.470000", "095511.470000", "095513.470000", "095515.470000", "095517.470000", "095519.470000", "095521.470000", "095523.470000", "095525.470000", "095527.470000", "095529.470000", "095531.470000", "095533.470000", "095535.470000", "095537.470000", "095539.470000", "095541.470000", "095543.470000", "095545.470000", "095547.470000", "095549.470000", "095551.470000", "095553.470000", "095555.470000", "095557.470000", "095559.470000", "095601.470000", "095603.470000", "095605.470000", "095607.470000", "095609.470000", "095611.470000", "095613.470000", "095615.470000", "095617.470000", "095619.470000", "095621.470000", "095623.470000", "095625.470000", "095627.470000", "095629.470000", "095631.470000", "095633.470000", "095635.470000", "095637.470000", "095639.470000", "095641.470000", "095643.470000", "095645.470000", "095647.470000", "095649.470000", "095651.470000", "095653.470000", "095655.470000", "095657.470000", "095659.470000", "095701.470000", "095703.470000", "095705.470000", "095707.470000", "095709.470000", "095711.470000", "095713.470000", "095715.470000", "095717.470000", "095719.470000", "095721.470000", "095723.470000", "095725.470000", "095727.470000", "095729.470000", "095731.470000", "095733.470000", "095735.470000", "095737.470000", "095739.470000", "095741.470000", "095743.470000", "095745.470000", "095747.470000", "095749.470000", "095751.470000", "095753.470000", "095755.470000", "095757.470000", "095759.470000", "095801.470000", "095803.470000", "095805.470000", "095807.470000", "095809.470000", "095811.470000", "095813.470000", "095815.470000", "095817.470000", "095819.470000", "095821.470000", "095823.470000", "095825.470000", "095827.470000", "095829.470000", "095831.470000", "095833.470000", "095835.470000", "095837.470000", "095839.470000", "095841.470000", "095843.470000", "095845.470000", "095847.470000", "095849.470000", "095851.470000", "095853.470000", "095855.470000", "095857.470000", "095859.470000", "095901.470000", "095903.470000", "095905.470000", "095907.470000", "095909.470000", "095911.470000", "095913.470000", "095915.470000", "095917.470000", "095919.470000", "095921.470000", "095923.470000", "095925.470000", "095927.470000", "095929.470000", "095931.470000", "095933.470000", "095935.470000", "095937.470000", "095939.470000", "095941.470000", "095943.470000", "095945.470000", "095947.470000", "095949.470000", "095951.470000", "095953.470000", "095955.470000", "095957.470000", "095959.470000", "100001.470000", "100003.470000", "100005.470000", "100007.470000", "100009.470000", "100011.470000", "100013.470000", "100015.470000", "100017.470000", "100019.470000", "100021.470000", "100023.470000", "100025.470000", "100027.470000", "100029.470000", "100031.470000", "100033.470000", "100035.470000", "100037.470000", "100039.470000", "100041.470000", "100043.470000", "100045.470000", "100047.470000", "100049.470000", "100051.470000", "100053.470000", "100055.470000", "100057.470000", "100059.470000", "100101.470000", "100103.470000", "100105.470000", "100107.470000", "100109.470000", "100111.470000"],
      "ContentTime": ["095514.772000", "095514.775000", "095514.777000", "095514.779000", "095514.782000", "095514.785000", "095514.787000", "095514.789000", "095514.792000", "095514.794000", "095514.796000", "095514.798000", "095514.801000", "095514.803000", "095514.805000", "095514.807000", "095514.810000", "095514.812000", "095514.814000", "095514.817000", "095514.819000", "095554.767000", "095554.770000", "095554.772000", "095554.774000", "095554.776000", "095554.779000", "095554.786000", "095554.788000", "095554.791000", "095554.793000", "095554.796000", "095554.798000", "095554.800000", "095554.802000", "095554.805000", "095554.807000", "095554.809000", "095554.811000", "095554.814000", "095554.816000", "095634.767000", "095634.770000", "095634.772000", "095634.774000", "095634.776000", "095634.779000", "095634.781000", "095634.795000", "095634.798000", "095634.800000", "095634.802000", "095634.805000", "095634.807000", "095634.809000", "095634.811000", "095634.814000", "095634.816000", "095634.818000", "095634.820000", "095634.823000", "095654.767000", "095654.770000", "095654.773000", "095654.776000", "095654.793000", "095654.795000", "095654.798000", "095654.800000", "095654.802000", "095734.767000", "095734.770000", "095734.772000", "095734.774000", "095734.777000", "095734.779000", "095734.781000", "095734.783000", "095734.786000", "095734.794000", "095734.796000", "095734.798000", "095734.800000", "095734.803000", "095734.805000", "095734.807000", "095734.810000", "095734.812000", "095734.814000", "095734.816000", "095734.819000", "095814.767000", "095814.770000", "095814.773000", "095814.775000", "095814.778000", "095814.780000", "095814.782000", "095814.784000", "095814.787000", "095814.789000", "095814.791000", "095814.794000", "095814.796000", "095814.798000", "095814.800000", "095814.803000", "095814.805000", "095814.807000", "095814.810000", "095814.812000", "095854.767000", "095854.770000", "095854.772000", "095854.774000", "095854.777000", "095854.779000", "095854.782000", "095854.784000", "095854.787000", "095854.789000", "095854.791000", "095854.794000", "095854.796000", "095854.798000", "095854.801000", "095854.803000", "095854.805000", "095854.808000", "095854.810000", "095854.812000", "095934.767000", "095934.770000", "095934.772000", "095934.774000", "095934.777000", "095934.779000", "095934.782000", "095934.784000", "095934.786000", "095934.788000", "095934.791000", "095934.793000", "095934.795000", "095934.798000", "095934.800000", "095934.802000", "095934.804000", "095934.807000", "095934.809000", "095934.811000", "100014.767000", "100014.770000", "100014.772000", "100014.774000", "100014.777000", "100014.779000", "100014.781000", "100014.784000", "100014.786000", "100014.788000", "100014.791000", "100014.793000", "100014.795000", "100014.797000", "100014.800000", "100014.802000", "100014.804000", "100014.807000", "100014.809000", "100014.811000", "100054.767000", "100054.770000", "100054.772000", "100054.774000", "100054.776000", "100054.779000", "100054.781000", "100054.784000", "100054.786000", "100054.789000", "100054.791000", "100054.793000", "100054.796000", "100054.798000", "100054.800000", "100054.803000", "100054.805000", "100054.807000", "100054.809000", "100054.812000", "100112.723000", "100112.726000", "100112.728000", "100112.730000", "100112.733000", "100112.735000", "100112.737000", "100112.740000", "100112.742000"],
      "InstanceCreationTime": ["095514.772000", "095514.775000", "095514.777000", "095514.779000", "095514.782000", "095514.785000", "095514.787000", "095514.789000", "095514.792000", "095514.794000", "095514.796000", "095514.798000", "095514.801000", "095514.803000", "095514.805000", "095514.807000", "095514.810000", "095514.812000", "095514.814000", "095514.817000", "095514.819000", "095554.767000", "095554.770000", "095554.772000", "095554.774000", "095554.776000", "095554.779000", "095554.786000", "095554.788000", "095554.791000", "095554.793000", "095554.796000", "095554.798000", "095554.800000", "095554.802000", "095554.805000", "095554.807000", "095554.809000", "095554.811000", "095554.814000", "095554.816000", "095634.767000", "095634.770000", "095634.772000", "095634.774000", "095634.776000", "095634.779000", "095634.781000", "095634.795000", "095634.798000", "095634.800000", "095634.802000", "095634.805000", "095634.807000", "095634.809000", "095634.811000", "095634.814000", "095634.816000", "095634.818000", "095634.820000", "095634.823000", "095654.767000", "095654.770000", "095654.773000", "095654.776000", "095654.793000", "095654.795000", "095654.798000", "095654.800000", "095654.802000", "095734.767000", "095734.770000", "095734.772000", "095734.774000", "095734.777000", "095734.779000", "095734.781000", "095734.783000", "095734.786000", "095734.794000", "095734.796000", "095734.798000", "095734.800000", "095734.803000", "095734.805000", "095734.807000", "095734.810000", "095734.812000", "095734.814000", "095734.816000", "095734.819000", "095814.767000", "095814.770000", "095814.773000", "095814.775000", "095814.778000", "095814.780000", "095814.782000", "095814.784000", "095814.787000", "095814.789000", "095814.791000", "095814.794000", "095814.796000", "095814.798000", "095814.800000", "095814.803000", "095814.805000", "095814.807000", "095814.810000", "095814.812000", "095854.767000", "095854.770000", "095854.772000", "095854.774000", "095854.777000", "095854.779000", "095854.782000", "095854.784000", "095854.787000", "095854.789000", "095854.791000", "095854.794000", "095854.796000", "095854.798000", "095854.801000", "095854.803000", "095854.805000", "095854.808000", "095854.810000", "095854.812000", "095934.767000", "095934.770000", "095934.772000", "095934.774000", "095934.777000", "095934.779000", "095934.782000", "095934.784000", "095934.786000", "095934.788000", "095934.791000", "095934.793000", "095934.795000", "095934.798000", "095934.800000", "095934.802000", "095934.804000", "095934.807000", "095934.809000", "095934.811000", "100014.767000", "100014.770000", "100014.772000", "100014.774000", "100014.777000", "100014.779000", "100014.781000", "100014.784000", "100014.786000", "100014.788000", "100014.791000", "100014.793000", "100014.795000", "100014.797000", "100014.800000", "100014.802000", "100014.804000", "100014.807000", "100014.809000", "100014.811000", "100054.767000", "100054.770000", "100054.772000", "100054.774000", "100054.776000", "100054.779000", "100054.781000", "100054.784000", "100054.786000", "100054.789000", "100054.791000", "100054.793000", "100054.796000", "100054.798000", "100054.800000", "100054.803000", "100054.805000", "100054.807000", "100054.809000", "100054.812000", "100112.723000", "100112.726000", "100112.728000", "100112.730000", "100112.733000", "100112.735000", "100112.737000", "100112.740000", "100112.742000"],
      "InstanceNumber": [1, 2, 3, 4, 5, 6, 7, 8, 9, 10, 11, 12, 13, 14, 15, 16, 17, 18, 19, 20, 21, 22, 23, 24, 25, 26, 27, 28, 29, 30, 31, 32, 33, 34, 35, 36, 37, 38, 39, 40, 41, 42, 43, 44, 45, 46, 47, 48, 49, 50, 51, 52, 53, 54, 55, 56, 57, 58, 59, 60, 61, 62, 63, 64, 65, 66, 67, 68, 69, 70, 71, 72, 73, 74, 75, 76, 77, 78, 79, 80, 81, 82, 83, 84, 85, 86, 87, 88, 89, 90, 91, 92, 93, 94, 95, 96, 97, 98, 99, 100, 101, 102, 103, 104, 105, 106, 107, 108, 109, 110, 111, 112, 113, 114, 115, 116, 117, 118, 119, 120, 121, 122, 123, 124, 125, 126, 127, 128, 129, 130, 131, 132, 133, 134, 135, 136, 137, 138, 139, 140, 141, 142, 143, 144, 145, 146, 147, 148, 149, 150, 151, 152, 153, 154, 155, 156, 157, 158, 159, 160, 161, 162, 163, 164, 165, 166, 167, 168, 169, 170, 171, 172, 173, 174, 175, 176, 177, 178, 179, 180, 181, 182, 183, 184, 185, 186, 187, 188, 189, 190, 191, 192, 193, 194, 195, 196, 197, 198, 199, 200],
      "LargestImagePixelValue": [327, 329, 327, 330, 327, 329, 329, 329, 329, 328, 328, 330, 329, 329, 329, 329, 329, 329, 327, 328, 329, 328, 328, 328, 327, 330, 328, 328, 328, 329, 329, 329, 329, 328, 329, 329, 329, 328, 329, 327, 328, 328, 329, 328, 330, 328, 329, 327, 330, 328, 330, 328, 328, 329, 329, 327, 329, 330, 327, 329, 328, 329, 329, 330, 327, 329, 328, 329, 328, 327, 328, 329, 329, 330, 327, 328, 328, 329, 328, 328, 329, 327, 328, 327, 328, 329, 328, 330, 330, 327, 329, 328, 329, 327, 329, 326, 329, 328, 329, 327, 328, 326, 328, 327, 327, 328, 328, 328, 329, 328, 329, 329, 327, 328, 328, 329, 328, 330, 329, 329, 328, 328, 327, 328, 329, 329, 328, 328, 328, 328, 327, 328, 328, 329, 328, 329, 327, 328, 327, 328, 327, 328, 329, 328, 331, 328, 327, 328, 329, 328, 329, 330, 328, 328, 328, 328, 327, 327, 329, 329, 328, 328, 327, 329, 329, 327, 329, 329, 330, 328, 328, 328, 329, 328, 328, 329, 329, 327, 328, 328, 328, 328, 328, 329, 329, 328, 329, 328, 327, 328, 329, 328, 327, 328, 329, 327, 329, 329, 328, 329],
      "WindowCenter": [275.0, 275.0, 275.0, 275.0, 274.0, 274.0, 275.0, 274.0, 275.0, 275.0, 275.0, 275.0, 274.0, 274.0, 274.0, 274.0, 274.0, 275.0, 274.0, 274.0, 274.0, 274.0, 275.0, 274.0, 275.0, 275.0, 274.0, 274.0, 274.0, 274.0, 275.0, 274.0, 275.0, 274.0, 275.0, 274.0, 274.0, 274.0, 274.0, 274.0, 274.0, 274.0, 274.0, 274.0, 275.0, 274.0, 274.0, 274.0, 275.0, 274.0, 275.0, 275.0, 274.0, 273.0, 274.0, 274.0, 274.0, 275.0, 274.0, 274.0, 274.0, 274.0, 274.0, 275.0, 274.0, 274.0, 274.0, 275.0, 274.0, 274.0, 274.0, 274.0, 274.0, 274.0, 274.0, 274.0, 274.0, 274.0, 274.0, 274.0, 274.0, 274.0, 274.0, 274.0, 274.0, 274.0, 274.0, 274.0, 274.0, 274.0, 274.0, 274.0, 274.0, 274.0, 274.0, 273.0, 274.0, 274.0, 274.0, 274.0, 274.0, 274.0, 274.0, 274.0, 274.0, 274.0, 274.0, 274.0, 274.0, 274.0, 274.0, 274.0, 274.0, 274.0, 274.0, 274.0, 274.0, 275.0, 274.0, 274.0, 274.0, 274.0, 274.0, 274.0, 274.0, 274.0, 274.0, 274.0, 274.0, 274.0, 274.0, 274.0, 274.0, 274.0, 273.0, 274.0, 274.0, 273.0, 274.0, 274.0, 274.0, 274.0, 274.0, 274.0, 275.0, 274.0, 274.0, 274.0, 274.0, 274.0, 274.0, 274.0, 274.0, 274.0, 274.0, 274.0, 274.0, 274.0, 274.0, 273.0, 274.0, 274.0, 274.0, 274.0, 274.0, 274.0, 274.0, 273.0, 275.0, 274.0, 274.0, 274.0, 274.0, 274.0, 274.0, 274.0, 273.0, 274.0, 274.0, 274.0, 274.0, 274.0, 274.0, 274.0, 274.0, 274.0, 274.0, 274.0, 274.0, 273.0, 274.0, 274.0, 274.0, 274.0, 274.0, 274.0, 274.0, 274.0, 274.0, 274.0],
      "WindowWidth": [602.0, 602.0, 602.0, 603.0, 601.0, 602.0, 602.0, 602.0, 602.0, 602.0, 602.0, 603.0, 602.0, 601.0, 601.0, 601.0, 601.0, 602.0, 602.0, 601.0, 602.0, 601.0, 602.0, 601.0, 602.0, 602.0, 602.0, 601.0, 602.0, 601.0, 602.0, 601.0, 602.0, 601.0, 602.0, 601.0, 602.0, 601.0, 601.0, 601.0, 601.0, 601.0, 601.0, 601.0, 602.0, 601.0, 601.0, 601.0, 602.0, 601.0, 602.0, 602.0, 601.0, 601.0, 601.0, 601.0, 601.0, 602.0, 601.0, 602.0, 601.0, 601.0, 601.0, 602.0, 601.0, 601.0, 601.0, 602.0, 601.0, 601.0, 601.0, 601.0, 601.0, 602.0, 601.0, 601.0, 601.0, 601.0, 601.0, 601.0, 601.0, 601.0, 601.0, 601.0, 601.0, 601.0, 601.0, 602.0, 602.0, 601.0, 601.0, 601.0, 601.0, 601.0, 601.0, 600.0, 601.0, 601.0, 601.0, 601.0, 601.0, 601.0, 601.0, 601.0, 601.0, 601.0, 601.0, 601.0, 601.0, 601.0, 601.0, 601.0, 601.0, 601.0, 601.0, 601.0, 601.0, 602.0, 601.0, 601.0, 601.0, 601.0, 601.0, 601.0, 601.0, 601.0, 601.0, 601.0, 601.0, 601.0, 601.0, 601.0, 601.0, 601.0, 600.0, 601.0, 601.0, 600.0, 601.0, 601.0, 601.0, 600.0, 601.0, 601.0, 602.0, 601.0, 601.0, 601.0, 601.0, 601.0, 601.0, 602.0, 601.0, 601.0, 601.0, 601.0, 601.0, 601.0, 601.0, 600.0, 601.0, 601.0, 601.0, 601.0, 601.0, 601.0, 601.0, 600.0, 602.0, 601.0, 601.0, 601.0, 601.0, 601.0, 601.0, 601.0, 600.0, 601.0, 600.0, 601.0, 600.0, 601.0, 601.0, 601.0, 601.0, 601.0, 601.0, 601.0, 601.0, 600.0, 601.0, 601.0, 601.0, 601.0, 601.0, 601.0, 601.0, 601.0, 601.0, 600.0]
    },
    "slices": {}
  }
}