{
  "AcquisitionMatrixPE": 80,
  "AcquisitionNumber": 1,
  "AcquisitionTime": "09:40:57.135000",
  "BandwidthPerPixelPhaseEncode": 46.296,
  "BaseResolution": 80,
  "BodyPartExamined": "BRAIN",
  "CoilCombinationMethod": "Sum of Squares",
  "ConsistencyInfo": "N4_VE11E_LATEST_20181129",
  "ConversionSoftware": "dcm2niix",
  "ConversionSoftwareVersion": "v1.0.20220720",
  "DerivedVendorReportedEchoSpacing": 0.000540003,
  "DeviceSerialNumber": "66112",
  "DwellTime": 2.7e-06,
  "EchoTime": 0.035,
  "EchoTrainLength": 39,
  "EffectiveEchoSpacing": 0.000270002,
  "FlipAngle": 90,
  "HeudiconvVersion": "0.13.1",
  "ImageOrientationPatientDICOM": [0.991002, 0.133602, 0.00813923, -0.129588, 0.942449, 0.308217],
  "ImageOrientationText": "Tra>Cor(17.9)>Sag(-1.9)",
  "ImageType": [
    "ORIGINAL",
    "PRIMARY",
    "M",
    "ND",
    "NORM",
    "MOSAIC"
],
  "ImagingFrequency": 123.252,
  "InPlanePhaseEncodingDirectionDICOM": "COL",
  "InstitutionAddress": "Maynard 3,Hanover,NH,US,03755",
  "InstitutionName": "Dartmouth College - PBS",
  "InstitutionalDepartmentName": "Department",
  "MRAcquisitionType": "2D",
  "MagneticFieldStrength": 3,
  "Manufacturer": "Siemens",
  "ManufacturersModelName": "Prisma",
  "Modality": "MR",
  "MultibandAccelerationFactor": 4,
  "NonlinearGradientCorrection": false,
  "ParallelReductionFactorInPlane": 2,
  "PartialFourier": 1,
  "PatientPosition": "HFS",
  "PercentPhaseFOV": 100,
  "PercentSampling": 100,
  "PhaseEncodingDirection": "j-",
  "PhaseEncodingSteps": 79,
  "PhaseResolution": 1,
  "PixelBandwidth": 2315,
  "ProcedureStepDescription": "dbic^QA",
  "ProtocolName": "func-bold_task-rest_acq-p2-s4-3.5mm",
  "PulseSequenceDetails": "%SiemensSeq%\\ep2d_bold",
  "ReceiveCoilActiveElements": "HEA;HEP",
  "ReceiveCoilName": "Head_32",
  "ReconMatrixPE": 80,
  "RefLinesPE": 24,
  "RepetitionTime": 2,
  "SAR": 0.0207547,
  "ScanOptions": "FS",
  "ScanningSequence": "EP",
  "SequenceName": "*epfid2d1_80",
  "SequenceVariant": "SK",
  "SeriesDescription": "func-bold_task-rest_acq-p2-s4-3.5mm",
  "SeriesNumber": 7,
  "ShimSetting": [4143, -7702, -7510, 286, -80, -73, -18, 49],
  "SliceThickness": 3.5,
  "SliceTiming": [1.485, 0, 0.99, 0.2475, 1.2375, 0.7425, 1.7325, 0.495, 1.485, 0, 0.99, 0.2475, 1.2375, 0.7425, 1.7325, 0.495, 1.485, 0, 0.99, 0.2475, 1.2375, 0.7425, 1.7325, 0.495, 1.485, 0, 0.99, 0.2475, 1.2375, 0.7425, 1.7325, 0.495],
  "SoftwareVersions": "syngo MR E11",
  "SpacingBetweenSlices": 3.99,
  "StationName": "AWP66112",
  "TaskName": "rest",
  "TotalReadoutTime": 0.0213301,
  "TxRefAmp": 231.393,
  "dcmmeta_affine": [
    [-2.9730048179626465, -0.3887643814086914, -0.13369566202163696, 136.4503631591797],
    [-0.4008072018623352, 2.827345848083496, 1.2229269742965698, -105.62212371826172],
    [0.024417690932750702, -0.9246501326560974, 3.7956125736236572, -22.673095703125],
    [0.0, 0.0, 0.0, 1.0]
],
  "dcmmeta_reorient_transform": [
    [0.0, -1.0, 0.0, 79.0],
    [1.0, 0.0, 0.0, 0.0],
    [0.0, 0.0, 1.0, 0.0],
    [0.0, 0.0, 0.0, 1.0]
],
  "dcmmeta_shape": [80, 80, 32, 200],
  "dcmmeta_slice_dim": 2,
  "dcmmeta_version": 0.6,
  "global": {
    "const": {
      "AccessionNumber": "qa",
      "AcquisitionMatrix": [80, 0, 0, 80],
      "AngioFlag": "N",
      "BitsAllocated": 16,
      "BitsStored": 12,
      "BodyPartExamined": "BRAIN",
      "Columns": 480,
      "EchoNumbers": 1,
      "EchoTime": 35.0,
      "EchoTrainLength": 39,
      "FlipAngle": 90.0,
      "HighBit": 11,
      "ImageOrientationPatient": [0.99100158999406, 0.13360240100618, 0.00813923059154, -0.1295881307198, 0.94244860702786, 0.30821670864475],
      "ImagePositionPatient": [-622.58604571326, -763.36880349752, -285.53402008558],
      "ImageType": [
        "ORIGINAL",
        "PRIMARY",
        "M",
        "ND",
        "NORM",
        "MOSAIC"
],
      "ImagedNucleus": "1H",
      "ImagingFrequency": 123.252365,
      "InPlanePhaseEncodingDirection": "COL",
      "MRAcquisitionType": "2D",
      "MagneticFieldStrength": 3.0,
      "Manufacturer": "SIEMENS",
      "ManufacturerModelName": "Prisma",
      "Modality": "MR",
      "NumberOfAverages": 1.0,
      "NumberOfPhaseEncodingSteps": 79,
      "PercentPhaseFieldOfView": 100.0,
      "PercentSampling": 100.0,
      "PerformedProcedureStepStartTime": "093051.012000",
      "PhotometricInterpretation": "MONOCHROME2",
      "PixelBandwidth": 2315.0,
      "PixelRepresentation": 0,
      "PixelSpacing": [3.0, 3.0],
      "ProtocolName": "func-bold_task-rest_acq-p2-s4-3.5mm",
      "RepetitionTime": 2000.0,
      "Rows": 480,
      "SAR": 0.02075466357655,
      "SamplesPerPixel": 1,
      "ScanOptions": "FS",
      "ScanningSequence": "EP",
      "SequenceName": "*epfid2d1_80",
      "SequenceVariant": "SK",
      "SeriesDescription": "func-bold_task-rest_acq-p2-s4-3.5mm",
      "SeriesNumber": 7,
      "SeriesTime": "094154.854000",
      "SliceLocation": -58.513598184474,
      "SliceThickness": 3.5,
      "SmallestImagePixelValue": 0,
      "SoftwareVersions": "syngo MR E11",
      "SpacingBetweenSlices": 3.9899999897736,
      "SpecificCharacterSet": "ISO_IR 100",
      "StudyID": "1",
      "StudyTime": "093050.962000",
      "TransmitCoilName": "Body",
      "VariableFlipAngleFlag": "N",
      "WindowCenterWidthExplanation": "Algo1"
    },
    "slices": {}
  },
  "time": {
    "samples": {
      "AcquisitionNumber": [1, 2, 3, 4, 5, 6, 7, 8, 9, 10, 11, 12, 13, 14, 15, 16, 17, 18, 19, 20, 21, 22, 23, 24, 25, 26, 27, 28, 29, 30, 31, 32, 33, 34, 35, 36, 37, 38, 39, 40, 41, 42, 43, 44, 45, 46, 47, 48, 49, 50, 51, 52, 53, 54, 55, 56, 57, 58, 59, 60, 61, 62, 63, 64, 65, 66, 67, 68, 69, 70, 71, 72, 73, 74, 75, 76, 77, 78, 79, 80, 81, 82, 83, 84, 85, 86, 87, 88, 89, 90, 91, 92, 93, 94, 95, 96, 97, 98, 99, 100, 101, 102, 103, 104, 105, 106, 107, 108, 109, 110, 111, 112, 113, 114, 115, 116, 117, 118, 119, 120, 121, 122, 123, 124, 125, 126, 127, 128, 129, 130, 131, 132, 133, 134, 135, 136, 137, 138, 139, 140, 141, 142, 143, 144, 145, 146, 147, 148, 149, 150, 151, 152, 153, 154, 155, 156, 157, 158, 159, 160, 161, 162, 163, 164, 165, 166, 167, 168, 169, 170, 171, 172, 173, 174, 175, 176, 177, 178, 179, 180, 181, 182, 183, 184, 185, 186, 187, 188, 189, 190, 191, 192, 193, 194, 195, 196, 197, 198, 199, 200],
      "AcquisitionTime": ["094057.135000", "094059.135000", "094101.135000", "094103.135000", "094105.135000", "094107.135000", "094109.135000", "094111.135000", "094113.135000", "094115.135000", "094117.135000", "094119.135000", "094121.135000", "094123.135000", "094125.135000", "094127.135000", "094129.135000", "094131.135000", "094133.135000", "094135.135000", "094137.135000", "094139.135000", "094141.135000", "094143.135000", "094145.135000", "094147.135000", "094149.135000", "094151.135000", "094153.135000", "094155.135000", "094157.135000", "094159.135000", "094201.135000", "094203.135000", "094205.135000", "094207.135000", "094209.135000", "094211.135000", "094213.135000", "094215.135000", "094217.135000", "094219.135000", "094221.135000", "094223.135000", "094225.135000", "094227.135000", "094229.135000", "094231.135000", "094233.135000", "094235.135000", "094237.135000", "094239.135000", "094241.135000", "094243.135000", "094245.135000", "094247.135000", "094249.135000", "094251.135000", "094253.135000", "094255.135000", "094257.135000", "094259.135000", "094301.135000", "094303.135000", "094305.135000", "094307.135000", "094309.135000", "094311.135000", "094313.135000", "094315.135000", "094317.135000", "094319.135000", "094321.135000", "094323.135000", "094325.135000", "094327.135000", "094329.135000", "094331.135000", "094333.135000", "094335.135000", "094337.135000", "094339.135000", "094341.135000", "094343.135000", "094345.135000", "094347.135000", "094349.135000", "094351.135000", "094353.135000", "094355.135000", "094357.135000", "094359.135000", "094401.135000", "094403.135000", "094405.135000", "094407.135000", "094409.135000", "094411.135000", "094413.135000", "094415.135000", "094417.135000", "094419.135000", "094421.135000", "094423.135000", "094425.135000", "094427.135000", "094429.135000", "094431.135000", "094433.135000", "094435.135000", "094437.135000", "094439.135000", "094441.135000", "094443.135000", "094445.135000", "094447.135000", "094449.135000", "094451.135000", "094453.135000", "094455.135000", "094457.135000", "094459.135000", "094501.135000", "094503.135000", "094505.135000", "094507.135000", "094509.135000", "094511.135000", "094513.135000", "094515.135000", "094517.135000", "094519.135000", "094521.135000", "094523.135000", "094525.135000", "094527.135000", "094529.135000", "094531.135000", "094533.135000", "094535.135000", "094537.135000", "094539.135000", "094541.135000", "094543.135000", "094545.135000", "094547.135000", "094549.135000", "094551.135000", "094553.135000", "094555.135000", "094557.135000", "094559.135000", "094601.135000", "094603.135000", "094605.135000", "094607.135000", "094609.135000", "094611.135000", "094613.135000", "094615.135000", "094617.135000", "094619.135000", "094621.135000", "094623.135000", "094625.135000", "094627.135000", "094629.135000", "094631.135000", "094633.135000", "094635.135000", "094637.135000", "094639.135000", "094641.135000", "094643.135000", "094645.135000", "094647.135000", "094649.135000", "094651.135000", "094653.135000", "094655.135000", "094657.135000", "094659.135000", "094701.135000", "094703.135000", "094705.135000", "094707.135000", "094709.135000", "094711.135000", "094713.135000", "094715.135000", "094717.135000", "094719.135000", "094721.135000", "094723.135000", "094725.135000", "094727.135000", "094729.135000", "094731.135000", "094733.135000", "094735.135000"],
      "ContentTime": ["094154.857000", "094154.860000", "094154.867000", "094154.869000", "094154.871000", "094154.874000", "094154.876000", "094154.878000", "094154.881000", "094154.883000", "094154.885000", "094154.888000", "094154.890000", "094154.892000", "094154.894000", "094154.897000", "094154.899000", "094154.902000", "094154.904000", "094154.906000", "094154.908000", "094154.911000", "094154.913000", "094154.916000", "094154.918000", "094154.920000", "094154.922000", "094154.925000", "094154.927000", "094234.853000", "094234.856000", "094234.858000", "094234.861000", "094234.863000", "094234.865000", "094234.868000", "094234.870000", "094234.872000", "094234.875000", "094234.877000", "094234.879000", "094234.882000", "094234.884000", "094234.886000", "094234.889000", "094234.891000", "094234.893000", "094234.895000", "094234.898000", "094314.852000", "094314.855000", "094314.857000", "094314.859000", "094314.862000", "094314.864000", "094314.866000", "094314.868000", "094314.871000", "094314.873000", "094314.875000", "094314.878000", "094314.880000", "094314.882000", "094314.885000", "094314.887000", "094314.889000", "094314.892000", "094314.894000", "094314.896000", "094354.852000", "094354.855000", "094354.857000", "094354.859000", "094354.862000", "094354.864000", "094354.866000", "094354.869000", "094354.871000", "094354.873000", "094354.876000", "094354.878000", "094354.880000", "094354.882000", "094354.885000", "094354.887000", "094354.889000", "094354.892000", "094354.894000", "094354.896000", "094434.852000", "094434.855000", "094434.857000", "094434.860000", "094434.862000", "094434.864000", "094434.867000", "094434.869000", "094434.871000", "094434.874000", "094434.876000", "094434.878000", "094434.881000", "094434.883000", "094434.885000", "094434.888000", "094434.890000", "094434.892000", "094434.895000", "094434.897000", "094514.852000", "094514.855000", "094514.857000", "094514.860000", "094514.862000", "094514.864000", "094514.866000", "094514.869000", "094514.872000", "094514.874000", "094514.877000", "094514.879000", "094514.881000", "094514.884000", "094514.886000", "094514.888000", "094514.891000", "094514.893000", "094514.895000", "094514.898000", "094554.852000", "094554.855000", "094554.857000", "094554.860000", "094554.862000", "094554.864000", "094554.867000", "094554.869000", "094554.871000", "094554.874000", "094554.876000", "094554.878000", "094554.881000", "094554.883000", "094554.885000", "094554.888000", "094554.890000", "094554.892000", "094554.894000", "094554.897000", "094634.852000", "094634.855000", "094634.857000", "094634.859000", "094634.862000", "094634.864000", "094634.866000", "094634.869000", "094634.871000", "094634.873000", "094634.875000", "094634.878000", "094634.880000", "094634.882000", "094634.885000", "094634.887000", "094634.889000", "094634.891000", "094634.894000", "094634.896000", "094714.853000", "094714.856000", "094714.858000", "094714.861000", "094714.863000", "094714.865000", "094714.868000", "094714.870000", "094714.872000", "094714.874000", "094714.877000", "094714.879000", "094714.882000", "094714.884000", "094714.886000", "094714.888000", "094714.891000", "094714.893000", "094714.895000", "094714.898000", "094736.480000", "094736.483000", "094736.486000", "094736.488000", "094736.490000", "094736.493000", "094736.495000", "094736.498000", "094736.500000", "094736.502000", "094736.505000"],
      "InstanceCreationTime": ["094154.857000", "094154.860000", "094154.867000", "094154.869000", "094154.871000", "094154.874000", "094154.876000", "094154.878000", "094154.881000", "094154.883000", "094154.885000", "094154.888000", "094154.890000", "094154.892000", "094154.894000", "094154.897000", "094154.899000", "094154.902000", "094154.904000", "094154.906000", "094154.908000", "094154.911000", "094154.913000", "094154.916000", "094154.918000", "094154.920000", "094154.922000", "094154.925000", "094154.927000", "094234.853000", "094234.856000", "094234.858000", "094234.861000", "094234.863000", "094234.865000", "094234.868000", "094234.870000", "094234.872000", "094234.875000", "094234.877000", "094234.879000", "094234.882000", "094234.884000", "094234.886000", "094234.889000", "094234.891000", "094234.893000", "094234.895000", "094234.898000", "094314.852000", "094314.855000", "094314.857000", "094314.859000", "094314.862000", "094314.864000", "094314.866000", "094314.868000", "094314.871000", "094314.873000", "094314.875000", "094314.878000", "094314.880000", "094314.882000", "094314.885000", "094314.887000", "094314.889000", "094314.892000", "094314.894000", "094314.896000", "094354.852000", "094354.855000", "094354.857000", "094354.859000", "094354.862000", "094354.864000", "094354.866000", "094354.869000", "094354.871000", "094354.873000", "094354.876000", "094354.878000", "094354.880000", "094354.882000", "094354.885000", "094354.887000", "094354.889000", "094354.892000", "094354.894000", "094354.896000", "094434.852000", "094434.855000", "094434.857000", "094434.860000", "094434.862000", "094434.864000", "094434.867000", "094434.869000", "094434.871000", "094434.874000", "094434.876000", "094434.878000", "094434.881000", "094434.883000", "094434.885000", "094434.888000", "094434.890000", "094434.892000", "094434.895000", "094434.897000", "094514.852000", "094514.855000", "094514.857000", "094514.860000", "094514.862000", "094514.864000", "094514.866000", "094514.869000", "094514.872000", "094514.874000", "094514.877000", "094514.879000", "094514.881000", "094514.884000", "094514.886000", "094514.888000", "094514.891000", "094514.893000", "094514.895000", "094514.898000", "094554.852000", "094554.855000", "094554.857000", "094554.860000", "094554.862000", "094554.864000", "094554.867000", "094554.869000", "094554.871000", "094554.874000", "094554.876000", "094554.878000", "094554.881000", "094554.883000", "094554.885000", "094554.888000", "094554.890000", "094554.892000", "094554.894000", "094554.897000", "094634.852000", "094634.855000", "094634.857000", "094634.859000", "094634.862000", "094634.864000", "094634.866000", "094634.869000", "094634.871000", "094634.873000", "094634.875000", "094634.878000", "094634.880000", "094634.882000", "094634.885000", "094634.887000", "094634.889000", "094634.891000", "094634.894000", "094634.896000", "094714.853000", "094714.856000", "094714.858000", "094714.861000", "094714.863000", "094714.865000", "094714.868000", "094714.870000", "094714.872000", "094714.874000", "094714.877000", "094714.879000", "094714.882000", "094714.884000", "094714.886000", "094714.888000", "094714.891000", "094714.893000", "094714.895000", "094714.898000", "094736.480000", "094736.483000", "094736.486000", "094736.488000", "094736.490000", "094736.493000", "094736.495000", "094736.498000", "094736.500000", "094736.502000", "094736.505000"],
      "InstanceNumber": [1, 2, 3, 4, 5, 6, 7, 8, 9, 10, 11, 12, 13, 14, 15, 16, 17, 18, 19, 20, 21, 22, 23, 24, 25, 26, 27, 28, 29, 30, 31, 32, 33, 34, 35, 36, 37, 38, 39, 40, 41, 42, 43, 44, 45, 46, 47, 48, 49, 50, 51, 52, 53, 54, 55, 56, 57, 58, 59, 60, 61, 62, 63, 64, 65, 66, 67, 68, 69, 70, 71, 72, 73, 74, 75, 76, 77, 78, 79, 80, 81, 82, 83, 84, 85, 86, 87, 88, 89, 90, 91, 92, 93, 94, 95, 96, 97, 98, 99, 100, 101, 102, 103, 104, 105, 106, 107, 108, 109, 110, 111, 112, 113, 114, 115, 116, 117, 118, 119, 120, 121, 122, 123, 124, 125, 126, 127, 128, 129, 130, 131, 132, 133, 134, 135, 136, 137, 138, 139, 140, 141, 142, 143, 144, 145, 146, 147, 148, 149, 150, 151, 152, 153, 154, 155, 156, 157, 158, 159, 160, 161, 162, 163, 164, 165, 166, 167, 168, 169, 170, 171, 172, 173, 174, 175, 176, 177, 178, 179, 180, 181, 182, 183, 184, 185, 186, 187, 188, 189, 190, 191, 192, 193, 194, 195, 196, 197, 198, 199, 200],
      "LargestImagePixelValue": [2004, 2007, 2005, 2001, 2004, 2002, 2005, 2004, 2002, 1999, 2001, 2003, 2004, 2003, 2005, 2003, 2003, 2007, 2004, 2006, 2005, 2003, 1998, 2006, 2003, 2004, 2004, 2004, 2003, 2011, 2009, 2003, 2006, 2006, 2008, 2001, 2003, 2008, 2008, 2006, 2004, 2007, 2002, 1997, 2010, 2004, 2001, 2005, 2001, 2005, 2010, 2007, 2006, 2007, 2006, 2007, 2008, 2005, 2005, 2004, 2006, 2004, 2003, 2006, 2003, 2002, 2004, 2006, 2008, 2006, 2003, 2007, 2000, 2006, 2002, 2005, 2004, 2002, 2004, 2008, 2007, 2009, 2009, 2001, 2006, 2005, 2005, 1999, 2003, 2004, 2000, 2002, 2004, 2005, 2007, 2006, 2003, 2009, 2004, 2008, 2007, 2009, 2010, 2004, 2000, 2006, 2003, 2007, 2009, 2002, 2010, 2005, 2006, 2006, 2005, 2007, 2007, 2007, 2002, 2004, 2006, 2004, 2008, 2002, 2005, 2006, 2006, 2008, 2006, 2007, 2006, 2010, 2003, 2003, 2004, 2004, 2007, 2003, 2005, 2007, 2009, 2006, 2009, 2006, 2007, 2011, 2007, 2010, 2006, 2008, 2002, 2008, 2005, 2002, 2000, 2003, 2004, 2010, 2005, 2008, 2011, 2004, 2006, 2006, 2006, 2004, 2006, 2004, 2005, 2005, 2003, 2003, 2008, 2000, 2005, 2006, 2004, 2006, 2005, 2004, 2004, 2007, 2004, 2001, 2008, 2004, 2004, 2005, 2007, 2007, 2008, 2007, 2007, 2004, 2007, 2004, 2005, 2004, 2004, 2006],
      "WindowCenter": [925.0, 926.0, 924.0, 925.0, 924.0, 926.0, 925.0, 924.0, 926.0, 925.0, 925.0, 925.0, 924.0, 925.0, 924.0, 925.0, 925.0, 926.0, 926.0, 925.0, 925.0, 924.0, 926.0, 924.0, 926.0, 925.0, 925.0, 925.0, 924.0, 925.0, 926.0, 924.0, 926.0, 925.0, 925.0, 924.0, 924.0, 924.0, 924.0, 924.0, 926.0, 926.0, 925.0, 926.0, 925.0, 925.0, 925.0, 925.0, 924.0, 925.0, 925.0, 925.0, 925.0, 926.0, 925.0, 925.0, 924.0, 924.0, 924.0, 924.0, 926.0, 924.0, 925.0, 924.0, 924.0, 924.0, 925.0, 924.0, 924.0, 925.0, 924.0, 924.0, 924.0, 925.0, 925.0, 924.0, 923.0, 924.0, 925.0, 924.0, 925.0, 924.0, 924.0, 924.0, 924.0, 924.0, 925.0, 926.0, 925.0, 923.0, 925.0, 925.0, 924.0, 924.0, 924.0, 925.0, 925.0, 925.0, 924.0, 925.0, 923.0, 923.0, 924.0, 924.0, 924.0, 924.0, 925.0, 926.0, 925.0, 924.0, 926.0, 924.0, 925.0, 925.0, 925.0, 924.0, 926.0, 924.0, 923.0, 925.0, 926.0, 926.0, 925.0, 925.0, 923.0, 925.0, 925.0, 925.0, 925.0, 925.0, 926.0, 925.0, 924.0, 925.0, 923.0, 924.0, 925.0, 924.0, 925.0, 925.0, 924.0, 924.0, 925.0, 925.0, 925.0, 924.0, 926.0, 925.0, 925.0, 925.0, 925.0, 925.0, 923.0, 924.0, 925.0, 923.0, 926.0, 924.0, 924.0, 925.0, 923.0, 925.0, 925.0, 923.0, 925.0, 926.0, 923.0, 926.0, 924.0, 925.0, 923.0, 926.0, 923.0, 925.0, 925.0, 925.0, 925.0, 924.0, 923.0, 925.0, 925.0, 925.0, 925.0, 924.0, 925.0, 925.0, 925.0, 924.0, 925.0, 925.0, 925.0, 925.0, 926.0, 923.0, 923.0, 925.0, 925.0, 925.0, 925.0, 925.0],
      "WindowWidth": [2108.0, 2108.0, 2107.0, 2108.0, 2107.0, 2109.0, 2108.0, 2106.0, 2109.0, 2108.0, 2108.0, 2108.0, 2106.0, 2108.0, 2106.0, 2108.0, 2108.0, 2109.0, 2109.0, 2108.0, 2108.0, 2106.0, 2109.0, 2107.0, 2108.0, 2107.0, 2108.0, 2108.0, 2107.0, 2107.0, 2108.0, 2106.0, 2109.0, 2108.0, 2108.0, 2107.0, 2107.0, 2107.0, 2107.0, 2107.0, 2108.0, 2108.0, 2108.0, 2108.0, 2107.0, 2107.0, 2108.0, 2108.0, 2107.0, 2108.0, 2108.0, 2108.0, 2108.0, 2109.0, 2108.0, 2108.0, 2106.0, 2107.0, 2107.0, 2107.0, 2108.0, 2107.0, 2107.0, 2106.0, 2107.0, 2107.0, 2108.0, 2107.0, 2106.0, 2108.0, 2107.0, 2107.0, 2107.0, 2107.0, 2107.0, 2106.0, 2106.0, 2106.0, 2108.0, 2107.0, 2108.0, 2107.0, 2107.0, 2107.0, 2107.0, 2107.0, 2108.0, 2108.0, 2107.0, 2106.0, 2107.0, 2107.0, 2107.0, 2107.0, 2106.0, 2107.0, 2107.0, 2107.0, 2107.0, 2107.0, 2106.0, 2106.0, 2107.0, 2106.0, 2106.0, 2106.0, 2107.0, 2108.0, 2107.0, 2107.0, 2108.0, 2107.0, 2107.0, 2107.0, 2107.0, 2107.0, 2108.0, 2106.0, 2106.0, 2107.0, 2108.0, 2108.0, 2107.0, 2107.0, 2106.0, 2108.0, 2107.0, 2107.0, 2107.0, 2107.0, 2108.0, 2107.0, 2107.0, 2107.0, 2106.0, 2106.0, 2106.0, 2107.0, 2107.0, 2107.0, 2106.0, 2106.0, 2107.0, 2107.0, 2107.0, 2107.0, 2108.0, 2107.0, 2107.0, 2107.0, 2107.0, 2106.0, 2105.0, 2106.0, 2106.0, 2105.0, 2108.0, 2106.0, 2107.0, 2107.0, 2106.0, 2107.0, 2107.0, 2106.0, 2107.0, 2108.0, 2106.0, 2108.0, 2106.0, 2106.0, 2105.0, 2107.0, 2105.0, 2107.0, 2107.0, 2107.0, 2107.0, 2106.0, 2106.0, 2107.0, 2106.0, 2107.0, 2106.0, 2106.0, 2106.0, 2107.0, 2106.0, 2106.0, 2106.0, 2107.0, 2107.0, 2106.0, 2108.0, 2105.0, 2106.0, 2107.0, 2107.0, 2107.0, 2106.0, 2106.0]
    },
    "slices": {}
  }
}