{
  "AcquisitionMatrixPE": 80,
  "AcquisitionNumber": 1,
  "AcquisitionTime": "09:30:54.797500",
  "BandwidthPerPixelPhaseEncode": 48.077,
  "BaseResolution": 80,
  "BodyPartExamined": "BRAIN",
  "CoilCombinationMethod": "Sum of Squares",
  "ConsistencyInfo": "N4_VE11C_LATEST_20160120",
  "ConversionSoftware": "dcm2niix",
  "ConversionSoftwareVersion": "v1.0.20220720",
  "DerivedVendorReportedEchoSpacing": 0.000519999,
  "DeviceSerialNumber": "66112",
  "DwellTime": 2.7e-06,
  "EchoTime": 0.035,
  "EchoTrainLength": 39,
  "EffectiveEchoSpacing": 0.00026,
  "FlipAngle": 90,
  "HeudiconvVersion": "0.13.1",
  "ImageOrientationPatientDICOM": [0.995688, -0.0925791, -0.00590765, 0.0897386, 0.945085, 0.314263],
  "ImageOrientationText": "Tra>Cor(18.3)>Sag(1.3)",
  "ImageType": [
    "ORIGINAL",
    "PRIMARY",
    "M",
    "ND",
    "NORM",
    "MOSAIC"
],
  "ImagingFrequency": 123.252,
  "InPlanePhaseEncodingDirectionDICOM": "COL",
  "InstitutionAddress": "Maynard 3,Hanover,NH,US,03755",
  "InstitutionName": "Dartmouth College - PBS",
  "InstitutionalDepartmentName": "Department",
  "MRAcquisitionType": "2D",
  "MagneticFieldStrength": 3,
  "Manufacturer": "Siemens",
  "ManufacturersModelName": "Prisma",
  "MatrixCoilMode": "GRAPPA",
  "Modality": "MR",
  "NonlinearGradientCorrection": false,
  "ParallelReductionFactorInPlane": 2,
  "PartialFourier": 1,
  "PatientPosition": "HFS",
  "PercentPhaseFOV": 100,
  "PercentSampling": 100,
  "PhaseEncodingDirection": "j-",
  "PhaseEncodingSteps": 79,
  "PhaseResolution": 1,
  "PixelBandwidth": 2315,
  "ProcedureStepDescription": "dbic^QA",
  "ProtocolName": "func-bold_task-rest_acq-p2",
  "PulseSequenceDetails": "%SiemensSeq%\\ep2d_bold",
  "ReceiveCoilActiveElements": "HC1-7;NC1,2",
  "ReceiveCoilName": "HeadNeck_64",
  "ReconMatrixPE": 80,
  "RefLinesPE": 24,
  "RepetitionTime": 2,
  "SAR": 0.0362722,
  "ScanOptions": "FS",
  "ScanningSequence": "EP",
  "SequenceName": "*epfid2d1_80",
  "SequenceVariant": "SK",
  "SeriesDescription": "func-bold_task-rest_acq-p2",
  "SeriesNumber": 5,
  "ShimSetting": [4140, -7682, -7506, 215, -80, -363, -46, 91],
  "SliceThickness": 3.5,
  "SliceTiming": [0.99, 0, 1.0575, 0.0675, 1.1225, 0.1325, 1.1875, 0.2, 1.255, 0.265, 1.32, 0.33, 1.3875, 0.3975, 1.4525, 0.4625, 1.5175, 0.5275, 1.585, 0.595, 1.65, 0.66, 1.7175, 0.7275, 1.7825, 0.7925, 1.8475, 0.8575, 1.915, 0.925],
  "SoftwareVersions": "syngo MR E11",
  "SpacingBetweenSlices": 3.99,
  "StationName": "AWP66112",
  "TaskName": "rest",
  "TotalReadoutTime": 0.02054,
  "TxRefAmp": 213.632,
  "dcmmeta_affine": [
    [-2.987063407897949, 0.26921582221984863, 0.09380865842103958, 111.19654083251953],
    [0.27773717045783997, 2.8352551460266113, 1.250617504119873, -129.6974334716797],
    [-0.01772293634712696, -0.9427889585494995, 3.7877771854400635, -32.20082473754883],
    [0.0, 0.0, 0.0, 1.0]
],
  "dcmmeta_reorient_transform": [
    [0.0, -1.0, 0.0, 79.0],
    [1.0, 0.0, 0.0, 0.0],
    [0.0, 0.0, 1.0, 0.0],
    [0.0, 0.0, 0.0, 1.0]
],
  "dcmmeta_shape": [80, 80, 30, 200],
  "dcmmeta_slice_dim": 2,
  "dcmmeta_version": 0.6,
  "global": {
    "const": {
      "AccessionNumber": "qa64",
      "AcquisitionMatrix": [80, 0, 0, 80],
      "AngioFlag": "N",
      "BitsAllocated": 16,
      "BitsStored": 12,
      "BodyPartExamined": "BRAIN",
      "Columns": 480,
      "EchoNumbers": 1,
      "EchoTime": 35.0,
      "EchoTrainLength": 39,
      "FlipAngle": 90.0,
      "HighBit": 11,
      "ImageOrientationPatient": [0.99568781174227, -0.0925790541691, -0.0059076456432, 0.08973860450469, 0.94508505382515, 0.31426298524941],
      "ImagePositionPatient": [-783.72043841996, -605.79132212511, -291.69435708975],
      "ImageType": [
        "ORIGINAL",
        "PRIMARY",
        "M",
        "ND",
        "NORM",
        "MOSAIC"
],
      "ImagedNucleus": "1H",
      "ImagingFrequency": 123.252375,
      "InPlanePhaseEncodingDirection": "COL",
      "MRAcquisitionType": "2D",
      "MagneticFieldStrength": 3.0,
      "Manufacturer": "SIEMENS",
      "ManufacturerModelName": "Prisma",
      "Modality": "MR",
      "NumberOfAverages": 1.0,
      "NumberOfPhaseEncodingSteps": 79,
      "PercentPhaseFieldOfView": 100.0,
      "PercentSampling": 100.0,
      "PerformedProcedureStepStartTime": "091832.513000",
      "PhotometricInterpretation": "MONOCHROME2",
      "PixelBandwidth": 2315.0,
      "PixelRepresentation": 0,
      "PixelSpacing": [3.0, 3.0],
      "ProtocolName": "func-bold_task-rest_acq-p2",
      "RepetitionTime": 2000.0,
      "Rows": 480,
      "SAR": 0.03627217049229,
      "SamplesPerPixel": 1,
      "ScanOptions": "FS",
      "ScanningSequence": "EP",
      "SequenceName": "*epfid2d1_80",
      "SequenceVariant": "SK",
      "SeriesDescription": "func-bold_task-rest_acq-p2",
      "SeriesNumber": 5,
      "SeriesTime": "093141.744000",
      "SliceLocation": -68.606575366025,
      "SliceThickness": 3.5,
      "SmallestImagePixelValue": 0,
      "SoftwareVersions": "syngo MR E11",
      "SpacingBetweenSlices": 3.9899999204253,
      "SpecificCharacterSet": "ISO_IR 100",
      "StudyID": "14",
      "StudyTime": "091832.446000",
      "TransmitCoilName": "Body",
      "VariableFlipAngleFlag": "N",
      "WindowCenterWidthExplanation": "Algo1",
      "dBdt": 0.0},
    "slices": {}
  },
  "time": {
    "samples": {
      "AcquisitionNumber": [1, 2, 3, 4, 5, 6, 7, 8, 9, 10, 11, 12, 13, 14, 15, 16, 17, 18, 19, 20, 21, 22, 23, 24, 25, 26, 27, 28, 29, 30, 31, 32, 33, 34, 35, 36, 37, 38, 39, 40, 41, 42, 43, 44, 45, 46, 47, 48, 49, 50, 51, 52, 53, 54, 55, 56, 57, 58, 59, 60, 61, 62, 63, 64, 65, 66, 67, 68, 69, 70, 71, 72, 73, 74, 75, 76, 77, 78, 79, 80, 81, 82, 83, 84, 85, 86, 87, 88, 89, 90, 91, 92, 93, 94, 95, 96, 97, 98, 99, 100, 101, 102, 103, 104, 105, 106, 107, 108, 109, 110, 111, 112, 113, 114, 115, 116, 117, 118, 119, 120, 121, 122, 123, 124, 125, 126, 127, 128, 129, 130, 131, 132, 133, 134, 135, 136, 137, 138, 139, 140, 141, 142, 143, 144, 145, 146, 147, 148, 149, 150, 151, 152, 153, 154, 155, 156, 157, 158, 159, 160, 161, 162, 163, 164, 165, 166, 167, 168, 169, 170, 171, 172, 173, 174, 175, 176, 177, 178, 179, 180, 181, 182, 183, 184, 185, 186, 187, 188, 189, 190, 191, 192, 193, 194, 195, 196, 197, 198, 199, 200],
      "AcquisitionTime": ["093054.797500", "093056.797500", "093058.797500", "093100.797500", "093102.797500", "093104.797500", "093106.797500", "093108.797500", "093110.797500", "093112.797500", "093114.797500", "093116.797500", "093118.797500", "093120.797500", "093122.797500", "093124.797500", "093126.797500", "093128.797500", "093130.797500", "093132.797500", "093134.797500", "093136.797500", "093138.797500", "093140.797500", "093142.797500", "093144.797500", "093146.797500", "093148.797500", "093150.797500", "093152.797500", "093154.797500", "093156.797500", "093158.797500", "093200.797500", "093202.797500", "093204.797500", "093206.797500", "093208.797500", "093210.797500", "093212.797500", "093214.797500", "093216.797500", "093218.797500", "093220.797500", "093222.797500", "093224.797500", "093226.797500", "093228.797500", "093230.797500", "093232.797500", "093234.797500", "093236.797500", "093238.797500", "093240.797500", "093242.797500", "093244.797500", "093246.797500", "093248.797500", "093250.797500", "093252.797500", "093254.797500", "093256.797500", "093258.797500", "093300.797500", "093302.797500", "093304.797500", "093306.797500", "093308.797500", "093310.797500", "093312.797500", "093314.797500", "093316.797500", "093318.797500", "093320.797500", "093322.797500", "093324.797500", "093326.797500", "093328.797500", "093330.797500", "093332.797500", "093334.797500", "093336.797500", "093338.797500", "093340.797500", "093342.797500", "093344.797500", "093346.797500", "093348.797500", "093350.797500", "093352.797500", "093354.797500", "093356.797500", "093358.797500", "093400.797500", "093402.797500", "093404.797500", "093406.797500", "093408.797500", "093410.797500", "093412.797500", "093414.797500", "093416.797500", "093418.797500", "093420.797500", "093422.797500", "093424.797500", "093426.797500", "093428.797500", "093430.797500", "093432.797500", "093434.797500", "093436.797500", "093438.797500", "093440.797500", "093442.797500", "093444.797500", "093446.797500", "093448.797500", "093450.797500", "093452.797500", "093454.797500", "093456.797500", "093458.797500", "093500.797500", "093502.797500", "093504.797500", "093506.797500", "093508.797500", "093510.797500", "093512.797500", "093514.797500", "093516.797500", "093518.797500", "093520.797500", "093522.797500", "093524.797500", "093526.797500", "093528.797500", "093530.797500", "093532.797500", "093534.797500", "093536.797500", "093538.797500", "093540.797500", "093542.797500", "093544.797500", "093546.797500", "093548.797500", "093550.797500", "093552.797500", "093554.797500", "093556.797500", "093558.797500", "093600.797500", "093602.797500", "093604.797500", "093606.797500", "093608.797500", "093610.797500", "093612.797500", "093614.797500", "093616.797500", "093618.797500", "093620.797500", "093622.797500", "093624.797500", "093626.797500", "093628.797500", "093630.797500", "093632.797500", "093634.797500", "093636.797500", "093638.797500", "093640.797500", "093642.797500", "093644.797500", "093646.797500", "093648.797500", "093650.797500", "093652.797500", "093654.797500", "093656.797500", "093658.797500", "093700.797500", "093702.797500", "093704.797500", "093706.797500", "093708.797500", "093710.797500", "093712.797500", "093714.797500", "093716.797500", "093718.797500", "093720.797500", "093722.797500", "093724.797500", "093726.797500", "093728.797500", "093730.797500", "093732.797500"],
      "ContentTime": ["093141.748000", "093141.752000", "093141.754000", "093141.757000", "093141.759000", "093141.762000", "093141.764000", "093141.776000", "093141.779000", "093141.781000", "093141.784000", "093141.786000", "093141.789000", "093141.791000", "093141.794000", "093141.796000", "093141.799000", "093141.802000", "093141.809000", "093141.812000", "093141.814000", "093141.817000", "093141.820000", "093221.727000", "093221.738000", "093221.741000", "093221.743000", "093221.746000", "093221.749000", "093221.751000", "093221.754000", "093221.756000", "093221.759000", "093221.761000", "093221.764000", "093221.766000", "093221.769000", "093221.771000", "093221.774000", "093221.776000", "093221.779000", "093221.782000", "093221.784000", "093301.726000", "093301.729000", "093301.732000", "093301.734000", "093301.737000", "093301.739000", "093301.742000", "093301.744000", "093301.747000", "093301.749000", "093301.752000", "093301.754000", "093301.757000", "093301.760000", "093301.762000", "093301.765000", "093301.767000", "093301.770000", "093301.772000", "093301.775000", "093341.726000", "093341.729000", "093341.732000", "093341.734000", "093341.737000", "093341.739000", "093341.742000", "093341.744000", "093341.747000", "093341.750000", "093341.752000", "093341.755000", "093341.757000", "093341.760000", "093341.762000", "093341.765000", "093341.767000", "093341.770000", "093341.772000", "093341.775000", "093421.727000", "093421.730000", "093421.733000", "093421.735000", "093421.738000", "093421.740000", "093421.743000", "093421.745000", "093421.748000", "093421.751000", "093421.753000", "093421.756000", "093421.758000", "093421.761000", "093421.763000", "093421.766000", "093421.768000", "093421.771000", "093421.773000", "093421.776000", "093501.726000", "093501.729000", "093501.732000", "093501.734000", "093501.737000", "093501.739000", "093501.753000", "093501.756000", "093501.758000", "093501.761000", "093501.763000", "093501.766000", "093501.768000", "093501.771000", "093501.773000", "093501.776000", "093501.778000", "093501.781000", "093501.783000", "093501.786000", "093541.727000", "093541.729000", "093541.732000", "093541.734000", "093541.737000", "093541.739000", "093541.742000", "093541.745000", "093541.747000", "093541.750000", "093541.752000", "093541.755000", "093541.757000", "093541.760000", "093541.763000", "093541.765000", "093541.768000", "093541.770000", "093541.773000", "093541.783000", "093621.726000", "093621.729000", "093621.732000", "093621.734000", "093621.737000", "093621.739000", "093621.742000", "093621.744000", "093621.747000", "093621.749000", "093621.752000", "093621.755000", "093621.757000", "093621.760000", "093621.762000", "093621.765000", "093621.767000", "093621.770000", "093621.772000", "093621.775000", "093701.727000", "093701.730000", "093701.733000", "093701.735000", "093701.738000", "093701.740000", "093701.743000", "093701.745000", "093701.748000", "093701.750000", "093701.753000", "093701.755000", "093701.758000", "093701.760000", "093701.763000", "093701.766000", "093701.768000", "093701.771000", "093701.773000", "093701.776000", "093734.506000", "093734.509000", "093734.511000", "093734.514000", "093734.516000", "093734.519000", "093734.521000", "093734.524000", "093734.527000", "093734.529000", "093734.532000", "093734.537000", "093734.541000", "093734.544000", "093734.548000", "093734.550000", "093734.554000"],
      "InstanceCreationTime": ["093141.748000", "093141.752000", "093141.754000", "093141.757000", "093141.759000", "093141.762000", "093141.764000", "093141.776000", "093141.779000", "093141.781000", "093141.784000", "093141.786000", "093141.789000", "093141.791000", "093141.794000", "093141.796000", "093141.799000", "093141.802000", "093141.809000", "093141.812000", "093141.814000", "093141.817000", "093141.820000", "093221.727000", "093221.738000", "093221.741000", "093221.743000", "093221.746000", "093221.749000", "093221.751000", "093221.754000", "093221.756000", "093221.759000", "093221.761000", "093221.764000", "093221.766000", "093221.769000", "093221.771000", "093221.774000", "093221.776000", "093221.779000", "093221.782000", "093221.784000", "093301.726000", "093301.729000", "093301.732000", "093301.734000", "093301.737000", "093301.739000", "093301.742000", "093301.744000", "093301.747000", "093301.749000", "093301.752000", "093301.754000", "093301.757000", "093301.760000", "093301.762000", "093301.765000", "093301.767000", "093301.770000", "093301.772000", "093301.775000", "093341.726000", "093341.729000", "093341.732000", "093341.734000", "093341.737000", "093341.739000", "093341.742000", "093341.744000", "093341.747000", "093341.750000", "093341.752000", "093341.755000", "093341.757000", "093341.760000", "093341.762000", "093341.765000", "093341.767000", "093341.770000", "093341.772000", "093341.775000", "093421.727000", "093421.730000", "093421.733000", "093421.735000", "093421.738000", "093421.740000", "093421.743000", "093421.745000", "093421.748000", "093421.751000", "093421.753000", "093421.756000", "093421.758000", "093421.761000", "093421.763000", "093421.766000", "093421.768000", "093421.771000", "093421.773000", "093421.776000", "093501.726000", "093501.729000", "093501.732000", "093501.734000", "093501.737000", "093501.739000", "093501.753000", "093501.756000", "093501.758000", "093501.761000", "093501.763000", "093501.766000", "093501.768000", "093501.771000", "093501.773000", "093501.776000", "093501.778000", "093501.781000", "093501.783000", "093501.786000", "093541.727000", "093541.729000", "093541.732000", "093541.734000", "093541.737000", "093541.739000", "093541.742000", "093541.745000", "093541.747000", "093541.750000", "093541.752000", "093541.755000", "093541.757000", "093541.760000", "093541.763000", "093541.765000", "093541.768000", "093541.770000", "093541.773000", "093541.783000", "093621.726000", "093621.729000", "093621.732000", "093621.734000", "093621.737000", "093621.739000", "093621.742000", "093621.744000", "093621.747000", "093621.749000", "093621.752000", "093621.755000", "093621.757000", "093621.760000", "093621.762000", "093621.765000", "093621.767000", "093621.770000", "093621.772000", "093621.775000", "093701.727000", "093701.730000", "093701.733000", "093701.735000", "093701.738000", "093701.740000", "093701.743000", "093701.745000", "093701.748000", "093701.750000", "093701.753000", "093701.755000", "093701.758000", "093701.760000", "093701.763000", "093701.766000", "093701.768000", "093701.771000", "093701.773000", "093701.776000", "093734.506000", "093734.509000", "093734.511000", "093734.514000", "093734.516000", "093734.519000", "093734.521000", "093734.524000", "093734.527000", "093734.529000", "093734.532000", "093734.537000", "093734.541000", "093734.544000", "093734.548000", "093734.550000", "093734.554000"],
      "InstanceNumber": [1, 2, 3, 4, 5, 6, 7, 8, 9, 10, 11, 12, 13, 14, 15, 16, 17, 18, 19, 20, 21, 22, 23, 24, 25, 26, 27, 28, 29, 30, 31, 32, 33, 34, 35, 36, 37, 38, 39, 40, 41, 42, 43, 44, 45, 46, 47, 48, 49, 50, 51, 52, 53, 54, 55, 56, 57, 58, 59, 60, 61, 62, 63, 64, 65, 66, 67, 68, 69, 70, 71, 72, 73, 74, 75, 76, 77, 78, 79, 80, 81, 82, 83, 84, 85, 86, 87, 88, 89, 90, 91, 92, 93, 94, 95, 96, 97, 98, 99, 100, 101, 102, 103, 104, 105, 106, 107, 108, 109, 110, 111, 112, 113, 114, 115, 116, 117, 118, 119, 120, 121, 122, 123, 124, 125, 126, 127, 128, 129, 130, 131, 132, 133, 134, 135, 136, 137, 138, 139, 140, 141, 142, 143, 144, 145, 146, 147, 148, 149, 150, 151, 152, 153, 154, 155, 156, 157, 158, 159, 160, 161, 162, 163, 164, 165, 166, 167, 168, 169, 170, 171, 172, 173, 174, 175, 176, 177, 178, 179, 180, 181, 182, 183, 184, 185, 186, 187, 188, 189, 190, 191, 192, 193, 194, 195, 196, 197, 198, 199, 200],
      "LargestImagePixelValue": [3985, 3967, 3976, 3971, 3968, 3963, 3976, 3971, 3975, 3979, 3975, 3967, 3965, 3970, 3974, 3959, 3983, 3970, 3960, 3974, 3966, 3969, 3967, 3981, 3969, 3964, 3971, 3972, 3965, 3960, 3974, 3973, 3963, 3962, 3975, 3967, 3973, 3957, 3971, 3956, 3965, 3971, 3964, 3954, 3978, 3963, 3982, 3960, 3975, 3961, 3973, 3961, 3960, 3976, 3967, 3977, 3967, 3977, 3954, 3964, 3967, 3959, 3972, 3962, 3962, 3965, 3965, 3954, 3966, 3974, 3967, 3963, 3965, 3961, 3958, 3965, 3961, 3971, 3957, 3967, 3965, 3961, 3961, 3949, 3973, 3960, 3973, 3968, 3959, 3972, 3973, 3966, 3961, 3954, 3949, 3961, 3966, 3955, 3969, 3961, 3966, 3963, 3952, 3973, 3966, 3955, 3953, 3959, 3954, 3970, 3959, 3963, 3972, 3963, 3961, 3974, 3975, 3974, 3960, 3952, 3959, 3971, 3965, 3972, 3964, 3968, 3954, 3950, 3971, 3967, 3954, 3958, 3964, 3973, 3958, 3966, 3969, 3967, 3967, 3965, 3966, 3962, 3961, 3966, 3962, 3968, 3969, 3961, 3959, 3955, 3970, 3954, 3963, 3961, 3953, 3958, 3956, 3956, 3967, 3971, 3965, 3963, 3981, 3959, 3969, 3972, 3969, 3962, 3958, 3961, 3964, 3962, 3966, 3948, 3968, 3963, 3963, 3964, 3956, 3960, 3966, 3971, 3960, 3967, 3970, 3962, 3963, 3962, 3980, 3955, 3962, 3968, 3959, 3959, 3957, 3962, 3975, 3957, 3960, 3953],
      "WindowCenter": [1478.0, 1478.0, 1477.0, 1477.0, 1478.0, 1478.0, 1477.0, 1477.0, 1477.0, 1477.0, 1477.0, 1477.0, 1477.0, 1477.0, 1476.0, 1476.0, 1477.0, 1476.0, 1477.0, 1476.0, 1476.0, 1476.0, 1477.0, 1476.0, 1476.0, 1477.0, 1476.0, 1476.0, 1476.0, 1476.0, 1476.0, 1476.0, 1475.0, 1476.0, 1476.0, 1477.0, 1476.0, 1477.0, 1475.0, 1476.0, 1477.0, 1475.0, 1476.0, 1476.0, 1476.0, 1476.0, 1475.0, 1476.0, 1476.0, 1476.0, 1476.0, 1476.0, 1476.0, 1475.0, 1476.0, 1476.0, 1476.0, 1476.0, 1475.0, 1476.0, 1476.0, 1475.0, 1476.0, 1476.0, 1475.0, 1475.0, 1477.0, 1476.0, 1476.0, 1476.0, 1475.0, 1477.0, 1476.0, 1477.0, 1476.0, 1475.0, 1476.0, 1476.0, 1475.0, 1476.0, 1476.0, 1476.0, 1476.0, 1476.0, 1475.0, 1476.0, 1475.0, 1476.0, 1476.0, 1475.0, 1474.0, 1475.0, 1476.0, 1475.0, 1475.0, 1475.0, 1475.0, 1475.0, 1475.0, 1475.0, 1474.0, 1475.0, 1475.0, 1475.0, 1475.0, 1475.0, 1475.0, 1475.0, 1474.0, 1474.0, 1475.0, 1475.0, 1475.0, 1475.0, 1475.0, 1476.0, 1475.0, 1476.0, 1475.0, 1475.0, 1475.0, 1475.0, 1475.0, 1475.0, 1475.0, 1476.0, 1474.0, 1476.0, 1474.0, 1475.0, 1475.0, 1474.0, 1475.0, 1475.0, 1475.0, 1475.0, 1475.0, 1474.0, 1475.0, 1475.0, 1476.0, 1475.0, 1475.0, 1475.0, 1475.0, 1475.0, 1475.0, 1475.0, 1475.0, 1475.0, 1475.0, 1475.0, 1474.0, 1474.0, 1475.0, 1475.0, 1475.0, 1474.0, 1474.0, 1475.0, 1474.0, 1475.0, 1475.0, 1475.0, 1475.0, 1476.0, 1475.0, 1475.0, 1474.0, 1474.0, 1476.0, 1474.0, 1474.0, 1474.0, 1474.0, 1474.0, 1474.0, 1475.0, 1474.0, 1474.0, 1474.0, 1474.0, 1475.0, 1474.0, 1474.0, 1475.0, 1474.0, 1474.0, 1474.0, 1474.0, 1474.0, 1473.0, 1474.0, 1474.0, 1474.0, 1474.0, 1474.0, 1474.0, 1474.0, 1474.0],
      "WindowWidth": [3364.0, 3362.0, 3362.0, 3362.0, 3362.0, 3362.0, 3362.0, 3362.0, 3362.0, 3362.0, 3362.0, 3362.0, 3362.0, 3361.0, 3362.0, 3362.0, 3362.0, 3362.0, 3361.0, 3362.0, 3362.0, 3362.0, 3361.0, 3362.0, 3362.0, 3361.0, 3362.0, 3362.0, 3362.0, 3362.0, 3362.0, 3361.0, 3362.0, 3361.0, 3362.0, 3362.0, 3362.0, 3361.0, 3362.0, 3362.0, 3361.0, 3362.0, 3361.0, 3361.0, 3361.0, 3361.0, 3362.0, 3361.0, 3361.0, 3362.0, 3362.0, 3362.0, 3362.0, 3362.0, 3361.0, 3362.0, 3361.0, 3362.0, 3362.0, 3361.0, 3361.0, 3362.0, 3361.0, 3361.0, 3362.0, 3362.0, 3361.0, 3362.0, 3362.0, 3361.0, 3362.0, 3361.0, 3362.0, 3361.0, 3362.0, 3362.0, 3361.0, 3361.0, 3362.0, 3361.0, 3361.0, 3361.0, 3361.0, 3361.0, 3361.0, 3361.0, 3362.0, 3361.0, 3361.0, 3361.0, 3361.0, 3361.0, 3361.0, 3361.0, 3361.0, 3361.0, 3361.0, 3361.0, 3361.0, 3361.0, 3361.0, 3361.0, 3361.0, 3361.0, 3361.0, 3361.0, 3361.0, 3361.0, 3361.0, 3361.0, 3361.0, 3361.0, 3360.0, 3361.0, 3361.0, 3361.0, 3361.0, 3361.0, 3361.0, 3361.0, 3361.0, 3361.0, 3361.0, 3361.0, 3361.0, 3361.0, 3361.0, 3361.0, 3361.0, 3361.0, 3361.0, 3361.0, 3361.0, 3361.0, 3361.0, 3361.0, 3361.0, 3361.0, 3361.0, 3361.0, 3361.0, 3361.0, 3361.0, 3361.0, 3361.0, 3361.0, 3361.0, 3361.0, 3361.0, 3361.0, 3361.0, 3360.0, 3361.0, 3361.0, 3360.0, 3361.0, 3361.0, 3361.0, 3361.0, 3360.0, 3361.0, 3361.0, 3361.0, 3361.0, 3361.0, 3361.0, 3361.0, 3360.0, 3361.0, 3361.0, 3360.0, 3361.0, 3361.0, 3361.0, 3361.0, 3361.0, 3361.0, 3360.0, 3361.0, 3361.0, 3361.0, 3361.0, 3360.0, 3361.0, 3361.0, 3360.0, 3360.0, 3360.0, 3360.0, 3360.0, 3360.0, 3360.0, 3360.0, 3360.0, 3360.0, 3360.0, 3360.0, 3360.0, 3360.0, 3360.0]
    },
    "slices": {}
  }
}