{
  "AcquisitionMatrixPE": 80,
  "AcquisitionNumber": 1,
  "AcquisitionTime": "09:37:45.547500",
  "BandwidthPerPixelPhaseEncode": 25,
  "BaseResolution": 80,
  "BodyPartExamined": "BRAIN",
  "CoilCombinationMethod": "Sum of Squares",
  "ConsistencyInfo": "N4_VE11C_LATEST_20160120",
  "ConversionSoftware": "dcm2niix",
  "ConversionSoftwareVersion": "v1.0.20220720",
  "DerivedVendorReportedEchoSpacing": 0.0005,
  "DeviceSerialNumber": "66112",
  "DwellTime": 2.7e-06,
  "EchoTime": 0.03,
  "EchoTrainLength": 80,
  "EffectiveEchoSpacing": 0.0005,
  "FlipAngle": 77,
  "HeudiconvVersion": "0.13.1",
  "ImageOrientationPatientDICOM": [0.995688, -0.0925791, -0.00590765, 0.0897386, 0.945085, 0.314263],
  "ImageOrientationText": "Tra>Cor(18.3)>Sag(1.3)",
  "ImageType": [
    "ORIGINAL",
    "PRIMARY",
    "M",
    "ND",
    "NORM",
    "MOSAIC"
],
  "ImagingFrequency": 123.252,
  "InPlanePhaseEncodingDirectionDICOM": "COL",
  "InstitutionAddress": "Maynard 3,Hanover,NH,US,03755",
  "InstitutionName": "Dartmouth College - PBS",
  "InstitutionalDepartmentName": "Department",
  "MRAcquisitionType": "2D",
  "MagneticFieldStrength": 3,
  "Manufacturer": "Siemens",
  "ManufacturersModelName": "Prisma",
  "MatrixCoilMode": "SENSE",
  "Modality": "MR",
  "NonlinearGradientCorrection": false,
  "PartialFourier": 1,
  "PatientPosition": "HFS",
  "PercentPhaseFOV": 100,
  "PercentSampling": 100,
  "PhaseEncodingDirection": "j-",
  "PhaseEncodingSteps": 80,
  "PhaseResolution": 1,
  "PixelBandwidth": 2315,
  "ProcedureStepDescription": "dbic^QA",
  "ProtocolName": "func-bold_fa-77",
  "PulseSequenceDetails": "%SiemensSeq%\\ep2d_bold",
  "ReceiveCoilActiveElements": "HC1-7;NC1,2",
  "ReceiveCoilName": "HeadNeck_64",
  "ReconMatrixPE": 80,
  "RepetitionTime": 2,
  "SAR": 0.0285045,
  "ScanOptions": "FS",
  "ScanningSequence": "EP",
  "SequenceName": "*epfid2d1_80",
  "SequenceVariant": "SK",
  "SeriesDescription": "func-bold_fa-77",
  "SeriesNumber": 7,
  "ShimSetting": [4140, -7682, -7506, 216, -80, -361, -44, 91],
  "SliceThickness": 3.5,
  "SliceTiming": [0.99, 0, 1.0575, 0.0675, 1.1225, 0.1325, 1.19, 0.2, 1.255, 0.265, 1.32, 0.33, 1.3875, 0.3975, 1.4525, 0.4625, 1.52, 0.53, 1.585, 0.595, 1.65, 0.66, 1.7175, 0.7275, 1.7825, 0.7925, 1.85, 0.86, 1.915, 0.925],
  "SoftwareVersions": "syngo MR E11",
  "SpacingBetweenSlices": 3.99,
  "StationName": "AWP66112",
  "TotalReadoutTime": 0.0395,
  "TxRefAmp": 213.632,
  "dcmmeta_affine": [
    [-2.987063407897949, 0.26921582221984863, 0.09380865842103958, 109.71661376953125],
    [0.27773717045783997, 2.8352551460266113, 1.250617504119873, -124.88452911376953],
    [-0.01772293634712696, -0.9427889585494995, 3.7877771854400635, -32.40690994262695],
    [0.0, 0.0, 0.0, 1.0]
],
  "dcmmeta_reorient_transform": [
    [0.0, -1.0, 0.0, 79.0],
    [1.0, 0.0, 0.0, 0.0],
    [0.0, 0.0, 1.0, 0.0],
    [0.0, 0.0, 0.0, 1.0]
],
  "dcmmeta_shape": [80, 80, 30, 200],
  "dcmmeta_slice_dim": 2,
  "dcmmeta_version": 0.6,
  "global": {
    "const": {
      "AccessionNumber": "qa64",
      "AcquisitionMatrix": [80, 0, 0, 80],
      "AngioFlag": "N",
      "BitsAllocated": 16,
      "BitsStored": 12,
      "BodyPartExamined": "BRAIN",
      "Columns": 480,
      "EchoNumbers": 1,
      "EchoTime": 30.0,
      "EchoTrainLength": 80,
      "FlipAngle": 77.0,
      "HighBit": 11,
      "ImageOrientationPatient": [0.99568781174227, -0.0925790541691, -0.0059076456432, 0.08973860450469, 0.94508505382515, 0.31426298524941],
      "ImagePositionPatient": [-782.24051386037, -610.60422505251, -291.90044229483],
      "ImageType": [
        "ORIGINAL",
        "PRIMARY",
        "M",
        "ND",
        "NORM",
        "MOSAIC"
],
      "ImagedNucleus": "1H",
      "ImagingFrequency": 123.252375,
      "InPlanePhaseEncodingDirection": "COL",
      "MRAcquisitionType": "2D",
      "MagneticFieldStrength": 3.0,
      "Manufacturer": "SIEMENS",
      "ManufacturerModelName": "Prisma",
      "Modality": "MR",
      "NumberOfAverages": 1.0,
      "NumberOfPhaseEncodingSteps": 80,
      "PercentPhaseFieldOfView": 100.0,
      "PercentSampling": 100.0,
      "PerformedProcedureStepStartTime": "091832.513000",
      "PhotometricInterpretation": "MONOCHROME2",
      "PixelBandwidth": 2315.0,
      "PixelRepresentation": 0,
      "PixelSpacing": [3.0, 3.0],
      "ProtocolName": "func-bold_fa-77",
      "RepetitionTime": 2000.0,
      "Rows": 480,
      "SAR": 0.02850448035177,
      "SamplesPerPixel": 1,
      "ScanOptions": "FS",
      "ScanningSequence": "EP",
      "SequenceName": "*epfid2d1_80",
      "SequenceVariant": "SK",
      "SeriesDescription": "func-bold_fa-77",
      "SeriesNumber": 7,
      "SeriesTime": "093841.803000",
      "SliceLocation": -67.328463582442,
      "SliceThickness": 3.5,
      "SmallestImagePixelValue": 0,
      "SoftwareVersions": "syngo MR E11",
      "SpacingBetweenSlices": 3.9900000606644,
      "SpecificCharacterSet": "ISO_IR 100",
      "StudyID": "14",
      "StudyTime": "091832.446000",
      "TransmitCoilName": "Body",
      "VariableFlipAngleFlag": "N",
      "WindowCenterWidthExplanation": "Algo1",
      "dBdt": 0.0},
    "slices": {}
  },
  "time": {
    "samples": {
      "AcquisitionNumber": [1, 2, 3, 4, 5, 6, 7, 8, 9, 10, 11, 12, 13, 14, 15, 16, 17, 18, 19, 20, 21, 22, 23, 24, 25, 26, 27, 28, 29, 30, 31, 32, 33, 34, 35, 36, 37, 38, 39, 40, 41, 42, 43, 44, 45, 46, 47, 48, 49, 50, 51, 52, 53, 54, 55, 56, 57, 58, 59, 60, 61, 62, 63, 64, 65, 66, 67, 68, 69, 70, 71, 72, 73, 74, 75, 76, 77, 78, 79, 80, 81, 82, 83, 84, 85, 86, 87, 88, 89, 90, 91, 92, 93, 94, 95, 96, 97, 98, 99, 100, 101, 102, 103, 104, 105, 106, 107, 108, 109, 110, 111, 112, 113, 114, 115, 116, 117, 118, 119, 120, 121, 122, 123, 124, 125, 126, 127, 128, 129, 130, 131, 132, 133, 134, 135, 136, 137, 138, 139, 140, 141, 142, 143, 144, 145, 146, 147, 148, 149, 150, 151, 152, 153, 154, 155, 156, 157, 158, 159, 160, 161, 162, 163, 164, 165, 166, 167, 168, 169, 170, 171, 172, 173, 174, 175, 176, 177, 178, 179, 180, 181, 182, 183, 184, 185, 186, 187, 188, 189, 190, 191, 192, 193, 194, 195, 196, 197, 198, 199, 200],
      "AcquisitionTime": ["093745.547500", "093747.547500", "093749.547500", "093751.547500", "093753.547500", "093755.547500", "093757.547500", "093759.547500", "093801.547500", "093803.547500", "093805.547500", "093807.547500", "093809.547500", "093811.547500", "093813.547500", "093815.547500", "093817.547500", "093819.547500", "093821.547500", "093823.547500", "093825.547500", "093827.547500", "093829.547500", "093831.547500", "093833.547500", "093835.547500", "093837.547500", "093839.547500", "093841.547500", "093843.547500", "093845.547500", "093847.547500", "093849.547500", "093851.547500", "093853.547500", "093855.547500", "093857.547500", "093859.547500", "093901.547500", "093903.547500", "093905.547500", "093907.547500", "093909.547500", "093911.547500", "093913.547500", "093915.547500", "093917.547500", "093919.547500", "093921.547500", "093923.547500", "093925.547500", "093927.547500", "093929.547500", "093931.547500", "093933.547500", "093935.547500", "093937.547500", "093939.547500", "093941.547500", "093943.547500", "093945.547500", "093947.547500", "093949.547500", "093951.547500", "093953.547500", "093955.547500", "093957.547500", "093959.547500", "094001.547500", "094003.547500", "094005.547500", "094007.547500", "094009.547500", "094011.547500", "094013.547500", "094015.547500", "094017.547500", "094019.547500", "094021.547500", "094023.547500", "094025.547500", "094027.547500", "094029.547500", "094031.547500", "094033.547500", "094035.547500", "094037.547500", "094039.547500", "094041.547500", "094043.547500", "094045.547500", "094047.547500", "094049.547500", "094051.547500", "094053.547500", "094055.547500", "094057.547500", "094059.547500", "094101.547500", "094103.547500", "094105.547500", "094107.547500", "094109.547500", "094111.547500", "094113.547500", "094115.547500", "094117.547500", "094119.547500", "094121.547500", "094123.547500", "094125.547500", "094127.547500", "094129.547500", "094131.547500", "094133.547500", "094135.547500", "094137.547500", "094139.547500", "094141.547500", "094143.547500", "094145.547500", "094147.547500", "094149.547500", "094151.547500", "094153.547500", "094155.547500", "094157.547500", "094159.547500", "094201.547500", "094203.547500", "094205.547500", "094207.547500", "094209.547500", "094211.547500", "094213.547500", "094215.547500", "094217.547500", "094219.547500", "094221.547500", "094223.547500", "094225.547500", "094227.547500", "094229.547500", "094231.547500", "094233.547500", "094235.547500", "094237.547500", "094239.547500", "094241.547500", "094243.547500", "094245.547500", "094247.547500", "094249.547500", "094251.547500", "094253.547500", "094255.547500", "094257.547500", "094259.547500", "094301.547500", "094303.547500", "094305.547500", "094307.547500", "094309.547500", "094311.547500", "094313.547500", "094315.547500", "094317.547500", "094319.547500", "094321.547500", "094323.547500", "094325.547500", "094327.547500", "094329.547500", "094331.547500", "094333.547500", "094335.547500", "094337.547500", "094339.547500", "094341.547500", "094343.547500", "094345.547500", "094347.547500", "094349.547500", "094351.547500", "094353.547500", "094355.547500", "094357.547500", "094359.547500", "094401.547500", "094403.547500", "094405.547500", "094407.547500", "094409.547500", "094411.547500", "094413.547500", "094415.547500", "094417.547500", "094419.547500", "094421.547500", "094423.547500"],
      "ContentTime": ["093841.810000", "093841.814000", "093841.816000", "093841.819000", "093841.821000", "093841.824000", "093841.826000", "093841.829000", "093841.832000", "093841.834000", "093841.837000", "093841.839000", "093841.842000", "093841.844000", "093841.847000", "093841.849000", "093841.852000", "093841.854000", "093841.856000", "093841.859000", "093841.861000", "093841.864000", "093841.866000", "093841.869000", "093841.871000", "093841.874000", "093841.876000", "093841.879000", "093921.797000", "093921.800000", "093921.803000", "093921.805000", "093921.808000", "093921.810000", "093921.813000", "093921.815000", "093921.818000", "093921.820000", "093921.823000", "093921.825000", "093921.828000", "093921.830000", "093921.833000", "093921.835000", "093921.838000", "093921.840000", "093921.843000", "093921.851000", "094001.796000", "094001.799000", "094001.802000", "094001.804000", "094001.807000", "094001.813000", "094001.816000", "094001.818000", "094001.821000", "094001.823000", "094001.826000", "094001.828000", "094001.831000", "094001.833000", "094001.836000", "094001.839000", "094001.841000", "094001.844000", "094001.846000", "094001.849000", "094041.797000", "094041.799000", "094041.802000", "094041.804000", "094041.807000", "094041.809000", "094041.812000", "094041.814000", "094041.817000", "094041.819000", "094041.822000", "094041.825000", "094041.827000", "094041.830000", "094041.832000", "094041.835000", "094041.837000", "094041.840000", "094041.842000", "094041.845000", "094101.796000", "094101.799000", "094101.802000", "094101.804000", "094101.807000", "094101.809000", "094101.812000", "094101.814000", "094101.817000", "094101.819000", "094141.797000", "094141.800000", "094141.803000", "094141.805000", "094141.808000", "094141.810000", "094141.813000", "094141.815000", "094141.818000", "094141.820000", "094141.823000", "094141.825000", "094141.828000", "094141.830000", "094141.833000", "094141.835000", "094141.838000", "094141.840000", "094141.843000", "094141.845000", "094221.796000", "094221.799000", "094221.802000", "094221.804000", "094221.807000", "094221.809000", "094221.812000", "094221.814000", "094221.817000", "094221.829000", "094221.832000", "094221.834000", "094221.837000", "094221.839000", "094221.842000", "094221.844000", "094221.847000", "094221.849000", "094221.852000", "094221.854000", "094301.796000", "094301.799000", "094301.802000", "094301.804000", "094301.807000", "094301.809000", "094301.812000", "094301.814000", "094301.817000", "094301.820000", "094301.822000", "094301.825000", "094301.827000", "094301.830000", "094301.832000", "094301.835000", "094301.837000", "094301.840000", "094301.843000", "094301.845000", "094341.797000", "094341.800000", "094341.818000", "094341.821000", "094341.823000", "094341.826000", "094341.828000", "094341.831000", "094341.833000", "094341.836000", "094341.838000", "094341.841000", "094341.843000", "094341.846000", "094341.848000", "094341.851000", "094341.853000", "094341.856000", "094341.858000", "094341.861000", "094421.796000", "094421.799000", "094421.802000", "094421.804000", "094421.807000", "094421.809000", "094421.812000", "094421.815000", "094421.817000", "094421.820000", "094421.822000", "094421.825000", "094421.827000", "094421.830000", "094421.832000", "094421.835000", "094421.837000", "094421.840000", "094421.843000", "094421.845000", "094425.518000", "094425.521000"],
      "InstanceCreationTime": ["093841.810000", "093841.814000", "093841.816000", "093841.819000", "093841.821000", "093841.824000", "093841.826000", "093841.829000", "093841.832000", "093841.834000", "093841.837000", "093841.839000", "093841.842000", "093841.844000", "093841.847000", "093841.849000", "093841.852000", "093841.854000", "093841.856000", "093841.859000", "093841.861000", "093841.864000", "093841.866000", "093841.869000", "093841.871000", "093841.874000", "093841.876000", "093841.879000", "093921.797000", "093921.800000", "093921.803000", "093921.805000", "093921.808000", "093921.810000", "093921.813000", "093921.815000", "093921.818000", "093921.820000", "093921.823000", "093921.825000", "093921.828000", "093921.830000", "093921.833000", "093921.835000", "093921.838000", "093921.840000", "093921.843000", "093921.851000", "094001.796000", "094001.799000", "094001.802000", "094001.804000", "094001.807000", "094001.813000", "094001.816000", "094001.818000", "094001.821000", "094001.823000", "094001.826000", "094001.828000", "094001.831000", "094001.833000", "094001.836000", "094001.839000", "094001.841000", "094001.844000", "094001.846000", "094001.849000", "094041.797000", "094041.799000", "094041.802000", "094041.804000", "094041.807000", "094041.809000", "094041.812000", "094041.814000", "094041.817000", "094041.819000", "094041.822000", "094041.825000", "094041.827000", "094041.830000", "094041.832000", "094041.835000", "094041.837000", "094041.840000", "094041.842000", "094041.845000", "094101.796000", "094101.799000", "094101.802000", "094101.804000", "094101.807000", "094101.809000", "094101.812000", "094101.814000", "094101.817000", "094101.819000", "094141.797000", "094141.800000", "094141.803000", "094141.805000", "094141.808000", "094141.810000", "094141.813000", "094141.815000", "094141.818000", "094141.820000", "094141.823000", "094141.825000", "094141.828000", "094141.830000", "094141.833000", "094141.835000", "094141.838000", "094141.840000", "094141.843000", "094141.845000", "094221.796000", "094221.799000", "094221.802000", "094221.804000", "094221.807000", "094221.809000", "094221.812000", "094221.814000", "094221.817000", "094221.829000", "094221.832000", "094221.834000", "094221.837000", "094221.839000", "094221.842000", "094221.844000", "094221.847000", "094221.849000", "094221.852000", "094221.854000", "094301.796000", "094301.799000", "094301.802000", "094301.804000", "094301.807000", "094301.809000", "094301.812000", "094301.814000", "094301.817000", "094301.820000", "094301.822000", "094301.825000", "094301.827000", "094301.830000", "094301.832000", "094301.835000", "094301.837000", "094301.840000", "094301.843000", "094301.845000", "094341.797000", "094341.800000", "094341.818000", "094341.821000", "094341.823000", "094341.826000", "094341.828000", "094341.831000", "094341.833000", "094341.836000", "094341.838000", "094341.841000", "094341.843000", "094341.846000", "094341.848000", "094341.851000", "094341.853000", "094341.856000", "094341.858000", "094341.861000", "094421.796000", "094421.799000", "094421.802000", "094421.804000", "094421.807000", "094421.809000", "094421.812000", "094421.815000", "094421.817000", "094421.820000", "094421.822000", "094421.825000", "094421.827000", "094421.830000", "094421.832000", "094421.835000", "094421.837000", "094421.840000", "094421.843000", "094421.845000", "094425.518000", "094425.521000"],
      "InstanceNumber": [1, 2, 3, 4, 5, 6, 7, 8, 9, 10, 11, 12, 13, 14, 15, 16, 17, 18, 19, 20, 21, 22, 23, 24, 25, 26, 27, 28, 29, 30, 31, 32, 33, 34, 35, 36, 37, 38, 39, 40, 41, 42, 43, 44, 45, 46, 47, 48, 49, 50, 51, 52, 53, 54, 55, 56, 57, 58, 59, 60, 61, 62, 63, 64, 65, 66, 67, 68, 69, 70, 71, 72, 73, 74, 75, 76, 77, 78, 79, 80, 81, 82, 83, 84, 85, 86, 87, 88, 89, 90, 91, 92, 93, 94, 95, 96, 97, 98, 99, 100, 101, 102, 103, 104, 105, 106, 107, 108, 109, 110, 111, 112, 113, 114, 115, 116, 117, 118, 119, 120, 121, 122, 123, 124, 125, 126, 127, 128, 129, 130, 131, 132, 133, 134, 135, 136, 137, 138, 139, 140, 141, 142, 143, 144, 145, 146, 147, 148, 149, 150, 151, 152, 153, 154, 155, 156, 157, 158, 159, 160, 161, 162, 163, 164, 165, 166, 167, 168, 169, 170, 171, 172, 173, 174, 175, 176, 177, 178, 179, 180, 181, 182, 183, 184, 185, 186, 187, 188, 189, 190, 191, 192, 193, 194, 195, 196, 197, 198, 199, 200],
      "LargestImagePixelValue": [3983, 3982, 3981, 3983, 3983, 3985, 3984, 3981, 3986, 3990, 3981, 3986, 3984, 3983, 3982, 3987, 3982, 3984, 3980, 3985, 3981, 3982, 3983, 3982, 3981, 3982, 3985, 3986, 3986, 3983, 3984, 3987, 3987, 3986, 3984, 3985, 3978, 3980, 3984, 3982, 3984, 3984, 3985, 3982, 3985, 3988, 3986, 3985, 3982, 3982, 3985, 3984, 3985, 3985, 3983, 3982, 3985, 3985, 3985, 3984, 3979, 3983, 3979, 3981, 3982, 3984, 3986, 3985, 3982, 3982, 3987, 3984, 3982, 3985, 3984, 3981, 3984, 3985, 3984, 3985, 3983, 3983, 3985, 3980, 3986, 3983, 3985, 3981, 3989, 3984, 3985, 3980, 3981, 3986, 3990, 3987, 3985, 3985, 3983, 3983, 3982, 3980, 3978, 3984, 3983, 3980, 3980, 3980, 3983, 3980, 3979, 3983, 3980, 3980, 3984, 3981, 3985, 3986, 3982, 3982, 3983, 3983, 3982, 3982, 3986, 3987, 3987, 3983, 3981, 3983, 3983, 3986, 3986, 3983, 3982, 3987, 3983, 3981, 3983, 3980, 3982, 3983, 3981, 3982, 3983, 3984, 3981, 3985, 3983, 3984, 3981, 3984, 3985, 3983, 3983, 3980, 3981, 3983, 3977, 3984, 3984, 3986, 3984, 3982, 3983, 3982, 3981, 3981, 3980, 3984, 3982, 3982, 3981, 3983, 3983, 3983, 3981, 3982, 3984, 3984, 3983, 3984, 3979, 3982, 3978, 3985, 3980, 3981, 3982, 3985, 3981, 3983, 3985, 3981, 3983, 3986, 3979, 3986, 3984, 3983],
      "WindowCenter": [1403.0, 1403.0, 1403.0, 1403.0, 1403.0, 1403.0, 1403.0, 1403.0, 1402.0, 1402.0, 1403.0, 1402.0, 1402.0, 1403.0, 1403.0, 1403.0, 1403.0, 1403.0, 1403.0, 1402.0, 1402.0, 1402.0, 1402.0, 1402.0, 1402.0, 1402.0, 1402.0, 1402.0, 1402.0, 1402.0, 1402.0, 1403.0, 1403.0, 1403.0, 1403.0, 1403.0, 1403.0, 1402.0, 1403.0, 1402.0, 1402.0, 1403.0, 1402.0, 1403.0, 1402.0, 1403.0, 1402.0, 1403.0, 1402.0, 1403.0, 1403.0, 1403.0, 1402.0, 1402.0, 1402.0, 1402.0, 1402.0, 1402.0, 1402.0, 1402.0, 1402.0, 1401.0, 1402.0, 1402.0, 1401.0, 1402.0, 1402.0, 1401.0, 1402.0, 1402.0, 1401.0, 1401.0, 1402.0, 1402.0, 1401.0, 1401.0, 1402.0, 1401.0, 1402.0, 1402.0, 1401.0, 1401.0, 1401.0, 1402.0, 1402.0, 1402.0, 1401.0, 1402.0, 1402.0, 1401.0, 1401.0, 1401.0, 1402.0, 1402.0, 1401.0, 1402.0, 1402.0, 1401.0, 1401.0, 1401.0, 1401.0, 1400.0, 1401.0, 1401.0, 1401.0, 1401.0, 1401.0, 1401.0, 1401.0, 1401.0, 1401.0, 1401.0, 1401.0, 1400.0, 1400.0, 1400.0, 1400.0, 1400.0, 1400.0, 1400.0, 1400.0, 1399.0, 1400.0, 1400.0, 1400.0, 1400.0, 1400.0, 1400.0, 1400.0, 1400.0, 1401.0, 1400.0, 1400.0, 1400.0, 1400.0, 1400.0, 1401.0, 1400.0, 1400.0, 1400.0, 1400.0, 1400.0, 1400.0, 1400.0, 1400.0, 1400.0, 1400.0, 1400.0, 1399.0, 1399.0, 1400.0, 1400.0, 1400.0, 1400.0, 1400.0, 1400.0, 1399.0, 1400.0, 1400.0, 1400.0, 1400.0, 1399.0, 1399.0, 1399.0, 1400.0, 1400.0, 1399.0, 1399.0, 1399.0, 1399.0, 1399.0, 1399.0, 1399.0, 1399.0, 1399.0, 1399.0, 1399.0, 1399.0, 1399.0, 1399.0, 1399.0, 1400.0, 1399.0, 1399.0, 1399.0, 1399.0, 1399.0, 1399.0, 1399.0, 1399.0, 1399.0, 1399.0, 1399.0, 1399.0, 1399.0, 1399.0, 1399.0, 1399.0, 1399.0, 1399.0],
      "WindowWidth": [3333.0, 3333.0, 3333.0, 3333.0, 3333.0, 3333.0, 3333.0, 3333.0, 3332.0, 3332.0, 3332.0, 3332.0, 3332.0, 3332.0, 3332.0, 3332.0, 3332.0, 3332.0, 3332.0, 3332.0, 3332.0, 3332.0, 3332.0, 3332.0, 3332.0, 3332.0, 3332.0, 3332.0, 3332.0, 3332.0, 3332.0, 3333.0, 3333.0, 3333.0, 3333.0, 3333.0, 3332.0, 3332.0, 3332.0, 3332.0, 3332.0, 3332.0, 3332.0, 3332.0, 3332.0, 3332.0, 3332.0, 3332.0, 3332.0, 3333.0, 3333.0, 3333.0, 3332.0, 3332.0, 3332.0, 3332.0, 3332.0, 3332.0, 3332.0, 3332.0, 3332.0, 3332.0, 3332.0, 3332.0, 3332.0, 3332.0, 3332.0, 3332.0, 3332.0, 3332.0, 3332.0, 3332.0, 3332.0, 3332.0, 3332.0, 3332.0, 3332.0, 3332.0, 3332.0, 3332.0, 3332.0, 3332.0, 3332.0, 3332.0, 3332.0, 3332.0, 3332.0, 3332.0, 3332.0, 3332.0, 3332.0, 3332.0, 3332.0, 3332.0, 3332.0, 3332.0, 3332.0, 3332.0, 3332.0, 3332.0, 3332.0, 3332.0, 3331.0, 3331.0, 3331.0, 3332.0, 3331.0, 3331.0, 3331.0, 3331.0, 3331.0, 3331.0, 3331.0, 3331.0, 3331.0, 3331.0, 3331.0, 3331.0, 3331.0, 3331.0, 3331.0, 3331.0, 3331.0, 3330.0, 3331.0, 3331.0, 3331.0, 3331.0, 3331.0, 3331.0, 3331.0, 3331.0, 3331.0, 3331.0, 3331.0, 3331.0, 3331.0, 3331.0, 3331.0, 3330.0, 3330.0, 3330.0, 3330.0, 3330.0, 3330.0, 3330.0, 3330.0, 3330.0, 3330.0, 3330.0, 3330.0, 3330.0, 3330.0, 3330.0, 3330.0, 3330.0, 3330.0, 3330.0, 3330.0, 3330.0, 3330.0, 3330.0, 3330.0, 3330.0, 3330.0, 3330.0, 3330.0, 3330.0, 3330.0, 3330.0, 3330.0, 3330.0, 3330.0, 3330.0, 3330.0, 3330.0, 3330.0, 3330.0, 3330.0, 3330.0, 3330.0, 3330.0, 3330.0, 3330.0, 3330.0, 3330.0, 3330.0, 3330.0, 3330.0, 3330.0, 3330.0, 3330.0, 3330.0, 3330.0, 3330.0, 3330.0, 3330.0, 3330.0, 3329.0, 3329.0]
    },
    "slices": {}
  }
}