{
  "AcquisitionMatrixPE": 80,
  "AcquisitionNumber": 1,
  "AcquisitionTime": "09:44:32.530000",
  "BandwidthPerPixelPhaseEncode": 25,
  "BaseResolution": 80,
  "BodyPartExamined": "BRAIN",
  "CoilCombinationMethod": "Sum of Squares",
  "ConsistencyInfo": "N4_VE11C_LATEST_20160120",
  "ConversionSoftware": "dcm2niix",
  "ConversionSoftwareVersion": "v1.0.20220720",
  "DerivedVendorReportedEchoSpacing": 0.0005,
  "DeviceSerialNumber": "66112",
  "DwellTime": 2.7e-06,
  "EchoTime": 0.03,
  "EchoTrainLength": 80,
  "EffectiveEchoSpacing": 0.0005,
  "FlipAngle": 10,
  "HeudiconvVersion": "0.13.1",
  "ImageOrientationPatientDICOM": [0.995688, -0.0925791, -0.00590765, 0.0897386, 0.945085, 0.314263],
  "ImageOrientationText": "Tra>Cor(18.3)>Sag(1.3)",
  "ImageType": [
    "ORIGINAL",
    "PRIMARY",
    "M",
    "ND",
    "NORM",
    "MOSAIC"
],
  "ImagingFrequency": 123.252,
  "InPlanePhaseEncodingDirectionDICOM": "COL",
  "InstitutionAddress": "Maynard 3,Hanover,NH,US,03755",
  "InstitutionName": "Dartmouth College - PBS",
  "InstitutionalDepartmentName": "Department",
  "MRAcquisitionType": "2D",
  "MagneticFieldStrength": 3,
  "Manufacturer": "Siemens",
  "ManufacturersModelName": "Prisma",
  "MatrixCoilMode": "SENSE",
  "Modality": "MR",
  "NonlinearGradientCorrection": false,
  "PartialFourier": 1,
  "PatientPosition": "HFS",
  "PercentPhaseFOV": 100,
  "PercentSampling": 100,
  "PhaseEncodingDirection": "j-",
  "PhaseEncodingSteps": 80,
  "PhaseResolution": 1,
  "PixelBandwidth": 2315,
  "ProcedureStepDescription": "dbic^QA",
  "ProtocolName": "func-bold_fa-10",
  "PulseSequenceDetails": "%SiemensSeq%\\ep2d_bold",
  "ReceiveCoilActiveElements": "HC1-7;NC1,2",
  "ReceiveCoilName": "HeadNeck_64",
  "ReconMatrixPE": 80,
  "RepetitionTime": 2,
  "SAR": 0.0076463,
  "ScanOptions": "FS",
  "ScanningSequence": "EP",
  "SequenceName": "*epfid2d1_80",
  "SequenceVariant": "SK",
  "SeriesDescription": "func-bold_fa-10",
  "SeriesNumber": 9,
  "ShimSetting": [4140, -7682, -7506, 216, -80, -361, -44, 91],
  "SliceThickness": 3.5,
  "SliceTiming": [0.99, 0, 1.055, 0.065, 1.1225, 0.1325, 1.1875, 0.1975, 1.255, 0.265, 1.32, 0.33, 1.385, 0.395, 1.4525, 0.4625, 1.5175, 0.5275, 1.5825, 0.595, 1.65, 0.66, 1.715, 0.725, 1.7825, 0.7925, 1.8475, 0.8575, 1.9125, 0.925],
  "SoftwareVersions": "syngo MR E11",
  "SpacingBetweenSlices": 3.99,
  "StationName": "AWP66112",
  "TotalReadoutTime": 0.0395,
  "TxRefAmp": 213.632,
  "dcmmeta_affine": [
    [-2.987063407897949, 0.26921582221984863, 0.09380865842103958, 109.71661376953125],
    [0.27773717045783997, 2.8352551460266113, 1.250617504119873, -124.88452911376953],
    [-0.01772293634712696, -0.9427889585494995, 3.7877771854400635, -32.40690994262695],
    [0.0, 0.0, 0.0, 1.0]
],
  "dcmmeta_reorient_transform": [
    [0.0, -1.0, 0.0, 79.0],
    [1.0, 0.0, 0.0, 0.0],
    [0.0, 0.0, 1.0, 0.0],
    [0.0, 0.0, 0.0, 1.0]
],
  "dcmmeta_shape": [80, 80, 30, 200],
  "dcmmeta_slice_dim": 2,
  "dcmmeta_version": 0.6,
  "global": {
    "const": {
      "AccessionNumber": "qa64",
      "AcquisitionMatrix": [80, 0, 0, 80],
      "AngioFlag": "N",
      "BitsAllocated": 16,
      "BitsStored": 12,
      "BodyPartExamined": "BRAIN",
      "Columns": 480,
      "EchoNumbers": 1,
      "EchoTime": 30.0,
      "EchoTrainLength": 80,
      "FlipAngle": 10.0,
      "HighBit": 11,
      "ImageOrientationPatient": [0.99568781174227, -0.0925790541691, -0.0059076456432, 0.08973860450469, 0.94508505382515, 0.31426298524941],
      "ImagePositionPatient": [-782.24051386037, -610.60422505251, -291.90044229483],
      "ImageType": [
        "ORIGINAL",
        "PRIMARY",
        "M",
        "ND",
        "NORM",
        "MOSAIC"
],
      "ImagedNucleus": "1H",
      "ImagingFrequency": 123.252379,
      "InPlanePhaseEncodingDirection": "COL",
      "MRAcquisitionType": "2D",
      "MagneticFieldStrength": 3.0,
      "Manufacturer": "SIEMENS",
      "ManufacturerModelName": "Prisma",
      "Modality": "MR",
      "NumberOfAverages": 1.0,
      "NumberOfPhaseEncodingSteps": 80,
      "PercentPhaseFieldOfView": 100.0,
      "PercentSampling": 100.0,
      "PerformedProcedureStepStartTime": "091832.513000",
      "PhotometricInterpretation": "MONOCHROME2",
      "PixelBandwidth": 2315.0,
      "PixelRepresentation": 0,
      "PixelSpacing": [3.0, 3.0],
      "ProtocolName": "func-bold_fa-10",
      "RepetitionTime": 2000.0,
      "Rows": 480,
      "SAR": 0.00764630156002,
      "SamplesPerPixel": 1,
      "ScanOptions": "FS",
      "ScanningSequence": "EP",
      "SequenceName": "*epfid2d1_80",
      "SequenceVariant": "SK",
      "SeriesDescription": "func-bold_fa-10",
      "SeriesNumber": 9,
      "SeriesTime": "094521.657000",
      "SliceLocation": -67.328463582442,
      "SliceThickness": 3.5,
      "SmallestImagePixelValue": 0,
      "SoftwareVersions": "syngo MR E11",
      "SpacingBetweenSlices": 3.9900000606644,
      "SpecificCharacterSet": "ISO_IR 100",
      "StudyID": "14",
      "StudyTime": "091832.446000",
      "TransmitCoilName": "Body",
      "VariableFlipAngleFlag": "N",
      "WindowCenterWidthExplanation": "Algo1",
      "dBdt": 0.0},
    "slices": {}
  },
  "time": {
    "samples": {
      "AcquisitionNumber": [1, 2, 3, 4, 5, 6, 7, 8, 9, 10, 11, 12, 13, 14, 15, 16, 17, 18, 19, 20, 21, 22, 23, 24, 25, 26, 27, 28, 29, 30, 31, 32, 33, 34, 35, 36, 37, 38, 39, 40, 41, 42, 43, 44, 45, 46, 47, 48, 49, 50, 51, 52, 53, 54, 55, 56, 57, 58, 59, 60, 61, 62, 63, 64, 65, 66, 67, 68, 69, 70, 71, 72, 73, 74, 75, 76, 77, 78, 79, 80, 81, 82, 83, 84, 85, 86, 87, 88, 89, 90, 91, 92, 93, 94, 95, 96, 97, 98, 99, 100, 101, 102, 103, 104, 105, 106, 107, 108, 109, 110, 111, 112, 113, 114, 115, 116, 117, 118, 119, 120, 121, 122, 123, 124, 125, 126, 127, 128, 129, 130, 131, 132, 133, 134, 135, 136, 137, 138, 139, 140, 141, 142, 143, 144, 145, 146, 147, 148, 149, 150, 151, 152, 153, 154, 155, 156, 157, 158, 159, 160, 161, 162, 163, 164, 165, 166, 167, 168, 169, 170, 171, 172, 173, 174, 175, 176, 177, 178, 179, 180, 181, 182, 183, 184, 185, 186, 187, 188, 189, 190, 191, 192, 193, 194, 195, 196, 197, 198, 199, 200],
      "AcquisitionTime": ["094432.530000", "094434.530000", "094436.530000", "094438.530000", "094440.530000", "094442.530000", "094444.530000", "094446.530000", "094448.530000", "094450.530000", "094452.530000", "094454.530000", "094456.530000", "094458.530000", "094500.530000", "094502.530000", "094504.530000", "094506.530000", "094508.530000", "094510.530000", "094512.530000", "094514.530000", "094516.530000", "094518.530000", "094520.530000", "094522.530000", "094524.530000", "094526.530000", "094528.530000", "094530.530000", "094532.530000", "094534.530000", "094536.530000", "094538.530000", "094540.530000", "094542.530000", "094544.530000", "094546.530000", "094548.530000", "094550.530000", "094552.530000", "094554.530000", "094556.530000", "094558.530000", "094600.530000", "094602.530000", "094604.530000", "094606.530000", "094608.530000", "094610.530000", "094612.530000", "094614.530000", "094616.530000", "094618.530000", "094620.530000", "094622.530000", "094624.530000", "094626.530000", "094628.530000", "094630.530000", "094632.530000", "094634.530000", "094636.530000", "094638.530000", "094640.530000", "094642.530000", "094644.530000", "094646.530000", "094648.530000", "094650.530000", "094652.530000", "094654.530000", "094656.530000", "094658.530000", "094700.530000", "094702.530000", "094704.530000", "094706.530000", "094708.530000", "094710.530000", "094712.530000", "094714.530000", "094716.530000", "094718.530000", "094720.530000", "094722.530000", "094724.530000", "094726.530000", "094728.530000", "094730.530000", "094732.530000", "094734.530000", "094736.530000", "094738.530000", "094740.530000", "094742.530000", "094744.530000", "094746.530000", "094748.530000", "094750.530000", "094752.530000", "094754.530000", "094756.530000", "094758.530000", "094800.530000", "094802.530000", "094804.530000", "094806.530000", "094808.530000", "094810.530000", "094812.530000", "094814.530000", "094816.530000", "094818.530000", "094820.530000", "094822.530000", "094824.530000", "094826.530000", "094828.530000", "094830.530000", "094832.530000", "094834.530000", "094836.530000", "094838.530000", "094840.530000", "094842.530000", "094844.530000", "094846.530000", "094848.530000", "094850.530000", "094852.530000", "094854.530000", "094856.530000", "094858.530000", "094900.530000", "094902.530000", "094904.530000", "094906.530000", "094908.530000", "094910.530000", "094912.530000", "094914.530000", "094916.530000", "094918.530000", "094920.530000", "094922.530000", "094924.530000", "094926.530000", "094928.530000", "094930.530000", "094932.530000", "094934.530000", "094936.530000", "094938.530000", "094940.530000", "094942.530000", "094944.530000", "094946.530000", "094948.530000", "094950.530000", "094952.530000", "094954.530000", "094956.530000", "094958.530000", "095000.530000", "095002.530000", "095004.530000", "095006.530000", "095008.530000", "095010.530000", "095012.530000", "095014.530000", "095016.530000", "095018.530000", "095020.530000", "095022.530000", "095024.530000", "095026.530000", "095028.530000", "095030.530000", "095032.530000", "095034.530000", "095036.530000", "095038.530000", "095040.530000", "095042.530000", "095044.530000", "095046.530000", "095048.530000", "095050.530000", "095052.530000", "095054.530000", "095056.530000", "095058.530000", "095100.530000", "095102.530000", "095104.530000", "095106.530000", "095108.530000", "095110.530000"],
      "ContentTime": ["094521.660000", "094521.664000", "094521.666000", "094521.669000", "094521.671000", "094521.674000", "094521.676000", "094521.679000", "094521.681000", "094521.684000", "094521.686000", "094521.688000", "094521.691000", "094521.693000", "094521.696000", "094521.698000", "094521.701000", "094521.712000", "094521.715000", "094521.717000", "094521.720000", "094521.722000", "094521.725000", "094521.727000", "094601.657000", "094601.659000", "094601.662000", "094601.664000", "094601.667000", "094601.669000", "094601.672000", "094601.674000", "094601.677000", "094601.679000", "094601.682000", "094601.684000", "094601.687000", "094601.690000", "094601.692000", "094601.694000", "094601.697000", "094601.699000", "094601.702000", "094601.704000", "094641.655000", "094641.658000", "094641.661000", "094641.663000", "094641.666000", "094641.668000", "094641.671000", "094641.674000", "094641.676000", "094641.678000", "094641.681000", "094641.684000", "094641.686000", "094641.689000", "094641.691000", "094641.694000", "094641.696000", "094641.699000", "094641.701000", "094641.704000", "094721.655000", "094721.658000", "094721.661000", "094721.663000", "094721.677000", "094721.680000", "094721.683000", "094721.685000", "094721.688000", "094721.690000", "094721.692000", "094721.695000", "094721.697000", "094721.700000", "094721.702000", "094721.705000", "094721.707000", "094721.710000", "094721.712000", "094721.715000", "094801.655000", "094801.658000", "094801.661000", "094801.663000", "094801.666000", "094801.668000", "094801.671000", "094801.673000", "094801.676000", "094801.688000", "094801.690000", "094801.693000", "094801.695000", "094801.698000", "094801.700000", "094801.703000", "094801.705000", "094801.708000", "094801.710000", "094801.713000", "094841.657000", "094841.659000", "094841.662000", "094841.665000", "094841.667000", "094841.670000", "094841.672000", "094841.675000", "094841.677000", "094841.680000", "094841.682000", "094841.685000", "094841.687000", "094841.690000", "094841.692000", "094841.695000", "094841.697000", "094841.700000", "094841.702000", "094841.705000", "094921.655000", "094921.658000", "094921.661000", "094921.663000", "094921.666000", "094921.668000", "094921.671000", "094921.673000", "094921.676000", "094921.678000", "094921.681000", "094921.683000", "094921.686000", "094921.688000", "094921.691000", "094921.693000", "094921.696000", "094921.698000", "094921.701000", "094921.704000", "095001.655000", "095001.658000", "095001.661000", "095001.663000", "095001.666000", "095001.668000", "095001.671000", "095001.673000", "095001.676000", "095001.678000", "095001.681000", "095001.690000", "095001.693000", "095001.695000", "095001.698000", "095001.700000", "095001.703000", "095001.705000", "095001.708000", "095001.710000", "095041.657000", "095041.659000", "095041.662000", "095041.664000", "095041.667000", "095041.670000", "095041.672000", "095041.675000", "095041.677000", "095041.680000", "095041.682000", "095041.685000", "095041.687000", "095041.690000", "095041.703000", "095041.706000", "095041.708000", "095041.711000", "095041.713000", "095041.716000", "095112.138000", "095112.141000", "095112.144000", "095112.146000", "095112.149000", "095112.152000", "095112.154000", "095112.157000", "095112.159000", "095112.162000", "095112.164000", "095112.167000", "095112.173000", "095112.180000", "095112.189000", "095112.195000"],
      "InstanceCreationTime": ["094521.660000", "094521.664000", "094521.666000", "094521.669000", "094521.671000", "094521.674000", "094521.676000", "094521.679000", "094521.681000", "094521.684000", "094521.686000", "094521.688000", "094521.691000", "094521.693000", "094521.696000", "094521.698000", "094521.701000", "094521.712000", "094521.715000", "094521.717000", "094521.720000", "094521.722000", "094521.725000", "094521.727000", "094601.657000", "094601.659000", "094601.662000", "094601.664000", "094601.667000", "094601.669000", "094601.672000", "094601.674000", "094601.677000", "094601.679000", "094601.682000", "094601.684000", "094601.687000", "094601.690000", "094601.692000", "094601.694000", "094601.697000", "094601.699000", "094601.702000", "094601.704000", "094641.655000", "094641.658000", "094641.661000", "094641.663000", "094641.666000", "094641.668000", "094641.671000", "094641.674000", "094641.676000", "094641.678000", "094641.681000", "094641.684000", "094641.686000", "094641.689000", "094641.691000", "094641.694000", "094641.696000", "094641.699000", "094641.701000", "094641.704000", "094721.655000", "094721.658000", "094721.661000", "094721.663000", "094721.677000", "094721.680000", "094721.683000", "094721.685000", "094721.688000", "094721.690000", "094721.692000", "094721.695000", "094721.697000", "094721.700000", "094721.702000", "094721.705000", "094721.707000", "094721.710000", "094721.712000", "094721.715000", "094801.655000", "094801.658000", "094801.661000", "094801.663000", "094801.666000", "094801.668000", "094801.671000", "094801.673000", "094801.676000", "094801.688000", "094801.690000", "094801.693000", "094801.695000", "094801.698000", "094801.700000", "094801.703000", "094801.705000", "094801.708000", "094801.710000", "094801.713000", "094841.657000", "094841.659000", "094841.662000", "094841.665000", "094841.667000", "094841.670000", "094841.672000", "094841.675000", "094841.677000", "094841.680000", "094841.682000", "094841.685000", "094841.687000", "094841.690000", "094841.692000", "094841.695000", "094841.697000", "094841.700000", "094841.702000", "094841.705000", "094921.655000", "094921.658000", "094921.661000", "094921.663000", "094921.666000", "094921.668000", "094921.671000", "094921.673000", "094921.676000", "094921.678000", "094921.681000", "094921.683000", "094921.686000", "094921.688000", "094921.691000", "094921.693000", "094921.696000", "094921.698000", "094921.701000", "094921.704000", "095001.655000", "095001.658000", "095001.661000", "095001.663000", "095001.666000", "095001.668000", "095001.671000", "095001.673000", "095001.676000", "095001.678000", "095001.681000", "095001.690000", "095001.693000", "095001.695000", "095001.698000", "095001.700000", "095001.703000", "095001.705000", "095001.708000", "095001.710000", "095041.657000", "095041.659000", "095041.662000", "095041.664000", "095041.667000", "095041.670000", "095041.672000", "095041.675000", "095041.677000", "095041.680000", "095041.682000", "095041.685000", "095041.687000", "095041.690000", "095041.703000", "095041.706000", "095041.708000", "095041.711000", "095041.713000", "095041.716000", "095112.138000", "095112.141000", "095112.144000", "095112.146000", "095112.149000", "095112.152000", "095112.154000", "095112.157000", "095112.159000", "095112.162000", "095112.164000", "095112.167000", "095112.173000", "095112.180000", "095112.189000", "095112.195000"],
      "InstanceNumber": [1, 2, 3, 4, 5, 6, 7, 8, 9, 10, 11, 12, 13, 14, 15, 16, 17, 18, 19, 20, 21, 22, 23, 24, 25, 26, 27, 28, 29, 30, 31, 32, 33, 34, 35, 36, 37, 38, 39, 40, 41, 42, 43, 44, 45, 46, 47, 48, 49, 50, 51, 52, 53, 54, 55, 56, 57, 58, 59, 60, 61, 62, 63, 64, 65, 66, 67, 68, 69, 70, 71, 72, 73, 74, 75, 76, 77, 78, 79, 80, 81, 82, 83, 84, 85, 86, 87, 88, 89, 90, 91, 92, 93, 94, 95, 96, 97, 98, 99, 100, 101, 102, 103, 104, 105, 106, 107, 108, 109, 110, 111, 112, 113, 114, 115, 116, 117, 118, 119, 120, 121, 122, 123, 124, 125, 126, 127, 128, 129, 130, 131, 132, 133, 134, 135, 136, 137, 138, 139, 140, 141, 142, 143, 144, 145, 146, 147, 148, 149, 150, 151, 152, 153, 154, 155, 156, 157, 158, 159, 160, 161, 162, 163, 164, 165, 166, 167, 168, 169, 170, 171, 172, 173, 174, 175, 176, 177, 178, 179, 180, 181, 182, 183, 184, 185, 186, 187, 188, 189, 190, 191, 192, 193, 194, 195, 196, 197, 198, 199, 200],
      "LargestImagePixelValue": [653, 651, 652, 654, 654, 652, 656, 651, 651, 655, 652, 651, 653, 654, 651, 651, 651, 657, 651, 654, 651, 651, 651, 650, 652, 651, 653, 651, 652, 654, 650, 656, 655, 652, 653, 652, 652, 655, 653, 655, 651, 654, 651, 649, 655, 652, 651, 653, 653, 651, 651, 653, 654, 654, 652, 653, 652, 654, 654, 657, 653, 656, 653, 650, 653, 650, 652, 657, 653, 656, 652, 654, 651, 651, 653, 648, 651, 653, 652, 653, 653, 651, 653, 652, 651, 653, 653, 652, 654, 651, 652, 651, 652, 653, 652, 653, 655, 652, 652, 650, 652, 655, 651, 649, 657, 654, 652, 650, 653, 650, 653, 652, 656, 652, 651, 654, 654, 651, 652, 653, 651, 652, 650, 649, 652, 654, 654, 652, 655, 651, 655, 654, 650, 656, 652, 652, 654, 651, 649, 651, 652, 653, 653, 650, 654, 655, 653, 653, 650, 648, 651, 653, 651, 650, 653, 653, 652, 653, 652, 650, 654, 651, 652, 651, 651, 651, 651, 654, 649, 650, 653, 651, 651, 647, 650, 653, 648, 650, 654, 653, 650, 655, 653, 651, 649, 650, 653, 652, 652, 651, 652, 653, 653, 652, 652, 651, 651, 650, 652, 653],
      "WindowCenter": [460.0, 460.0, 460.0, 461.0, 460.0, 460.0, 460.0, 460.0, 461.0, 460.0, 460.0, 460.0, 461.0, 460.0, 460.0, 460.0, 461.0, 460.0, 460.0, 460.0, 460.0, 461.0, 460.0, 460.0, 460.0, 460.0, 460.0, 460.0, 460.0, 460.0, 460.0, 460.0, 460.0, 460.0, 460.0, 460.0, 460.0, 460.0, 460.0, 460.0, 460.0, 460.0, 460.0, 459.0, 460.0, 460.0, 460.0, 460.0, 460.0, 460.0, 460.0, 460.0, 460.0, 460.0, 460.0, 460.0, 460.0, 460.0, 460.0, 460.0, 460.0, 460.0, 460.0, 460.0, 460.0, 460.0, 460.0, 460.0, 460.0, 460.0, 460.0, 460.0, 460.0, 460.0, 460.0, 459.0, 460.0, 460.0, 460.0, 460.0, 460.0, 460.0, 460.0, 460.0, 460.0, 460.0, 460.0, 460.0, 460.0, 460.0, 460.0, 460.0, 460.0, 460.0, 460.0, 460.0, 460.0, 460.0, 460.0, 460.0, 460.0, 460.0, 460.0, 459.0, 460.0, 460.0, 459.0, 460.0, 460.0, 460.0, 459.0, 460.0, 460.0, 459.0, 460.0, 460.0, 460.0, 460.0, 459.0, 459.0, 460.0, 459.0, 460.0, 459.0, 460.0, 460.0, 460.0, 460.0, 459.0, 459.0, 460.0, 459.0, 459.0, 459.0, 459.0, 460.0, 459.0, 460.0, 459.0, 460.0, 459.0, 459.0, 459.0, 460.0, 460.0, 460.0, 459.0, 459.0, 459.0, 459.0, 459.0, 459.0, 459.0, 459.0, 459.0, 459.0, 459.0, 459.0, 459.0, 459.0, 459.0, 459.0, 459.0, 459.0, 459.0, 459.0, 459.0, 459.0, 459.0, 459.0, 459.0, 459.0, 459.0, 459.0, 459.0, 459.0, 459.0, 459.0, 459.0, 459.0, 459.0, 459.0, 459.0, 459.0, 459.0, 459.0, 459.0, 459.0, 459.0, 459.0, 459.0, 459.0, 459.0, 459.0, 459.0, 459.0, 459.0, 459.0, 459.0, 459.0],
      "WindowWidth": [955.0, 955.0, 955.0, 955.0, 955.0, 955.0, 955.0, 955.0, 955.0, 955.0, 955.0, 955.0, 955.0, 955.0, 955.0, 955.0, 955.0, 955.0, 955.0, 955.0, 955.0, 955.0, 955.0, 955.0, 955.0, 955.0, 955.0, 955.0, 955.0, 955.0, 955.0, 955.0, 955.0, 955.0, 955.0, 955.0, 955.0, 955.0, 955.0, 955.0, 955.0, 955.0, 954.0, 954.0, 954.0, 954.0, 954.0, 954.0, 954.0, 954.0, 954.0, 954.0, 954.0, 954.0, 954.0, 954.0, 954.0, 954.0, 954.0, 954.0, 954.0, 954.0, 954.0, 954.0, 954.0, 954.0, 954.0, 954.0, 954.0, 954.0, 954.0, 954.0, 954.0, 954.0, 954.0, 954.0, 954.0, 954.0, 954.0, 954.0, 954.0, 954.0, 954.0, 954.0, 954.0, 954.0, 954.0, 954.0, 954.0, 954.0, 954.0, 954.0, 954.0, 954.0, 954.0, 954.0, 954.0, 954.0, 954.0, 954.0, 954.0, 954.0, 954.0, 953.0, 954.0, 954.0, 953.0, 954.0, 954.0, 954.0, 953.0, 954.0, 954.0, 953.0, 954.0, 954.0, 954.0, 954.0, 953.0, 953.0, 954.0, 953.0, 954.0, 953.0, 954.0, 954.0, 954.0, 954.0, 953.0, 953.0, 954.0, 953.0, 953.0, 953.0, 953.0, 954.0, 953.0, 954.0, 952.0, 954.0, 953.0, 953.0, 953.0, 954.0, 954.0, 954.0, 953.0, 953.0, 953.0, 952.0, 953.0, 953.0, 953.0, 953.0, 953.0, 953.0, 953.0, 953.0, 953.0, 953.0, 953.0, 953.0, 953.0, 953.0, 953.0, 953.0, 953.0, 953.0, 952.0, 953.0, 953.0, 953.0, 953.0, 952.0, 953.0, 953.0, 952.0, 953.0, 953.0, 953.0, 953.0, 953.0, 953.0, 953.0, 952.0, 953.0, 953.0, 953.0, 953.0, 953.0, 953.0, 953.0, 953.0, 953.0, 953.0, 953.0, 953.0, 953.0, 953.0, 953.0]
    },
    "slices": {}
  }
}