{
  "AcquisitionMatrixPE": 80,
  "AcquisitionNumber": 1,
  "AcquisitionTime": "08:49:3.190000",
  "BandwidthPerPixelPhaseEncode": 48.077,
  "BaseResolution": 80,
  "BodyPartExamined": "BRAIN",
  "CoilCombinationMethod": "Sum of Squares",
  "ConsistencyInfo": "N4_VE11C_LATEST_20160120",
  "ConversionSoftware": "dcm2niix",
  "ConversionSoftwareVersion": "v1.0.20220720",
  "DerivedVendorReportedEchoSpacing": 0.000519999,
  "DeviceSerialNumber": "66112",
  "DwellTime": 2.7e-06,
  "EchoTime": 0.035,
  "EchoTrainLength": 39,
  "EffectiveEchoSpacing": 0.00026,
  "FlipAngle": 90,
  "HeudiconvVersion": "0.13.1",
  "ImageOrientationPatientDICOM": [0.98467, 0.174064, 0.0112958, -0.16902, 0.936127, 0.308381],
  "ImageOrientationText": "Tra>Cor(17.8)>Sag(-2.5)",
  "ImageType": [
    "ORIGINAL",
    "PRIMARY",
    "M",
    "ND",
    "NORM",
    "MOSAIC"
],
  "ImagingFrequency": 123.252,
  "InPlanePhaseEncodingDirectionDICOM": "COL",
  "InstitutionAddress": "Maynard 3,Hanover,NH,US,03755",
  "InstitutionName": "Dartmouth College - PBS",
  "InstitutionalDepartmentName": "Department",
  "MRAcquisitionType": "2D",
  "MagneticFieldStrength": 3,
  "Manufacturer": "Siemens",
  "ManufacturersModelName": "Prisma",
  "MatrixCoilMode": "GRAPPA",
  "Modality": "MR",
  "NonlinearGradientCorrection": false,
  "ParallelReductionFactorInPlane": 2,
  "PartialFourier": 1,
  "PatientPosition": "HFS",
  "PercentPhaseFOV": 100,
  "PercentSampling": 100,
  "PhaseEncodingDirection": "j-",
  "PhaseEncodingSteps": 79,
  "PhaseResolution": 1,
  "PixelBandwidth": 2315,
  "ProcedureStepDescription": "dbic^QA",
  "ProtocolName": "func-bold_task-rest_acq-p2",
  "PulseSequenceDetails": "%SiemensSeq%\\ep2d_bold",
  "ReceiveCoilActiveElements": "HEA;HEP",
  "ReceiveCoilName": "Head_32",
  "ReconMatrixPE": 80,
  "RefLinesPE": 24,
  "RepetitionTime": 2,
  "SAR": 0.0555771,
  "ScanOptions": "FS",
  "ScanningSequence": "EP",
  "SequenceName": "*epfid2d1_80",
  "SequenceVariant": "SK",
  "SeriesDescription": "func-bold_task-rest_acq-p2",
  "SeriesNumber": 5,
  "ShimSetting": [4145, -7688, -7505, 291, -65, -193, -62, 44],
  "SliceThickness": 3.5,
  "SliceTiming": [0.99, 0, 1.055, 0.065, 1.1225, 0.1325, 1.1875, 0.1975, 1.255, 0.265, 1.32, 0.33, 1.385, 0.395, 1.4525, 0.4625, 1.5175, 0.5275, 1.585, 0.595, 1.65, 0.66, 1.715, 0.725, 1.7825, 0.7925, 1.8475, 0.8575, 1.915, 0.925],
  "SoftwareVersions": "syngo MR E11",
  "SpacingBetweenSlices": 3.99,
  "StationName": "AWP66112",
  "TaskName": "rest",
  "TotalReadoutTime": 0.02054,
  "TxRefAmp": 232.198,
  "dcmmeta_affine": [
    [-2.9540088176727295, -0.5070608258247375, -0.17198322713375092, 144.09317016601562],
    [-0.5221911668777466, 2.808380365371704, 1.2191940546035767, -94.5938720703125],
    [0.033887531608343124, -0.9251424074172974, 3.795271873474121, -20.596263885498047],
    [0.0, 0.0, 0.0, 1.0]
],
  "dcmmeta_reorient_transform": [
    [0.0, -1.0, 0.0, 79.0],
    [1.0, 0.0, 0.0, 0.0],
    [0.0, 0.0, 1.0, 0.0],
    [0.0, 0.0, 0.0, 1.0]
],
  "dcmmeta_shape": [80, 80, 30, 200],
  "dcmmeta_slice_dim": 2,
  "dcmmeta_version": 0.6,
  "global": {
    "const": {
      "AccessionNumber": "qa",
      "AcquisitionMatrix": [80, 0, 0, 80],
      "AngioFlag": "N",
      "BitsAllocated": 16,
      "BitsStored": 12,
      "BodyPartExamined": "BRAIN",
      "Columns": 480,
      "EchoNumbers": 1,
      "EchoTime": 35.0,
      "EchoTrainLength": 39,
      "FlipAngle": 90.0,
      "HighBit": 11,
      "ImageOrientationPatient": [0.98466960314337, 0.17406371404253, 0.01129584433341, -0.1690202807306, 0.93612682046453, 0.30838080470211],
      "ImagePositionPatient": [-593.42495184588, -793.38250583278, -285.48850307096],
      "ImageType": [
        "ORIGINAL",
        "PRIMARY",
        "M",
        "ND",
        "NORM",
        "MOSAIC"
],
      "ImagedNucleus": "1H",
      "ImagingFrequency": 123.252462,
      "InPlanePhaseEncodingDirection": "COL",
      "MRAcquisitionType": "2D",
      "MagneticFieldStrength": 3.0,
      "Manufacturer": "SIEMENS",
      "ManufacturerModelName": "Prisma",
      "Modality": "MR",
      "NumberOfAverages": 1.0,
      "NumberOfPhaseEncodingSteps": 79,
      "PercentPhaseFieldOfView": 100.0,
      "PercentSampling": 100.0,
      "PerformedProcedureStepStartTime": "084719.988000",
      "PhotometricInterpretation": "MONOCHROME2",
      "PixelBandwidth": 2315.0,
      "PixelRepresentation": 0,
      "PixelSpacing": [3.0, 3.0],
      "ProtocolName": "func-bold_task-rest_acq-p2",
      "RepetitionTime": 2000.0,
      "Rows": 480,
      "SAR": 0.05557704994489,
      "SamplesPerPixel": 1,
      "ScanOptions": "FS",
      "ScanningSequence": "EP",
      "SequenceName": "*epfid2d1_80",
      "SequenceVariant": "SK",
      "SeriesDescription": "func-bold_task-rest_acq-p2",
      "SeriesNumber": 5,
      "SeriesTime": "084919.607000",
      "SliceLocation": -54.70634379147,
      "SliceThickness": 3.5,
      "SmallestImagePixelValue": 0,
      "SoftwareVersions": "syngo MR E11",
      "SpacingBetweenSlices": 3.990000030125,
      "SpecificCharacterSet": "ISO_IR 100",
      "StudyID": "43",
      "StudyTime": "084719.909000",
      "TransmitCoilName": "Body",
      "VariableFlipAngleFlag": "N",
      "WindowCenterWidthExplanation": "Algo1",
      "dBdt": 0.0},
    "slices": {}
  },
  "time": {
    "samples": {
      "AcquisitionNumber": [1, 2, 3, 4, 5, 6, 7, 8, 9, 10, 11, 12, 13, 14, 15, 16, 17, 18, 19, 20, 21, 22, 23, 24, 25, 26, 27, 28, 29, 30, 31, 32, 33, 34, 35, 36, 37, 38, 39, 40, 41, 42, 43, 44, 45, 46, 47, 48, 49, 50, 51, 52, 53, 54, 55, 56, 57, 58, 59, 60, 61, 62, 63, 64, 65, 66, 67, 68, 69, 70, 71, 72, 73, 74, 75, 76, 77, 78, 79, 80, 81, 82, 83, 84, 85, 86, 87, 88, 89, 90, 91, 92, 93, 94, 95, 96, 97, 98, 99, 100, 101, 102, 103, 104, 105, 106, 107, 108, 109, 110, 111, 112, 113, 114, 115, 116, 117, 118, 119, 120, 121, 122, 123, 124, 125, 126, 127, 128, 129, 130, 131, 132, 133, 134, 135, 136, 137, 138, 139, 140, 141, 142, 143, 144, 145, 146, 147, 148, 149, 150, 151, 152, 153, 154, 155, 156, 157, 158, 159, 160, 161, 162, 163, 164, 165, 166, 167, 168, 169, 170, 171, 172, 173, 174, 175, 176, 177, 178, 179, 180, 181, 182, 183, 184, 185, 186, 187, 188, 189, 190, 191, 192, 193, 194, 195, 196, 197, 198, 199, 200],
      "AcquisitionTime": ["084903.190000", "084905.190000", "084907.190000", "084909.190000", "084911.190000", "084913.190000", "084915.190000", "084917.190000", "084919.190000", "084921.190000", "084923.190000", "084925.190000", "084927.190000", "084929.190000", "084931.190000", "084933.190000", "084935.190000", "084937.190000", "084939.190000", "084941.190000", "084943.190000", "084945.190000", "084947.190000", "084949.190000", "084951.190000", "084953.190000", "084955.190000", "084957.190000", "084959.190000", "085001.190000", "085003.190000", "085005.190000", "085007.190000", "085009.190000", "085011.190000", "085013.190000", "085015.190000", "085017.190000", "085019.190000", "085021.190000", "085023.190000", "085025.190000", "085027.190000", "085029.190000", "085031.190000", "085033.190000", "085035.190000", "085037.190000", "085039.190000", "085041.190000", "085043.190000", "085045.190000", "085047.190000", "085049.190000", "085051.190000", "085053.190000", "085055.190000", "085057.190000", "085059.190000", "085101.190000", "085103.190000", "085105.190000", "085107.190000", "085109.190000", "085111.190000", "085113.190000", "085115.190000", "085117.190000", "085119.190000", "085121.190000", "085123.190000", "085125.190000", "085127.190000", "085129.190000", "085131.190000", "085133.190000", "085135.190000", "085137.190000", "085139.190000", "085141.190000", "085143.190000", "085145.190000", "085147.190000", "085149.190000", "085151.190000", "085153.190000", "085155.190000", "085157.190000", "085159.190000", "085201.190000", "085203.190000", "085205.190000", "085207.190000", "085209.190000", "085211.190000", "085213.190000", "085215.190000", "085217.190000", "085219.190000", "085221.190000", "085223.190000", "085225.190000", "085227.190000", "085229.190000", "085231.190000", "085233.190000", "085235.190000", "085237.190000", "085239.190000", "085241.190000", "085243.190000", "085245.190000", "085247.190000", "085249.190000", "085251.190000", "085253.190000", "085255.190000", "085257.190000", "085259.190000", "085301.190000", "085303.190000", "085305.190000", "085307.190000", "085309.190000", "085311.190000", "085313.190000", "085315.190000", "085317.190000", "085319.190000", "085321.190000", "085323.190000", "085325.190000", "085327.190000", "085329.190000", "085331.190000", "085333.190000", "085335.190000", "085337.190000", "085339.190000", "085341.190000", "085343.190000", "085345.190000", "085347.190000", "085349.190000", "085351.190000", "085353.190000", "085355.190000", "085357.190000", "085359.190000", "085401.190000", "085403.190000", "085405.190000", "085407.190000", "085409.190000", "085411.190000", "085413.190000", "085415.190000", "085417.190000", "085419.190000", "085421.190000", "085423.190000", "085425.190000", "085427.190000", "085429.190000", "085431.190000", "085433.190000", "085435.190000", "085437.190000", "085439.190000", "085441.190000", "085443.190000", "085445.190000", "085447.190000", "085449.190000", "085451.190000", "085453.190000", "085455.190000", "085457.190000", "085459.190000", "085501.190000", "085503.190000", "085505.190000", "085507.190000", "085509.190000", "085511.190000", "085513.190000", "085515.190000", "085517.190000", "085519.190000", "085521.190000", "085523.190000", "085525.190000", "085527.190000", "085529.190000", "085531.190000", "085533.190000", "085535.190000", "085537.190000", "085539.190000", "085541.190000"],
      "ContentTime": ["084919.611000", "084919.615000", "084919.617000", "084919.620000", "084919.623000", "084919.625000", "084919.628000", "084919.630000", "084959.606000", "084959.609000", "084959.612000", "084959.615000", "084959.617000", "084959.620000", "084959.622000", "084959.625000", "084959.628000", "084959.630000", "084959.633000", "084959.635000", "084959.645000", "084959.647000", "084959.650000", "084959.652000", "084959.655000", "084959.658000", "084959.660000", "084959.663000", "085039.605000", "085039.608000", "085039.611000", "085039.613000", "085039.616000", "085039.619000", "085039.621000", "085039.634000", "085039.637000", "085039.639000", "085039.642000", "085039.645000", "085039.647000", "085039.650000", "085039.652000", "085039.655000", "085039.658000", "085039.660000", "085039.663000", "085039.665000", "085119.606000", "085119.608000", "085119.611000", "085119.614000", "085119.616000", "085119.619000", "085119.621000", "085119.624000", "085119.627000", "085119.629000", "085119.632000", "085119.635000", "085119.637000", "085119.640000", "085119.643000", "085119.645000", "085119.648000", "085119.650000", "085119.653000", "085119.656000", "085159.607000", "085159.609000", "085159.612000", "085159.615000", "085159.617000", "085159.620000", "085159.622000", "085159.625000", "085159.628000", "085159.630000", "085159.633000", "085159.636000", "085159.638000", "085159.641000", "085159.643000", "085159.646000", "085159.649000", "085159.656000", "085159.658000", "085159.661000", "085239.605000", "085239.608000", "085239.611000", "085239.613000", "085239.616000", "085239.619000", "085239.621000", "085239.624000", "085239.626000", "085239.629000", "085239.632000", "085239.635000", "085239.637000", "085239.640000", "085239.642000", "085239.645000", "085239.648000", "085239.650000", "085239.653000", "085239.655000", "085319.606000", "085319.608000", "085319.611000", "085319.614000", "085319.616000", "085319.619000", "085319.622000", "085319.624000", "085319.627000", "085319.630000", "085319.632000", "085319.635000", "085319.637000", "085319.640000", "085319.642000", "085319.645000", "085319.648000", "085319.651000", "085319.653000", "085319.656000", "085359.606000", "085359.608000", "085359.611000", "085359.614000", "085359.616000", "085359.619000", "085359.622000", "085359.624000", "085359.627000", "085359.629000", "085359.632000", "085359.635000", "085359.639000", "085359.641000", "085359.644000", "085359.647000", "085359.649000", "085359.652000", "085359.654000", "085359.657000", "085439.607000", "085439.609000", "085439.612000", "085439.615000", "085439.617000", "085439.620000", "085439.623000", "085439.625000", "085439.628000", "085439.631000", "085439.633000", "085439.636000", "085439.638000", "085439.641000", "085439.643000", "085439.646000", "085439.649000", "085439.651000", "085439.654000", "085439.656000", "085519.606000", "085519.608000", "085519.611000", "085519.620000", "085519.622000", "085519.625000", "085519.628000", "085519.630000", "085519.633000", "085519.636000", "085519.638000", "085519.641000", "085519.643000", "085519.646000", "085519.649000", "085519.651000", "085519.654000", "085519.656000", "085519.659000", "085519.662000", "085542.968000", "085542.971000", "085542.974000", "085542.977000", "085542.980000", "085542.983000", "085542.986000", "085542.988000", "085542.991000", "085542.994000", "085542.998000", "085543.007000"],
      "InstanceCreationTime": ["084919.611000", "084919.615000", "084919.617000", "084919.620000", "084919.623000", "084919.625000", "084919.628000", "084919.630000", "084959.606000", "084959.609000", "084959.612000", "084959.615000", "084959.617000", "084959.620000", "084959.622000", "084959.625000", "084959.628000", "084959.630000", "084959.633000", "084959.635000", "084959.645000", "084959.647000", "084959.650000", "084959.652000", "084959.655000", "084959.658000", "084959.660000", "084959.663000", "085039.605000", "085039.608000", "085039.611000", "085039.613000", "085039.616000", "085039.619000", "085039.621000", "085039.634000", "085039.637000", "085039.639000", "085039.642000", "085039.645000", "085039.647000", "085039.650000", "085039.652000", "085039.655000", "085039.658000", "085039.660000", "085039.663000", "085039.665000", "085119.606000", "085119.608000", "085119.611000", "085119.614000", "085119.616000", "085119.619000", "085119.621000", "085119.624000", "085119.627000", "085119.629000", "085119.632000", "085119.635000", "085119.637000", "085119.640000", "085119.643000", "085119.645000", "085119.648000", "085119.650000", "085119.653000", "085119.656000", "085159.607000", "085159.609000", "085159.612000", "085159.615000", "085159.617000", "085159.620000", "085159.622000", "085159.625000", "085159.628000", "085159.630000", "085159.633000", "085159.636000", "085159.638000", "085159.641000", "085159.643000", "085159.646000", "085159.649000", "085159.656000", "085159.658000", "085159.661000", "085239.605000", "085239.608000", "085239.611000", "085239.613000", "085239.616000", "085239.619000", "085239.621000", "085239.624000", "085239.626000", "085239.629000", "085239.632000", "085239.635000", "085239.637000", "085239.640000", "085239.642000", "085239.645000", "085239.648000", "085239.650000", "085239.653000", "085239.655000", "085319.606000", "085319.608000", "085319.611000", "085319.614000", "085319.616000", "085319.619000", "085319.622000", "085319.624000", "085319.627000", "085319.630000", "085319.632000", "085319.635000", "085319.637000", "085319.640000", "085319.642000", "085319.645000", "085319.648000", "085319.651000", "085319.653000", "085319.656000", "085359.606000", "085359.608000", "085359.611000", "085359.614000", "085359.616000", "085359.619000", "085359.622000", "085359.624000", "085359.627000", "085359.629000", "085359.632000", "085359.635000", "085359.639000", "085359.641000", "085359.644000", "085359.647000", "085359.649000", "085359.652000", "085359.654000", "085359.657000", "085439.607000", "085439.609000", "085439.612000", "085439.615000", "085439.617000", "085439.620000", "085439.623000", "085439.625000", "085439.628000", "085439.631000", "085439.633000", "085439.636000", "085439.638000", "085439.641000", "085439.643000", "085439.646000", "085439.649000", "085439.651000", "085439.654000", "085439.656000", "085519.606000", "085519.608000", "085519.611000", "085519.620000", "085519.622000", "085519.625000", "085519.628000", "085519.630000", "085519.633000", "085519.636000", "085519.638000", "085519.641000", "085519.643000", "085519.646000", "085519.649000", "085519.651000", "085519.654000", "085519.656000", "085519.659000", "085519.662000", "085542.968000", "085542.971000", "085542.974000", "085542.977000", "085542.980000", "085542.983000", "085542.986000", "085542.988000", "085542.991000", "085542.994000", "085542.998000", "085543.007000"],
      "InstanceNumber": [1, 2, 3, 4, 5, 6, 7, 8, 9, 10, 11, 12, 13, 14, 15, 16, 17, 18, 19, 20, 21, 22, 23, 24, 25, 26, 27, 28, 29, 30, 31, 32, 33, 34, 35, 36, 37, 38, 39, 40, 41, 42, 43, 44, 45, 46, 47, 48, 49, 50, 51, 52, 53, 54, 55, 56, 57, 58, 59, 60, 61, 62, 63, 64, 65, 66, 67, 68, 69, 70, 71, 72, 73, 74, 75, 76, 77, 78, 79, 80, 81, 82, 83, 84, 85, 86, 87, 88, 89, 90, 91, 92, 93, 94, 95, 96, 97, 98, 99, 100, 101, 102, 103, 104, 105, 106, 107, 108, 109, 110, 111, 112, 113, 114, 115, 116, 117, 118, 119, 120, 121, 122, 123, 124, 125, 126, 127, 128, 129, 130, 131, 132, 133, 134, 135, 136, 137, 138, 139, 140, 141, 142, 143, 144, 145, 146, 147, 148, 149, 150, 151, 152, 153, 154, 155, 156, 157, 158, 159, 160, 161, 162, 163, 164, 165, 166, 167, 168, 169, 170, 171, 172, 173, 174, 175, 176, 177, 178, 179, 180, 181, 182, 183, 184, 185, 186, 187, 188, 189, 190, 191, 192, 193, 194, 195, 196, 197, 198, 199, 200],
      "LargestImagePixelValue": [1892, 1890, 1884, 1887, 1887, 1883, 1890, 1889, 1890, 1891, 1883, 1892, 1893, 1894, 1885, 1885, 1886, 1887, 1893, 1890, 1890, 1882, 1889, 1887, 1883, 1887, 1887, 1887, 1894, 1889, 1892, 1892, 1894, 1895, 1888, 1886, 1891, 1889, 1884, 1887, 1895, 1883, 1888, 1890, 1895, 1885, 1889, 1887, 1888, 1885, 1891, 1891, 1893, 1887, 1892, 1881, 1894, 1890, 1895, 1890, 1889, 1889, 1884, 1893, 1892, 1890, 1884, 1887, 1886, 1894, 1892, 1889, 1895, 1889, 1890, 1886, 1884, 1887, 1898, 1889, 1890, 1890, 1888, 1894, 1887, 1888, 1890, 1888, 1888, 1893, 1885, 1894, 1892, 1888, 1891, 1890, 1894, 1888, 1888, 1889, 1891, 1887, 1893, 1893, 1889, 1887, 1891, 1902, 1888, 1897, 1887, 1894, 1888, 1891, 1886, 1891, 1890, 1893, 1887, 1896, 1890, 1888, 1891, 1895, 1885, 1889, 1889, 1885, 1889, 1900, 1884, 1892, 1892, 1889, 1896, 1893, 1888, 1891, 1895, 1882, 1893, 1891, 1892, 1891, 1894, 1888, 1891, 1901, 1887, 1894, 1888, 1891, 1887, 1892, 1894, 1887, 1896, 1888, 1891, 1887, 1890, 1893, 1890, 1895, 1885, 1890, 1892, 1890, 1893, 1892, 1891, 1896, 1887, 1889, 1896, 1886, 1896, 1894, 1888, 1888, 1896, 1884, 1891, 1894, 1887, 1894, 1895, 1888, 1890, 1891, 1890, 1883, 1896, 1895, 1892, 1888, 1891, 1886, 1888, 1893],
      "WindowCenter": [946.0, 945.0, 945.0, 945.0, 945.0, 945.0, 945.0, 945.0, 944.0, 944.0, 945.0, 945.0, 945.0, 945.0, 945.0, 944.0, 944.0, 945.0, 944.0, 944.0, 945.0, 945.0, 944.0, 945.0, 945.0, 944.0, 945.0, 945.0, 945.0, 945.0, 945.0, 945.0, 945.0, 944.0, 944.0, 945.0, 944.0, 944.0, 945.0, 944.0, 945.0, 944.0, 944.0, 944.0, 944.0, 944.0, 945.0, 944.0, 944.0, 945.0, 944.0, 944.0, 944.0, 945.0, 944.0, 945.0, 944.0, 945.0, 944.0, 944.0, 944.0, 944.0, 944.0, 944.0, 944.0, 946.0, 944.0, 945.0, 945.0, 944.0, 945.0, 944.0, 944.0, 944.0, 945.0, 946.0, 944.0, 945.0, 944.0, 944.0, 944.0, 944.0, 945.0, 945.0, 945.0, 944.0, 944.0, 945.0, 945.0, 944.0, 944.0, 945.0, 944.0, 944.0, 944.0, 944.0, 946.0, 944.0, 944.0, 944.0, 944.0, 945.0, 945.0, 945.0, 945.0, 945.0, 944.0, 944.0, 944.0, 944.0, 945.0, 945.0, 944.0, 944.0, 945.0, 945.0, 944.0, 946.0, 944.0, 944.0, 945.0, 944.0, 945.0, 945.0, 945.0, 944.0, 944.0, 945.0, 944.0, 945.0, 945.0, 944.0, 944.0, 944.0, 945.0, 944.0, 944.0, 944.0, 944.0, 945.0, 944.0, 944.0, 945.0, 945.0, 944.0, 945.0, 944.0, 945.0, 944.0, 944.0, 945.0, 944.0, 944.0, 945.0, 945.0, 944.0, 945.0, 945.0, 945.0, 944.0, 945.0, 945.0, 945.0, 945.0, 944.0, 944.0, 945.0, 945.0, 944.0, 944.0, 945.0, 944.0, 944.0, 944.0, 945.0, 944.0, 944.0, 944.0, 945.0, 945.0, 944.0, 944.0, 944.0, 945.0, 944.0, 945.0, 945.0, 945.0, 945.0, 944.0, 945.0, 945.0, 945.0, 944.0, 945.0, 944.0, 944.0, 945.0, 944.0, 945.0],
      "WindowWidth": [2043.0, 2042.0, 2042.0, 2042.0, 2042.0, 2042.0, 2042.0, 2042.0, 2041.0, 2041.0, 2042.0, 2042.0, 2041.0, 2042.0, 2041.0, 2041.0, 2041.0, 2041.0, 2041.0, 2041.0, 2041.0, 2042.0, 2041.0, 2041.0, 2041.0, 2041.0, 2042.0, 2042.0, 2041.0, 2042.0, 2042.0, 2042.0, 2042.0, 2041.0, 2041.0, 2042.0, 2041.0, 2041.0, 2042.0, 2041.0, 2042.0, 2041.0, 2041.0, 2041.0, 2041.0, 2041.0, 2041.0, 2041.0, 2041.0, 2041.0, 2041.0, 2041.0, 2041.0, 2041.0, 2041.0, 2041.0, 2041.0, 2041.0, 2041.0, 2041.0, 2041.0, 2041.0, 2041.0, 2040.0, 2041.0, 2042.0, 2041.0, 2041.0, 2041.0, 2041.0, 2041.0, 2041.0, 2041.0, 2040.0, 2042.0, 2042.0, 2041.0, 2041.0, 2041.0, 2041.0, 2041.0, 2041.0, 2041.0, 2041.0, 2041.0, 2040.0, 2041.0, 2041.0, 2041.0, 2041.0, 2040.0, 2041.0, 2040.0, 2040.0, 2041.0, 2041.0, 2042.0, 2040.0, 2040.0, 2040.0, 2041.0, 2041.0, 2041.0, 2041.0, 2041.0, 2041.0, 2040.0, 2040.0, 2040.0, 2040.0, 2041.0, 2041.0, 2040.0, 2040.0, 2041.0, 2041.0, 2040.0, 2042.0, 2040.0, 2041.0, 2041.0, 2040.0, 2041.0, 2041.0, 2041.0, 2040.0, 2040.0, 2041.0, 2040.0, 2041.0, 2041.0, 2040.0, 2040.0, 2040.0, 2041.0, 2040.0, 2040.0, 2040.0, 2040.0, 2041.0, 2040.0, 2040.0, 2041.0, 2041.0, 2040.0, 2041.0, 2040.0, 2041.0, 2040.0, 2040.0, 2041.0, 2040.0, 2040.0, 2041.0, 2041.0, 2040.0, 2040.0, 2041.0, 2041.0, 2040.0, 2041.0, 2041.0, 2041.0, 2041.0, 2040.0, 2040.0, 2041.0, 2041.0, 2040.0, 2040.0, 2041.0, 2040.0, 2040.0, 2040.0, 2041.0, 2040.0, 2040.0, 2040.0, 2040.0, 2041.0, 2040.0, 2041.0, 2041.0, 2041.0, 2040.0, 2041.0, 2041.0, 2041.0, 2041.0, 2040.0, 2041.0, 2041.0, 2041.0, 2040.0, 2041.0, 2040.0, 2041.0, 2041.0, 2040.0, 2041.0]
    },
    "slices": {}
  }
}