{
  "AcquisitionMatrixPE": 80,
  "AcquisitionNumber": 1,
  "AcquisitionTime": "10:19:30.797500",
  "BandwidthPerPixelPhaseEncode": 48.077,
  "BaseResolution": 80,
  "BodyPartExamined": "BRAIN",
  "CoilCombinationMethod": "Sum of Squares",
  "ConsistencyInfo": "N4_VE11C_LATEST_20160120",
  "ConversionSoftware": "dcm2niix",
  "ConversionSoftwareVersion": "v1.0.20220720",
  "DerivedVendorReportedEchoSpacing": 0.000519999,
  "DeviceSerialNumber": "66112",
  "DwellTime": 2.7e-06,
  "EchoTime": 0.035,
  "EchoTrainLength": 39,
  "EffectiveEchoSpacing": 0.00026,
  "FlipAngle": 90,
  "HeudiconvVersion": "0.13.1",
  "ImageOrientationPatientDICOM": [0.994855, -0.101232, 0.00391197, 0.0947423, 0.943363, 0.317947],
  "ImageOrientationText": "Tra>Cor(18.4)>Sag(2.1)",
  "ImageType": [
    "ORIGINAL",
    "PRIMARY",
    "M",
    "ND",
    "NORM",
    "MOSAIC"
],
  "ImagingFrequency": 123.252,
  "InPlanePhaseEncodingDirectionDICOM": "COL",
  "InstitutionAddress": "Maynard 3,Hanover,NH,US,03755",
  "InstitutionName": "Dartmouth College - PBS",
  "InstitutionalDepartmentName": "Department",
  "MRAcquisitionType": "2D",
  "MagneticFieldStrength": 3,
  "Manufacturer": "Siemens",
  "ManufacturersModelName": "Prisma",
  "MatrixCoilMode": "GRAPPA",
  "Modality": "MR",
  "NonlinearGradientCorrection": false,
  "ParallelReductionFactorInPlane": 2,
  "PartialFourier": 1,
  "PatientPosition": "HFS",
  "PercentPhaseFOV": 100,
  "PercentSampling": 100,
  "PhaseEncodingDirection": "j-",
  "PhaseEncodingSteps": 79,
  "PhaseResolution": 1,
  "PixelBandwidth": 2315,
  "ProcedureStepDescription": "dbic^QA",
  "ProtocolName": "func-bold_task-rest_acq-p2",
  "PulseSequenceDetails": "%SiemensSeq%\\ep2d_bold",
  "ReceiveCoilActiveElements": "HC1-7;NC1,2",
  "ReceiveCoilName": "HeadNeck_64",
  "ReconMatrixPE": 80,
  "RefLinesPE": 24,
  "RepetitionTime": 2,
  "SAR": 0.0360364,
  "ScanOptions": "FS",
  "ScanningSequence": "EP",
  "SequenceName": "*epfid2d1_80",
  "SequenceVariant": "SK",
  "SeriesDescription": "func-bold_task-rest_acq-p2",
  "SeriesNumber": 5,
  "ShimSetting": [4136, -7692, -7506, 171, -63, -313, -30, 114],
  "SliceThickness": 3.5,
  "SliceTiming": [0.99, 0, 1.055, 0.065, 1.1225, 0.1325, 1.1875, 0.1975, 1.2525, 0.2625, 1.32, 0.33, 1.385, 0.395, 1.4525, 0.4625, 1.5175, 0.5275, 1.5825, 0.5925, 1.65, 0.66, 1.715, 0.725, 1.7825, 0.7925, 1.8475, 0.8575, 1.9125, 0.9225],
  "SoftwareVersions": "syngo MR E11",
  "SpacingBetweenSlices": 3.99,
  "StationName": "AWP66112",
  "TaskName": "rest",
  "TotalReadoutTime": 0.02054,
  "TxRefAmp": 211.622,
  "dcmmeta_affine": [
    [-2.984565496444702, 0.2842269837856293, 0.14314891397953033, 109.9244384765625],
    [0.3036966025829315, 2.8300883769989014, 1.2606042623519897, -126.63903045654297],
    [0.01173592358827591, -0.953842043876648, 3.7829201221466064, -27.09477996826172],
    [0.0, 0.0, 0.0, 1.0]
],
  "dcmmeta_reorient_transform": [
    [0.0, -1.0, 0.0, 79.0],
    [1.0, 0.0, 0.0, 0.0],
    [0.0, 0.0, 1.0, 0.0],
    [0.0, 0.0, 0.0, 1.0]
],
  "dcmmeta_shape": [80, 80, 30, 200],
  "dcmmeta_slice_dim": 2,
  "dcmmeta_version": 0.6,
  "global": {
    "const": {
      "AccessionNumber": "qa64",
      "AcquisitionMatrix": [80, 0, 0, 80],
      "AngioFlag": "N",
      "BitsAllocated": 16,
      "BitsStored": 12,
      "BodyPartExamined": "BRAIN",
      "Columns": 480,
      "EchoNumbers": 1,
      "EchoTime": 35.0,
      "EchoTrainLength": 39,
      "FlipAngle": 90.0,
      "HighBit": 11,
      "ImageOrientationPatient": [0.99485513393469, -0.1012322030723, 0.00391197455448, 0.09474232906067, 0.94336279891246, 0.31794735525272],
      "ImagePositionPatient": [-786.1368471743, -602.21630697047, -295.5639013296],
      "ImageType": [
        "ORIGINAL",
        "PRIMARY",
        "M",
        "ND",
        "NORM",
        "MOSAIC"
],
      "ImagedNucleus": "1H",
      "ImagingFrequency": 123.252373,
      "InPlanePhaseEncodingDirection": "COL",
      "MRAcquisitionType": "2D",
      "MagneticFieldStrength": 3.0,
      "Manufacturer": "SIEMENS",
      "ManufacturerModelName": "Prisma",
      "Modality": "MR",
      "NumberOfAverages": 1.0,
      "NumberOfPhaseEncodingSteps": 79,
      "PercentPhaseFieldOfView": 100.0,
      "PercentSampling": 100.0,
      "PerformedProcedureStepStartTime": "101633.109000",
      "PhotometricInterpretation": "MONOCHROME2",
      "PixelBandwidth": 2315.0,
      "PixelRepresentation": 0,
      "PixelSpacing": [3.0, 3.0],
      "ProtocolName": "func-bold_task-rest_acq-p2",
      "RepetitionTime": 2000.0,
      "Rows": 480,
      "SAR": 0.03603640954734,
      "SamplesPerPixel": 1,
      "ScanOptions": "FS",
      "ScanningSequence": "EP",
      "SequenceName": "*epfid2d1_80",
      "SequenceVariant": "SK",
      "SeriesDescription": "func-bold_task-rest_acq-p2",
      "SeriesNumber": 5,
      "SeriesTime": "102017.790000",
      "SliceLocation": -61.755272743181,
      "SliceThickness": 3.5,
      "SmallestImagePixelValue": 0,
      "SoftwareVersions": "syngo MR E11",
      "SpacingBetweenSlices": 3.9899999604435,
      "SpecificCharacterSet": "ISO_IR 100",
      "StudyID": "18",
      "StudyTime": "101633.033000",
      "TransmitCoilName": "Body",
      "VariableFlipAngleFlag": "N",
      "WindowCenterWidthExplanation": "Algo1",
      "dBdt": 0.0},
    "slices": {}
  },
  "time": {
    "samples": {
      "AcquisitionNumber": [1, 2, 3, 4, 5, 6, 7, 8, 9, 10, 11, 12, 13, 14, 15, 16, 17, 18, 19, 20, 21, 22, 23, 24, 25, 26, 27, 28, 29, 30, 31, 32, 33, 34, 35, 36, 37, 38, 39, 40, 41, 42, 43, 44, 45, 46, 47, 48, 49, 50, 51, 52, 53, 54, 55, 56, 57, 58, 59, 60, 61, 62, 63, 64, 65, 66, 67, 68, 69, 70, 71, 72, 73, 74, 75, 76, 77, 78, 79, 80, 81, 82, 83, 84, 85, 86, 87, 88, 89, 90, 91, 92, 93, 94, 95, 96, 97, 98, 99, 100, 101, 102, 103, 104, 105, 106, 107, 108, 109, 110, 111, 112, 113, 114, 115, 116, 117, 118, 119, 120, 121, 122, 123, 124, 125, 126, 127, 128, 129, 130, 131, 132, 133, 134, 135, 136, 137, 138, 139, 140, 141, 142, 143, 144, 145, 146, 147, 148, 149, 150, 151, 152, 153, 154, 155, 156, 157, 158, 159, 160, 161, 162, 163, 164, 165, 166, 167, 168, 169, 170, 171, 172, 173, 174, 175, 176, 177, 178, 179, 180, 181, 182, 183, 184, 185, 186, 187, 188, 189, 190, 191, 192, 193, 194, 195, 196, 197, 198, 199, 200],
      "AcquisitionTime": ["101930.797500", "101932.797500", "101934.797500", "101936.797500", "101938.797500", "101940.797500", "101942.797500", "101944.797500", "101946.797500", "101948.797500", "101950.797500", "101952.797500", "101954.797500", "101956.797500", "101958.797500", "102000.797500", "102002.797500", "102004.797500", "102006.797500", "102008.797500", "102010.797500", "102012.797500", "102014.797500", "102016.797500", "102018.797500", "102020.797500", "102022.797500", "102024.797500", "102026.797500", "102028.797500", "102030.797500", "102032.797500", "102034.797500", "102036.797500", "102038.797500", "102040.797500", "102042.797500", "102044.797500", "102046.797500", "102048.797500", "102050.797500", "102052.797500", "102054.797500", "102056.797500", "102058.797500", "102100.797500", "102102.797500", "102104.797500", "102106.797500", "102108.797500", "102110.797500", "102112.797500", "102114.797500", "102116.797500", "102118.797500", "102120.797500", "102122.797500", "102124.797500", "102126.797500", "102128.797500", "102130.797500", "102132.797500", "102134.797500", "102136.797500", "102138.797500", "102140.797500", "102142.797500", "102144.797500", "102146.797500", "102148.797500", "102150.797500", "102152.797500", "102154.797500", "102156.797500", "102158.797500", "102200.797500", "102202.797500", "102204.797500", "102206.797500", "102208.797500", "102210.797500", "102212.797500", "102214.797500", "102216.797500", "102218.797500", "102220.797500", "102222.797500", "102224.797500", "102226.797500", "102228.797500", "102230.797500", "102232.797500", "102234.797500", "102236.797500", "102238.797500", "102240.797500", "102242.797500", "102244.797500", "102246.797500", "102248.797500", "102250.797500", "102252.797500", "102254.797500", "102256.797500", "102258.797500", "102300.797500", "102302.797500", "102304.797500", "102306.797500", "102308.797500", "102310.797500", "102312.797500", "102314.797500", "102316.797500", "102318.797500", "102320.797500", "102322.797500", "102324.797500", "102326.797500", "102328.797500", "102330.797500", "102332.797500", "102334.797500", "102336.797500", "102338.797500", "102340.797500", "102342.797500", "102344.797500", "102346.797500", "102348.797500", "102350.797500", "102352.797500", "102354.797500", "102356.797500", "102358.797500", "102400.797500", "102402.797500", "102404.797500", "102406.797500", "102408.797500", "102410.797500", "102412.797500", "102414.797500", "102416.797500", "102418.797500", "102420.797500", "102422.797500", "102424.797500", "102426.797500", "102428.797500", "102430.797500", "102432.797500", "102434.797500", "102436.797500", "102438.797500", "102440.797500", "102442.797500", "102444.797500", "102446.797500", "102448.797500", "102450.797500", "102452.797500", "102454.797500", "102456.797500", "102458.797500", "102500.797500", "102502.797500", "102504.797500", "102506.797500", "102508.797500", "102510.797500", "102512.797500", "102514.797500", "102516.797500", "102518.797500", "102520.797500", "102522.797500", "102524.797500", "102526.797500", "102528.797500", "102530.797500", "102532.797500", "102534.797500", "102536.797500", "102538.797500", "102540.797500", "102542.797500", "102544.797500", "102546.797500", "102548.797500", "102550.797500", "102552.797500", "102554.797500", "102556.797500", "102558.797500", "102600.797500", "102602.797500", "102604.797500", "102606.797500", "102608.797500"],
      "ContentTime": ["102017.794000", "102017.798000", "102017.800000", "102017.803000", "102017.805000", "102017.808000", "102017.811000", "102017.817000", "102017.819000", "102017.822000", "102017.825000", "102017.827000", "102017.830000", "102017.833000", "102017.835000", "102017.838000", "102017.840000", "102017.843000", "102017.845000", "102017.848000", "102017.850000", "102017.853000", "102017.856000", "102057.789000", "102057.802000", "102057.804000", "102057.807000", "102057.810000", "102057.812000", "102057.815000", "102057.817000", "102057.820000", "102057.823000", "102057.825000", "102057.828000", "102057.830000", "102057.833000", "102057.836000", "102057.838000", "102057.841000", "102057.844000", "102057.846000", "102057.849000", "102137.788000", "102137.792000", "102137.794000", "102137.797000", "102137.799000", "102137.802000", "102137.804000", "102137.807000", "102137.809000", "102137.812000", "102137.815000", "102137.817000", "102137.820000", "102137.822000", "102137.825000", "102137.827000", "102137.830000", "102137.833000", "102137.835000", "102137.838000", "102217.788000", "102217.804000", "102217.807000", "102217.809000", "102217.812000", "102217.815000", "102217.817000", "102217.820000", "102217.822000", "102217.825000", "102217.828000", "102217.830000", "102217.833000", "102217.835000", "102217.838000", "102217.840000", "102217.843000", "102217.846000", "102217.848000", "102217.851000", "102257.789000", "102257.792000", "102257.794000", "102257.797000", "102257.799000", "102257.802000", "102257.805000", "102257.807000", "102257.810000", "102257.813000", "102257.816000", "102257.819000", "102257.822000", "102257.825000", "102257.828000", "102257.831000", "102257.834000", "102257.837000", "102257.840000", "102257.844000", "102337.789000", "102337.791000", "102337.794000", "102337.797000", "102337.799000", "102337.802000", "102337.805000", "102337.807000", "102337.810000", "102337.813000", "102337.815000", "102337.818000", "102337.820000", "102337.823000", "102337.825000", "102337.828000", "102337.830000", "102337.833000", "102337.836000", "102337.838000", "102417.789000", "102417.793000", "102417.795000", "102417.798000", "102417.800000", "102417.803000", "102417.805000", "102417.808000", "102417.811000", "102417.813000", "102417.816000", "102417.819000", "102417.821000", "102417.824000", "102417.826000", "102417.829000", "102417.832000", "102417.834000", "102417.837000", "102417.846000", "102457.789000", "102457.792000", "102457.794000", "102457.797000", "102457.799000", "102457.802000", "102457.805000", "102457.807000", "102457.810000", "102457.812000", "102457.815000", "102457.818000", "102457.820000", "102457.823000", "102457.825000", "102457.828000", "102457.831000", "102457.833000", "102457.836000", "102457.838000", "102537.789000", "102537.792000", "102537.794000", "102537.797000", "102537.799000", "102537.802000", "102537.805000", "102537.807000", "102537.810000", "102537.812000", "102537.815000", "102537.817000", "102537.820000", "102537.823000", "102537.825000", "102537.828000", "102537.830000", "102537.833000", "102537.836000", "102537.838000", "102610.572000", "102610.575000", "102610.577000", "102610.580000", "102610.583000", "102610.585000", "102610.588000", "102610.590000", "102610.593000", "102610.596000", "102610.599000", "102610.610000", "102610.614000", "102610.616000", "102610.620000", "102610.625000", "102610.629000"],
      "InstanceCreationTime": ["102017.794000", "102017.798000", "102017.800000", "102017.803000", "102017.805000", "102017.808000", "102017.811000", "102017.817000", "102017.819000", "102017.822000", "102017.825000", "102017.827000", "102017.830000", "102017.833000", "102017.835000", "102017.838000", "102017.840000", "102017.843000", "102017.845000", "102017.848000", "102017.850000", "102017.853000", "102017.856000", "102057.789000", "102057.802000", "102057.804000", "102057.807000", "102057.810000", "102057.812000", "102057.815000", "102057.817000", "102057.820000", "102057.823000", "102057.825000", "102057.828000", "102057.830000", "102057.833000", "102057.836000", "102057.838000", "102057.841000", "102057.844000", "102057.846000", "102057.849000", "102137.788000", "102137.792000", "102137.794000", "102137.797000", "102137.799000", "102137.802000", "102137.804000", "102137.807000", "102137.809000", "102137.812000", "102137.815000", "102137.817000", "102137.820000", "102137.822000", "102137.825000", "102137.827000", "102137.830000", "102137.833000", "102137.835000", "102137.838000", "102217.788000", "102217.804000", "102217.807000", "102217.809000", "102217.812000", "102217.815000", "102217.817000", "102217.820000", "102217.822000", "102217.825000", "102217.828000", "102217.830000", "102217.833000", "102217.835000", "102217.838000", "102217.840000", "102217.843000", "102217.846000", "102217.848000", "102217.851000", "102257.789000", "102257.792000", "102257.794000", "102257.797000", "102257.799000", "102257.802000", "102257.805000", "102257.807000", "102257.810000", "102257.813000", "102257.816000", "102257.819000", "102257.822000", "102257.825000", "102257.828000", "102257.831000", "102257.834000", "102257.837000", "102257.840000", "102257.844000", "102337.789000", "102337.791000", "102337.794000", "102337.797000", "102337.799000", "102337.802000", "102337.805000", "102337.807000", "102337.810000", "102337.813000", "102337.815000", "102337.818000", "102337.820000", "102337.823000", "102337.825000", "102337.828000", "102337.830000", "102337.833000", "102337.836000", "102337.838000", "102417.789000", "102417.793000", "102417.795000", "102417.798000", "102417.800000", "102417.803000", "102417.805000", "102417.808000", "102417.811000", "102417.813000", "102417.816000", "102417.819000", "102417.821000", "102417.824000", "102417.826000", "102417.829000", "102417.832000", "102417.834000", "102417.837000", "102417.846000", "102457.789000", "102457.792000", "102457.794000", "102457.797000", "102457.799000", "102457.802000", "102457.805000", "102457.807000", "102457.810000", "102457.812000", "102457.815000", "102457.818000", "102457.820000", "102457.823000", "102457.825000", "102457.828000", "102457.831000", "102457.833000", "102457.836000", "102457.838000", "102537.789000", "102537.792000", "102537.794000", "102537.797000", "102537.799000", "102537.802000", "102537.805000", "102537.807000", "102537.810000", "102537.812000", "102537.815000", "102537.817000", "102537.820000", "102537.823000", "102537.825000", "102537.828000", "102537.830000", "102537.833000", "102537.836000", "102537.838000", "102610.572000", "102610.575000", "102610.577000", "102610.580000", "102610.583000", "102610.585000", "102610.588000", "102610.590000", "102610.593000", "102610.596000", "102610.599000", "102610.610000", "102610.614000", "102610.616000", "102610.620000", "102610.625000", "102610.629000"],
      "InstanceNumber": [1, 2, 3, 4, 5, 6, 7, 8, 9, 10, 11, 12, 13, 14, 15, 16, 17, 18, 19, 20, 21, 22, 23, 24, 25, 26, 27, 28, 29, 30, 31, 32, 33, 34, 35, 36, 37, 38, 39, 40, 41, 42, 43, 44, 45, 46, 47, 48, 49, 50, 51, 52, 53, 54, 55, 56, 57, 58, 59, 60, 61, 62, 63, 64, 65, 66, 67, 68, 69, 70, 71, 72, 73, 74, 75, 76, 77, 78, 79, 80, 81, 82, 83, 84, 85, 86, 87, 88, 89, 90, 91, 92, 93, 94, 95, 96, 97, 98, 99, 100, 101, 102, 103, 104, 105, 106, 107, 108, 109, 110, 111, 112, 113, 114, 115, 116, 117, 118, 119, 120, 121, 122, 123, 124, 125, 126, 127, 128, 129, 130, 131, 132, 133, 134, 135, 136, 137, 138, 139, 140, 141, 142, 143, 144, 145, 146, 147, 148, 149, 150, 151, 152, 153, 154, 155, 156, 157, 158, 159, 160, 161, 162, 163, 164, 165, 166, 167, 168, 169, 170, 171, 172, 173, 174, 175, 176, 177, 178, 179, 180, 181, 182, 183, 184, 185, 186, 187, 188, 189, 190, 191, 192, 193, 194, 195, 196, 197, 198, 199, 200],
      "LargestImagePixelValue": [3923, 3934, 3914, 3916, 3910, 3914, 3917, 3914, 3922, 3907, 3924, 3922, 3912, 3922, 3918, 3915, 3910, 3927, 3914, 3923, 3914, 3913, 3916, 3921, 3930, 3910, 3906, 3920, 3914, 3906, 3909, 3917, 3907, 3918, 3907, 3919, 3913, 3908, 3915, 3923, 3919, 3921, 3910, 3918, 3914, 3917, 3915, 3914, 3922, 3913, 3914, 3913, 3926, 3913, 3903, 3906, 3913, 3908, 3911, 3919, 3910, 3912, 3910, 3909, 3914, 3910, 3909, 3913, 3906, 3911, 3913, 3916, 3915, 3927, 3921, 3905, 3917, 3918, 3916, 3912, 3909, 3907, 3916, 3914, 3906, 3915, 3916, 3903, 3905, 3910, 3912, 3915, 3916, 3915, 3904, 3905, 3905, 3906, 3909, 3905, 3911, 3901, 3901, 3907, 3901, 3908, 3906, 3915, 3911, 3903, 3901, 3917, 3909, 3905, 3910, 3913, 3907, 3910, 3906, 3905, 3907, 3894, 3904, 3922, 3909, 3907, 3905, 3905, 3912, 3913, 3914, 3915, 3905, 3907, 3916, 3915, 3912, 3913, 3908, 3898, 3903, 3912, 3914, 3911, 3911, 3911, 3912, 3900, 3906, 3918, 3902, 3910, 3910, 3908, 3898, 3922, 3893, 3905, 3906, 3910, 3910, 3907, 3899, 3901, 3908, 3905, 3910, 3921, 3910, 3899, 3909, 3903, 3894, 3896, 3908, 3907, 3917, 3927, 3916, 3909, 3920, 3894, 3909, 3900, 3910, 3901, 3930, 3905, 3905, 3902, 3898, 3902, 3895, 3902, 3899, 3911, 3903, 3912, 3902, 3906],
      "WindowCenter": [1448.0, 1448.0, 1448.0, 1448.0, 1447.0, 1448.0, 1447.0, 1447.0, 1447.0, 1446.0, 1447.0, 1446.0, 1447.0, 1446.0, 1446.0, 1446.0, 1447.0, 1447.0, 1447.0, 1446.0, 1446.0, 1446.0, 1446.0, 1446.0, 1446.0, 1446.0, 1446.0, 1446.0, 1445.0, 1445.0, 1446.0, 1446.0, 1446.0, 1445.0, 1445.0, 1445.0, 1445.0, 1445.0, 1445.0, 1445.0, 1446.0, 1445.0, 1445.0, 1445.0, 1445.0, 1444.0, 1445.0, 1444.0, 1445.0, 1445.0, 1444.0, 1445.0, 1444.0, 1444.0, 1444.0, 1444.0, 1444.0, 1444.0, 1444.0, 1444.0, 1444.0, 1444.0, 1444.0, 1444.0, 1444.0, 1444.0, 1444.0, 1444.0, 1444.0, 1444.0, 1444.0, 1444.0, 1445.0, 1443.0, 1443.0, 1444.0, 1443.0, 1443.0, 1443.0, 1444.0, 1444.0, 1443.0, 1444.0, 1444.0, 1444.0, 1444.0, 1444.0, 1443.0, 1443.0, 1443.0, 1444.0, 1444.0, 1443.0, 1443.0, 1443.0, 1444.0, 1443.0, 1443.0, 1443.0, 1443.0, 1444.0, 1443.0, 1444.0, 1442.0, 1443.0, 1443.0, 1442.0, 1442.0, 1442.0, 1443.0, 1443.0, 1443.0, 1442.0, 1443.0, 1443.0, 1443.0, 1443.0, 1442.0, 1443.0, 1443.0, 1442.0, 1442.0, 1443.0, 1442.0, 1442.0, 1442.0, 1442.0, 1442.0, 1443.0, 1442.0, 1442.0, 1442.0, 1442.0, 1442.0, 1442.0, 1442.0, 1442.0, 1442.0, 1441.0, 1442.0, 1442.0, 1441.0, 1442.0, 1443.0, 1441.0, 1442.0, 1442.0, 1441.0, 1441.0, 1442.0, 1441.0, 1441.0, 1441.0, 1441.0, 1442.0, 1441.0, 1441.0, 1441.0, 1441.0, 1442.0, 1441.0, 1441.0, 1441.0, 1442.0, 1442.0, 1442.0, 1441.0, 1440.0, 1440.0, 1441.0, 1441.0, 1441.0, 1441.0, 1441.0, 1441.0, 1441.0, 1441.0, 1441.0, 1441.0, 1441.0, 1441.0, 1441.0, 1440.0, 1441.0, 1441.0, 1441.0, 1441.0, 1441.0, 1441.0, 1440.0, 1440.0, 1441.0, 1440.0, 1440.0, 1440.0, 1441.0, 1440.0, 1440.0, 1440.0, 1441.0],
      "WindowWidth": [3320.0, 3319.0, 3319.0, 3319.0, 3319.0, 3319.0, 3319.0, 3319.0, 3319.0, 3319.0, 3319.0, 3319.0, 3318.0, 3319.0, 3318.0, 3318.0, 3318.0, 3318.0, 3318.0, 3318.0, 3318.0, 3318.0, 3318.0, 3318.0, 3318.0, 3318.0, 3318.0, 3318.0, 3318.0, 3318.0, 3318.0, 3318.0, 3318.0, 3318.0, 3317.0, 3317.0, 3318.0, 3317.0, 3317.0, 3317.0, 3317.0, 3317.0, 3317.0, 3317.0, 3317.0, 3317.0, 3317.0, 3317.0, 3317.0, 3317.0, 3317.0, 3317.0, 3317.0, 3317.0, 3317.0, 3317.0, 3316.0, 3316.0, 3316.0, 3316.0, 3316.0, 3316.0, 3317.0, 3316.0, 3316.0, 3316.0, 3316.0, 3316.0, 3316.0, 3316.0, 3316.0, 3316.0, 3316.0, 3316.0, 3316.0, 3316.0, 3316.0, 3316.0, 3316.0, 3316.0, 3316.0, 3316.0, 3316.0, 3316.0, 3316.0, 3316.0, 3316.0, 3316.0, 3316.0, 3316.0, 3315.0, 3315.0, 3315.0, 3315.0, 3316.0, 3315.0, 3315.0, 3315.0, 3315.0, 3315.0, 3315.0, 3315.0, 3315.0, 3315.0, 3315.0, 3315.0, 3315.0, 3315.0, 3315.0, 3315.0, 3315.0, 3315.0, 3315.0, 3315.0, 3315.0, 3315.0, 3315.0, 3315.0, 3315.0, 3315.0, 3315.0, 3315.0, 3314.0, 3315.0, 3315.0, 3315.0, 3315.0, 3315.0, 3314.0, 3315.0, 3315.0, 3315.0, 3315.0, 3315.0, 3314.0, 3314.0, 3314.0, 3314.0, 3314.0, 3314.0, 3314.0, 3314.0, 3314.0, 3313.0, 3314.0, 3314.0, 3314.0, 3314.0, 3314.0, 3314.0, 3314.0, 3314.0, 3314.0, 3314.0, 3313.0, 3314.0, 3314.0, 3314.0, 3314.0, 3313.0, 3314.0, 3314.0, 3314.0, 3313.0, 3313.0, 3313.0, 3313.0, 3313.0, 3313.0, 3313.0, 3313.0, 3313.0, 3313.0, 3314.0, 3313.0, 3313.0, 3313.0, 3313.0, 3313.0, 3313.0, 3313.0, 3313.0, 3313.0, 3313.0, 3313.0, 3313.0, 3313.0, 3313.0, 3312.0, 3313.0, 3313.0, 3312.0, 3313.0, 3313.0, 3313.0, 3312.0, 3313.0, 3313.0, 3313.0, 3312.0]
    },
    "slices": {}
  }
}