{
  "AcquisitionMatrixPE": 80,
  "AcquisitionNumber": 1,
  "AcquisitionTime": "09:41:48.792500",
  "BandwidthPerPixelPhaseEncode": 48.077,
  "BaseResolution": 80,
  "BodyPartExamined": "BRAIN",
  "CoilCombinationMethod": "Sum of Squares",
  "ConsistencyInfo": "N4_VE11C_LATEST_20160120",
  "ConversionSoftware": "dcm2niix",
  "ConversionSoftwareVersion": "v1.0.20220720",
  "DerivedVendorReportedEchoSpacing": 0.000519999,
  "DeviceSerialNumber": "66112",
  "DwellTime": 2.7e-06,
  "EchoTime": 0.035,
  "EchoTrainLength": 39,
  "EffectiveEchoSpacing": 0.00026,
  "FlipAngle": 90,
  "HeudiconvVersion": "0.13.1",
  "ImageOrientationPatientDICOM": [0.991018, -0.133137, -0.012575, 0.129414, 0.931091, 0.34106],
  "ImageOrientationText": "Tra>Cor(19.9)>Sag(1.9)",
  "ImageType": [
    "ORIGINAL",
    "PRIMARY",
    "M",
    "ND",
    "NORM",
    "MOSAIC"
],
  "ImagingFrequency": 123.252,
  "InPlanePhaseEncodingDirectionDICOM": "COL",
  "InstitutionAddress": "Maynard 3,Hanover,NH,US,03755",
  "InstitutionName": "Dartmouth College - PBS",
  "InstitutionalDepartmentName": "Department",
  "MRAcquisitionType": "2D",
  "MagneticFieldStrength": 3,
  "Manufacturer": "Siemens",
  "ManufacturersModelName": "Prisma",
  "MatrixCoilMode": "GRAPPA",
  "Modality": "MR",
  "NonlinearGradientCorrection": false,
  "ParallelReductionFactorInPlane": 2,
  "PartialFourier": 1,
  "PatientPosition": "HFS",
  "PercentPhaseFOV": 100,
  "PercentSampling": 100,
  "PhaseEncodingDirection": "j-",
  "PhaseEncodingSteps": 79,
  "PhaseResolution": 1,
  "PixelBandwidth": 2315,
  "ProcedureStepDescription": "dbic^QA",
  "ProtocolName": "func-bold_task-rest_acq-p2",
  "PulseSequenceDetails": "%SiemensSeq%\\ep2d_bold",
  "ReceiveCoilActiveElements": "HEA;HEP",
  "ReceiveCoilName": "Head_32",
  "ReconMatrixPE": 80,
  "RefLinesPE": 24,
  "RepetitionTime": 2,
  "SAR": 0.0554693,
  "ScanOptions": "FS",
  "ScanningSequence": "EP",
  "SequenceName": "*epfid2d1_80",
  "SequenceVariant": "SK",
  "SeriesDescription": "func-bold_task-rest_acq-p2",
  "SeriesNumber": 5,
  "ShimSetting": [4143, -7693, -7516, 276, -54, -170, -59, 81],
  "SliceThickness": 3.5,
  "SliceTiming": [0.99, 0, 1.055, 0.065, 1.1225, 0.1325, 1.1875, 0.1975, 1.2525, 0.2625, 1.32, 0.33, 1.385, 0.395, 1.4525, 0.4625, 1.5175, 0.5275, 1.5825, 0.5925, 1.65, 0.66, 1.715, 0.725, 1.7825, 0.7925, 1.8475, 0.8575, 1.9125, 0.9225],
  "SoftwareVersions": "syngo MR E11",
  "SpacingBetweenSlices": 3.99,
  "StationName": "AWP66112",
  "TaskName": "rest",
  "TotalReadoutTime": 0.02054,
  "TxRefAmp": 233.861,
  "dcmmeta_affine": [
    [-2.973053455352783, 0.3882429599761963, 0.13446080684661865, 102.78060150146484],
    [0.39941245317459106, 2.793272018432617, 1.355100154876709, -134.4802703857422],
    [-0.037724945694208145, -1.023180603981018, 3.75042986869812, -9.635801315307617],
    [0.0, 0.0, 0.0, 1.0]
],
  "dcmmeta_reorient_transform": [
    [0.0, -1.0, 0.0, 79.0],
    [1.0, 0.0, 0.0, 0.0],
    [0.0, 0.0, 1.0, 0.0],
    [0.0, 0.0, 0.0, 1.0]
],
  "dcmmeta_shape": [80, 80, 30, 200],
  "dcmmeta_slice_dim": 2,
  "dcmmeta_version": 0.6,
  "global": {
    "const": {
      "AccessionNumber": "qa",
      "AcquisitionMatrix": [80, 0, 0, 80],
      "AngioFlag": "N",
      "BitsAllocated": 16,
      "BitsStored": 12,
      "BodyPartExamined": "BRAIN",
      "Columns": 480,
      "EchoNumbers": 1,
      "EchoTime": 35.0,
      "EchoTrainLength": 39,
      "FlipAngle": 90.0,
      "HighBit": 11,
      "ImageOrientationPatient": [0.99101779997035, -0.1331374852643, -0.0125749814883, 0.12941432387044, 0.93109068808085, 0.34106020487048],
      "ImagePositionPatient": [-805.71107277937, -564.96013819649, -287.55820421899],
      "ImageType": [
        "ORIGINAL",
        "PRIMARY",
        "M",
        "ND",
        "NORM",
        "MOSAIC"
],
      "ImagedNucleus": "1H",
      "ImagingFrequency": 123.252458,
      "InPlanePhaseEncodingDirection": "COL",
      "MRAcquisitionType": "2D",
      "MagneticFieldStrength": 3.0,
      "Manufacturer": "SIEMENS",
      "ManufacturerModelName": "Prisma",
      "Modality": "MR",
      "NumberOfAverages": 1.0,
      "NumberOfPhaseEncodingSteps": 79,
      "PercentPhaseFieldOfView": 100.0,
      "PercentSampling": 100.0,
      "PerformedProcedureStepStartTime": "093421.909000",
      "PhotometricInterpretation": "MONOCHROME2",
      "PixelBandwidth": 2315.0,
      "PixelRepresentation": 0,
      "PixelSpacing": [3.0, 3.0],
      "ProtocolName": "func-bold_task-rest_acq-p2",
      "RepetitionTime": 2000.0,
      "Rows": 480,
      "SAR": 0.05546928612247,
      "SamplesPerPixel": 1,
      "ScanOptions": "FS",
      "ScanningSequence": "EP",
      "SequenceName": "*epfid2d1_80",
      "SequenceVariant": "SK",
      "SeriesDescription": "func-bold_task-rest_acq-p2",
      "SeriesNumber": 5,
      "SeriesTime": "094238.083000",
      "SliceLocation": -51.266337834909,
      "SliceThickness": 3.5,
      "SmallestImagePixelValue": 0,
      "SoftwareVersions": "syngo MR E11",
      "SpacingBetweenSlices": 3.9899999549597,
      "SpecificCharacterSet": "ISO_IR 100",
      "StudyID": "65",
      "StudyTime": "093421.830000",
      "TransmitCoilName": "Body",
      "VariableFlipAngleFlag": "N",
      "WindowCenterWidthExplanation": "Algo1",
      "dBdt": 0.0},
    "slices": {}
  },
  "time": {
    "samples": {
      "AcquisitionNumber": [1, 2, 3, 4, 5, 6, 7, 8, 9, 10, 11, 12, 13, 14, 15, 16, 17, 18, 19, 20, 21, 22, 23, 24, 25, 26, 27, 28, 29, 30, 31, 32, 33, 34, 35, 36, 37, 38, 39, 40, 41, 42, 43, 44, 45, 46, 47, 48, 49, 50, 51, 52, 53, 54, 55, 56, 57, 58, 59, 60, 61, 62, 63, 64, 65, 66, 67, 68, 69, 70, 71, 72, 73, 74, 75, 76, 77, 78, 79, 80, 81, 82, 83, 84, 85, 86, 87, 88, 89, 90, 91, 92, 93, 94, 95, 96, 97, 98, 99, 100, 101, 102, 103, 104, 105, 106, 107, 108, 109, 110, 111, 112, 113, 114, 115, 116, 117, 118, 119, 120, 121, 122, 123, 124, 125, 126, 127, 128, 129, 130, 131, 132, 133, 134, 135, 136, 137, 138, 139, 140, 141, 142, 143, 144, 145, 146, 147, 148, 149, 150, 151, 152, 153, 154, 155, 156, 157, 158, 159, 160, 161, 162, 163, 164, 165, 166, 167, 168, 169, 170, 171, 172, 173, 174, 175, 176, 177, 178, 179, 180, 181, 182, 183, 184, 185, 186, 187, 188, 189, 190, 191, 192, 193, 194, 195, 196, 197, 198, 199, 200],
      "AcquisitionTime": ["094148.792500", "094150.792500", "094152.792500", "094154.792500", "094156.792500", "094158.792500", "094200.792500", "094202.792500", "094204.792500", "094206.792500", "094208.792500", "094210.792500", "094212.792500", "094214.792500", "094216.792500", "094218.792500", "094220.792500", "094222.792500", "094224.792500", "094226.792500", "094228.792500", "094230.792500", "094232.792500", "094234.792500", "094236.792500", "094238.792500", "094240.792500", "094242.792500", "094244.792500", "094246.792500", "094248.792500", "094250.792500", "094252.792500", "094254.792500", "094256.792500", "094258.792500", "094300.792500", "094302.792500", "094304.792500", "094306.792500", "094308.792500", "094310.792500", "094312.792500", "094314.792500", "094316.792500", "094318.792500", "094320.792500", "094322.792500", "094324.792500", "094326.792500", "094328.792500", "094330.792500", "094332.792500", "094334.792500", "094336.792500", "094338.792500", "094340.792500", "094342.792500", "094344.792500", "094346.792500", "094348.792500", "094350.792500", "094352.792500", "094354.792500", "094356.792500", "094358.792500", "094400.792500", "094402.792500", "094404.792500", "094406.792500", "094408.792500", "094410.792500", "094412.792500", "094414.792500", "094416.792500", "094418.792500", "094420.792500", "094422.792500", "094424.792500", "094426.792500", "094428.792500", "094430.792500", "094432.792500", "094434.792500", "094436.792500", "094438.792500", "094440.792500", "094442.792500", "094444.792500", "094446.792500", "094448.792500", "094450.792500", "094452.792500", "094454.792500", "094456.792500", "094458.792500", "094500.792500", "094502.792500", "094504.792500", "094506.792500", "094508.792500", "094510.792500", "094512.792500", "094514.792500", "094516.792500", "094518.792500", "094520.792500", "094522.792500", "094524.792500", "094526.792500", "094528.792500", "094530.792500", "094532.792500", "094534.792500", "094536.792500", "094538.792500", "094540.792500", "094542.792500", "094544.792500", "094546.792500", "094548.792500", "094550.792500", "094552.792500", "094554.792500", "094556.792500", "094558.792500", "094600.792500", "094602.792500", "094604.792500", "094606.792500", "094608.792500", "094610.792500", "094612.792500", "094614.792500", "094616.792500", "094618.792500", "094620.792500", "094622.792500", "094624.792500", "094626.792500", "094628.792500", "094630.792500", "094632.792500", "094634.792500", "094636.792500", "094638.792500", "094640.792500", "094642.792500", "094644.792500", "094646.792500", "094648.792500", "094650.792500", "094652.792500", "094654.792500", "094656.792500", "094658.792500", "094700.792500", "094702.792500", "094704.792500", "094706.792500", "094708.792500", "094710.792500", "094712.792500", "094714.792500", "094716.792500", "094718.792500", "094720.792500", "094722.792500", "094724.792500", "094726.792500", "094728.792500", "094730.792500", "094732.792500", "094734.792500", "094736.792500", "094738.792500", "094740.792500", "094742.792500", "094744.792500", "094746.792500", "094748.792500", "094750.792500", "094752.792500", "094754.792500", "094756.792500", "094758.792500", "094800.792500", "094802.792500", "094804.792500", "094806.792500", "094808.792500", "094810.792500", "094812.792500", "094814.792500", "094816.792500", "094818.792500", "094820.792500", "094822.792500", "094824.792500", "094826.792500"],
      "ContentTime": ["094238.087000", "094238.090000", "094238.093000", "094238.095000", "094238.119000", "094238.121000", "094238.124000", "094238.127000", "094238.129000", "094238.132000", "094238.134000", "094238.137000", "094238.148000", "094238.151000", "094238.153000", "094238.156000", "094238.158000", "094238.161000", "094238.164000", "094238.166000", "094238.169000", "094238.171000", "094238.174000", "094238.176000", "094238.179000", "094318.082000", "094318.089000", "094318.091000", "094318.094000", "094318.097000", "094318.099000", "094318.102000", "094318.104000", "094318.107000", "094318.110000", "094318.112000", "094318.114000", "094318.117000", "094318.119000", "094318.122000", "094318.125000", "094318.127000", "094318.130000", "094318.132000", "094318.135000", "094358.081000", "094358.084000", "094358.111000", "094358.114000", "094358.116000", "094358.119000", "094358.121000", "094358.124000", "094358.126000", "094358.129000", "094358.131000", "094358.134000", "094358.136000", "094358.139000", "094358.141000", "094358.144000", "094358.146000", "094358.149000", "094358.151000", "094358.162000", "094438.082000", "094438.085000", "094438.088000", "094438.090000", "094438.093000", "094438.095000", "094438.098000", "094438.100000", "094438.103000", "094438.106000", "094438.108000", "094438.111000", "094438.113000", "094438.116000", "094438.119000", "094438.121000", "094438.124000", "094438.126000", "094438.129000", "094438.131000", "094518.082000", "094518.085000", "094518.088000", "094518.091000", "094518.094000", "094518.096000", "094518.099000", "094518.101000", "094518.104000", "094518.106000", "094518.109000", "094518.111000", "094518.114000", "094518.116000", "094518.119000", "094518.127000", "094518.129000", "094518.132000", "094518.134000", "094518.137000", "094558.081000", "094558.084000", "094558.087000", "094558.089000", "094558.092000", "094558.095000", "094558.097000", "094558.100000", "094558.102000", "094558.105000", "094558.107000", "094558.110000", "094558.112000", "094558.115000", "094558.117000", "094558.120000", "094558.123000", "094558.134000", "094558.137000", "094558.139000", "094638.081000", "094638.084000", "094638.087000", "094638.089000", "094638.092000", "094638.094000", "094638.097000", "094638.099000", "094638.102000", "094638.104000", "094638.107000", "094638.109000", "094638.112000", "094638.115000", "094638.117000", "094638.120000", "094638.122000", "094638.125000", "094638.128000", "094638.130000", "094718.081000", "094718.084000", "094718.087000", "094718.090000", "094718.093000", "094718.095000", "094718.101000", "094718.103000", "094718.106000", "094718.108000", "094718.111000", "094718.114000", "094718.116000", "094718.119000", "094718.122000", "094718.124000", "094718.127000", "094718.130000", "094718.132000", "094718.135000", "094738.083000", "094738.085000", "094738.088000", "094738.091000", "094738.093000", "094738.096000", "094738.098000", "094738.107000", "094738.109000", "094738.112000", "094818.081000", "094818.084000", "094818.087000", "094818.089000", "094818.092000", "094818.095000", "094818.097000", "094818.100000", "094818.102000", "094818.105000", "094818.107000", "094818.110000", "094818.112000", "094818.115000", "094818.118000", "094818.120000", "094818.123000", "094818.125000", "094818.128000", "094818.130000", "094828.076000", "094828.079000", "094828.081000", "094828.084000", "094828.086000"],
      "InstanceCreationTime": ["094238.087000", "094238.090000", "094238.093000", "094238.095000", "094238.119000", "094238.121000", "094238.124000", "094238.127000", "094238.129000", "094238.132000", "094238.134000", "094238.137000", "094238.148000", "094238.151000", "094238.153000", "094238.156000", "094238.158000", "094238.161000", "094238.164000", "094238.166000", "094238.169000", "094238.171000", "094238.174000", "094238.176000", "094238.179000", "094318.082000", "094318.089000", "094318.091000", "094318.094000", "094318.097000", "094318.099000", "094318.102000", "094318.104000", "094318.107000", "094318.110000", "094318.112000", "094318.114000", "094318.117000", "094318.119000", "094318.122000", "094318.125000", "094318.127000", "094318.130000", "094318.132000", "094318.135000", "094358.081000", "094358.084000", "094358.111000", "094358.114000", "094358.116000", "094358.119000", "094358.121000", "094358.124000", "094358.126000", "094358.129000", "094358.131000", "094358.134000", "094358.136000", "094358.139000", "094358.141000", "094358.144000", "094358.146000", "094358.149000", "094358.151000", "094358.162000", "094438.082000", "094438.085000", "094438.088000", "094438.090000", "094438.093000", "094438.095000", "094438.098000", "094438.100000", "094438.103000", "094438.106000", "094438.108000", "094438.111000", "094438.113000", "094438.116000", "094438.119000", "094438.121000", "094438.124000", "094438.126000", "094438.129000", "094438.131000", "094518.082000", "094518.085000", "094518.088000", "094518.091000", "094518.094000", "094518.096000", "094518.099000", "094518.101000", "094518.104000", "094518.106000", "094518.109000", "094518.111000", "094518.114000", "094518.116000", "094518.119000", "094518.127000", "094518.129000", "094518.132000", "094518.134000", "094518.137000", "094558.081000", "094558.084000", "094558.087000", "094558.089000", "094558.092000", "094558.095000", "094558.097000", "094558.100000", "094558.102000", "094558.105000", "094558.107000", "094558.110000", "094558.112000", "094558.115000", "094558.117000", "094558.120000", "094558.123000", "094558.134000", "094558.137000", "094558.139000", "094638.081000", "094638.084000", "094638.087000", "094638.089000", "094638.092000", "094638.094000", "094638.097000", "094638.099000", "094638.102000", "094638.104000", "094638.107000", "094638.109000", "094638.112000", "094638.115000", "094638.117000", "094638.120000", "094638.122000", "094638.125000", "094638.128000", "094638.130000", "094718.081000", "094718.084000", "094718.087000", "094718.090000", "094718.093000", "094718.095000", "094718.101000", "094718.103000", "094718.106000", "094718.108000", "094718.111000", "094718.114000", "094718.116000", "094718.119000", "094718.122000", "094718.124000", "094718.127000", "094718.130000", "094718.132000", "094718.135000", "094738.083000", "094738.085000", "094738.088000", "094738.091000", "094738.093000", "094738.096000", "094738.098000", "094738.107000", "094738.109000", "094738.112000", "094818.081000", "094818.084000", "094818.087000", "094818.089000", "094818.092000", "094818.095000", "094818.097000", "094818.100000", "094818.102000", "094818.105000", "094818.107000", "094818.110000", "094818.112000", "094818.115000", "094818.118000", "094818.120000", "094818.123000", "094818.125000", "094818.128000", "094818.130000", "094828.076000", "094828.079000", "094828.081000", "094828.084000", "094828.086000"],
      "InstanceNumber": [1, 2, 3, 4, 5, 6, 7, 8, 9, 10, 11, 12, 13, 14, 15, 16, 17, 18, 19, 20, 21, 22, 23, 24, 25, 26, 27, 28, 29, 30, 31, 32, 33, 34, 35, 36, 37, 38, 39, 40, 41, 42, 43, 44, 45, 46, 47, 48, 49, 50, 51, 52, 53, 54, 55, 56, 57, 58, 59, 60, 61, 62, 63, 64, 65, 66, 67, 68, 69, 70, 71, 72, 73, 74, 75, 76, 77, 78, 79, 80, 81, 82, 83, 84, 85, 86, 87, 88, 89, 90, 91, 92, 93, 94, 95, 96, 97, 98, 99, 100, 101, 102, 103, 104, 105, 106, 107, 108, 109, 110, 111, 112, 113, 114, 115, 116, 117, 118, 119, 120, 121, 122, 123, 124, 125, 126, 127, 128, 129, 130, 131, 132, 133, 134, 135, 136, 137, 138, 139, 140, 141, 142, 143, 144, 145, 146, 147, 148, 149, 150, 151, 152, 153, 154, 155, 156, 157, 158, 159, 160, 161, 162, 163, 164, 165, 166, 167, 168, 169, 170, 171, 172, 173, 174, 175, 176, 177, 178, 179, 180, 181, 182, 183, 184, 185, 186, 187, 188, 189, 190, 191, 192, 193, 194, 195, 196, 197, 198, 199, 200],
      "LargestImagePixelValue": [2039, 2039, 2036, 2037, 2032, 2037, 2037, 2039, 2044, 2040, 2042, 2043, 2039, 2041, 2044, 2043, 2039, 2036, 2034, 2041, 2036, 2039, 2043, 2042, 2036, 2034, 2039, 2038, 2044, 2036, 2039, 2039, 2040, 2037, 2043, 2031, 2033, 2039, 2039, 2034, 2032, 2037, 2043, 2044, 2030, 2037, 2034, 2040, 2041, 2040, 2033, 2035, 2038, 2034, 2033, 2033, 2035, 2042, 2026, 2039, 2036, 2037, 2031, 2019, 2020, 2023, 2032, 2035, 2028, 2038, 2039, 2043, 2040, 2038, 2027, 2035, 2031, 2026, 2036, 2034, 2031, 2028, 2029, 2024, 2035, 2028, 2021, 2021, 2026, 2024, 2029, 2028, 2025, 2017, 2020, 2018, 2025, 2023, 2022, 2013, 2025, 2022, 2022, 2024, 2024, 2023, 2025, 2025, 2016, 2034, 2026, 2023, 2023, 2026, 2026, 2022, 2017, 2021, 2027, 2024, 2033, 2028, 2019, 2032, 2024, 2030, 2040, 2032, 2039, 2036, 2034, 2030, 2039, 2039, 2040, 2032, 2035, 2035, 2039, 2041, 2031, 2037, 2050, 2038, 2038, 2037, 2036, 2039, 2040, 2037, 2045, 2044, 2045, 2038, 2037, 2038, 2032, 2046, 2038, 2043, 2034, 2043, 2044, 2039, 2034, 2030, 2038, 2034, 2048, 2033, 2042, 2044, 2043, 2036, 2033, 2045, 2034, 2042, 2035, 2034, 2045, 2038, 2037, 2037, 2039, 2035, 2033, 2032, 2036, 2040, 2037, 2049, 2035, 2048, 2036, 2034, 2034, 2043, 2036, 2031],
      "WindowCenter": [973.0, 973.0, 973.0, 972.0, 973.0, 973.0, 973.0, 973.0, 973.0, 973.0, 973.0, 972.0, 972.0, 972.0, 972.0, 972.0, 972.0, 972.0, 972.0, 972.0, 972.0, 972.0, 972.0, 972.0, 972.0, 972.0, 972.0, 973.0, 972.0, 972.0, 972.0, 973.0, 972.0, 972.0, 972.0, 972.0, 973.0, 972.0, 972.0, 972.0, 972.0, 972.0, 972.0, 972.0, 972.0, 972.0, 972.0, 972.0, 973.0, 972.0, 972.0, 972.0, 972.0, 972.0, 972.0, 972.0, 972.0, 972.0, 972.0, 972.0, 973.0, 972.0, 973.0, 972.0, 972.0, 972.0, 973.0, 972.0, 972.0, 973.0, 972.0, 972.0, 972.0, 972.0, 972.0, 972.0, 972.0, 972.0, 972.0, 972.0, 972.0, 972.0, 972.0, 972.0, 972.0, 972.0, 973.0, 972.0, 972.0, 972.0, 972.0, 972.0, 972.0, 972.0, 972.0, 972.0, 972.0, 972.0, 972.0, 972.0, 972.0, 972.0, 972.0, 972.0, 972.0, 972.0, 972.0, 972.0, 973.0, 972.0, 972.0, 972.0, 972.0, 972.0, 972.0, 972.0, 972.0, 972.0, 973.0, 972.0, 972.0, 972.0, 972.0, 972.0, 972.0, 972.0, 972.0, 972.0, 972.0, 972.0, 973.0, 972.0, 972.0, 972.0, 972.0, 972.0, 972.0, 972.0, 972.0, 972.0, 972.0, 972.0, 973.0, 972.0, 972.0, 972.0, 972.0, 972.0, 972.0, 972.0, 972.0, 972.0, 972.0, 972.0, 972.0, 972.0, 972.0, 972.0, 972.0, 972.0, 972.0, 972.0, 972.0, 972.0, 972.0, 972.0, 972.0, 972.0, 972.0, 972.0, 973.0, 972.0, 972.0, 972.0, 972.0, 973.0, 972.0, 972.0, 972.0, 972.0, 972.0, 972.0, 972.0, 972.0, 972.0, 972.0, 972.0, 972.0, 972.0, 972.0, 972.0, 973.0, 972.0, 973.0, 972.0, 972.0, 972.0, 972.0, 972.0, 972.0],
      "WindowWidth": [2118.0, 2117.0, 2117.0, 2117.0, 2117.0, 2117.0, 2117.0, 2117.0, 2117.0, 2117.0, 2117.0, 2117.0, 2117.0, 2117.0, 2117.0, 2116.0, 2116.0, 2116.0, 2116.0, 2116.0, 2116.0, 2116.0, 2117.0, 2117.0, 2116.0, 2117.0, 2116.0, 2117.0, 2116.0, 2116.0, 2116.0, 2117.0, 2116.0, 2116.0, 2116.0, 2116.0, 2117.0, 2116.0, 2116.0, 2116.0, 2116.0, 2116.0, 2116.0, 2116.0, 2116.0, 2116.0, 2116.0, 2116.0, 2117.0, 2116.0, 2116.0, 2116.0, 2116.0, 2116.0, 2116.0, 2116.0, 2116.0, 2116.0, 2116.0, 2116.0, 2117.0, 2116.0, 2117.0, 2116.0, 2116.0, 2116.0, 2117.0, 2116.0, 2116.0, 2116.0, 2116.0, 2116.0, 2116.0, 2116.0, 2116.0, 2116.0, 2116.0, 2116.0, 2116.0, 2116.0, 2116.0, 2116.0, 2116.0, 2116.0, 2116.0, 2116.0, 2116.0, 2116.0, 2116.0, 2116.0, 2116.0, 2116.0, 2116.0, 2116.0, 2116.0, 2116.0, 2115.0, 2116.0, 2116.0, 2116.0, 2115.0, 2116.0, 2116.0, 2116.0, 2115.0, 2116.0, 2116.0, 2116.0, 2116.0, 2116.0, 2116.0, 2116.0, 2116.0, 2116.0, 2115.0, 2116.0, 2116.0, 2116.0, 2116.0, 2116.0, 2116.0, 2116.0, 2116.0, 2116.0, 2116.0, 2116.0, 2116.0, 2116.0, 2116.0, 2116.0, 2116.0, 2116.0, 2116.0, 2116.0, 2116.0, 2116.0, 2115.0, 2115.0, 2116.0, 2115.0, 2116.0, 2115.0, 2116.0, 2116.0, 2116.0, 2116.0, 2116.0, 2115.0, 2116.0, 2116.0, 2116.0, 2116.0, 2116.0, 2116.0, 2116.0, 2116.0, 2115.0, 2116.0, 2116.0, 2115.0, 2115.0, 2115.0, 2115.0, 2115.0, 2115.0, 2115.0, 2115.0, 2115.0, 2115.0, 2115.0, 2116.0, 2116.0, 2116.0, 2115.0, 2115.0, 2116.0, 2115.0, 2115.0, 2115.0, 2115.0, 2115.0, 2115.0, 2115.0, 2115.0, 2115.0, 2115.0, 2115.0, 2115.0, 2115.0, 2115.0, 2115.0, 2116.0, 2115.0, 2116.0, 2115.0, 2115.0, 2115.0, 2115.0, 2115.0, 2115.0]
    },
    "slices": {}
  }
}