{
  "AcquisitionMatrixPE": 122,
  "AcquisitionNumber": 1,
  "AcquisitionTime": "10:17:24.212500",
  "BandwidthPerPixelPhaseEncode": 28.76,
  "BaseResolution": 122,
  "BodyPartExamined": "BRAIN",
  "CoilCombinationMethod": "Adaptive Combine",
  "ConsistencyInfo": "N4_VE11C_LATEST_20160120",
  "ConversionSoftware": "dcm2niix",
  "ConversionSoftwareVersion": "v1.0.20220720",
  "DerivedVendorReportedEchoSpacing": 0.000570008,
  "DeviceSerialNumber": "66112",
  "DiffusionScheme": "Monopolar",
  "DwellTime": 2e-06,
  "EchoTime": 0.075,
  "EchoTrainLength": 61,
  "EffectiveEchoSpacing": 0.000285004,
  "FlipAngle": 90,
  "HeudiconvVersion": "0.13.1",
  "ImageOrientationPatientDICOM": [0.988952, -0.142868, -0.0395374, 0.147447, 0.920521, 0.361802],
  "ImageOrientationText": "Tra>Cor(21.3)>Sag(0.9)",
  "ImageType": [
    "ORIGINAL",
    "PRIMARY",
    "DIFFUSION",
    "NONE",
    "ND",
    "NORM"
],
  "ImagingFrequency": 123.252,
  "InPlanePhaseEncodingDirectionDICOM": "COL",
  "InstitutionAddress": "Maynard 3,Hanover,NH,US,03755",
  "InstitutionName": "Dartmouth College - PBS",
  "InstitutionalDepartmentName": "Department",
  "MRAcquisitionType": "2D",
  "MagneticFieldStrength": 3,
  "Manufacturer": "Siemens",
  "ManufacturersModelName": "Prisma",
  "MatrixCoilMode": "GRAPPA",
  "Modality": "MR",
  "NonlinearGradientCorrection": false,
  "ParallelReductionFactorInPlane": 2,
  "PartialFourier": 1,
  "PatientPosition": "HFS",
  "PercentPhaseFOV": 100,
  "PercentSampling": 100,
  "PhaseEncodingDirection": "j-",
  "PhaseEncodingSteps": 122,
  "PhaseResolution": 1,
  "PixelBandwidth": 2050,
  "ProcedureStepDescription": "dbic^QA",
  "ProtocolName": "dwi_acq-DTI-30-p2",
  "PulseSequenceDetails": "%SiemensSeq%\\ep2d_diff",
  "ReceiveCoilActiveElements": "HEA;HEP",
  "ReceiveCoilName": "Head_32",
  "ReconMatrixPE": 122,
  "RefLinesPE": 38,
  "RepetitionTime": 7.7,
  "SAR": 0.102196,
  "ScanOptions": "FS",
  "ScanningSequence": "EP",
  "SequenceName": "*ep_b0",
  "SequenceVariant": "SK\\SP",
  "SeriesDescription": "dwi_acq-DTI-30-p2",
  "SeriesNumber": 12,
  "ShimSetting": [4147, -7707, -7518, 259, -76, -47, 1, 86],
  "SliceThickness": 2,
  "SliceTiming": [3.83594, 0, 3.94531, 0.10938, 4.05469, 0.21875, 4.16406, 0.32812, 4.27344, 0.4375, 4.38281, 0.54688, 4.49219, 0.65625, 4.60156, 0.76562, 4.71875, 0.875, 4.82812, 0.98438, 4.9375, 1.09375, 5.03906, 1.20312, 5.15625, 1.3125, 5.26562, 1.42188, 5.375, 1.53125, 5.48438, 1.64062, 5.59375, 1.75, 5.70312, 1.85938, 5.8125, 1.96875, 5.92188, 2.08594, 6.03125, 2.19531, 6.14062, 2.29688, 6.25, 2.40625, 6.35938, 2.52344, 6.46875, 2.63281, 6.57812, 2.74219, 6.6875, 2.85156, 6.79688, 2.96094, 6.90625, 3.07031, 7.01562, 3.17969, 7.125, 3.28906, 7.23438, 3.39844, 7.34375, 3.50781, 7.46094, 3.61719, 7.57031, 3.72656],
  "SoftwareVersions": "syngo MR E11",
  "SpacingBetweenSlices": 2,
  "SpoilingState": true,
  "StationName": "AWP66112",
  "TotalReadoutTime": 0.0344855,
  "TxRefAmp": 229.104,
  "dcmmeta_affine": [
    [-1.9454787969589233, 0.29005953669548035, 0.03059011697769165, 100.17024993896484],
    [0.28105223178863525, 1.810860514640808, 0.7272682189941406, -142.9255828857422],
    [-0.07777853310108185, -0.7117425203323364, 1.8628311157226562, -10.722183227539062],
    [0.0, 0.0, 0.0, 1.0]
],
  "dcmmeta_reorient_transform": [
    [0.0, -1.0, 0.0, 121.0],
    [1.0, 0.0, 0.0, 0.0],
    [0.0, 0.0, -1.0, 69.0],
    [0.0, 0.0, 0.0, 1.0]
],
  "dcmmeta_shape": [122, 122, 70, 31],
  "dcmmeta_slice_dim": 2,
  "dcmmeta_version": 0.6,
  "global": {
    "const": {
      "AccessionNumber": "qa",
      "AcquisitionMatrix": [122, 0, 0, 122],
      "AngioFlag": "N",
      "BitsAllocated": 16,
      "BitsStored": 12,
      "BodyPartExamined": "BRAIN",
      "Columns": 122,
      "EchoNumbers": 1,
      "EchoTime": 75.0,
      "EchoTrainLength": 61,
      "FlipAngle": 90.0,
      "HighBit": 11,
      "ImageOrientationPatient": [0.98895169964437, -0.1428682191939, -0.0395374217024, 0.14744692949979, 0.92052071566346, 0.36180245302585],
      "ImageType": [
        "ORIGINAL",
        "PRIMARY",
        "DIFFUSION",
        "NONE",
        "ND",
        "NORM"
],
      "ImagedNucleus": "1H",
      "ImagingFrequency": 123.252343,
      "InPlanePhaseEncodingDirection": "COL",
      "MRAcquisitionType": "2D",
      "MagneticFieldStrength": 3.0,
      "Manufacturer": "SIEMENS",
      "ManufacturerModelName": "Prisma",
      "Modality": "MR",
      "NumberOfAverages": 1.0,
      "NumberOfPhaseEncodingSteps": 122,
      "PercentPhaseFieldOfView": 100.0,
      "PercentSampling": 100.0,
      "PerformedProcedureStepStartTime": "094734.251000",
      "PhotometricInterpretation": "MONOCHROME2",
      "PixelBandwidth": 2050.0,
      "PixelRepresentation": 0,
      "PixelSpacing": [1.9672131538391, 1.9672131538391],
      "ProtocolName": "dwi_acq-DTI-30-p2",
      "RepetitionTime": 7700.0,
      "Rows": 122,
      "SAR": 0.10219567931949,
      "SamplesPerPixel": 1,
      "ScanOptions": "FS",
      "ScanningSequence": "EP",
      "SequenceVariant": [
        "SK",
        "SP"
],
      "SeriesDescription": "dwi_acq-DTI-30-p2",
      "SeriesNumber": 12,
      "SeriesTime": "101734.926000",
      "SliceThickness": 2.0,
      "SmallestImagePixelValue": 0,
      "SoftwareVersions": "syngo MR E11",
      "SpacingBetweenSlices": 2.0,
      "SpecificCharacterSet": "ISO_IR 100",
      "StudyID": "2",
      "StudyTime": "094734.198000",
      "TransmitCoilName": "Body",
      "VariableFlipAngleFlag": "N",
      "WindowCenterWidthExplanation": "Algo1",
      "dBdt": 0.0},
    "slices": {
      "AcquisitionTime": ["101724.212500", "101720.372500", "101724.322500", "101720.482500", "101724.432500", "101720.592500", "101724.540000", "101720.700000", "101724.650000", "101720.810000", "101724.760000", "101720.920000", "101724.870000", "101721.030000", "101724.980000", "101721.140000", "101725.090000", "101721.250000", "101725.200000", "101721.360000", "101725.310000", "101721.470000", "101725.417500", "101721.580000", "101725.527500", "101721.687500", "101725.637500", "101721.797500", "101725.747500", "101721.907500", "101725.857500", "101722.017500", "101725.967500", "101722.127500", "101726.077500", "101722.237500", "101726.187500", "101722.347500", "101726.297500", "101722.457500", "101726.405000", "101722.567500", "101726.515000", "101722.675000", "101726.625000", "101722.785000", "101726.735000", "101722.895000", "101726.845000", "101723.005000", "101726.955000", "101723.115000", "101727.065000", "101723.225000", "101727.175000", "101723.335000", "101727.285000", "101723.445000", "101727.392500", "101723.552500", "101727.502500", "101723.662500", "101727.612500", "101723.772500", "101727.722500", "101723.882500", "101727.832500", "101723.992500", "101727.942500", "101724.102500", "101731.912500", "101728.072500", "101732.022500", "101728.182500", "101732.132500", "101728.292500", "101732.240000", "101728.400000", "101732.350000", "101728.510000", "101732.460000", "101728.620000", "101732.570000", "101728.730000", "101732.680000", "101728.840000", "101732.790000", "101728.950000", "101732.900000", "101729.060000", "101733.010000", "101729.170000", "101733.117500", "101729.280000", "101733.227500", "101729.387500", "101733.337500", "101729.497500", "101733.447500", "101729.607500", "101733.557500", "101729.717500", "101733.667500", "101729.827500", "101733.777500", "101729.937500", "101733.887500", "101730.047500", "101733.997500", "101730.157500", "101734.105000", "101730.267500", "101734.215000", "101730.375000", "101734.325000", "101730.485000", "101734.435000", "101730.595000", "101734.545000", "101730.705000", "101734.655000", "101730.815000", "101734.765000", "101730.925000", "101734.875000", "101731.035000", "101734.985000", "101731.145000", "101735.092500", "101731.252500", "101735.202500", "101731.362500", "101735.312500", "101731.472500", "101735.422500", "101731.582500", "101735.532500", "101731.692500", "101735.642500", "101731.802500", "101739.612500", "101735.772500", "101739.722500", "101735.882500", "101739.832500", "101735.992500", "101739.940000", "101736.100000", "101740.050000", "101736.210000", "101740.160000", "101736.320000", "101740.270000", "101736.430000", "101740.380000", "101736.540000", "101740.490000", "101736.650000", "101740.600000", "101736.760000", "101740.710000", "101736.870000", "101740.817500", "101736.980000", "101740.927500", "101737.087500", "101741.037500", "101737.197500", "101741.147500", "101737.307500", "101741.257500", "101737.417500", "101741.367500", "101737.527500", "101741.477500", "101737.637500", "101741.587500", "101737.747500", "101741.697500", "101737.857500", "101741.805000", "101737.967500", "101741.915000", "101738.075000", "101742.025000", "101738.185000", "101742.135000", "101738.295000", "101742.245000", "101738.405000", "101742.355000", "101738.515000", "101742.465000", "101738.625000", "101742.575000", "101738.735000", "101742.685000", "101738.845000", "101742.792500", "101738.952500", "101742.902500", "101739.062500", "101743.012500", "101739.172500", "101743.122500", "101739.282500", "101743.232500", "101739.392500", "101743.342500", "101739.502500", "101747.312500", "101743.472500", "101747.422500", "101743.582500", "101747.532500", "101743.692500", "101747.640000", "101743.800000", "101747.750000", "101743.910000", "101747.860000", "101744.020000", "101747.970000", "101744.130000", "101748.080000", "101744.240000", "101748.190000", "101744.350000", "101748.300000", "101744.460000", "101748.410000", "101744.570000", "101748.517500", "101744.680000", "101748.627500", "101744.787500", "101748.737500", "101744.897500", "101748.847500", "101745.007500", "101748.957500", "101745.117500", "101749.067500", "101745.227500", "101749.177500", "101745.337500", "101749.287500", "101745.447500", "101749.397500", "101745.557500", "101749.505000", "101745.667500", "101749.615000", "101745.775000", "101749.725000", "101745.885000", "101749.835000", "101745.995000", "101749.945000", "101746.105000", "101750.055000", "101746.215000", "101750.165000", "101746.325000", "101750.275000", "101746.435000", "101750.385000", "101746.545000", "101750.492500", "101746.652500", "101750.602500", "101746.762500", "101750.712500", "101746.872500", "101750.822500", "101746.982500", "101750.932500", "101747.092500", "101751.042500", "101747.202500", "101755.012500", "101751.172500", "101755.122500", "101751.282500", "101755.232500", "101751.392500", "101755.340000", "101751.500000", "101755.450000", "101751.610000", "101755.560000", "101751.720000", "101755.670000", "101751.830000", "101755.780000", "101751.940000", "101755.890000", "101752.050000", "101756.000000", "101752.160000", "101756.110000", "101752.270000", "101756.217500", "101752.380000", "101756.327500", "101752.487500", "101756.437500", "101752.597500", "101756.547500", "101752.707500", "101756.657500", "101752.817500", "101756.767500", "101752.927500", "101756.877500", "101753.037500", "101756.987500", "101753.147500", "101757.097500", "101753.257500", "101757.205000", "101753.367500", "101757.315000", "101753.475000", "101757.425000", "101753.585000", "101757.535000", "101753.695000", "101757.645000", "101753.805000", "101757.755000", "101753.915000", "101757.865000", "101754.025000", "101757.975000", "101754.135000", "101758.085000", "101754.245000", "101758.192500", "101754.352500", "101758.302500", "101754.462500", "101758.412500", "101754.572500", "101758.522500", "101754.682500", "101758.632500", "101754.792500", "101758.742500", "101754.902500", "101802.712500", "101758.872500", "101802.822500", "101758.982500", "101802.932500", "101759.092500", "101803.040000", "101759.200000", "101803.150000", "101759.310000", "101803.260000", "101759.420000", "101803.370000", "101759.530000", "101803.480000", "101759.640000", "101803.590000", "101759.750000", "101803.700000", "101759.860000", "101803.810000", "101759.970000", "101803.917500", "101800.080000", "101804.027500", "101800.187500", "101804.137500", "101800.297500", "101804.247500", "101800.407500", "101804.357500", "101800.517500", "101804.467500", "101800.627500", "101804.577500", "101800.737500", "101804.687500", "101800.847500", "101804.797500", "101800.957500", "101804.905000", "101801.067500", "101805.015000", "101801.175000", "101805.125000", "101801.285000", "101805.235000", "101801.395000", "101805.345000", "101801.505000", "101805.455000", "101801.615000", "101805.565000", "101801.725000", "101805.675000", "101801.835000", "101805.785000", "101801.945000", "101805.892500", "101802.052500", "101806.002500", "101802.162500", "101806.112500", "101802.272500", "101806.222500", "101802.382500", "101806.332500", "101802.492500", "101806.442500", "101802.602500", "101810.412500", "101806.572500", "101810.522500", "101806.682500", "101810.632500", "101806.792500", "101810.740000", "101806.900000", "101810.850000", "101807.010000", "101810.960000", "101807.120000", "101811.070000", "101807.230000", "101811.180000", "101807.340000", "101811.290000", "101807.450000", "101811.400000", "101807.560000", "101811.510000", "101807.670000", "101811.617500", "101807.780000", "101811.727500", "101807.887500", "101811.837500", "101807.997500", "101811.947500", "101808.107500", "101812.057500", "101808.217500", "101812.167500", "101808.327500", "101812.277500", "101808.437500", "101812.387500", "101808.547500", "101812.497500", "101808.657500", "101812.605000", "101808.767500", "101812.715000", "101808.875000", "101812.825000", "101808.985000", "101812.935000", "101809.095000", "101813.045000", "101809.205000", "101813.155000", "101809.315000", "101813.265000", "101809.425000", "101813.375000", "101809.535000", "101813.485000", "101809.645000", "101813.592500", "101809.752500", "101813.702500", "101809.862500", "101813.812500", "101809.972500", "101813.922500", "101810.082500", "101814.032500", "101810.192500", "101814.142500", "101810.302500", "101818.112500", "101814.272500", "101818.222500", "101814.382500", "101818.332500", "101814.492500", "101818.440000", "101814.600000", "101818.550000", "101814.710000", "101818.660000", "101814.820000", "101818.770000", "101814.930000", "101818.880000", "101815.040000", "101818.990000", "101815.150000", "101819.100000", "101815.260000", "101819.210000", "101815.370000", "101819.317500", "101815.480000", "101819.427500", "101815.587500", "101819.537500", "101815.697500", "101819.647500", "101815.807500", "101819.757500", "101815.917500", "101819.867500", "101816.027500", "101819.977500", "101816.137500", "101820.087500", "101816.247500", "101820.197500", "101816.357500", "101820.305000", "101816.467500", "101820.415000", "101816.575000", "101820.525000", "101816.685000", "101820.635000", "101816.795000", "101820.745000", "101816.905000", "101820.855000", "101817.015000", "101820.965000", "101817.125000", "101821.075000", "101817.235000", "101821.185000", "101817.345000", "101821.292500", "101817.452500", "101821.402500", "101817.562500", "101821.512500", "101817.672500", "101821.622500", "101817.782500", "101821.732500", "101817.892500", "101821.842500", "101818.002500", "101825.812500", "101821.972500", "101825.922500", "101822.082500", "101826.032500", "101822.192500", "101826.140000", "101822.300000", "101826.250000", "101822.410000", "101826.360000", "101822.520000", "101826.470000", "101822.630000", "101826.580000", "101822.740000", "101826.690000", "101822.850000", "101826.800000", "101822.960000", "101826.910000", "101823.070000", "101827.017500", "101823.180000", "101827.127500", "101823.287500", "101827.237500", "101823.397500", "101827.347500", "101823.507500", "101827.457500", "101823.617500", "101827.567500", "101823.727500", "101827.677500", "101823.837500", "101827.787500", "101823.947500", "101827.897500", "101824.057500", "101828.005000", "101824.167500", "101828.115000", "101824.275000", "101828.225000", "101824.385000", "101828.335000", "101824.495000", "101828.445000", "101824.605000", "101828.555000", "101824.715000", "101828.665000", "101824.825000", "101828.775000", "101824.935000", "101828.885000", "101825.045000", "101828.992500", "101825.152500", "101829.102500", "101825.262500", "101829.212500", "101825.372500", "101829.322500", "101825.482500", "101829.432500", "101825.592500", "101829.542500", "101825.702500", "101833.512500", "101829.672500", "101833.622500", "101829.782500", "101833.732500", "101829.892500", "101833.840000", "101830.000000", "101833.950000", "101830.110000", "101834.060000", "101830.220000", "101834.170000", "101830.330000", "101834.280000", "101830.440000", "101834.390000", "101830.550000", "101834.500000", "101830.660000", "101834.610000", "101830.770000", "101834.717500", "101830.880000", "101834.827500", "101830.987500", "101834.937500", "101831.097500", "101835.047500", "101831.207500", "101835.157500", "101831.317500", "101835.267500", "101831.427500", "101835.377500", "101831.537500", "101835.487500", "101831.647500", "101835.597500", "101831.757500", "101835.705000", "101831.867500", "101835.815000", "101831.975000", "101835.925000", "101832.085000", "101836.035000", "101832.195000", "101836.145000", "101832.305000", "101836.255000", "101832.415000", "101836.365000", "101832.525000", "101836.475000", "101832.635000", "101836.585000", "101832.745000", "101836.692500", "101832.852500", "101836.802500", "101832.962500", "101836.912500", "101833.072500", "101837.022500", "101833.182500", "101837.132500", "101833.292500", "101837.242500", "101833.402500", "101841.212500", "101837.372500", "101841.322500", "101837.482500", "101841.432500", "101837.592500", "101841.540000", "101837.700000", "101841.650000", "101837.810000", "101841.760000", "101837.920000", "101841.870000", "101838.030000", "101841.980000", "101838.140000", "101842.090000", "101838.250000", "101842.200000", "101838.360000", "101842.310000", "101838.470000", "101842.417500", "101838.580000", "101842.527500", "101838.687500", "101842.637500", "101838.797500", "101842.747500", "101838.907500", "101842.857500", "101839.017500", "101842.967500", "101839.127500", "101843.077500", "101839.237500", "101843.187500", "101839.347500", "101843.297500", "101839.457500", "101843.405000", "101839.567500", "101843.515000", "101839.675000", "101843.625000", "101839.785000", "101843.735000", "101839.895000", "101843.845000", "101840.005000", "101843.955000", "101840.115000", "101844.065000", "101840.225000", "101844.175000", "101840.335000", "101844.285000", "101840.445000", "101844.392500", "101840.552500", "101844.502500", "101840.662500", "101844.612500", "101840.772500", "101844.722500", "101840.882500", "101844.832500", "101840.992500", "101844.942500", "101841.102500", "101848.912500", "101845.072500", "101849.022500", "101845.182500", "101849.132500", "101845.292500", "101849.240000", "101845.400000", "101849.350000", "101845.510000", "101849.460000", "101845.620000", "101849.570000", "101845.730000", "101849.680000", "101845.840000", "101849.790000", "101845.950000", "101849.900000", "101846.060000", "101850.010000", "101846.170000", "101850.117500", "101846.280000", "101850.227500", "101846.387500", "101850.337500", "101846.497500", "101850.447500", "101846.607500", "101850.557500", "101846.717500", "101850.667500", "101846.827500", "101850.777500", "101846.937500", "101850.887500", "101847.047500", "101850.997500", "101847.157500", "101851.105000", "101847.267500", "101851.215000", "101847.375000", "101851.325000", "101847.485000", "101851.435000", "101847.595000", "101851.545000", "101847.705000", "101851.655000", "101847.815000", "101851.765000", "101847.925000", "101851.875000", "101848.035000", "101851.985000", "101848.145000", "101852.092500", "101848.252500", "101852.202500", "101848.362500", "101852.312500", "101848.472500", "101852.422500", "101848.582500", "101852.532500", "101848.692500", "101852.642500", "101848.802500", "101856.612500", "101852.772500", "101856.722500", "101852.882500", "101856.832500", "101852.992500", "101856.940000", "101853.100000", "101857.050000", "101853.210000", "101857.160000", "101853.320000", "101857.270000", "101853.430000", "101857.380000", "101853.540000", "101857.490000", "101853.650000", "101857.600000", "101853.760000", "101857.710000", "101853.870000", "101857.817500", "101853.980000", "101857.927500", "101854.087500", "101858.037500", "101854.197500", "101858.147500", "101854.307500", "101858.257500", "101854.417500", "101858.367500", "101854.527500", "101858.477500", "101854.637500", "101858.587500", "101854.747500", "101858.697500", "101854.857500", "101858.805000", "101854.967500", "101858.915000", "101855.075000", "101859.025000", "101855.185000", "101859.135000", "101855.295000", "101859.245000", "101855.405000", "101859.355000", "101855.515000", "101859.465000", "101855.625000", "101859.575000", "101855.735000", "101859.685000", "101855.845000", "101859.792500", "101855.952500", "101859.902500", "101856.062500", "101900.012500", "101856.172500", "101900.122500", "101856.282500", "101900.232500", "101856.392500", "101900.342500", "101856.502500", "101904.312500", "101900.472500", "101904.422500", "101900.582500", "101904.532500", "101900.692500", "101904.640000", "101900.800000", "101904.750000", "101900.910000", "101904.860000", "101901.020000", "101904.970000", "101901.130000", "101905.080000", "101901.240000", "101905.190000", "101901.350000", "101905.300000", "101901.460000", "101905.410000", "101901.570000", "101905.517500", "101901.680000", "101905.627500", "101901.787500", "101905.737500", "101901.897500", "101905.847500", "101902.007500", "101905.957500", "101902.117500", "101906.067500", "101902.227500", "101906.177500", "101902.337500", "101906.287500", "101902.447500", "101906.397500", "101902.557500", "101906.505000", "101902.667500", "101906.615000", "101902.775000", "101906.725000", "101902.885000", "101906.835000", "101902.995000", "101906.945000", "101903.105000", "101907.055000", "101903.215000", "101907.165000", "101903.325000", "101907.275000", "101903.435000", "101907.385000", "101903.545000", "101907.492500", "101903.652500", "101907.602500", "101903.762500", "101907.712500", "101903.872500", "101907.822500", "101903.982500", "101907.932500", "101904.092500", "101908.042500", "101904.202500", "101912.012500", "101908.172500", "101912.122500", "101908.282500", "101912.232500", "101908.392500", "101912.340000", "101908.500000", "101912.450000", "101908.610000", "101912.560000", "101908.720000", "101912.670000", "101908.830000", "101912.780000", "101908.940000", "101912.890000", "101909.050000", "101913.000000", "101909.160000", "101913.110000", "101909.270000", "101913.217500", "101909.380000", "101913.327500", "101909.487500", "101913.437500", "101909.597500", "101913.547500", "101909.707500", "101913.657500", "101909.817500", "101913.767500", "101909.927500", "101913.877500", "101910.037500", "101913.987500", "101910.147500", "101914.097500", "101910.257500", "101914.205000", "101910.367500", "101914.315000", "101910.475000", "101914.425000", "101910.585000", "101914.535000", "101910.695000", "101914.645000", "101910.805000", "101914.755000", "101910.915000", "101914.865000", "101911.025000", "101914.975000", "101911.135000", "101915.085000", "101911.245000", "101915.192500", "101911.352500", "101915.302500", "101911.462500", "101915.412500", "101911.572500", "101915.522500", "101911.682500", "101915.632500", "101911.792500", "101915.742500", "101911.902500", "101919.712500", "101915.872500", "101919.822500", "101915.982500", "101919.932500", "101916.092500", "101920.040000", "101916.200000", "101920.150000", "101916.310000", "101920.260000", "101916.420000", "101920.370000", "101916.530000", "101920.480000", "101916.640000", "101920.590000", "101916.750000", "101920.700000", "101916.860000", "101920.810000", "101916.970000", "101920.917500", "101917.080000", "101921.027500", "101917.187500", "101921.137500", "101917.297500", "101921.247500", "101917.407500", "101921.357500", "101917.517500", "101921.467500", "101917.627500", "101921.577500", "101917.737500", "101921.687500", "101917.847500", "101921.797500", "101917.957500", "101921.905000", "101918.067500", "101922.015000", "101918.175000", "101922.125000", "101918.285000", "101922.235000", "101918.395000", "101922.345000", "101918.505000", "101922.455000", "101918.615000", "101922.565000", "101918.725000", "101922.675000", "101918.835000", "101922.785000", "101918.945000", "101922.892500", "101919.052500", "101923.002500", "101919.162500", "101923.112500", "101919.272500", "101923.222500", "101919.382500", "101923.332500", "101919.492500", "101923.442500", "101919.602500", "101927.412500", "101923.572500", "101927.522500", "101923.682500", "101927.632500", "101923.792500", "101927.740000", "101923.900000", "101927.850000", "101924.010000", "101927.960000", "101924.120000", "101928.070000", "101924.230000", "101928.180000", "101924.340000", "101928.290000", "101924.450000", "101928.400000", "101924.560000", "101928.510000", "101924.670000", "101928.617500", "101924.780000", "101928.727500", "101924.887500", "101928.837500", "101924.997500", "101928.947500", "101925.107500", "101929.057500", "101925.217500", "101929.167500", "101925.327500", "101929.277500", "101925.437500", "101929.387500", "101925.547500", "101929.497500", "101925.657500", "101929.605000", "101925.767500", "101929.715000", "101925.875000", "101929.825000", "101925.985000", "101929.935000", "101926.095000", "101930.045000", "101926.205000", "101930.155000", "101926.315000", "101930.265000", "101926.425000", "101930.375000", "101926.535000", "101930.485000", "101926.645000", "101930.592500", "101926.752500", "101930.702500", "101926.862500", "101930.812500", "101926.972500", "101930.922500", "101927.082500", "101931.032500", "101927.192500", "101931.142500", "101927.302500", "101935.112500", "101931.272500", "101935.222500", "101931.382500", "101935.332500", "101931.492500", "101935.440000", "101931.600000", "101935.550000", "101931.710000", "101935.660000", "101931.820000", "101935.770000", "101931.930000", "101935.880000", "101932.040000", "101935.990000", "101932.150000", "101936.100000", "101932.260000", "101936.210000", "101932.370000", "101936.317500", "101932.480000", "101936.427500", "101932.587500", "101936.537500", "101932.697500", "101936.647500", "101932.807500", "101936.757500", "101932.917500", "101936.867500", "101933.027500", "101936.977500", "101933.137500", "101937.087500", "101933.247500", "101937.197500", "101933.357500", "101937.305000", "101933.467500", "101937.415000", "101933.575000", "101937.525000", "101933.685000", "101937.635000", "101933.795000", "101937.745000", "101933.905000", "101937.855000", "101934.015000", "101937.965000", "101934.125000", "101938.075000", "101934.235000", "101938.185000", "101934.345000", "101938.292500", "101934.452500", "101938.402500", "101934.562500", "101938.512500", "101934.672500", "101938.622500", "101934.782500", "101938.732500", "101934.892500", "101938.842500", "101935.002500", "101942.812500", "101938.972500", "101942.922500", "101939.082500", "101943.032500", "101939.192500", "101943.140000", "101939.300000", "101943.250000", "101939.410000", "101943.360000", "101939.520000", "101943.470000", "101939.630000", "101943.580000", "101939.740000", "101943.690000", "101939.850000", "101943.800000", "101939.960000", "101943.910000", "101940.070000", "101944.017500", "101940.180000", "101944.127500", "101940.287500", "101944.237500", "101940.397500", "101944.347500", "101940.507500", "101944.457500", "101940.617500", "101944.567500", "101940.727500", "101944.677500", "101940.837500", "101944.787500", "101940.947500", "101944.897500", "101941.057500", "101945.005000", "101941.167500", "101945.115000", "101941.275000", "101945.225000", "101941.385000", "101945.335000", "101941.495000", "101945.445000", "101941.605000", "101945.555000", "101941.715000", "101945.665000", "101941.825000", "101945.775000", "101941.935000", "101945.885000", "101942.045000", "101945.992500", "101942.152500", "101946.102500", "101942.262500", "101946.212500", "101942.372500", "101946.322500", "101942.482500", "101946.432500", "101942.592500", "101946.542500", "101942.702500", "101950.512500", "101946.672500", "101950.622500", "101946.782500", "101950.732500", "101946.892500", "101950.840000", "101947.000000", "101950.950000", "101947.110000", "101951.060000", "101947.220000", "101951.170000", "101947.330000", "101951.280000", "101947.440000", "101951.390000", "101947.550000", "101951.500000", "101947.660000", "101951.610000", "101947.770000", "101951.717500", "101947.880000", "101951.827500", "101947.987500", "101951.937500", "101948.097500", "101952.047500", "101948.207500", "101952.157500", "101948.317500", "101952.267500", "101948.427500", "101952.377500", "101948.537500", "101952.487500", "101948.647500", "101952.597500", "101948.757500", "101952.705000", "101948.867500", "101952.815000", "101948.975000", "101952.925000", "101949.085000", "101953.035000", "101949.195000", "101953.145000", "101949.305000", "101953.255000", "101949.415000", "101953.365000", "101949.525000", "101953.475000", "101949.635000", "101953.585000", "101949.745000", "101953.692500", "101949.852500", "101953.802500", "101949.962500", "101953.912500", "101950.072500", "101954.022500", "101950.182500", "101954.132500", "101950.292500", "101954.242500", "101950.402500", "101958.212500", "101954.372500", "101958.322500", "101954.482500", "101958.432500", "101954.592500", "101958.540000", "101954.700000", "101958.650000", "101954.810000", "101958.760000", "101954.920000", "101958.870000", "101955.030000", "101958.980000", "101955.140000", "101959.090000", "101955.250000", "101959.200000", "101955.360000", "101959.310000", "101955.470000", "101959.417500", "101955.580000", "101959.527500", "101955.687500", "101959.637500", "101955.797500", "101959.747500", "101955.907500", "101959.857500", "101956.017500", "101959.967500", "101956.127500", "102000.077500", "10