{
  "AcquisitionMatrixPE": 80,
  "AcquisitionNumber": 1,
  "AcquisitionTime": "09:45:26.222500",
  "BandwidthPerPixelPhaseEncode": 48.077,
  "BaseResolution": 80,
  "BodyPartExamined": "BRAIN",
  "CoilCombinationMethod": "Sum of Squares",
  "ConsistencyInfo": "N4_VE11C_LATEST_20160120",
  "ConversionSoftware": "dcm2niix",
  "ConversionSoftwareVersion": "v1.0.20220720",
  "DerivedVendorReportedEchoSpacing": 0.000519999,
  "DeviceSerialNumber": "66112",
  "DwellTime": 2.7e-06,
  "EchoTime": 0.035,
  "EchoTrainLength": 39,
  "EffectiveEchoSpacing": 0.00026,
  "FlipAngle": 90,
  "HeudiconvVersion": "0.13.1",
  "ImageOrientationPatientDICOM": [0.982975, 0.183463, 0.0101096, -0.177928, 0.936701, 0.301551],
  "ImageOrientationText": "Tra>Cor(17.4)>Sag(-2.6)",
  "ImageType": [
    "ORIGINAL",
    "PRIMARY",
    "M",
    "ND",
    "NORM",
    "MOSAIC"
],
  "ImagingFrequency": 123.252,
  "InPlanePhaseEncodingDirectionDICOM": "COL",
  "InstitutionAddress": "Maynard 3,Hanover,NH,US,03755",
  "InstitutionName": "Dartmouth College - PBS",
  "InstitutionalDepartmentName": "Department",
  "MRAcquisitionType": "2D",
  "MagneticFieldStrength": 3,
  "Manufacturer": "Siemens",
  "ManufacturersModelName": "Prisma",
  "MatrixCoilMode": "GRAPPA",
  "Modality": "MR",
  "NonlinearGradientCorrection": false,
  "ParallelReductionFactorInPlane": 2,
  "PartialFourier": 1,
  "PatientPosition": "HFS",
  "PercentPhaseFOV": 100,
  "PercentSampling": 100,
  "PhaseEncodingDirection": "j-",
  "PhaseEncodingSteps": 79,
  "PhaseResolution": 1,
  "PixelBandwidth": 2315,
  "ProcedureStepDescription": "dbic^QA",
  "ProtocolName": "func-bold_task-rest_acq-p2",
  "PulseSequenceDetails": "%SiemensSeq%\\ep2d_bold",
  "ReceiveCoilActiveElements": "HEA;HEP",
  "ReceiveCoilName": "Head_32",
  "ReconMatrixPE": 80,
  "RefLinesPE": 24,
  "RepetitionTime": 2,
  "SAR": 0.0553721,
  "ScanOptions": "FS",
  "ScanningSequence": "EP",
  "SequenceName": "*epfid2d1_80",
  "SequenceVariant": "SK",
  "SeriesDescription": "func-bold_task-rest_acq-p2",
  "SeriesNumber": 5,
  "ShimSetting": [4146, -7691, -7511, 324, -67, -132, -80, 67],
  "SliceThickness": 3.5,
  "SliceTiming": [0.99, 0, 1.055, 0.065, 1.1225, 0.1325, 1.1875, 0.1975, 1.255, 0.265, 1.32, 0.33, 1.385, 0.395, 1.4525, 0.4625, 1.5175, 0.5275, 1.585, 0.595, 1.65, 0.66, 1.715, 0.725, 1.7825, 0.7925, 1.8475, 0.8575, 1.915, 0.925],
  "SoftwareVersions": "syngo MR E11",
  "SpacingBetweenSlices": 3.99,
  "StationName": "AWP66112",
  "TaskName": "rest",
  "TotalReadoutTime": 0.02054,
  "TxRefAmp": 233.366,
  "dcmmeta_affine": [
    [-2.9489238262176514, -0.5337838530540466, -0.18295708298683167, 145.1648712158203],
    [-0.5503894686698914, 2.810102701187134, 1.1898815631866455, -102.6930923461914],
    [0.03032865561544895, -0.9046534895896912, 3.804051637649536, -23.711841583251953],
    [0.0, 0.0, 0.0, 1.0]
],
  "dcmmeta_reorient_transform": [
    [0.0, -1.0, 0.0, 79.0],
    [1.0, 0.0, 0.0, 0.0],
    [0.0, 0.0, 1.0, 0.0],
    [0.0, 0.0, 0.0, 1.0]
],
  "dcmmeta_shape": [80, 80, 30, 200],
  "dcmmeta_slice_dim": 2,
  "dcmmeta_version": 0.6,
  "global": {
    "const": {
      "AccessionNumber": "qa",
      "AcquisitionMatrix": [80, 0, 0, 80],
      "AngioFlag": "N",
      "BitsAllocated": 16,
      "BitsStored": 12,
      "BodyPartExamined": "BRAIN",
      "Columns": 480,
      "EchoNumbers": 1,
      "EchoTime": 35.0,
      "EchoTrainLength": 39,
      "FlipAngle": 90.0,
      "HighBit": 11,
      "ImageOrientationPatient": [0.98297460025532, 0.18346316308226, 0.01010955215345, -0.1779279479596, 0.93670087971279, 0.30155116859359],
      "ImagePositionPatient": [-586.02393236529, -791.40344005896, -282.17590082263],
      "ImageType": [
        "ORIGINAL",
        "PRIMARY",
        "M",
        "ND",
        "NORM",
        "MOSAIC"
],
      "ImagedNucleus": "1H",
      "ImagingFrequency": 123.252444,
      "InPlanePhaseEncodingDirection": "COL",
      "MRAcquisitionType": "2D",
      "MagneticFieldStrength": 3.0,
      "Manufacturer": "SIEMENS",
      "ManufacturerModelName": "Prisma",
      "Modality": "MR",
      "NumberOfAverages": 1.0,
      "NumberOfPhaseEncodingSteps": 79,
      "PercentPhaseFieldOfView": 100.0,
      "PercentSampling": 100.0,
      "PerformedProcedureStepStartTime": "093344.712000",
      "PhotometricInterpretation": "MONOCHROME2",
      "PixelBandwidth": 2315.0,
      "PixelRepresentation": 0,
      "PixelSpacing": [3.0, 3.0],
      "ProtocolName": "func-bold_task-rest_acq-p2",
      "RepetitionTime": 2000.0,
      "Rows": 480,
      "SAR": 0.05537211037001,
      "SamplesPerPixel": 1,
      "ScanOptions": "FS",
      "ScanningSequence": "EP",
      "SequenceName": "*epfid2d1_80",
      "SequenceVariant": "SK",
      "SeriesDescription": "func-bold_task-rest_acq-p2",
      "SeriesNumber": 5,
      "SeriesTime": "094612.216000",
      "SliceLocation": -59.887874701671,
      "SliceThickness": 3.5,
      "SmallestImagePixelValue": 0,
      "SoftwareVersions": "syngo MR E11",
      "SpacingBetweenSlices": 3.9900001213066,
      "SpecificCharacterSet": "ISO_IR 100",
      "StudyID": "70",
      "StudyTime": "093344.623000",
      "TransmitCoilName": "Body",
      "VariableFlipAngleFlag": "N",
      "WindowCenterWidthExplanation": "Algo1",
      "dBdt": 0.0},
    "slices": {}
  },
  "time": {
    "samples": {
      "AcquisitionNumber": [1, 2, 3, 4, 5, 6, 7, 8, 9, 10, 11, 12, 13, 14, 15, 16, 17, 18, 19, 20, 21, 22, 23, 24, 25, 26, 27, 28, 29, 30, 31, 32, 33, 34, 35, 36, 37, 38, 39, 40, 41, 42, 43, 44, 45, 46, 47, 48, 49, 50, 51, 52, 53, 54, 55, 56, 57, 58, 59, 60, 61, 62, 63, 64, 65, 66, 67, 68, 69, 70, 71, 72, 73, 74, 75, 76, 77, 78, 79, 80, 81, 82, 83, 84, 85, 86, 87, 88, 89, 90, 91, 92, 93, 94, 95, 96, 97, 98, 99, 100, 101, 102, 103, 104, 105, 106, 107, 108, 109, 110, 111, 112, 113, 114, 115, 116, 117, 118, 119, 120, 121, 122, 123, 124, 125, 126, 127, 128, 129, 130, 131, 132, 133, 134, 135, 136, 137, 138, 139, 140, 141, 142, 143, 144, 145, 146, 147, 148, 149, 150, 151, 152, 153, 154, 155, 156, 157, 158, 159, 160, 161, 162, 163, 164, 165, 166, 167, 168, 169, 170, 171, 172, 173, 174, 175, 176, 177, 178, 179, 180, 181, 182, 183, 184, 185, 186, 187, 188, 189, 190, 191, 192, 193, 194, 195, 196, 197, 198, 199, 200],
      "AcquisitionTime": ["094526.222500", "094528.222500", "094530.222500", "094532.222500", "094534.222500", "094536.222500", "094538.222500", "094540.222500", "094542.222500", "094544.222500", "094546.222500", "094548.222500", "094550.222500", "094552.222500", "094554.222500", "094556.222500", "094558.222500", "094600.222500", "094602.222500", "094604.222500", "094606.222500", "094608.222500", "094610.222500", "094612.222500", "094614.222500", "094616.222500", "094618.222500", "094620.222500", "094622.222500", "094624.222500", "094626.222500", "094628.222500", "094630.222500", "094632.222500", "094634.222500", "094636.222500", "094638.222500", "094640.222500", "094642.222500", "094644.222500", "094646.222500", "094648.222500", "094650.222500", "094652.222500", "094654.222500", "094656.222500", "094658.222500", "094700.222500", "094702.222500", "094704.222500", "094706.222500", "094708.222500", "094710.222500", "094712.222500", "094714.222500", "094716.222500", "094718.222500", "094720.222500", "094722.222500", "094724.222500", "094726.222500", "094728.222500", "094730.222500", "094732.222500", "094734.222500", "094736.222500", "094738.222500", "094740.222500", "094742.222500", "094744.222500", "094746.222500", "094748.222500", "094750.222500", "094752.222500", "094754.222500", "094756.222500", "094758.222500", "094800.222500", "094802.222500", "094804.222500", "094806.222500", "094808.222500", "094810.222500", "094812.222500", "094814.222500", "094816.222500", "094818.222500", "094820.222500", "094822.222500", "094824.222500", "094826.222500", "094828.222500", "094830.222500", "094832.222500", "094834.222500", "094836.222500", "094838.222500", "094840.222500", "094842.222500", "094844.222500", "094846.222500", "094848.222500", "094850.222500", "094852.222500", "094854.222500", "094856.222500", "094858.222500", "094900.222500", "094902.222500", "094904.222500", "094906.222500", "094908.222500", "094910.222500", "094912.222500", "094914.222500", "094916.222500", "094918.222500", "094920.222500", "094922.222500", "094924.222500", "094926.222500", "094928.222500", "094930.222500", "094932.222500", "094934.222500", "094936.222500", "094938.222500", "094940.222500", "094942.222500", "094944.222500", "094946.222500", "094948.222500", "094950.222500", "094952.222500", "094954.222500", "094956.222500", "094958.222500", "095000.222500", "095002.222500", "095004.222500", "095006.222500", "095008.222500", "095010.222500", "095012.222500", "095014.222500", "095016.222500", "095018.222500", "095020.222500", "095022.222500", "095024.222500", "095026.222500", "095028.222500", "095030.222500", "095032.222500", "095034.222500", "095036.222500", "095038.222500", "095040.222500", "095042.222500", "095044.222500", "095046.222500", "095048.222500", "095050.222500", "095052.222500", "095054.222500", "095056.222500", "095058.222500", "095100.222500", "095102.222500", "095104.222500", "095106.222500", "095108.222500", "095110.222500", "095112.222500", "095114.222500", "095116.222500", "095118.222500", "095120.222500", "095122.222500", "095124.222500", "095126.222500", "095128.222500", "095130.222500", "095132.222500", "095134.222500", "095136.222500", "095138.222500", "095140.222500", "095142.222500", "095144.222500", "095146.222500", "095148.222500", "095150.222500", "095152.222500", "095154.222500", "095156.222500", "095158.222500", "095200.222500", "095202.222500", "095204.222500"],
      "ContentTime": ["094612.220000", "094612.224000", "094612.227000", "094612.229000", "094612.232000", "094612.234000", "094612.237000", "094612.240000", "094612.242000", "094612.245000", "094612.247000", "094612.250000", "094612.257000", "094612.260000", "094612.262000", "094612.265000", "094612.267000", "094612.270000", "094612.272000", "094612.275000", "094612.277000", "094612.280000", "094612.283000", "094652.213000", "094652.216000", "094652.219000", "094652.221000", "094652.224000", "094652.226000", "094652.229000", "094652.231000", "094652.234000", "094652.237000", "094652.239000", "094652.242000", "094652.244000", "094652.247000", "094652.249000", "094652.252000", "094652.254000", "094652.257000", "094652.259000", "094652.262000", "094732.214000", "094732.217000", "094732.219000", "094732.222000", "094732.224000", "094732.227000", "094732.229000", "094732.232000", "094732.234000", "094732.237000", "094732.240000", "094732.242000", "094732.245000", "094732.247000", "094732.250000", "094732.252000", "094732.255000", "094732.257000", "094732.260000", "094732.262000", "094812.213000", "094812.216000", "094812.219000", "094812.221000", "094812.224000", "094812.226000", "094812.229000", "094812.231000", "094812.234000", "094812.236000", "094812.239000", "094812.241000", "094812.244000", "094812.246000", "094812.249000", "094812.251000", "094812.254000", "094812.256000", "094812.259000", "094812.261000", "094852.213000", "094852.216000", "094852.219000", "094852.221000", "094852.224000", "094852.227000", "094852.229000", "094852.232000", "094852.234000", "094852.237000", "094852.239000", "094852.242000", "094852.244000", "094852.247000", "094852.249000", "094852.252000", "094852.254000", "094852.257000", "094852.259000", "094852.262000", "094932.213000", "094932.216000", "094932.219000", "094932.221000", "094932.224000", "094932.226000", "094932.229000", "094932.232000", "094932.234000", "094932.237000", "094932.239000", "094932.242000", "094932.244000", "094932.247000", "094932.249000", "094932.252000", "094932.254000", "094932.257000", "094932.259000", "094932.262000", "095012.213000", "095012.216000", "095012.219000", "095012.221000", "095012.224000", "095012.226000", "095012.229000", "095012.232000", "095012.234000", "095012.237000", "095012.239000", "095012.242000", "095012.244000", "095012.247000", "095012.249000", "095012.252000", "095012.254000", "095012.257000", "095012.259000", "095012.262000", "095052.215000", "095052.217000", "095052.220000", "095052.222000", "095052.225000", "095052.227000", "095052.230000", "095052.233000", "095052.235000", "095052.238000", "095052.240000", "095052.243000", "095052.245000", "095052.248000", "095052.251000", "095052.253000", "095052.256000", "095052.258000", "095052.261000", "095052.263000", "095132.213000", "095132.216000", "095132.219000", "095132.221000", "095132.224000", "095132.226000", "095132.229000", "095132.232000", "095132.234000", "095132.237000", "095132.239000", "095132.242000", "095132.244000", "095132.247000", "095132.249000", "095132.252000", "095132.254000", "095132.257000", "095132.260000", "095132.262000", "095205.998000", "095206.002000", "095206.004000", "095206.008000", "095206.010000", "095206.013000", "095206.015000", "095206.018000", "095206.020000", "095206.023000", "095206.026000", "095206.034000", "095206.038000", "095206.041000", "095206.044000", "095206.047000", "095206.051000"],
      "InstanceCreationTime": ["094612.220000", "094612.224000", "094612.227000", "094612.229000", "094612.232000", "094612.234000", "094612.237000", "094612.240000", "094612.242000", "094612.245000", "094612.247000", "094612.250000", "094612.257000", "094612.260000", "094612.262000", "094612.265000", "094612.267000", "094612.270000", "094612.272000", "094612.275000", "094612.277000", "094612.280000", "094612.283000", "094652.213000", "094652.216000", "094652.219000", "094652.221000", "094652.224000", "094652.226000", "094652.229000", "094652.231000", "094652.234000", "094652.237000", "094652.239000", "094652.242000", "094652.244000", "094652.247000", "094652.249000", "094652.252000", "094652.254000", "094652.257000", "094652.259000", "094652.262000", "094732.214000", "094732.217000", "094732.219000", "094732.222000", "094732.224000", "094732.227000", "094732.229000", "094732.232000", "094732.234000", "094732.237000", "094732.240000", "094732.242000", "094732.245000", "094732.247000", "094732.250000", "094732.252000", "094732.255000", "094732.257000", "094732.260000", "094732.262000", "094812.213000", "094812.216000", "094812.219000", "094812.221000", "094812.224000", "094812.226000", "094812.229000", "094812.231000", "094812.234000", "094812.236000", "094812.239000", "094812.241000", "094812.244000", "094812.246000", "094812.249000", "094812.251000", "094812.254000", "094812.256000", "094812.259000", "094812.261000", "094852.213000", "094852.216000", "094852.219000", "094852.221000", "094852.224000", "094852.227000", "094852.229000", "094852.232000", "094852.234000", "094852.237000", "094852.239000", "094852.242000", "094852.244000", "094852.247000", "094852.249000", "094852.252000", "094852.254000", "094852.257000", "094852.259000", "094852.262000", "094932.213000", "094932.216000", "094932.219000", "094932.221000", "094932.224000", "094932.226000", "094932.229000", "094932.232000", "094932.234000", "094932.237000", "094932.239000", "094932.242000", "094932.244000", "094932.247000", "094932.249000", "094932.252000", "094932.254000", "094932.257000", "094932.259000", "094932.262000", "095012.213000", "095012.216000", "095012.219000", "095012.221000", "095012.224000", "095012.226000", "095012.229000", "095012.232000", "095012.234000", "095012.237000", "095012.239000", "095012.242000", "095012.244000", "095012.247000", "095012.249000", "095012.252000", "095012.254000", "095012.257000", "095012.259000", "095012.262000", "095052.215000", "095052.217000", "095052.220000", "095052.222000", "095052.225000", "095052.227000", "095052.230000", "095052.233000", "095052.235000", "095052.238000", "095052.240000", "095052.243000", "095052.245000", "095052.248000", "095052.251000", "095052.253000", "095052.256000", "095052.258000", "095052.261000", "095052.263000", "095132.213000", "095132.216000", "095132.219000", "095132.221000", "095132.224000", "095132.226000", "095132.229000", "095132.232000", "095132.234000", "095132.237000", "095132.239000", "095132.242000", "095132.244000", "095132.247000", "095132.249000", "095132.252000", "095132.254000", "095132.257000", "095132.260000", "095132.262000", "095205.998000", "095206.002000", "095206.004000", "095206.008000", "095206.010000", "095206.013000", "095206.015000", "095206.018000", "095206.020000", "095206.023000", "095206.026000", "095206.034000", "095206.038000", "095206.041000", "095206.044000", "095206.047000", "095206.051000"],
      "InstanceNumber": [1, 2, 3, 4, 5, 6, 7, 8, 9, 10, 11, 12, 13, 14, 15, 16, 17, 18, 19, 20, 21, 22, 23, 24, 25, 26, 27, 28, 29, 30, 31, 32, 33, 34, 35, 36, 37, 38, 39, 40, 41, 42, 43, 44, 45, 46, 47, 48, 49, 50, 51, 52, 53, 54, 55, 56, 57, 58, 59, 60, 61, 62, 63, 64, 65, 66, 67, 68, 69, 70, 71, 72, 73, 74, 75, 76, 77, 78, 79, 80, 81, 82, 83, 84, 85, 86, 87, 88, 89, 90, 91, 92, 93, 94, 95, 96, 97, 98, 99, 100, 101, 102, 103, 104, 105, 106, 107, 108, 109, 110, 111, 112, 113, 114, 115, 116, 117, 118, 119, 120, 121, 122, 123, 124, 125, 126, 127, 128, 129, 130, 131, 132, 133, 134, 135, 136, 137, 138, 139, 140, 141, 142, 143, 144, 145, 146, 147, 148, 149, 150, 151, 152, 153, 154, 155, 156, 157, 158, 159, 160, 161, 162, 163, 164, 165, 166, 167, 168, 169, 170, 171, 172, 173, 174, 175, 176, 177, 178, 179, 180, 181, 182, 183, 184, 185, 186, 187, 188, 189, 190, 191, 192, 193, 194, 195, 196, 197, 198, 199, 200],
      "LargestImagePixelValue": [2047, 2045, 2039, 2048, 2050, 2038, 2048, 2051, 2045, 2043, 2038, 2050, 2052, 2037, 2054, 2043, 2047, 2043, 2051, 2053, 2050, 2054, 2048, 2044, 2058, 2053, 2048, 2048, 2039, 2049, 2056, 2039, 2047, 2042, 2049, 2038, 2058, 2046, 2048, 2052, 2048, 2043, 2048, 2048, 2045, 2048, 2046, 2055, 2045, 2043, 2040, 2042, 2052, 2046, 2051, 2044, 2055, 2050, 2042, 2041, 2050, 2045, 2047, 2048, 2053, 2047, 2046, 2049, 2046, 2046, 2042, 2043, 2041, 2039, 2047, 2043, 2043, 2047, 2044, 2037, 2047, 2049, 2049, 2051, 2049, 2046, 2047, 2042, 2056, 2052, 2048, 2041, 2052, 2045, 2050, 2049, 2040, 2047, 2049, 2052, 2036, 2043, 2045, 2051, 2048, 2051, 2043, 2036, 2033, 2041, 2051, 2037, 2046, 2043, 2044, 2042, 2045, 2050, 2054, 2049, 2046, 2045, 2046, 2049, 2050, 2061, 2050, 2042, 2038, 2052, 2056, 2046, 2053, 2040, 2041, 2045, 2044, 2050, 2046, 2050, 2047, 2048, 2046, 2042, 2042, 2043, 2049, 2055, 2048, 2035, 2048, 2048, 2050, 2052, 2049, 2051, 2037, 2052, 2054, 2049, 2037, 2048, 2048, 2053, 2043, 2050, 2049, 2039, 2039, 2041, 2054, 2050, 2043, 2042, 2044, 2043, 2038, 2049, 2034, 2043, 2047, 2043, 2044, 2042, 2043, 2049, 2053, 2047, 2036, 2046, 2041, 2049, 2038, 2046, 2041, 2042, 2038, 2045, 2044, 2052],
      "WindowCenter": [975.0, 975.0, 974.0, 975.0, 974.0, 974.0, 974.0, 974.0, 974.0, 974.0, 974.0, 974.0, 974.0, 974.0, 974.0, 974.0, 974.0, 974.0, 974.0, 974.0, 974.0, 974.0, 974.0, 974.0, 974.0, 974.0, 974.0, 974.0, 974.0, 975.0, 974.0, 974.0, 974.0, 974.0, 974.0, 974.0, 974.0, 974.0, 974.0, 974.0, 974.0, 974.0, 975.0, 974.0, 974.0, 974.0, 974.0, 974.0, 974.0, 974.0, 974.0, 974.0, 974.0, 974.0, 974.0, 975.0, 974.0, 974.0, 974.0, 974.0, 974.0, 974.0, 974.0, 974.0, 974.0, 974.0, 974.0, 974.0, 974.0, 974.0, 974.0, 974.0, 974.0, 974.0, 974.0, 974.0, 974.0, 975.0, 974.0, 974.0, 974.0, 974.0, 974.0, 974.0, 974.0, 974.0, 974.0, 974.0, 975.0, 974.0, 974.0, 974.0, 974.0, 974.0, 974.0, 974.0, 974.0, 974.0, 975.0, 974.0, 974.0, 974.0, 974.0, 974.0, 974.0, 974.0, 974.0, 974.0, 974.0, 974.0, 974.0, 974.0, 974.0, 974.0, 974.0, 974.0, 974.0, 974.0, 974.0, 974.0, 974.0, 974.0, 975.0, 974.0, 974.0, 974.0, 974.0, 974.0, 974.0, 974.0, 974.0, 974.0, 974.0, 974.0, 974.0, 974.0, 974.0, 974.0, 974.0, 974.0, 974.0, 974.0, 974.0, 974.0, 974.0, 974.0, 974.0, 973.0, 974.0, 974.0, 974.0, 974.0, 973.0, 973.0, 974.0, 974.0, 973.0, 974.0, 974.0, 974.0, 974.0, 974.0, 974.0, 973.0, 973.0, 973.0, 973.0, 973.0, 973.0, 973.0, 973.0, 973.0, 973.0, 973.0, 973.0, 973.0, 974.0, 973.0, 974.0, 973.0, 974.0, 973.0, 973.0, 973.0, 973.0, 973.0, 973.0, 973.0, 973.0, 973.0, 973.0, 973.0, 973.0, 973.0, 973.0, 973.0, 973.0, 974.0, 974.0, 973.0],
      "WindowWidth": [2126.0, 2127.0, 2126.0, 2127.0, 2126.0, 2126.0, 2126.0, 2126.0, 2126.0, 2126.0, 2126.0, 2126.0, 2126.0, 2125.0, 2125.0, 2126.0, 2126.0, 2126.0, 2125.0, 2126.0, 2125.0, 2126.0, 2126.0, 2125.0, 2126.0, 2126.0, 2125.0, 2125.0, 2125.0, 2126.0, 2125.0, 2126.0, 2125.0, 2126.0, 2125.0, 2125.0, 2125.0, 2125.0, 2125.0, 2125.0, 2125.0, 2125.0, 2126.0, 2125.0, 2125.0, 2125.0, 2125.0, 2125.0, 2125.0, 2125.0, 2125.0, 2125.0, 2125.0, 2124.0, 2125.0, 2125.0, 2125.0, 2125.0, 2125.0, 2125.0, 2125.0, 2125.0, 2125.0, 2125.0, 2125.0, 2125.0, 2125.0, 2125.0, 2125.0, 2125.0, 2125.0, 2125.0, 2124.0, 2125.0, 2125.0, 2125.0, 2125.0, 2125.0, 2125.0, 2125.0, 2125.0, 2125.0, 2125.0, 2125.0, 2125.0, 2125.0, 2124.0, 2125.0, 2125.0, 2125.0, 2124.0, 2125.0, 2125.0, 2124.0, 2124.0, 2125.0, 2125.0, 2125.0, 2126.0, 2125.0, 2125.0, 2124.0, 2124.0, 2125.0, 2124.0, 2125.0, 2124.0, 2125.0, 2125.0, 2124.0, 2125.0, 2125.0, 2124.0, 2124.0, 2124.0, 2125.0, 2125.0, 2124.0, 2125.0, 2124.0, 2124.0, 2125.0, 2125.0, 2125.0, 2124.0, 2124.0, 2124.0, 2124.0, 2124.0, 2124.0, 2124.0, 2124.0, 2124.0, 2124.0, 2125.0, 2124.0, 2124.0, 2124.0, 2124.0, 2124.0, 2124.0, 2124.0, 2124.0, 2124.0, 2124.0, 2124.0, 2124.0, 2124.0, 2125.0, 2124.0, 2124.0, 2124.0, 2124.0, 2124.0, 2124.0, 2124.0, 2124.0, 2124.0, 2124.0, 2124.0, 2124.0, 2124.0, 2124.0, 2124.0, 2124.0, 2124.0, 2124.0, 2124.0, 2124.0, 2124.0, 2124.0, 2124.0, 2124.0, 2124.0, 2124.0, 2124.0, 2124.0, 2124.0, 2124.0, 2124.0, 2124.0, 2124.0, 2124.0, 2124.0, 2124.0, 2124.0, 2124.0, 2124.0, 2124.0, 2124.0, 2124.0, 2124.0, 2124.0, 2124.0, 2124.0, 2124.0, 2124.0, 2124.0, 2124.0, 2124.0]
    },
    "slices": {}
  }
}