{
  "AcquisitionMatrixPE": 80,
  "AcquisitionNumber": 1,
  "AcquisitionTime": "09:52:21.127500",
  "BandwidthPerPixelPhaseEncode": 44.643,
  "BaseResolution": 80,
  "BodyPartExamined": "BRAIN",
  "CoilCombinationMethod": "Sum of Squares",
  "ConsistencyInfo": "N4_VE11C_LATEST_20160120",
  "ConversionSoftware": "dcm2niix",
  "ConversionSoftwareVersion": "v1.0.20220720",
  "DerivedVendorReportedEchoSpacing": 0.000559998,
  "DeviceSerialNumber": "66112",
  "DwellTime": 2.7e-06,
  "EchoTime": 0.035,
  "EchoTrainLength": 39,
  "EffectiveEchoSpacing": 0.000279999,
  "FlipAngle": 90,
  "HeudiconvVersion": "0.13.1",
  "ImageOrientationPatientDICOM": [0.982975, 0.183463, 0.0101096, -0.177928, 0.936701, 0.301551],
  "ImageOrientationText": "Tra>Cor(17.4)>Sag(-2.6)",
  "ImageType": [
    "ORIGINAL",
    "PRIMARY",
    "M",
    "ND",
    "NORM",
    "MOSAIC"
],
  "ImagingFrequency": 123.252,
  "InPlanePhaseEncodingDirectionDICOM": "COL",
  "InstitutionAddress": "Maynard 3,Hanover,NH,US,03755",
  "InstitutionName": "Dartmouth College - PBS",
  "InstitutionalDepartmentName": "Department",
  "MRAcquisitionType": "2D",
  "MagneticFieldStrength": 3,
  "Manufacturer": "Siemens",
  "ManufacturersModelName": "Prisma",
  "Modality": "MR",
  "MultibandAccelerationFactor": 4,
  "NonlinearGradientCorrection": false,
  "ParallelReductionFactorInPlane": 2,
  "PartialFourier": 1,
  "PatientPosition": "HFS",
  "PercentPhaseFOV": 100,
  "PercentSampling": 100,
  "PhaseEncodingDirection": "j-",
  "PhaseEncodingSteps": 79,
  "PhaseResolution": 1,
  "PixelBandwidth": 2315,
  "ProcedureStepDescription": "dbic^QA",
  "ProtocolName": "func-bold_task-rest_acq-p2-s4-3.5mm",
  "PulseSequenceDetails": "%SiemensSeq%\\ep2d_bold",
  "ReceiveCoilActiveElements": "HEA;HEP",
  "ReceiveCoilName": "Head_32",
  "ReconMatrixPE": 80,
  "RefLinesPE": 24,
  "RepetitionTime": 2,
  "SAR": 0.0208215,
  "ScanOptions": "FS",
  "ScanningSequence": "EP",
  "SequenceName": "*epfid2d1_80",
  "SequenceVariant": "SK",
  "SeriesDescription": "func-bold_task-rest_acq-p2-s4-3.5mm",
  "SeriesNumber": 7,
  "ShimSetting": [4146, -7691, -7510, 320, -67, -137, -79, 67],
  "SliceThickness": 3.5,
  "SliceTiming": [1.485, 0, 0.99, 0.2475, 1.2375, 0.7425, 1.7325, 0.495, 1.485, 0, 0.99, 0.2475, 1.2375, 0.7425, 1.7325, 0.495, 1.485, 0, 0.99, 0.2475, 1.2375, 0.7425, 1.7325, 0.495, 1.485, 0, 0.99, 0.2475, 1.2375, 0.7425, 1.7325, 0.495],
  "SoftwareVersions": "syngo MR E11",
  "SpacingBetweenSlices": 3.99,
  "StationName": "AWP66112",
  "TaskName": "rest",
  "TotalReadoutTime": 0.0221199,
  "TxRefAmp": 233.366,
  "dcmmeta_affine": [
    [-2.9489238262176514, -0.5337838530540466, -0.18295708298683167, 145.3478240966797],
    [-0.5503894686698914, 2.810102701187134, 1.189881443977356, -103.88297271728516],
    [0.03032865561544895, -0.9046534895896912, 3.804051637649536, -27.515892028808594],
    [0.0, 0.0, 0.0, 1.0]
],
  "dcmmeta_reorient_transform": [
    [0.0, -1.0, 0.0, 79.0],
    [1.0, 0.0, 0.0, 0.0],
    [0.0, 0.0, 1.0, 0.0],
    [0.0, 0.0, 0.0, 1.0]
],
  "dcmmeta_shape": [80, 80, 32, 200],
  "dcmmeta_slice_dim": 2,
  "dcmmeta_version": 0.6,
  "global": {
    "const": {
      "AccessionNumber": "qa",
      "AcquisitionMatrix": [80, 0, 0, 80],
      "AngioFlag": "N",
      "BitsAllocated": 16,
      "BitsStored": 12,
      "BodyPartExamined": "BRAIN",
      "Columns": 480,
      "EchoNumbers": 1,
      "EchoTime": 35.0,
      "EchoTrainLength": 39,
      "FlipAngle": 90.0,
      "HighBit": 11,
      "ImageOrientationPatient": [0.98297460025532, 0.18346316308226, 0.01010955215345, -0.1779279479596, 0.93670087971279, 0.30155116859359],
      "ImagePositionPatient": [-586.20688906085, -790.21355873419, -285.97995126819],
      "ImageType": [
        "ORIGINAL",
        "PRIMARY",
        "M",
        "ND",
        "NORM",
        "MOSAIC"
],
      "ImagedNucleus": "1H",
      "ImagingFrequency": 123.252444,
      "InPlanePhaseEncodingDirection": "COL",
      "MRAcquisitionType": "2D",
      "MagneticFieldStrength": 3.0,
      "Manufacturer": "SIEMENS",
      "ManufacturerModelName": "Prisma",
      "Modality": "MR",
      "NumberOfAverages": 1.0,
      "NumberOfPhaseEncodingSteps": 79,
      "PercentPhaseFieldOfView": 100.0,
      "PercentSampling": 100.0,
      "PerformedProcedureStepStartTime": "093344.712000",
      "PhotometricInterpretation": "MONOCHROME2",
      "PixelBandwidth": 2315.0,
      "PixelRepresentation": 0,
      "PixelSpacing": [3.0, 3.0],
      "ProtocolName": "func-bold_task-rest_acq-p2-s4-3.5mm",
      "RepetitionTime": 2000.0,
      "Rows": 480,
      "SAR": 0.02082152590006,
      "SamplesPerPixel": 1,
      "ScanOptions": "FS",
      "ScanningSequence": "EP",
      "SequenceName": "*epfid2d1_80",
      "SequenceVariant": "SK",
      "SeriesDescription": "func-bold_task-rest_acq-p2-s4-3.5mm",
      "SeriesNumber": 7,
      "SeriesTime": "095232.073000",
      "SliceLocation": -63.877873512676,
      "SliceThickness": 3.5,
      "SmallestImagePixelValue": 0,
      "SoftwareVersions": "syngo MR E11",
      "SpacingBetweenSlices": 3.9900000280376,
      "SpecificCharacterSet": "ISO_IR 100",
      "StudyID": "70",
      "StudyTime": "093344.623000",
      "TransmitCoilName": "Body",
      "VariableFlipAngleFlag": "N",
      "WindowCenterWidthExplanation": "Algo1",
      "dBdt": 0.0},
    "slices": {}
  },
  "time": {
    "samples": {
      "AcquisitionNumber": [1, 2, 3, 4, 5, 6, 7, 8, 9, 10, 11, 12, 13, 14, 15, 16, 17, 18, 19, 20, 21, 22, 23, 24, 25, 26, 27, 28, 29, 30, 31, 32, 33, 34, 35, 36, 37, 38, 39, 40, 41, 42, 43, 44, 45, 46, 47, 48, 49, 50, 51, 52, 53, 54, 55, 56, 57, 58, 59, 60, 61, 62, 63, 64, 65, 66, 67, 68, 69, 70, 71, 72, 73, 74, 75, 76, 77, 78, 79, 80, 81, 82, 83, 84, 85, 86, 87, 88, 89, 90, 91, 92, 93, 94, 95, 96, 97, 98, 99, 100, 101, 102, 103, 104, 105, 106, 107, 108, 109, 110, 111, 112, 113, 114, 115, 116, 117, 118, 119, 120, 121, 122, 123, 124, 125, 126, 127, 128, 129, 130, 131, 132, 133, 134, 135, 136, 137, 138, 139, 140, 141, 142, 143, 144, 145, 146, 147, 148, 149, 150, 151, 152, 153, 154, 155, 156, 157, 158, 159, 160, 161, 162, 163, 164, 165, 166, 167, 168, 169, 170, 171, 172, 173, 174, 175, 176, 177, 178, 179, 180, 181, 182, 183, 184, 185, 186, 187, 188, 189, 190, 191, 192, 193, 194, 195, 196, 197, 198, 199, 200],
      "AcquisitionTime": ["095221.127500", "095223.127500", "095225.127500", "095227.127500", "095229.127500", "095231.127500", "095233.127500", "095235.127500", "095237.127500", "095239.127500", "095241.127500", "095243.127500", "095245.127500", "095247.127500", "095249.127500", "095251.127500", "095253.127500", "095255.127500", "095257.127500", "095259.127500", "095301.127500", "095303.127500", "095305.127500", "095307.127500", "095309.127500", "095311.127500", "095313.127500", "095315.127500", "095317.127500", "095319.127500", "095321.127500", "095323.127500", "095325.127500", "095327.127500", "095329.127500", "095331.127500", "095333.127500", "095335.127500", "095337.127500", "095339.127500", "095341.127500", "095343.127500", "095345.127500", "095347.127500", "095349.127500", "095351.127500", "095353.127500", "095355.127500", "095357.127500", "095359.127500", "095401.127500", "095403.127500", "095405.127500", "095407.127500", "095409.127500", "095411.127500", "095413.127500", "095415.127500", "095417.127500", "095419.127500", "095421.127500", "095423.127500", "095425.127500", "095427.127500", "095429.127500", "095431.127500", "095433.127500", "095435.127500", "095437.127500", "095439.127500", "095441.127500", "095443.127500", "095445.127500", "095447.127500", "095449.127500", "095451.127500", "095453.127500", "095455.127500", "095457.127500", "095459.127500", "095501.127500", "095503.127500", "095505.127500", "095507.127500", "095509.127500", "095511.127500", "095513.127500", "095515.127500", "095517.127500", "095519.127500", "095521.127500", "095523.127500", "095525.127500", "095527.127500", "095529.127500", "095531.127500", "095533.127500", "095535.127500", "095537.127500", "095539.127500", "095541.127500", "095543.127500", "095545.127500", "095547.127500", "095549.127500", "095551.127500", "095553.127500", "095555.127500", "095557.127500", "095559.127500", "095601.127500", "095603.127500", "095605.127500", "095607.127500", "095609.127500", "095611.127500", "095613.127500", "095615.127500", "095617.127500", "095619.127500", "095621.127500", "095623.127500", "095625.127500", "095627.127500", "095629.127500", "095631.127500", "095633.127500", "095635.127500", "095637.127500", "095639.127500", "095641.127500", "095643.127500", "095645.127500", "095647.127500", "095649.127500", "095651.127500", "095653.127500", "095655.127500", "095657.127500", "095659.127500", "095701.127500", "095703.127500", "095705.127500", "095707.127500", "095709.127500", "095711.127500", "095713.127500", "095715.127500", "095717.127500", "095719.127500", "095721.127500", "095723.127500", "095725.127500", "095727.127500", "095729.127500", "095731.127500", "095733.127500", "095735.127500", "095737.127500", "095739.127500", "095741.127500", "095743.127500", "095745.127500", "095747.127500", "095749.127500", "095751.127500", "095753.127500", "095755.127500", "095757.127500", "095759.127500", "095801.127500", "095803.127500", "095805.127500", "095807.127500", "095809.127500", "095811.127500", "095813.127500", "095815.127500", "095817.127500", "095819.127500", "095821.127500", "095823.127500", "095825.127500", "095827.127500", "095829.127500", "095831.127500", "095833.127500", "095835.127500", "095837.127500", "095839.127500", "095841.127500", "095843.127500", "095845.127500", "095847.127500", "095849.127500", "095851.127500", "095853.127500", "095855.127500", "095857.127500", "095859.127500"],
      "ContentTime": ["095232.076000", "095232.083000", "095232.085000", "095232.088000", "095232.090000", "095232.093000", "095312.073000", "095312.075000", "095312.082000", "095312.088000", "095312.090000", "095312.093000", "095312.095000", "095312.098000", "095312.100000", "095312.103000", "095312.105000", "095312.108000", "095312.110000", "095312.113000", "095312.115000", "095312.118000", "095312.128000", "095312.131000", "095312.133000", "095312.136000", "095352.071000", "095352.074000", "095352.077000", "095352.079000", "095352.082000", "095352.084000", "095352.087000", "095352.089000", "095352.092000", "095352.094000", "095352.097000", "095352.099000", "095352.102000", "095352.104000", "095352.107000", "095352.109000", "095352.112000", "095352.121000", "095352.124000", "095352.126000", "095432.071000", "095432.074000", "095432.077000", "095432.079000", "095432.082000", "095432.084000", "095432.087000", "095432.089000", "095432.092000", "095432.094000", "095432.097000", "095432.099000", "095432.102000", "095432.104000", "095432.107000", "095432.109000", "095432.121000", "095432.124000", "095432.126000", "095432.129000", "095512.072000", "095512.075000", "095512.078000", "095512.080000", "095512.083000", "095512.086000", "095512.088000", "095512.091000", "095512.093000", "095512.096000", "095512.098000", "095512.101000", "095512.103000", "095512.106000", "095512.108000", "095512.111000", "095512.113000", "095512.116000", "095512.118000", "095512.121000", "095552.071000", "095552.074000", "095552.077000", "095552.079000", "095552.082000", "095552.085000", "095552.087000", "095552.090000", "095552.092000", "095552.095000", "095552.097000", "095552.100000", "095552.102000", "095552.105000", "095552.107000", "095552.110000", "095552.112000", "095552.115000", "095552.117000", "095552.120000", "095632.071000", "095632.074000", "095632.077000", "095632.079000", "095632.082000", "095632.084000", "095632.087000", "095632.089000", "095632.092000", "095632.094000", "095632.097000", "095632.099000", "095632.102000", "095632.104000", "095632.107000", "095632.109000", "095632.112000", "095632.114000", "095632.117000", "095632.120000", "095712.072000", "095712.075000", "095712.077000", "095712.080000", "095712.082000", "095712.085000", "095712.087000", "095712.090000", "095712.092000", "095712.095000", "095712.097000", "095712.100000", "095712.102000", "095712.105000", "095712.107000", "095712.110000", "095712.112000", "095712.115000", "095712.118000", "095712.120000", "095752.073000", "095752.075000", "095752.078000", "095752.081000", "095752.083000", "095752.086000", "095752.088000", "095752.091000", "095752.093000", "095752.096000", "095752.098000", "095752.101000", "095752.103000", "095752.106000", "095752.108000", "095752.111000", "095752.113000", "095752.116000", "095752.118000", "095752.121000", "095832.071000", "095832.074000", "095832.077000", "095832.079000", "095832.082000", "095832.084000", "095832.087000", "095832.090000", "095832.092000", "095832.095000", "095832.097000", "095832.100000", "095832.102000", "095832.105000", "095832.112000", "095832.114000", "095832.117000", "095832.119000", "095832.122000", "095832.124000", "095859.992000", "095859.995000", "095859.998000", "095900.000000", "095900.003000", "095900.006000", "095900.008000", "095900.011000", "095900.013000", "095900.016000", "095900.019000", "095900.021000", "095900.031000", "095900.034000"],
      "InstanceCreationTime": ["095232.076000", "095232.083000", "095232.085000", "095232.088000", "095232.090000", "095232.093000", "095312.073000", "095312.075000", "095312.082000", "095312.088000", "095312.090000", "095312.093000", "095312.095000", "095312.098000", "095312.100000", "095312.103000", "095312.105000", "095312.108000", "095312.110000", "095312.113000", "095312.115000", "095312.118000", "095312.128000", "095312.131000", "095312.133000", "095312.136000", "095352.071000", "095352.074000", "095352.077000", "095352.079000", "095352.082000", "095352.084000", "095352.087000", "095352.089000", "095352.092000", "095352.094000", "095352.097000", "095352.099000", "095352.102000", "095352.104000", "095352.107000", "095352.109000", "095352.112000", "095352.121000", "095352.124000", "095352.126000", "095432.071000", "095432.074000", "095432.077000", "095432.079000", "095432.082000", "095432.084000", "095432.087000", "095432.089000", "095432.092000", "095432.094000", "095432.097000", "095432.099000", "095432.102000", "095432.104000", "095432.107000", "095432.109000", "095432.121000", "095432.124000", "095432.126000", "095432.129000", "095512.072000", "095512.075000", "095512.078000", "095512.080000", "095512.083000", "095512.086000", "095512.088000", "095512.091000", "095512.093000", "095512.096000", "095512.098000", "095512.101000", "095512.103000", "095512.106000", "095512.108000", "095512.111000", "095512.113000", "095512.116000", "095512.118000", "095512.121000", "095552.071000", "095552.074000", "095552.077000", "095552.079000", "095552.082000", "095552.085000", "095552.087000", "095552.090000", "095552.092000", "095552.095000", "095552.097000", "095552.100000", "095552.102000", "095552.105000", "095552.107000", "095552.110000", "095552.112000", "095552.115000", "095552.117000", "095552.120000", "095632.071000", "095632.074000", "095632.077000", "095632.079000", "095632.082000", "095632.084000", "095632.087000", "095632.089000", "095632.092000", "095632.094000", "095632.097000", "095632.099000", "095632.102000", "095632.104000", "095632.107000", "095632.109000", "095632.112000", "095632.114000", "095632.117000", "095632.120000", "095712.072000", "095712.075000", "095712.077000", "095712.080000", "095712.082000", "095712.085000", "095712.087000", "095712.090000", "095712.092000", "095712.095000", "095712.097000", "095712.100000", "095712.102000", "095712.105000", "095712.107000", "095712.110000", "095712.112000", "095712.115000", "095712.118000", "095712.120000", "095752.073000", "095752.075000", "095752.078000", "095752.081000", "095752.083000", "095752.086000", "095752.088000", "095752.091000", "095752.093000", "095752.096000", "095752.098000", "095752.101000", "095752.103000", "095752.106000", "095752.108000", "095752.111000", "095752.113000", "095752.116000", "095752.118000", "095752.121000", "095832.071000", "095832.074000", "095832.077000", "095832.079000", "095832.082000", "095832.084000", "095832.087000", "095832.090000", "095832.092000", "095832.095000", "095832.097000", "095832.100000", "095832.102000", "095832.105000", "095832.112000", "095832.114000", "095832.117000", "095832.119000", "095832.122000", "095832.124000", "095859.992000", "095859.995000", "095859.998000", "095900.000000", "095900.003000", "095900.006000", "095900.008000", "095900.011000", "095900.013000", "095900.016000", "095900.019000", "095900.021000", "095900.031000", "095900.034000"],
      "InstanceNumber": [1, 2, 3, 4, 5, 6, 7, 8, 9, 10, 11, 12, 13, 14, 15, 16, 17, 18, 19, 20, 21, 22, 23, 24, 25, 26, 27, 28, 29, 30, 31, 32, 33, 34, 35, 36, 37, 38, 39, 40, 41, 42, 43, 44, 45, 46, 47, 48, 49, 50, 51, 52, 53, 54, 55, 56, 57, 58, 59, 60, 61, 62, 63, 64, 65, 66, 67, 68, 69, 70, 71, 72, 73, 74, 75, 76, 77, 78, 79, 80, 81, 82, 83, 84, 85, 86, 87, 88, 89, 90, 91, 92, 93, 94, 95, 96, 97, 98, 99, 100, 101, 102, 103, 104, 105, 106, 107, 108, 109, 110, 111, 112, 113, 114, 115, 116, 117, 118, 119, 120, 121, 122, 123, 124, 125, 126, 127, 128, 129, 130, 131, 132, 133, 134, 135, 136, 137, 138, 139, 140, 141, 142, 143, 144, 145, 146, 147, 148, 149, 150, 151, 152, 153, 154, 155, 156, 157, 158, 159, 160, 161, 162, 163, 164, 165, 166, 167, 168, 169, 170, 171, 172, 173, 174, 175, 176, 177, 178, 179, 180, 181, 182, 183, 184, 185, 186, 187, 188, 189, 190, 191, 192, 193, 194, 195, 196, 197, 198, 199, 200],
      "LargestImagePixelValue": [2043, 2044, 2044, 2042, 2045, 2043, 2039, 2044, 2048, 2048, 2046, 2044, 2047, 2044, 2048, 2043, 2045, 2038, 2045, 2041, 2044, 2043, 2047, 2044, 2039, 2050, 2042, 2040, 2046, 2048, 2045, 2040, 2042, 2045, 2044, 2042, 2045, 2044, 2047, 2046, 2049, 2043, 2043, 2040, 2044, 2045, 2042, 2045, 2046, 2050, 2049, 2046, 2045, 2048, 2042, 2044, 2045, 2048, 2047, 2046, 2042, 2049, 2045, 2053, 2046, 2050, 2047, 2048, 2049, 2048, 2048, 2041, 2043, 2039, 2046, 2043, 2042, 2044, 2049, 2044, 2045, 2044, 2048, 2051, 2043, 2043, 2048, 2044, 2043, 2047, 2048, 2044, 2047, 2044, 2051, 2040, 2042, 2046, 2045, 2042, 2043, 2046, 2045, 2044, 2045, 2051, 2050, 2043, 2052, 2042, 2047, 2043, 2045, 2043, 2049, 2043, 2045, 2039, 2050, 2042, 2046, 2049, 2042, 2050, 2046, 2046, 2045, 2048, 2046, 2053, 2046, 2047, 2048, 2049, 2040, 2049, 2042, 2049, 2043, 2043, 2045, 2049, 2047, 2042, 2047, 2042, 2044, 2043, 2050, 2040, 2049, 2043, 2047, 2048, 2046, 2048, 2043, 2049, 2046, 2045, 2052, 2047, 2044, 2043, 2048, 2043, 2046, 2045, 2046, 2050, 2048, 2046, 2044, 2044, 2042, 2045, 2045, 2049, 2048, 2047, 2042, 2050, 2046, 2048, 2044, 2045, 2045, 2046, 2049, 2048, 2048, 2044, 2050, 2042, 2045, 2046, 2047, 2044, 2050, 2049],
      "WindowCenter": [910.0, 910.0, 910.0, 910.0, 910.0, 910.0, 910.0, 910.0, 910.0, 910.0, 910.0, 910.0, 910.0, 910.0, 910.0, 910.0, 910.0, 910.0, 910.0, 910.0, 910.0, 910.0, 910.0, 910.0, 910.0, 910.0, 910.0, 910.0, 910.0, 910.0, 910.0, 910.0, 910.0, 910.0, 910.0, 910.0, 910.0, 910.0, 910.0, 910.0, 910.0, 911.0, 910.0, 910.0, 910.0, 910.0, 910.0, 910.0, 910.0, 910.0, 910.0, 910.0, 910.0, 910.0, 910.0, 911.0, 910.0, 910.0, 910.0, 910.0, 910.0, 910.0, 910.0, 910.0, 910.0, 910.0, 910.0, 910.0, 910.0, 910.0, 910.0, 910.0, 910.0, 910.0, 910.0, 910.0, 910.0, 910.0, 910.0, 910.0, 910.0, 910.0, 910.0, 910.0, 910.0, 910.0, 910.0, 910.0, 910.0, 910.0, 910.0, 910.0, 910.0, 910.0, 910.0, 910.0, 910.0, 910.0, 910.0, 910.0, 910.0, 910.0, 910.0, 910.0, 910.0, 910.0, 910.0, 910.0, 910.0, 910.0, 910.0, 910.0, 910.0, 910.0, 910.0, 910.0, 910.0, 910.0, 910.0, 910.0, 910.0, 910.0, 910.0, 910.0, 910.0, 910.0, 910.0, 910.0, 910.0, 910.0, 910.0, 910.0, 910.0, 910.0, 910.0, 910.0, 910.0, 910.0, 910.0, 910.0, 910.0, 910.0, 910.0, 910.0, 910.0, 910.0, 910.0, 910.0, 910.0, 910.0, 910.0, 910.0, 910.0, 910.0, 910.0, 910.0, 910.0, 910.0, 910.0, 910.0, 910.0, 910.0, 910.0, 910.0, 910.0, 910.0, 910.0, 910.0, 910.0, 910.0, 910.0, 910.0, 910.0, 910.0, 910.0, 910.0, 910.0, 910.0, 910.0, 910.0, 910.0, 910.0, 910.0, 910.0, 910.0, 910.0, 910.0, 910.0, 910.0, 910.0, 910.0, 910.0, 910.0, 910.0, 910.0, 910.0, 910.0, 910.0, 910.0, 910.0],
      "WindowWidth": [2063.0, 2063.0, 2063.0, 2064.0, 2063.0, 2063.0, 2063.0, 2063.0, 2063.0, 2064.0, 2063.0, 2062.0, 2062.0, 2063.0, 2062.0, 2062.0, 2063.0, 2062.0, 2063.0, 2063.0, 2064.0, 2063.0, 2063.0, 2063.0, 2064.0, 2063.0, 2063.0, 2063.0, 2063.0, 2063.0, 2063.0, 2064.0, 2063.0, 2063.0, 2063.0, 2063.0, 2064.0, 2064.0, 2064.0, 2064.0, 2064.0, 2064.0, 2064.0, 2064.0, 2064.0, 2064.0, 2063.0, 2063.0, 2063.0, 2063.0, 2063.0, 2063.0, 2064.0, 2063.0, 2063.0, 2064.0, 2064.0, 2063.0, 2063.0, 2063.0, 2063.0, 2063.0, 2063.0, 2063.0, 2063.0, 2063.0, 2063.0, 2063.0, 2063.0, 2063.0, 2063.0, 2063.0, 2063.0, 2063.0, 2063.0, 2063.0, 2063.0, 2063.0, 2063.0, 2063.0, 2063.0, 2063.0, 2063.0, 2063.0, 2063.0, 2063.0, 2063.0, 2063.0, 2063.0, 2063.0, 2063.0, 2063.0, 2063.0, 2063.0, 2063.0, 2063.0, 2063.0, 2063.0, 2063.0, 2063.0, 2063.0, 2063.0, 2063.0, 2063.0, 2063.0, 2063.0, 2063.0, 2063.0, 2063.0, 2063.0, 2063.0, 2063.0, 2063.0, 2063.0, 2063.0, 2063.0, 2063.0, 2063.0, 2063.0, 2063.0, 2063.0, 2063.0, 2063.0, 2063.0, 2063.0, 2063.0, 2063.0, 2063.0, 2063.0, 2063.0, 2063.0, 2063.0, 2063.0, 2063.0, 2063.0, 2063.0, 2063.0, 2063.0, 2063.0, 2063.0, 2063.0, 2063.0, 2063.0, 2063.0, 2063.0, 2063.0, 2063.0, 2063.0, 2063.0, 2063.0, 2063.0, 2063.0, 2063.0, 2063.0, 2063.0, 2063.0, 2063.0, 2063.0, 2063.0, 2063.0, 2063.0, 2063.0, 2063.0, 2063.0, 2063.0, 2063.0, 2063.0, 2063.0, 2063.0, 2063.0, 2063.0, 2063.0, 2063.0, 2063.0, 2063.0, 2063.0, 2063.0, 2063.0, 2063.0, 2063.0, 2063.0, 2063.0, 2063.0, 2063.0, 2063.0, 2063.0, 2063.0, 2063.0, 2063.0, 2063.0, 2063.0, 2063.0, 2063.0, 2063.0, 2063.0, 2063.0, 2063.0, 2063.0, 2063.0, 2063.0]
    },
    "slices": {}
  }
}