{
  "AcquisitionMatrixPE": 80,
  "AcquisitionNumber": 1,
  "AcquisitionTime": "09:58:56.560000",
  "BandwidthPerPixelPhaseEncode": 25,
  "BaseResolution": 80,
  "BodyPartExamined": "BRAIN",
  "CoilCombinationMethod": "Sum of Squares",
  "ConsistencyInfo": "N4_VE11C_LATEST_20160120",
  "ConversionSoftware": "dcm2niix",
  "ConversionSoftwareVersion": "v1.0.20220720",
  "DerivedVendorReportedEchoSpacing": 0.0005,
  "DeviceSerialNumber": "66112",
  "DwellTime": 2.7e-06,
  "EchoTime": 0.03,
  "EchoTrainLength": 80,
  "EffectiveEchoSpacing": 0.0005,
  "FlipAngle": 10,
  "HeudiconvVersion": "0.13.1",
  "ImageOrientationPatientDICOM": [0.982499, 0.185771, 0.0135817, -0.1805, 0.931541, 0.315676],
  "ImageOrientationText": "Tra>Cor(18.2)>Sag(-2.6)",
  "ImageType": [
    "ORIGINAL",
    "PRIMARY",
    "M",
    "ND",
    "NORM",
    "MOSAIC"
],
  "ImagingFrequency": 123.252,
  "InPlanePhaseEncodingDirectionDICOM": "COL",
  "InstitutionAddress": "Maynard 3,Hanover,NH,US,03755",
  "InstitutionName": "Dartmouth College - PBS",
  "InstitutionalDepartmentName": "Department",
  "MRAcquisitionType": "2D",
  "MagneticFieldStrength": 3,
  "Manufacturer": "Siemens",
  "ManufacturersModelName": "Prisma",
  "MatrixCoilMode": "SENSE",
  "Modality": "MR",
  "NonlinearGradientCorrection": false,
  "PartialFourier": 1,
  "PatientPosition": "HFS",
  "PercentPhaseFOV": 100,
  "PercentSampling": 100,
  "PhaseEncodingDirection": "j-",
  "PhaseEncodingSteps": 80,
  "PhaseResolution": 1,
  "PixelBandwidth": 2315,
  "ProcedureStepDescription": "dbic^QA",
  "ProtocolName": "func-bold_fa-10",
  "PulseSequenceDetails": "%SiemensSeq%\\ep2d_bold",
  "ReceiveCoilActiveElements": "HEA;HEP",
  "ReceiveCoilName": "Head_32",
  "ReconMatrixPE": 80,
  "RepetitionTime": 2,
  "SAR": 0.0117374,
  "ScanOptions": "FS",
  "ScanningSequence": "EP",
  "SequenceName": "*epfid2d1_80",
  "SequenceVariant": "SK",
  "SeriesDescription": "func-bold_fa-10",
  "SeriesNumber": 10,
  "ShimSetting": [4143, -7698, -7523, 265, -103, -5, -5, 52],
  "SliceThickness": 3.5,
  "SliceTiming": [0.99, 0, 1.0575, 0.0675, 1.1225, 0.1325, 1.1875, 0.2, 1.255, 0.265, 1.32, 0.33, 1.3875, 0.3975, 1.4525, 0.4625, 1.5175, 0.5275, 1.585, 0.595, 1.65, 0.66, 1.7175, 0.7275, 1.7825, 0.7925, 1.8475, 0.8575, 1.915, 0.925],
  "SoftwareVersions": "syngo MR E11",
  "SpacingBetweenSlices": 3.99,
  "StationName": "AWP66112",
  "TotalReadoutTime": 0.0395,
  "TxRefAmp": 224.411,
  "dcmmeta_affine": [
    [-2.947497606277466, -0.5414988398551941, -0.18350672721862793, 143.4583282470703],
    [-0.5573131442070007, 2.7946224212646484, 1.2472869157791138, -93.45924377441406],
    [0.040744952857494354, -0.9470290541648865, 3.7855911254882812, -14.295863151550293],
    [0.0, 0.0, 0.0, 1.0]
],
  "dcmmeta_reorient_transform": [
    [0.0, -1.0, 0.0, 79.0],
    [1.0, 0.0, 0.0, 0.0],
    [0.0, 0.0, 1.0, 0.0],
    [0.0, 0.0, 0.0, 1.0]
],
  "dcmmeta_shape": [80, 80, 30, 200],
  "dcmmeta_slice_dim": 2,
  "dcmmeta_version": 0.6,
  "global": {
    "const": {
      "AccessionNumber": "qa",
      "AcquisitionMatrix": [80, 0, 0, 80],
      "AngioFlag": "N",
      "BitsAllocated": 16,
      "BitsStored": 12,
      "BodyPartExamined": "BRAIN",
      "Columns": 480,
      "EchoNumbers": 1,
      "EchoTime": 30.0,
      "EchoTrainLength": 80,
      "FlipAngle": 10.0,
      "HighBit": 11,
      "ImageOrientationPatient": [0.98249918963187, 0.18577104494219, 0.01358165062864, -0.1804996106063, 0.93154084057901, 0.31567634200922],
      "ImagePositionPatient": [-581.87966739171, -797.7030677071, -286.66595153764],
      "ImageType": [
        "ORIGINAL",
        "PRIMARY",
        "M",
        "ND",
        "NORM",
        "MOSAIC"
],
      "ImagedNucleus": "1H",
      "ImagingFrequency": 123.252372,
      "InPlanePhaseEncodingDirection": "COL",
      "MRAcquisitionType": "2D",
      "MagneticFieldStrength": 3.0,
      "Manufacturer": "SIEMENS",
      "ManufacturerModelName": "Prisma",
      "Modality": "MR",
      "NumberOfAverages": 1.0,
      "NumberOfPhaseEncodingSteps": 80,
      "PercentPhaseFieldOfView": 100.0,
      "PercentSampling": 100.0,
      "PerformedProcedureStepStartTime": "093652.333000",
      "PhotometricInterpretation": "MONOCHROME2",
      "PixelBandwidth": 2315.0,
      "PixelRepresentation": 0,
      "PixelSpacing": [3.0, 3.0],
      "ProtocolName": "func-bold_fa-10",
      "RepetitionTime": 2000.0,
      "Rows": 480,
      "SAR": 0.01173735906003,
      "SamplesPerPixel": 1,
      "ScanOptions": "FS",
      "ScanningSequence": "EP",
      "SequenceName": "*epfid2d1_80",
      "SequenceVariant": "SK",
      "SeriesDescription": "func-bold_fa-10",
      "SeriesNumber": 10,
      "SeriesTime": "095944.859000",
      "SliceLocation": -49.377030190502,
      "SliceThickness": 3.5,
      "SmallestImagePixelValue": 0,
      "SoftwareVersions": "syngo MR E11",
      "SpacingBetweenSlices": 3.9899999149097,
      "SpecificCharacterSet": "ISO_IR 100",
      "StudyID": "28",
      "StudyTime": "093652.288000",
      "TransmitCoilName": "Body",
      "VariableFlipAngleFlag": "N",
      "WindowCenterWidthExplanation": "Algo1",
      "dBdt": 0.0},
    "slices": {}
  },
  "time": {
    "samples": {
      "AcquisitionNumber": [1, 2, 3, 4, 5, 6, 7, 8, 9, 10, 11, 12, 13, 14, 15, 16, 17, 18, 19, 20, 21, 22, 23, 24, 25, 26, 27, 28, 29, 30, 31, 32, 33, 34, 35, 36, 37, 38, 39, 40, 41, 42, 43, 44, 45, 46, 47, 48, 49, 50, 51, 52, 53, 54, 55, 56, 57, 58, 59, 60, 61, 62, 63, 64, 65, 66, 67, 68, 69, 70, 71, 72, 73, 74, 75, 76, 77, 78, 79, 80, 81, 82, 83, 84, 85, 86, 87, 88, 89, 90, 91, 92, 93, 94, 95, 96, 97, 98, 99, 100, 101, 102, 103, 104, 105, 106, 107, 108, 109, 110, 111, 112, 113, 114, 115, 116, 117, 118, 119, 120, 121, 122, 123, 124, 125, 126, 127, 128, 129, 130, 131, 132, 133, 134, 135, 136, 137, 138, 139, 140, 141, 142, 143, 144, 145, 146, 147, 148, 149, 150, 151, 152, 153, 154, 155, 156, 157, 158, 159, 160, 161, 162, 163, 164, 165, 166, 167, 168, 169, 170, 171, 172, 173, 174, 175, 176, 177, 178, 179, 180, 181, 182, 183, 184, 185, 186, 187, 188, 189, 190, 191, 192, 193, 194, 195, 196, 197, 198, 199, 200],
      "AcquisitionTime": ["095856.560000", "095858.560000", "095900.560000", "095902.560000", "095904.560000", "095906.560000", "095908.560000", "095910.560000", "095912.560000", "095914.560000", "095916.560000", "095918.560000", "095920.560000", "095922.560000", "095924.560000", "095926.560000", "095928.560000", "095930.560000", "095932.560000", "095934.560000", "095936.560000", "095938.560000", "095940.560000", "095942.560000", "095944.560000", "095946.560000", "095948.560000", "095950.560000", "095952.560000", "095954.560000", "095956.560000", "095958.560000", "100000.560000", "100002.560000", "100004.560000", "100006.560000", "100008.560000", "100010.560000", "100012.560000", "100014.560000", "100016.560000", "100018.560000", "100020.560000", "100022.560000", "100024.560000", "100026.560000", "100028.560000", "100030.560000", "100032.560000", "100034.560000", "100036.560000", "100038.560000", "100040.560000", "100042.560000", "100044.560000", "100046.560000", "100048.560000", "100050.560000", "100052.560000", "100054.560000", "100056.560000", "100058.560000", "100100.560000", "100102.560000", "100104.560000", "100106.560000", "100108.560000", "100110.560000", "100112.560000", "100114.560000", "100116.560000", "100118.560000", "100120.560000", "100122.560000", "100124.560000", "100126.560000", "100128.560000", "100130.560000", "100132.560000", "100134.560000", "100136.560000", "100138.560000", "100140.560000", "100142.560000", "100144.560000", "100146.560000", "100148.560000", "100150.560000", "100152.560000", "100154.560000", "100156.560000", "100158.560000", "100200.560000", "100202.560000", "100204.560000", "100206.560000", "100208.560000", "100210.560000", "100212.560000", "100214.560000", "100216.560000", "100218.560000", "100220.560000", "100222.560000", "100224.560000", "100226.560000", "100228.560000", "100230.560000", "100232.560000", "100234.560000", "100236.560000", "100238.560000", "100240.560000", "100242.560000", "100244.560000", "100246.560000", "100248.560000", "100250.560000", "100252.560000", "100254.560000", "100256.560000", "100258.560000", "100300.560000", "100302.560000", "100304.560000", "100306.560000", "100308.560000", "100310.560000", "100312.560000", "100314.560000", "100316.560000", "100318.560000", "100320.560000", "100322.560000", "100324.560000", "100326.560000", "100328.560000", "100330.560000", "100332.560000", "100334.560000", "100336.560000", "100338.560000", "100340.560000", "100342.560000", "100344.560000", "100346.560000", "100348.560000", "100350.560000", "100352.560000", "100354.560000", "100356.560000", "100358.560000", "100400.560000", "100402.560000", "100404.560000", "100406.560000", "100408.560000", "100410.560000", "100412.560000", "100414.560000", "100416.560000", "100418.560000", "100420.560000", "100422.560000", "100424.560000", "100426.560000", "100428.560000", "100430.560000", "100432.560000", "100434.560000", "100436.560000", "100438.560000", "100440.560000", "100442.560000", "100444.560000", "100446.560000", "100448.560000", "100450.560000", "100452.560000", "100454.560000", "100456.560000", "100458.560000", "100500.560000", "100502.560000", "100504.560000", "100506.560000", "100508.560000", "100510.560000", "100512.560000", "100514.560000", "100516.560000", "100518.560000", "100520.560000", "100522.560000", "100524.560000", "100526.560000", "100528.560000", "100530.560000", "100532.560000", "100534.560000"],
      "ContentTime": ["095944.863000", "095944.866000", "095944.869000", "095944.871000", "095944.874000", "095944.876000", "095944.885000", "095944.887000", "095944.890000", "095944.892000", "095944.895000", "095944.897000", "095944.899000", "095944.902000", "095944.904000", "095944.907000", "095944.909000", "095944.912000", "095944.914000", "095944.917000", "095944.919000", "095944.922000", "095944.924000", "095944.927000", "100024.845000", "100024.848000", "100024.851000", "100024.853000", "100024.856000", "100024.858000", "100024.861000", "100024.863000", "100024.866000", "100024.868000", "100024.871000", "100024.873000", "100024.876000", "100024.878000", "100024.881000", "100024.883000", "100024.886000", "100024.888000", "100024.891000", "100024.893000", "100104.845000", "100104.848000", "100104.851000", "100104.853000", "100104.856000", "100104.858000", "100104.861000", "100104.863000", "100104.866000", "100104.868000", "100104.871000", "100104.873000", "100104.876000", "100104.878000", "100104.880000", "100104.883000", "100104.885000", "100104.888000", "100104.890000", "100104.893000", "100144.846000", "100144.849000", "100144.852000", "100144.854000", "100144.857000", "100144.859000", "100144.862000", "100144.864000", "100144.867000", "100144.869000", "100144.872000", "100144.874000", "100144.877000", "100144.879000", "100144.882000", "100144.884000", "100144.887000", "100144.889000", "100144.892000", "100144.894000", "100224.846000", "100224.848000", "100224.851000", "100224.853000", "100224.856000", "100224.858000", "100224.861000", "100224.863000", "100224.866000", "100224.868000", "100224.871000", "100224.873000", "100224.876000", "100224.878000", "100224.881000", "100224.883000", "100224.886000", "100224.888000", "100224.891000", "100224.893000", "100304.845000", "100304.848000", "100304.851000", "100304.853000", "100304.856000", "100304.858000", "100304.861000", "100304.863000", "100304.866000", "100304.868000", "100304.871000", "100304.873000", "100304.876000", "100304.878000", "100304.881000", "100304.883000", "100304.886000", "100304.888000", "100304.891000", "100304.893000", "100344.845000", "100344.848000", "100344.851000", "100344.853000", "100344.856000", "100344.858000", "100344.861000", "100344.863000", "100344.866000", "100344.868000", "100344.871000", "100344.873000", "100344.876000", "100344.878000", "100344.881000", "100344.883000", "100344.886000", "100344.888000", "100344.891000", "100344.893000", "100424.845000", "100424.848000", "100424.851000", "100424.853000", "100424.856000", "100424.858000", "100424.861000", "100424.863000", "100424.866000", "100424.868000", "100424.871000", "100424.873000", "100424.876000", "100424.878000", "100424.881000", "100424.883000", "100424.886000", "100424.888000", "100424.891000", "100424.893000", "100504.845000", "100504.848000", "100504.851000", "100504.853000", "100504.867000", "100504.870000", "100504.872000", "100504.875000", "100504.877000", "100504.880000", "100504.882000", "100504.885000", "100504.887000", "100504.890000", "100504.892000", "100504.895000", "100504.897000", "100504.900000", "100504.902000", "100504.905000", "100536.060000", "100536.063000", "100536.065000", "100536.068000", "100536.070000", "100536.073000", "100536.075000", "100536.078000", "100536.081000", "100536.083000", "100536.086000", "100536.088000", "100536.091000", "100536.096000", "100536.099000", "100536.103000"],
      "InstanceCreationTime": ["095944.863000", "095944.866000", "095944.869000", "095944.871000", "095944.874000", "095944.876000", "095944.885000", "095944.887000", "095944.890000", "095944.892000", "095944.895000", "095944.897000", "095944.899000", "095944.902000", "095944.904000", "095944.907000", "095944.909000", "095944.912000", "095944.914000", "095944.917000", "095944.919000", "095944.922000", "095944.924000", "095944.927000", "100024.845000", "100024.848000", "100024.851000", "100024.853000", "100024.856000", "100024.858000", "100024.861000", "100024.863000", "100024.866000", "100024.868000", "100024.871000", "100024.873000", "100024.876000", "100024.878000", "100024.881000", "100024.883000", "100024.886000", "100024.888000", "100024.891000", "100024.893000", "100104.845000", "100104.848000", "100104.851000", "100104.853000", "100104.856000", "100104.858000", "100104.861000", "100104.863000", "100104.866000", "100104.868000", "100104.871000", "100104.873000", "100104.876000", "100104.878000", "100104.880000", "100104.883000", "100104.885000", "100104.888000", "100104.890000", "100104.893000", "100144.846000", "100144.849000", "100144.852000", "100144.854000", "100144.857000", "100144.859000", "100144.862000", "100144.864000", "100144.867000", "100144.869000", "100144.872000", "100144.874000", "100144.877000", "100144.879000", "100144.882000", "100144.884000", "100144.887000", "100144.889000", "100144.892000", "100144.894000", "100224.846000", "100224.848000", "100224.851000", "100224.853000", "100224.856000", "100224.858000", "100224.861000", "100224.863000", "100224.866000", "100224.868000", "100224.871000", "100224.873000", "100224.876000", "100224.878000", "100224.881000", "100224.883000", "100224.886000", "100224.888000", "100224.891000", "100224.893000", "100304.845000", "100304.848000", "100304.851000", "100304.853000", "100304.856000", "100304.858000", "100304.861000", "100304.863000", "100304.866000", "100304.868000", "100304.871000", "100304.873000", "100304.876000", "100304.878000", "100304.881000", "100304.883000", "100304.886000", "100304.888000", "100304.891000", "100304.893000", "100344.845000", "100344.848000", "100344.851000", "100344.853000", "100344.856000", "100344.858000", "100344.861000", "100344.863000", "100344.866000", "100344.868000", "100344.871000", "100344.873000", "100344.876000", "100344.878000", "100344.881000", "100344.883000", "100344.886000", "100344.888000", "100344.891000", "100344.893000", "100424.845000", "100424.848000", "100424.851000", "100424.853000", "100424.856000", "100424.858000", "100424.861000", "100424.863000", "100424.866000", "100424.868000", "100424.871000", "100424.873000", "100424.876000", "100424.878000", "100424.881000", "100424.883000", "100424.886000", "100424.888000", "100424.891000", "100424.893000", "100504.845000", "100504.848000", "100504.851000", "100504.853000", "100504.867000", "100504.870000", "100504.872000", "100504.875000", "100504.877000", "100504.880000", "100504.882000", "100504.885000", "100504.887000", "100504.890000", "100504.892000", "100504.895000", "100504.897000", "100504.900000", "100504.902000", "100504.905000", "100536.060000", "100536.063000", "100536.065000", "100536.068000", "100536.070000", "100536.073000", "100536.075000", "100536.078000", "100536.081000", "100536.083000", "100536.086000", "100536.088000", "100536.091000", "100536.096000", "100536.099000", "100536.103000"],
      "InstanceNumber": [1, 2, 3, 4, 5, 6, 7, 8, 9, 10, 11, 12, 13, 14, 15, 16, 17, 18, 19, 20, 21, 22, 23, 24, 25, 26, 27, 28, 29, 30, 31, 32, 33, 34, 35, 36, 37, 38, 39, 40, 41, 42, 43, 44, 45, 46, 47, 48, 49, 50, 51, 52, 53, 54, 55, 56, 57, 58, 59, 60, 61, 62, 63, 64, 65, 66, 67, 68, 69, 70, 71, 72, 73, 74, 75, 76, 77, 78, 79, 80, 81, 82, 83, 84, 85, 86, 87, 88, 89, 90, 91, 92, 93, 94, 95, 96, 97, 98, 99, 100, 101, 102, 103, 104, 105, 106, 107, 108, 109, 110, 111, 112, 113, 114, 115, 116, 117, 118, 119, 120, 121, 122, 123, 124, 125, 126, 127, 128, 129, 130, 131, 132, 133, 134, 135, 136, 137, 138, 139, 140, 141, 142, 143, 144, 145, 146, 147, 148, 149, 150, 151, 152, 153, 154, 155, 156, 157, 158, 159, 160, 161, 162, 163, 164, 165, 166, 167, 168, 169, 170, 171, 172, 173, 174, 175, 176, 177, 178, 179, 180, 181, 182, 183, 184, 185, 186, 187, 188, 189, 190, 191, 192, 193, 194, 195, 196, 197, 198, 199, 200],
      "LargestImagePixelValue": [331, 333, 335, 332, 330, 334, 337, 332, 330, 333, 333, 330, 335, 333, 331, 336, 335, 332, 331, 332, 334, 331, 331, 331, 332, 332, 333, 334, 331, 332, 334, 330, 333, 332, 332, 332, 333, 334, 332, 331, 333, 335, 334, 331, 332, 332, 337, 332, 332, 330, 332, 329, 332, 332, 332, 334, 335, 332, 329, 330, 329, 334, 336, 329, 331, 330, 334, 331, 332, 333, 332, 331, 332, 337, 334, 332, 330, 332, 331, 331, 335, 329, 331, 335, 334, 331, 333, 332, 331, 330, 331, 333, 332, 332, 332, 332, 332, 330, 332, 334, 336, 332, 333, 331, 337, 335, 333, 331, 333, 335, 332, 331, 333, 331, 329, 331, 334, 329, 332, 332, 331, 334, 334, 331, 333, 333, 336, 330, 333, 331, 331, 330, 330, 333, 332, 333, 332, 335, 331, 332, 330, 330, 332, 330, 331, 336, 333, 332, 333, 330, 331, 332, 332, 332, 331, 330, 334, 334, 331, 331, 330, 331, 329, 332, 333, 329, 331, 331, 334, 332, 333, 332, 332, 331, 330, 333, 334, 330, 331, 331, 333, 330, 334, 331, 331, 331, 332, 334, 331, 329, 331, 331, 332, 334, 333, 330, 329, 330, 332, 330],
      "WindowCenter": [277.0, 277.0, 277.0, 277.0, 277.0, 278.0, 277.0, 277.0, 277.0, 277.0, 277.0, 277.0, 277.0, 278.0, 277.0, 277.0, 277.0, 277.0, 278.0, 277.0, 277.0, 277.0, 277.0, 278.0, 277.0, 277.0, 277.0, 277.0, 277.0, 277.0, 277.0, 277.0, 277.0, 277.0, 277.0, 277.0, 277.0, 277.0, 277.0, 277.0, 277.0, 277.0, 277.0, 277.0, 277.0, 277.0, 277.0, 277.0, 277.0, 277.0, 277.0, 277.0, 277.0, 277.0, 277.0, 277.0, 277.0, 277.0, 277.0, 277.0, 277.0, 277.0, 277.0, 277.0, 277.0, 278.0, 277.0, 277.0, 277.0, 277.0, 277.0, 277.0, 277.0, 277.0, 277.0, 277.0, 277.0, 277.0, 277.0, 277.0, 278.0, 277.0, 277.0, 277.0, 277.0, 278.0, 277.0, 277.0, 277.0, 277.0, 277.0, 277.0, 277.0, 277.0, 277.0, 277.0, 277.0, 277.0, 277.0, 277.0, 277.0, 277.0, 277.0, 277.0, 277.0, 277.0, 277.0, 277.0, 277.0, 277.0, 277.0, 277.0, 277.0, 277.0, 277.0, 277.0, 277.0, 277.0, 277.0, 277.0, 277.0, 277.0, 277.0, 277.0, 277.0, 277.0, 277.0, 277.0, 277.0, 277.0, 277.0, 277.0, 277.0, 277.0, 277.0, 277.0, 277.0, 277.0, 277.0, 277.0, 277.0, 277.0, 277.0, 277.0, 277.0, 277.0, 277.0, 277.0, 277.0, 277.0, 277.0, 277.0, 277.0, 277.0, 277.0, 277.0, 277.0, 277.0, 277.0, 277.0, 277.0, 277.0, 277.0, 277.0, 277.0, 276.0, 277.0, 277.0, 277.0, 277.0, 277.0, 277.0, 277.0, 277.0, 277.0, 277.0, 277.0, 277.0, 277.0, 277.0, 277.0, 277.0, 277.0, 277.0, 277.0, 277.0, 277.0, 277.0, 277.0, 277.0, 277.0, 277.0, 277.0, 277.0, 277.0, 277.0, 276.0, 277.0, 277.0, 277.0],
      "WindowWidth": [607.0, 607.0, 607.0, 607.0, 607.0, 608.0, 607.0, 607.0, 607.0, 607.0, 607.0, 607.0, 607.0, 608.0, 607.0, 607.0, 607.0, 607.0, 608.0, 607.0, 607.0, 607.0, 607.0, 608.0, 607.0, 607.0, 607.0, 607.0, 607.0, 607.0, 607.0, 607.0, 607.0, 607.0, 607.0, 607.0, 607.0, 607.0, 607.0, 607.0, 607.0, 607.0, 607.0, 607.0, 607.0, 607.0, 607.0, 607.0, 607.0, 607.0, 607.0, 606.0, 607.0, 607.0, 607.0, 607.0, 607.0, 607.0, 606.0, 607.0, 606.0, 607.0, 607.0, 607.0, 607.0, 607.0, 607.0, 607.0, 607.0, 607.0, 607.0, 607.0, 607.0, 607.0, 607.0, 607.0, 607.0, 607.0, 607.0, 607.0, 608.0, 607.0, 607.0, 607.0, 607.0, 607.0, 607.0, 607.0, 607.0, 607.0, 607.0, 607.0, 607.0, 607.0, 607.0, 607.0, 607.0, 607.0, 607.0, 607.0, 607.0, 607.0, 607.0, 607.0, 607.0, 607.0, 606.0, 607.0, 607.0, 607.0, 607.0, 607.0, 607.0, 607.0, 606.0, 607.0, 607.0, 606.0, 607.0, 607.0, 607.0, 607.0, 607.0, 607.0, 607.0, 607.0, 607.0, 607.0, 607.0, 607.0, 607.0, 607.0, 607.0, 607.0, 607.0, 607.0, 607.0, 607.0, 607.0, 607.0, 607.0, 607.0, 607.0, 607.0, 607.0, 607.0, 606.0, 607.0, 607.0, 607.0, 606.0, 607.0, 607.0, 607.0, 607.0, 607.0, 607.0, 607.0, 607.0, 607.0, 606.0, 607.0, 606.0, 606.0, 607.0, 606.0, 607.0, 607.0, 606.0, 606.0, 607.0, 607.0, 607.0, 607.0, 607.0, 607.0, 607.0, 606.0, 607.0, 607.0, 606.0, 607.0, 607.0, 607.0, 607.0, 607.0, 607.0, 607.0, 607.0, 606.0, 607.0, 607.0, 606.0, 607.0, 607.0, 607.0, 605.0, 607.0, 606.0, 607.0]
    },
    "slices": {}
  }
}