{
  "AcquisitionMatrixPE": 80,
  "AcquisitionNumber": 1,
  "AcquisitionTime": "09:45:21.150000",
  "BandwidthPerPixelPhaseEncode": 44.643,
  "BaseResolution": 80,
  "BodyPartExamined": "BRAIN",
  "CoilCombinationMethod": "Sum of Squares",
  "ConsistencyInfo": "N4_VE11C_LATEST_20160120",
  "ConversionSoftware": "dcm2niix",
  "ConversionSoftwareVersion": "v1.0.20220720",
  "DerivedVendorReportedEchoSpacing": 0.000559998,
  "DeviceSerialNumber": "66112",
  "DwellTime": 2.7e-06,
  "EchoTime": 0.035,
  "EchoTrainLength": 39,
  "EffectiveEchoSpacing": 0.000279999,
  "FlipAngle": 90,
  "HeudiconvVersion": "0.13.1",
  "ImageOrientationPatientDICOM": [0.982499, 0.185771, 0.0135817, -0.1805, 0.931541, 0.315676],
  "ImageOrientationText": "Tra>Cor(18.2)>Sag(-2.6)",
  "ImageType": [
    "ORIGINAL",
    "PRIMARY",
    "M",
    "ND",
    "NORM",
    "MOSAIC"
],
  "ImagingFrequency": 123.252,
  "InPlanePhaseEncodingDirectionDICOM": "COL",
  "InstitutionAddress": "Maynard 3,Hanover,NH,US,03755",
  "InstitutionName": "Dartmouth College - PBS",
  "InstitutionalDepartmentName": "Department",
  "MRAcquisitionType": "2D",
  "MagneticFieldStrength": 3,
  "Manufacturer": "Siemens",
  "ManufacturersModelName": "Prisma",
  "Modality": "MR",
  "MultibandAccelerationFactor": 4,
  "NonlinearGradientCorrection": false,
  "ParallelReductionFactorInPlane": 2,
  "PartialFourier": 1,
  "PatientPosition": "HFS",
  "PercentPhaseFOV": 100,
  "PercentSampling": 100,
  "PhaseEncodingDirection": "j-",
  "PhaseEncodingSteps": 79,
  "PhaseResolution": 1,
  "PixelBandwidth": 2315,
  "ProcedureStepDescription": "dbic^QA",
  "ProtocolName": "func-bold_task-rest_acq-p2-s4-3.5mm",
  "PulseSequenceDetails": "%SiemensSeq%\\ep2d_bold",
  "ReceiveCoilActiveElements": "HEA;HEP",
  "ReceiveCoilName": "Head_32",
  "ReconMatrixPE": 80,
  "RefLinesPE": 24,
  "RepetitionTime": 2,
  "SAR": 0.020937,
  "ScanOptions": "FS",
  "ScanningSequence": "EP",
  "SequenceName": "*epfid2d1_80",
  "SequenceVariant": "SK",
  "SeriesDescription": "func-bold_task-rest_acq-p2-s4-3.5mm",
  "SeriesNumber": 7,
  "ShimSetting": [4143, -7698, -7522, 257, -104, -7, -4, 50],
  "SliceThickness": 3.5,
  "SliceTiming": [1.485, 0, 0.99, 0.2475, 1.2375, 0.7425, 1.7325, 0.495, 1.485, 0, 0.99, 0.2475, 1.2375, 0.7425, 1.7325, 0.495, 1.485, 0, 0.99, 0.2475, 1.2375, 0.7425, 1.7325, 0.495, 1.485, 0, 0.99, 0.2475, 1.2375, 0.7425, 1.7325, 0.495],
  "SoftwareVersions": "syngo MR E11",
  "SpacingBetweenSlices": 3.99,
  "StationName": "AWP66112",
  "TaskName": "rest",
  "TotalReadoutTime": 0.0221199,
  "TxRefAmp": 224.411,
  "dcmmeta_affine": [
    [-2.947497606277466, -0.5414988398551941, -0.18350672721862793, 143.35214233398438],
    [-0.5573131442070007, 2.7946224212646484, 1.2472869157791138, -93.11445617675781],
    [0.040744952857494354, -0.9470290541648865, 3.7855911254882812, -17.266347885131836],
    [0.0, 0.0, 0.0, 1.0]
],
  "dcmmeta_reorient_transform": [
    [0.0, -1.0, 0.0, 79.0],
    [1.0, 0.0, 0.0, 0.0],
    [0.0, 0.0, 1.0, 0.0],
    [0.0, 0.0, 0.0, 1.0]
],
  "dcmmeta_shape": [80, 80, 32, 200],
  "dcmmeta_slice_dim": 2,
  "dcmmeta_version": 0.6,
  "global": {
    "const": {
      "AccessionNumber": "qa",
      "AcquisitionMatrix": [80, 0, 0, 80],
      "AngioFlag": "N",
      "BitsAllocated": 16,
      "BitsStored": 12,
      "BodyPartExamined": "BRAIN",
      "Columns": 480,
      "EchoNumbers": 1,
      "EchoTime": 35.0,
      "EchoTrainLength": 39,
      "FlipAngle": 90.0,
      "HighBit": 11,
      "ImageOrientationPatient": [0.98249918963187, 0.18577104494219, 0.01358165062864, -0.1804996106063, 0.93154084057901, 0.31567634200922],
      "ImagePositionPatient": [-581.77348195546, -798.04785625843, -289.63643722489],
      "ImageType": [
        "ORIGINAL",
        "PRIMARY",
        "M",
        "ND",
        "NORM",
        "MOSAIC"
],
      "ImagedNucleus": "1H",
      "ImagingFrequency": 123.252371,
      "InPlanePhaseEncodingDirection": "COL",
      "MRAcquisitionType": "2D",
      "MagneticFieldStrength": 3.0,
      "Manufacturer": "SIEMENS",
      "ManufacturerModelName": "Prisma",
      "Modality": "MR",
      "NumberOfAverages": 1.0,
      "NumberOfPhaseEncodingSteps": 79,
      "PercentPhaseFieldOfView": 100.0,
      "PercentSampling": 100.0,
      "PerformedProcedureStepStartTime": "093652.333000",
      "PhotometricInterpretation": "MONOCHROME2",
      "PixelBandwidth": 2315.0,
      "PixelRepresentation": 0,
      "PixelSpacing": [3.0, 3.0],
      "ProtocolName": "func-bold_task-rest_acq-p2-s4-3.5mm",
      "RepetitionTime": 2000.0,
      "Rows": 480,
      "SAR": 0.02093697874549,
      "SamplesPerPixel": 1,
      "ScanOptions": "FS",
      "ScanningSequence": "EP",
      "SequenceName": "*epfid2d1_80",
      "SequenceVariant": "SK",
      "SeriesDescription": "func-bold_task-rest_acq-p2-s4-3.5mm",
      "SeriesNumber": 7,
      "SeriesTime": "094604.918000",
      "SliceLocation": -52.082671410495,
      "SliceThickness": 3.5,
      "SmallestImagePixelValue": 0,
      "SoftwareVersions": "syngo MR E11",
      "SpacingBetweenSlices": 3.9900000405438,
      "SpecificCharacterSet": "ISO_IR 100",
      "StudyID": "28",
      "StudyTime": "093652.288000",
      "TransmitCoilName": "Body",
      "VariableFlipAngleFlag": "N",
      "WindowCenter": 920.0,
      "WindowCenterWidthExplanation": "Algo1",
      "dBdt": 0.0},
    "slices": {}
  },
  "time": {
    "samples": {
      "AcquisitionNumber": [1, 2, 3, 4, 5, 6, 7, 8, 9, 10, 11, 12, 13, 14, 15, 16, 17, 18, 19, 20, 21, 22, 23, 24, 25, 26, 27, 28, 29, 30, 31, 32, 33, 34, 35, 36, 37, 38, 39, 40, 41, 42, 43, 44, 45, 46, 47, 48, 49, 50, 51, 52, 53, 54, 55, 56, 57, 58, 59, 60, 61, 62, 63, 64, 65, 66, 67, 68, 69, 70, 71, 72, 73, 74, 75, 76, 77, 78, 79, 80, 81, 82, 83, 84, 85, 86, 87, 88, 89, 90, 91, 92, 93, 94, 95, 96, 97, 98, 99, 100, 101, 102, 103, 104, 105, 106, 107, 108, 109, 110, 111, 112, 113, 114, 115, 116, 117, 118, 119, 120, 121, 122, 123, 124, 125, 126, 127, 128, 129, 130, 131, 132, 133, 134, 135, 136, 137, 138, 139, 140, 141, 142, 143, 144, 145, 146, 147, 148, 149, 150, 151, 152, 153, 154, 155, 156, 157, 158, 159, 160, 161, 162, 163, 164, 165, 166, 167, 168, 169, 170, 171, 172, 173, 174, 175, 176, 177, 178, 179, 180, 181, 182, 183, 184, 185, 186, 187, 188, 189, 190, 191, 192, 193, 194, 195, 196, 197, 198, 199, 200],
      "AcquisitionTime": ["094521.150000", "094523.150000", "094525.150000", "094527.150000", "094529.150000", "094531.150000", "094533.150000", "094535.150000", "094537.150000", "094539.150000", "094541.150000", "094543.150000", "094545.150000", "094547.150000", "094549.150000", "094551.150000", "094553.150000", "094555.150000", "094557.150000", "094559.150000", "094601.150000", "094603.150000", "094605.150000", "094607.150000", "094609.150000", "094611.150000", "094613.150000", "094615.150000", "094617.150000", "094619.150000", "094621.150000", "094623.150000", "094625.150000", "094627.150000", "094629.150000", "094631.150000", "094633.150000", "094635.150000", "094637.150000", "094639.150000", "094641.150000", "094643.150000", "094645.150000", "094647.150000", "094649.150000", "094651.150000", "094653.150000", "094655.150000", "094657.150000", "094659.150000", "094701.150000", "094703.150000", "094705.150000", "094707.150000", "094709.150000", "094711.150000", "094713.150000", "094715.150000", "094717.150000", "094719.150000", "094721.150000", "094723.150000", "094725.150000", "094727.150000", "094729.150000", "094731.150000", "094733.150000", "094735.150000", "094737.150000", "094739.150000", "094741.150000", "094743.150000", "094745.150000", "094747.150000", "094749.150000", "094751.150000", "094753.150000", "094755.150000", "094757.150000", "094759.150000", "094801.150000", "094803.150000", "094805.150000", "094807.150000", "094809.150000", "094811.150000", "094813.150000", "094815.150000", "094817.150000", "094819.150000", "094821.150000", "094823.150000", "094825.150000", "094827.150000", "094829.150000", "094831.150000", "094833.150000", "094835.150000", "094837.150000", "094839.150000", "094841.150000", "094843.150000", "094845.150000", "094847.150000", "094849.150000", "094851.150000", "094853.150000", "094855.150000", "094857.150000", "094859.150000", "094901.150000", "094903.150000", "094905.150000", "094907.150000", "094909.150000", "094911.150000", "094913.150000", "094915.150000", "094917.150000", "094919.150000", "094921.150000", "094923.150000", "094925.150000", "094927.150000", "094929.150000", "094931.150000", "094933.150000", "094935.150000", "094937.150000", "094939.150000", "094941.150000", "094943.150000", "094945.150000", "094947.150000", "094949.150000", "094951.150000", "094953.150000", "094955.150000", "094957.150000", "094959.150000", "095001.150000", "095003.150000", "095005.150000", "095007.150000", "095009.150000", "095011.150000", "095013.150000", "095015.150000", "095017.150000", "095019.150000", "095021.150000", "095023.150000", "095025.150000", "095027.150000", "095029.150000", "095031.150000", "095033.150000", "095035.150000", "095037.150000", "095039.150000", "095041.150000", "095043.150000", "095045.150000", "095047.150000", "095049.150000", "095051.150000", "095053.150000", "095055.150000", "095057.150000", "095059.150000", "095101.150000", "095103.150000", "095105.150000", "095107.150000", "095109.150000", "095111.150000", "095113.150000", "095115.150000", "095117.150000", "095119.150000", "095121.150000", "095123.150000", "095125.150000", "095127.150000", "095129.150000", "095131.150000", "095133.150000", "095135.150000", "095137.150000", "095139.150000", "095141.150000", "095143.150000", "095145.150000", "095147.150000", "095149.150000", "095151.150000", "095153.150000", "095155.150000", "095157.150000", "095159.150000"],
      "ContentTime": ["094604.921000", "094604.925000", "094604.927000", "094604.930000", "094604.932000", "094604.935000", "094604.937000", "094604.940000", "094604.943000", "094604.952000", "094604.954000", "094604.957000", "094604.959000", "094604.962000", "094604.964000", "094604.967000", "094604.974000", "094604.976000", "094604.979000", "094604.982000", "094604.984000", "094604.987000", "094644.916000", "094644.919000", "094644.922000", "094644.924000", "094644.927000", "094644.929000", "094644.932000", "094644.934000", "094644.937000", "094644.940000", "094644.942000", "094644.945000", "094644.947000", "094644.950000", "094644.952000", "094644.955000", "094644.957000", "094644.960000", "094644.962000", "094644.965000", "094724.927000", "094724.934000", "094724.936000", "094724.939000", "094724.941000", "094724.944000", "094724.946000", "094724.949000", "094724.951000", "094724.954000", "094724.956000", "094724.959000", "094724.961000", "094724.964000", "094724.967000", "094724.969000", "094724.972000", "094724.974000", "094724.977000", "094724.979000", "094804.917000", "094804.920000", "094804.923000", "094804.925000", "094804.928000", "094804.930000", "094804.933000", "094804.935000", "094804.938000", "094804.940000", "094804.943000", "094804.945000", "094804.948000", "094804.950000", "094804.953000", "094804.956000", "094804.958000", "094804.961000", "094804.963000", "094804.966000", "094844.916000", "094844.919000", "094844.922000", "094844.924000", "094844.927000", "094844.929000", "094844.932000", "094844.935000", "094844.937000", "094844.940000", "094844.942000", "094844.945000", "094844.947000", "094844.950000", "094844.952000", "094844.955000", "094844.957000", "094844.960000", "094844.962000", "094844.965000", "094924.916000", "094924.919000", "094924.922000", "094924.930000", "094924.933000", "094924.936000", "094924.938000", "094924.941000", "094924.943000", "094924.946000", "094924.948000", "094924.951000", "094924.953000", "094924.956000", "094924.958000", "094924.961000", "094924.963000", "094924.966000", "094924.968000", "094924.971000", "095004.916000", "095004.919000", "095004.922000", "095004.924000", "095004.927000", "095004.929000", "095004.932000", "095004.934000", "095004.937000", "095004.939000", "095004.942000", "095004.944000", "095004.947000", "095004.950000", "095004.952000", "095004.955000", "095004.957000", "095004.960000", "095004.962000", "095004.965000", "095044.916000", "095044.919000", "095044.922000", "095044.924000", "095044.927000", "095044.929000", "095044.932000", "095044.934000", "095044.937000", "095044.940000", "095044.942000", "095044.945000", "095044.947000", "095044.950000", "095044.952000", "095044.955000", "095044.957000", "095044.960000", "095044.962000", "095044.965000", "095124.916000", "095124.919000", "095124.922000", "095124.924000", "095124.927000", "095124.930000", "095124.940000", "095124.943000", "095124.946000", "095124.948000", "095124.951000", "095124.953000", "095124.956000", "095124.958000", "095124.961000", "095124.963000", "095124.966000", "095124.968000", "095124.971000", "095124.973000", "095159.688000", "095159.690000", "095159.693000", "095159.696000", "095159.698000", "095159.701000", "095159.704000", "095159.706000", "095159.709000", "095159.712000", "095159.714000", "095159.717000", "095159.721000", "095159.726000", "095159.729000", "095159.732000", "095159.738000", "095159.741000"],
      "InstanceCreationTime": ["094604.921000", "094604.925000", "094604.927000", "094604.930000", "094604.932000", "094604.935000", "094604.937000", "094604.940000", "094604.943000", "094604.952000", "094604.954000", "094604.957000", "094604.959000", "094604.962000", "094604.964000", "094604.967000", "094604.974000", "094604.976000", "094604.979000", "094604.982000", "094604.984000", "094604.987000", "094644.916000", "094644.919000", "094644.922000", "094644.924000", "094644.927000", "094644.929000", "094644.932000", "094644.934000", "094644.937000", "094644.940000", "094644.942000", "094644.945000", "094644.947000", "094644.950000", "094644.952000", "094644.955000", "094644.957000", "094644.960000", "094644.962000", "094644.965000", "094724.927000", "094724.934000", "094724.936000", "094724.939000", "094724.941000", "094724.944000", "094724.946000", "094724.949000", "094724.951000", "094724.954000", "094724.956000", "094724.959000", "094724.961000", "094724.964000", "094724.967000", "094724.969000", "094724.972000", "094724.974000", "094724.977000", "094724.979000", "094804.917000", "094804.920000", "094804.923000", "094804.925000", "094804.928000", "094804.930000", "094804.933000", "094804.935000", "094804.938000", "094804.940000", "094804.943000", "094804.945000", "094804.948000", "094804.950000", "094804.953000", "094804.956000", "094804.958000", "094804.961000", "094804.963000", "094804.966000", "094844.916000", "094844.919000", "094844.922000", "094844.924000", "094844.927000", "094844.929000", "094844.932000", "094844.935000", "094844.937000", "094844.940000", "094844.942000", "094844.945000", "094844.947000", "094844.950000", "094844.952000", "094844.955000", "094844.957000", "094844.960000", "094844.962000", "094844.965000", "094924.916000", "094924.919000", "094924.922000", "094924.930000", "094924.933000", "094924.936000", "094924.938000", "094924.941000", "094924.943000", "094924.946000", "094924.948000", "094924.951000", "094924.953000", "094924.956000", "094924.958000", "094924.961000", "094924.963000", "094924.966000", "094924.968000", "094924.971000", "095004.916000", "095004.919000", "095004.922000", "095004.924000", "095004.927000", "095004.929000", "095004.932000", "095004.934000", "095004.937000", "095004.939000", "095004.942000", "095004.944000", "095004.947000", "095004.950000", "095004.952000", "095004.955000", "095004.957000", "095004.960000", "095004.962000", "095004.965000", "095044.916000", "095044.919000", "095044.922000", "095044.924000", "095044.927000", "095044.929000", "095044.932000", "095044.934000", "095044.937000", "095044.940000", "095044.942000", "095044.945000", "095044.947000", "095044.950000", "095044.952000", "095044.955000", "095044.957000", "095044.960000", "095044.962000", "095044.965000", "095124.916000", "095124.919000", "095124.922000", "095124.924000", "095124.927000", "095124.930000", "095124.940000", "095124.943000", "095124.946000", "095124.948000", "095124.951000", "095124.953000", "095124.956000", "095124.958000", "095124.961000", "095124.963000", "095124.966000", "095124.968000", "095124.971000", "095124.973000", "095159.688000", "095159.690000", "095159.693000", "095159.696000", "095159.698000", "095159.701000", "095159.704000", "095159.706000", "095159.709000", "095159.712000", "095159.714000", "095159.717000", "095159.721000", "095159.726000", "095159.729000", "095159.732000", "095159.738000", "095159.741000"],
      "InstanceNumber": [1, 2, 3, 4, 5, 6, 7, 8, 9, 10, 11, 12, 13, 14, 15, 16, 17, 18, 19, 20, 21, 22, 23, 24, 25, 26, 27, 28, 29, 30, 31, 32, 33, 34, 35, 36, 37, 38, 39, 40, 41, 42, 43, 44, 45, 46, 47, 48, 49, 50, 51, 52, 53, 54, 55, 56, 57, 58, 59, 60, 61, 62, 63, 64, 65, 66, 67, 68, 69, 70, 71, 72, 73, 74, 75, 76, 77, 78, 79, 80, 81, 82, 83, 84, 85, 86, 87, 88, 89, 90, 91, 92, 93, 94, 95, 96, 97, 98, 99, 100, 101, 102, 103, 104, 105, 106, 107, 108, 109, 110, 111, 112, 113, 114, 115, 116, 117, 118, 119, 120, 121, 122, 123, 124, 125, 126, 127, 128, 129, 130, 131, 132, 133, 134, 135, 136, 137, 138, 139, 140, 141, 142, 143, 144, 145, 146, 147, 148, 149, 150, 151, 152, 153, 154, 155, 156, 157, 158, 159, 160, 161, 162, 163, 164, 165, 166, 167, 168, 169, 170, 171, 172, 173, 174, 175, 176, 177, 178, 179, 180, 181, 182, 183, 184, 185, 186, 187, 188, 189, 190, 191, 192, 193, 194, 195, 196, 197, 198, 199, 200],
      "LargestImagePixelValue": [1929, 1932, 1933, 1934, 1929, 1929, 1932, 1933, 1934, 1930, 1929, 1932, 1932, 1930, 1934, 1926, 1934, 1931, 1926, 1926, 1934, 1930, 1931, 1933, 1932, 1931, 1930, 1930, 1930, 1932, 1930, 1927, 1930, 1928, 1930, 1927, 1933, 1933, 1933, 1930, 1930, 1929, 1931, 1928, 1931, 1931, 1930, 1928, 1932, 1931, 1930, 1931, 1929, 1935, 1935, 1930, 1931, 1932, 1927, 1928, 1929, 1929, 1929, 1926, 1934, 1926, 1928, 1929, 1931, 1934, 1929, 1930, 1930, 1931, 1929, 1934, 1929, 1934, 1935, 1935, 1935, 1926, 1936, 1931, 1926, 1934, 1934, 1936, 1931, 1930, 1936, 1939, 1931, 1930, 1928, 1931, 1931, 1931, 1929, 1928, 1937, 1931, 1932, 1931, 1934, 1931, 1931, 1936, 1929, 1929, 1932, 1928, 1930, 1938, 1929, 1933, 1929, 1930, 1930, 1931, 1929, 1930, 1931, 1931, 1928, 1931, 1934, 1930, 1933, 1933, 1938, 1926, 1928, 1926, 1932, 1931, 1932, 1935, 1932, 1932, 1936, 1936, 1934, 1932, 1930, 1934, 1932, 1931, 1929, 1929, 1932, 1928, 1928, 1927, 1931, 1928, 1932, 1933, 1927, 1929, 1930, 1931, 1928, 1928, 1931, 1930, 1929, 1931, 1923, 1930, 1925, 1929, 1925, 1927, 1930, 1928, 1923, 1931, 1923, 1925, 1925, 1929, 1927, 1927, 1928, 1924, 1927, 1927, 1927, 1925, 1930, 1929, 1930, 1930, 1927, 1928, 1929, 1933, 1930, 1928],
      "WindowWidth": [2094.0, 2094.0, 2094.0, 2094.0, 2094.0, 2094.0, 2094.0, 2094.0, 2094.0, 2094.0, 2094.0, 2095.0, 2094.0, 2094.0, 2095.0, 2094.0, 2095.0, 2095.0, 2095.0, 2094.0, 2095.0, 2095.0, 2095.0, 2094.0, 2095.0, 2095.0, 2095.0, 2095.0, 2095.0, 2095.0, 2095.0, 2094.0, 2095.0, 2095.0, 2094.0, 2094.0, 2095.0, 2095.0, 2095.0, 2095.0, 2095.0, 2095.0, 2095.0, 2094.0, 2095.0, 2095.0, 2095.0, 2095.0, 2095.0, 2095.0, 2095.0, 2095.0, 2094.0, 2095.0, 2095.0, 2095.0, 2095.0, 2095.0, 2095.0, 2095.0, 2095.0, 2094.0, 2094.0, 2095.0, 2095.0, 2095.0, 2095.0, 2095.0, 2095.0, 2095.0, 2095.0, 2095.0, 2095.0, 2095.0, 2094.0, 2095.0, 2095.0, 2095.0, 2095.0, 2095.0, 2095.0, 2095.0, 2095.0, 2095.0, 2095.0, 2095.0, 2095.0, 2095.0, 2095.0, 2095.0, 2095.0, 2095.0, 2095.0, 2095.0, 2095.0, 2095.0, 2095.0, 2095.0, 2095.0, 2095.0, 2095.0, 2095.0, 2095.0, 2095.0, 2095.0, 2095.0, 2095.0, 2095.0, 2095.0, 2095.0, 2094.0, 2095.0, 2095.0, 2095.0, 2095.0, 2095.0, 2095.0, 2095.0, 2095.0, 2095.0, 2095.0, 2095.0, 2095.0, 2095.0, 2094.0, 2095.0, 2095.0, 2095.0, 2095.0, 2095.0, 2095.0, 2094.0, 2095.0, 2095.0, 2095.0, 2095.0, 2095.0, 2095.0, 2095.0, 2095.0, 2095.0, 2095.0, 2095.0, 2095.0, 2095.0, 2095.0, 2095.0, 2095.0, 2095.0, 2095.0, 2095.0, 2095.0, 2095.0, 2094.0, 2095.0, 2094.0, 2095.0, 2095.0, 2095.0, 2095.0, 2095.0, 2095.0, 2095.0, 2095.0, 2095.0, 2094.0, 2095.0, 2095.0, 2095.0, 2095.0, 2095.0, 2095.0, 2095.0, 2095.0, 2095.0, 2095.0, 2095.0, 2095.0, 2095.0, 2095.0, 2095.0, 2095.0, 2095.0, 2095.0, 2095.0, 2095.0, 2095.0, 2095.0, 2095.0, 2095.0, 2095.0, 2095.0, 2095.0, 2095.0, 2095.0, 2095.0, 2095.0, 2095.0, 2095.0, 2095.0]
    },
    "slices": {}
  }
}