{
  "AcquisitionMatrixPE": 80,
  "AcquisitionNumber": 1,
  "AcquisitionTime": "09:52:10.492500",
  "BandwidthPerPixelPhaseEncode": 25,
  "BaseResolution": 80,
  "BodyPartExamined": "BRAIN",
  "CoilCombinationMethod": "Sum of Squares",
  "ConsistencyInfo": "N4_VE11C_LATEST_20160120",
  "ConversionSoftware": "dcm2niix",
  "ConversionSoftwareVersion": "v1.0.20220720",
  "DerivedVendorReportedEchoSpacing": 0.0005,
  "DeviceSerialNumber": "66112",
  "DwellTime": 2.7e-06,
  "EchoTime": 0.03,
  "EchoTrainLength": 80,
  "EffectiveEchoSpacing": 0.0005,
  "FlipAngle": 77,
  "HeudiconvVersion": "0.13.1",
  "ImageOrientationPatientDICOM": [0.982499, 0.185771, 0.0135817, -0.1805, 0.931541, 0.315676],
  "ImageOrientationText": "Tra>Cor(18.2)>Sag(-2.6)",
  "ImageType": [
    "ORIGINAL",
    "PRIMARY",
    "M",
    "ND",
    "NORM",
    "MOSAIC"
],
  "ImagingFrequency": 123.252,
  "InPlanePhaseEncodingDirectionDICOM": "COL",
  "InstitutionAddress": "Maynard 3,Hanover,NH,US,03755",
  "InstitutionName": "Dartmouth College - PBS",
  "InstitutionalDepartmentName": "Department",
  "MRAcquisitionType": "2D",
  "MagneticFieldStrength": 3,
  "Manufacturer": "Siemens",
  "ManufacturersModelName": "Prisma",
  "MatrixCoilMode": "SENSE",
  "Modality": "MR",
  "NonlinearGradientCorrection": false,
  "PartialFourier": 1,
  "PatientPosition": "HFS",
  "PercentPhaseFOV": 100,
  "PercentSampling": 100,
  "PhaseEncodingDirection": "j-",
  "PhaseEncodingSteps": 80,
  "PhaseResolution": 1,
  "PixelBandwidth": 2315,
  "ProcedureStepDescription": "dbic^QA",
  "ProtocolName": "func-bold_fa-77",
  "PulseSequenceDetails": "%SiemensSeq%\\ep2d_bold",
  "ReceiveCoilActiveElements": "HEA;HEP",
  "ReceiveCoilName": "Head_32",
  "ReconMatrixPE": 80,
  "RepetitionTime": 2,
  "SAR": 0.0437554,
  "ScanOptions": "FS",
  "ScanningSequence": "EP",
  "SequenceName": "*epfid2d1_80",
  "SequenceVariant": "SK",
  "SeriesDescription": "func-bold_fa-77",
  "SeriesNumber": 8,
  "ShimSetting": [4143, -7698, -7523, 265, -103, -5, -5, 52],
  "SliceThickness": 3.5,
  "SliceTiming": [0.99, 0, 1.055, 0.065, 1.12, 0.13, 1.1875, 0.1975, 1.2525, 0.2625, 1.3175, 0.33, 1.385, 0.395, 1.45, 0.46, 1.5175, 0.5275, 1.5825, 0.5925, 1.6475, 0.66, 1.715, 0.725, 1.78, 0.79, 1.8475, 0.8575, 1.9125, 0.9225],
  "SoftwareVersions": "syngo MR E11",
  "SpacingBetweenSlices": 3.99,
  "StationName": "AWP66112",
  "TotalReadoutTime": 0.0395,
  "TxRefAmp": 224.411,
  "dcmmeta_affine": [
    [-2.947497606277466, -0.5414988398551941, -0.18350672721862793, 143.4583282470703],
    [-0.5573131442070007, 2.7946224212646484, 1.2472869157791138, -93.45924377441406],
    [0.040744952857494354, -0.9470290541648865, 3.7855911254882812, -14.295863151550293],
    [0.0, 0.0, 0.0, 1.0]
],
  "dcmmeta_reorient_transform": [
    [0.0, -1.0, 0.0, 79.0],
    [1.0, 0.0, 0.0, 0.0],
    [0.0, 0.0, 1.0, 0.0],
    [0.0, 0.0, 0.0, 1.0]
],
  "dcmmeta_shape": [80, 80, 30, 200],
  "dcmmeta_slice_dim": 2,
  "dcmmeta_version": 0.6,
  "global": {
    "const": {
      "AccessionNumber": "qa",
      "AcquisitionMatrix": [80, 0, 0, 80],
      "AngioFlag": "N",
      "BitsAllocated": 16,
      "BitsStored": 12,
      "BodyPartExamined": "BRAIN",
      "Columns": 480,
      "EchoNumbers": 1,
      "EchoTime": 30.0,
      "EchoTrainLength": 80,
      "FlipAngle": 77.0,
      "HighBit": 11,
      "ImageOrientationPatient": [0.98249918963187, 0.18577104494219, 0.01358165062864, -0.1804996106063, 0.93154084057901, 0.31567634200922],
      "ImagePositionPatient": [-581.87966739171, -797.7030677071, -286.66595153764],
      "ImageType": [
        "ORIGINAL",
        "PRIMARY",
        "M",
        "ND",
        "NORM",
        "MOSAIC"
],
      "ImagedNucleus": "1H",
      "ImagingFrequency": 123.252371,
      "InPlanePhaseEncodingDirection": "COL",
      "MRAcquisitionType": "2D",
      "MagneticFieldStrength": 3.0,
      "Manufacturer": "SIEMENS",
      "ManufacturerModelName": "Prisma",
      "Modality": "MR",
      "NumberOfAverages": 1.0,
      "NumberOfPhaseEncodingSteps": 80,
      "PercentPhaseFieldOfView": 100.0,
      "PercentSampling": 100.0,
      "PerformedProcedureStepStartTime": "093652.333000",
      "PhotometricInterpretation": "MONOCHROME2",
      "PixelBandwidth": 2315.0,
      "PixelRepresentation": 0,
      "PixelSpacing": [3.0, 3.0],
      "ProtocolName": "func-bold_fa-77",
      "RepetitionTime": 2000.0,
      "Rows": 480,
      "SAR": 0.04375544518068,
      "SamplesPerPixel": 1,
      "ScanOptions": "FS",
      "ScanningSequence": "EP",
      "SequenceName": "*epfid2d1_80",
      "SequenceVariant": "SK",
      "SeriesDescription": "func-bold_fa-77",
      "SeriesNumber": 8,
      "SeriesTime": "095304.778000",
      "SliceLocation": -49.377030190502,
      "SliceThickness": 3.5,
      "SmallestImagePixelValue": 0,
      "SoftwareVersions": "syngo MR E11",
      "SpacingBetweenSlices": 3.9899999149097,
      "SpecificCharacterSet": "ISO_IR 100",
      "StudyID": "28",
      "StudyTime": "093652.288000",
      "TransmitCoilName": "Body",
      "VariableFlipAngleFlag": "N",
      "WindowCenterWidthExplanation": "Algo1",
      "dBdt": 0.0},
    "slices": {}
  },
  "time": {
    "samples": {
      "AcquisitionNumber": [1, 2, 3, 4, 5, 6, 7, 8, 9, 10, 11, 12, 13, 14, 15, 16, 17, 18, 19, 20, 21, 22, 23, 24, 25, 26, 27, 28, 29, 30, 31, 32, 33, 34, 35, 36, 37, 38, 39, 40, 41, 42, 43, 44, 45, 46, 47, 48, 49, 50, 51, 52, 53, 54, 55, 56, 57, 58, 59, 60, 61, 62, 63, 64, 65, 66, 67, 68, 69, 70, 71, 72, 73, 74, 75, 76, 77, 78, 79, 80, 81, 82, 83, 84, 85, 86, 87, 88, 89, 90, 91, 92, 93, 94, 95, 96, 97, 98, 99, 100, 101, 102, 103, 104, 105, 106, 107, 108, 109, 110, 111, 112, 113, 114, 115, 116, 117, 118, 119, 120, 121, 122, 123, 124, 125, 126, 127, 128, 129, 130, 131, 132, 133, 134, 135, 136, 137, 138, 139, 140, 141, 142, 143, 144, 145, 146, 147, 148, 149, 150, 151, 152, 153, 154, 155, 156, 157, 158, 159, 160, 161, 162, 163, 164, 165, 166, 167, 168, 169, 170, 171, 172, 173, 174, 175, 176, 177, 178, 179, 180, 181, 182, 183, 184, 185, 186, 187, 188, 189, 190, 191, 192, 193, 194, 195, 196, 197, 198, 199, 200],
      "AcquisitionTime": ["095210.492500", "095212.492500", "095214.492500", "095216.492500", "095218.492500", "095220.492500", "095222.492500", "095224.492500", "095226.492500", "095228.492500", "095230.492500", "095232.492500", "095234.492500", "095236.492500", "095238.492500", "095240.492500", "095242.492500", "095244.492500", "095246.492500", "095248.492500", "095250.492500", "095252.492500", "095254.492500", "095256.492500", "095258.492500", "095300.492500", "095302.492500", "095304.492500", "095306.492500", "095308.492500", "095310.492500", "095312.492500", "095314.492500", "095316.492500", "095318.492500", "095320.492500", "095322.492500", "095324.492500", "095326.492500", "095328.492500", "095330.492500", "095332.492500", "095334.492500", "095336.492500", "095338.492500", "095340.492500", "095342.492500", "095344.492500", "095346.492500", "095348.492500", "095350.492500", "095352.492500", "095354.492500", "095356.492500", "095358.492500", "095400.492500", "095402.492500", "095404.492500", "095406.492500", "095408.492500", "095410.492500", "095412.492500", "095414.492500", "095416.492500", "095418.492500", "095420.492500", "095422.492500", "095424.492500", "095426.492500", "095428.492500", "095430.492500", "095432.492500", "095434.492500", "095436.492500", "095438.492500", "095440.492500", "095442.492500", "095444.492500", "095446.492500", "095448.492500", "095450.492500", "095452.492500", "095454.492500", "095456.492500", "095458.492500", "095500.492500", "095502.492500", "095504.492500", "095506.492500", "095508.492500", "095510.492500", "095512.492500", "095514.492500", "095516.492500", "095518.492500", "095520.492500", "095522.492500", "095524.492500", "095526.492500", "095528.492500", "095530.492500", "095532.492500", "095534.492500", "095536.492500", "095538.492500", "095540.492500", "095542.492500", "095544.492500", "095546.492500", "095548.492500", "095550.492500", "095552.492500", "095554.492500", "095556.492500", "095558.492500", "095600.492500", "095602.492500", "095604.492500", "095606.492500", "095608.492500", "095610.492500", "095612.492500", "095614.492500", "095616.492500", "095618.492500", "095620.492500", "095622.492500", "095624.492500", "095626.492500", "095628.492500", "095630.492500", "095632.492500", "095634.492500", "095636.492500", "095638.492500", "095640.492500", "095642.492500", "095644.492500", "095646.492500", "095648.492500", "095650.492500", "095652.492500", "095654.492500", "095656.492500", "095658.492500", "095700.492500", "095702.492500", "095704.492500", "095706.492500", "095708.492500", "095710.492500", "095712.492500", "095714.492500", "095716.492500", "095718.492500", "095720.492500", "095722.492500", "095724.492500", "095726.492500", "095728.492500", "095730.492500", "095732.492500", "095734.492500", "095736.492500", "095738.492500", "095740.492500", "095742.492500", "095744.492500", "095746.492500", "095748.492500", "095750.492500", "095752.492500", "095754.492500", "095756.492500", "095758.492500", "095800.492500", "095802.492500", "095804.492500", "095806.492500", "095808.492500", "095810.492500", "095812.492500", "095814.492500", "095816.492500", "095818.492500", "095820.492500", "095822.492500", "095824.492500", "095826.492500", "095828.492500", "095830.492500", "095832.492500", "095834.492500", "095836.492500", "095838.492500", "095840.492500", "095842.492500", "095844.492500", "095846.492500", "095848.492500"],
      "ContentTime": ["095304.782000", "095304.785000", "095304.788000", "095304.790000", "095304.793000", "095304.795000", "095304.798000", "095304.800000", "095304.810000", "095304.812000", "095304.815000", "095304.817000", "095304.820000", "095304.822000", "095304.825000", "095304.827000", "095304.830000", "095304.832000", "095304.835000", "095304.837000", "095304.840000", "095304.842000", "095304.845000", "095304.847000", "095304.850000", "095304.852000", "095304.855000", "095344.776000", "095344.779000", "095344.782000", "095344.784000", "095344.787000", "095344.789000", "095344.792000", "095344.794000", "095344.797000", "095344.799000", "095344.802000", "095344.804000", "095344.807000", "095344.809000", "095344.812000", "095344.814000", "095344.817000", "095344.819000", "095344.822000", "095344.824000", "095424.776000", "095424.779000", "095424.782000", "095424.784000", "095424.787000", "095424.789000", "095424.792000", "095424.794000", "095424.797000", "095424.799000", "095424.802000", "095424.804000", "095424.807000", "095424.809000", "095424.812000", "095424.814000", "095424.817000", "095424.820000", "095424.822000", "095424.825000", "095504.777000", "095504.780000", "095504.783000", "095504.785000", "095504.788000", "095504.790000", "095504.793000", "095504.795000", "095504.798000", "095504.800000", "095504.803000", "095504.805000", "095504.808000", "095504.810000", "095504.813000", "095504.815000", "095504.818000", "095504.820000", "095504.823000", "095504.825000", "095544.776000", "095544.779000", "095544.782000", "095544.784000", "095544.787000", "095544.789000", "095544.792000", "095544.794000", "095544.797000", "095544.799000", "095544.802000", "095544.804000", "095544.807000", "095544.809000", "095544.812000", "095544.814000", "095544.817000", "095544.819000", "095544.822000", "095544.824000", "095624.776000", "095624.779000", "095624.782000", "095624.784000", "095624.787000", "095624.789000", "095624.792000", "095624.794000", "095624.797000", "095624.799000", "095624.802000", "095624.804000", "095624.807000", "095624.809000", "095624.812000", "095624.814000", "095624.817000", "095624.819000", "095624.822000", "095624.825000", "095704.777000", "095704.779000", "095704.782000", "095704.785000", "095704.787000", "095704.790000", "095704.792000", "095704.795000", "095704.797000", "095704.800000", "095704.802000", "095704.805000", "095704.807000", "095704.810000", "095704.812000", "095704.815000", "095704.817000", "095704.820000", "095704.822000", "095704.825000", "095744.776000", "095744.779000", "095744.782000", "095744.784000", "095744.787000", "095744.789000", "095744.792000", "095744.794000", "095744.797000", "095744.800000", "095744.802000", "095744.805000", "095744.807000", "095744.810000", "095744.812000", "095744.815000", "095744.817000", "095744.820000", "095744.822000", "095744.825000", "095824.776000", "095824.779000", "095824.782000", "095824.784000", "095824.787000", "095824.789000", "095824.792000", "095824.794000", "095824.797000", "095824.799000", "095824.802000", "095824.805000", "095824.807000", "095824.810000", "095824.812000", "095824.815000", "095824.817000", "095824.820000", "095824.822000", "095824.824000", "095849.675000", "095849.677000", "095849.680000", "095849.682000", "095849.685000", "095849.688000", "095849.690000", "095849.693000", "095849.695000", "095849.698000", "095849.700000", "095849.703000", "095849.706000"],
      "InstanceCreationTime": ["095304.782000", "095304.785000", "095304.788000", "095304.790000", "095304.793000", "095304.795000", "095304.798000", "095304.800000", "095304.810000", "095304.812000", "095304.815000", "095304.817000", "095304.820000", "095304.822000", "095304.825000", "095304.827000", "095304.830000", "095304.832000", "095304.835000", "095304.837000", "095304.840000", "095304.842000", "095304.845000", "095304.847000", "095304.850000", "095304.852000", "095304.855000", "095344.776000", "095344.779000", "095344.782000", "095344.784000", "095344.787000", "095344.789000", "095344.792000", "095344.794000", "095344.797000", "095344.799000", "095344.802000", "095344.804000", "095344.807000", "095344.809000", "095344.812000", "095344.814000", "095344.817000", "095344.819000", "095344.822000", "095344.824000", "095424.776000", "095424.779000", "095424.782000", "095424.784000", "095424.787000", "095424.789000", "095424.792000", "095424.794000", "095424.797000", "095424.799000", "095424.802000", "095424.804000", "095424.807000", "095424.809000", "095424.812000", "095424.814000", "095424.817000", "095424.820000", "095424.822000", "095424.825000", "095504.777000", "095504.780000", "095504.783000", "095504.785000", "095504.788000", "095504.790000", "095504.793000", "095504.795000", "095504.798000", "095504.800000", "095504.803000", "095504.805000", "095504.808000", "095504.810000", "095504.813000", "095504.815000", "095504.818000", "095504.820000", "095504.823000", "095504.825000", "095544.776000", "095544.779000", "095544.782000", "095544.784000", "095544.787000", "095544.789000", "095544.792000", "095544.794000", "095544.797000", "095544.799000", "095544.802000", "095544.804000", "095544.807000", "095544.809000", "095544.812000", "095544.814000", "095544.817000", "095544.819000", "095544.822000", "095544.824000", "095624.776000", "095624.779000", "095624.782000", "095624.784000", "095624.787000", "095624.789000", "095624.792000", "095624.794000", "095624.797000", "095624.799000", "095624.802000", "095624.804000", "095624.807000", "095624.809000", "095624.812000", "095624.814000", "095624.817000", "095624.819000", "095624.822000", "095624.825000", "095704.777000", "095704.779000", "095704.782000", "095704.785000", "095704.787000", "095704.790000", "095704.792000", "095704.795000", "095704.797000", "095704.800000", "095704.802000", "095704.805000", "095704.807000", "095704.810000", "095704.812000", "095704.815000", "095704.817000", "095704.820000", "095704.822000", "095704.825000", "095744.776000", "095744.779000", "095744.782000", "095744.784000", "095744.787000", "095744.789000", "095744.792000", "095744.794000", "095744.797000", "095744.800000", "095744.802000", "095744.805000", "095744.807000", "095744.810000", "095744.812000", "095744.815000", "095744.817000", "095744.820000", "095744.822000", "095744.825000", "095824.776000", "095824.779000", "095824.782000", "095824.784000", "095824.787000", "095824.789000", "095824.792000", "095824.794000", "095824.797000", "095824.799000", "095824.802000", "095824.805000", "095824.807000", "095824.810000", "095824.812000", "095824.815000", "095824.817000", "095824.820000", "095824.822000", "095824.824000", "095849.675000", "095849.677000", "095849.680000", "095849.682000", "095849.685000", "095849.688000", "095849.690000", "095849.693000", "095849.695000", "095849.698000", "095849.700000", "095849.703000", "095849.706000"],
      "InstanceNumber": [1, 2, 3, 4, 5, 6, 7, 8, 9, 10, 11, 12, 13, 14, 15, 16, 17, 18, 19, 20, 21, 22, 23, 24, 25, 26, 27, 28, 29, 30, 31, 32, 33, 34, 35, 36, 37, 38, 39, 40, 41, 42, 43, 44, 45, 46, 47, 48, 49, 50, 51, 52, 53, 54, 55, 56, 57, 58, 59, 60, 61, 62, 63, 64, 65, 66, 67, 68, 69, 70, 71, 72, 73, 74, 75, 76, 77, 78, 79, 80, 81, 82, 83, 84, 85, 86, 87, 88, 89, 90, 91, 92, 93, 94, 95, 96, 97, 98, 99, 100, 101, 102, 103, 104, 105, 106, 107, 108, 109, 110, 111, 112, 113, 114, 115, 116, 117, 118, 119, 120, 121, 122, 123, 124, 125, 126, 127, 128, 129, 130, 131, 132, 133, 134, 135, 136, 137, 138, 139, 140, 141, 142, 143, 144, 145, 146, 147, 148, 149, 150, 151, 152, 153, 154, 155, 156, 157, 158, 159, 160, 161, 162, 163, 164, 165, 166, 167, 168, 169, 170, 171, 172, 173, 174, 175, 176, 177, 178, 179, 180, 181, 182, 183, 184, 185, 186, 187, 188, 189, 190, 191, 192, 193, 194, 195, 196, 197, 198, 199, 200],
      "LargestImagePixelValue": [1909, 1907, 1907, 1909, 1906, 1905, 1904, 1906, 1904, 1905, 1908, 1905, 1908, 1908, 1910, 1913, 1913, 1915, 1915, 1915, 1914, 1913, 1910, 1907, 1903, 1899, 1898, 1898, 1897, 1896, 1900, 1900, 1900, 1899, 1900, 1898, 1899, 1901, 1902, 1904, 1902, 1905, 1902, 1904, 1899, 1900, 1897, 1898, 1894, 1892, 1892, 1893, 1892, 1894, 1892, 1895, 1894, 1896, 1897, 1896, 1894, 1895, 1895, 1895, 1896, 1897, 1898, 1898, 1902, 1900, 1905, 1904, 1906, 1905, 1905, 1905, 1904, 1906, 1903, 1902, 1904, 1901, 1901, 1899, 1898, 1897, 1898, 1898, 1899, 1897, 1898, 1898, 1899, 1902, 1905, 1904, 1903, 1903, 1903, 1900, 1901, 1901, 1899, 1899, 1899, 1896, 1894, 1894, 1893, 1894, 1893, 1893, 1896, 1900, 1904, 1904, 1908, 1911, 1910, 1912, 1910, 1910, 1908, 1907, 1907, 1907, 1904, 1904, 1902, 1899, 1900, 1899, 1899, 1900, 1902, 1905, 1903, 1907, 1905, 1907, 1909, 1906, 1904, 1905, 1905, 1906, 1904, 1905, 1905, 1902, 1903, 1902, 1904, 1904, 1906, 1906, 1908, 1908, 1908, 1909, 1906, 1907, 1905, 1907, 1906, 1906, 1907, 1904, 1906, 1906, 1905, 1903, 1904, 1903, 1903, 1902, 1899, 1901, 1903, 1901, 1901, 1897, 1897, 1897, 1898, 1893, 1891, 1891, 1888, 1890, 1888, 1890, 1892, 1894, 1894, 1894, 1898, 1895, 1898, 1898],
      "WindowCenter": [974.0, 974.0, 974.0, 975.0, 974.0, 974.0, 974.0, 974.0, 974.0, 974.0, 975.0, 974.0, 973.0, 973.0, 974.0, 974.0, 974.0, 974.0, 974.0, 974.0, 974.0, 974.0, 975.0, 974.0, 974.0, 974.0, 974.0, 974.0, 974.0, 975.0, 974.0, 974.0, 975.0, 975.0, 974.0, 974.0, 974.0, 974.0, 974.0, 974.0, 974.0, 974.0, 974.0, 974.0, 974.0, 974.0, 974.0, 974.0, 974.0, 974.0, 974.0, 974.0, 974.0, 973.0, 974.0, 974.0, 974.0, 973.0, 974.0, 973.0, 974.0, 974.0, 974.0, 974.0, 973.0, 974.0, 972.0, 973.0, 974.0, 973.0, 973.0, 973.0, 973.0, 973.0, 973.0, 973.0, 974.0, 973.0, 973.0, 974.0, 973.0, 973.0, 973.0, 973.0, 973.0, 973.0, 973.0, 973.0, 973.0, 973.0, 973.0, 973.0, 973.0, 973.0, 973.0, 973.0, 973.0, 973.0, 973.0, 974.0, 973.0, 973.0, 973.0, 974.0, 973.0, 973.0, 973.0, 973.0, 973.0, 973.0, 973.0, 973.0, 974.0, 973.0, 973.0, 973.0, 974.0, 973.0, 973.0, 973.0, 973.0, 973.0, 974.0, 973.0, 973.0, 974.0, 973.0, 973.0, 974.0, 974.0, 973.0, 974.0, 973.0, 973.0, 973.0, 973.0, 973.0, 973.0, 973.0, 973.0, 974.0, 973.0, 973.0, 973.0, 973.0, 973.0, 973.0, 974.0, 973.0, 973.0, 973.0, 973.0, 973.0, 974.0, 972.0, 973.0, 973.0, 971.0, 973.0, 974.0, 973.0, 973.0, 974.0, 974.0, 973.0, 973.0, 973.0, 973.0, 973.0, 974.0, 973.0, 974.0, 973.0, 974.0, 973.0, 974.0, 973.0, 973.0, 973.0, 973.0, 973.0, 973.0, 973.0, 973.0, 973.0, 973.0, 973.0, 973.0, 973.0, 973.0, 972.0, 973.0, 973.0, 972.0, 973.0, 973.0, 971.0, 973.0, 973.0, 973.0],
      "WindowWidth": [2130.0, 2129.0, 2130.0, 2130.0, 2130.0, 2130.0, 2130.0, 2130.0, 2130.0, 2130.0, 2130.0, 2129.0, 2129.0, 2128.0, 2130.0, 2130.0, 2129.0, 2129.0, 2130.0, 2130.0, 2130.0, 2130.0, 2130.0, 2130.0, 2130.0, 2129.0, 2129.0, 2129.0, 2129.0, 2129.0, 2129.0, 2129.0, 2130.0, 2129.0, 2129.0, 2129.0, 2128.0, 2128.0, 2128.0, 2128.0, 2128.0, 2128.0, 2128.0, 2128.0, 2128.0, 2128.0, 2128.0, 2128.0, 2128.0, 2128.0, 2128.0, 2129.0, 2128.0, 2128.0, 2128.0, 2128.0, 2128.0, 2128.0, 2128.0, 2127.0, 2128.0, 2129.0, 2128.0, 2128.0, 2127.0, 2128.0, 2126.0, 2127.0, 2128.0, 2127.0, 2127.0, 2128.0, 2127.0, 2127.0, 2127.0, 2127.0, 2128.0, 2127.0, 2127.0, 2128.0, 2127.0, 2127.0, 2127.0, 2127.0, 2127.0, 2127.0, 2127.0, 2127.0, 2127.0, 2127.0, 2127.0, 2127.0, 2127.0, 2127.0, 2127.0, 2127.0, 2127.0, 2127.0, 2127.0, 2128.0, 2127.0, 2127.0, 2127.0, 2128.0, 2127.0, 2127.0, 2127.0, 2127.0, 2127.0, 2127.0, 2127.0, 2127.0, 2128.0, 2127.0, 2127.0, 2127.0, 2128.0, 2127.0, 2127.0, 2127.0, 2127.0, 2127.0, 2128.0, 2127.0, 2127.0, 2128.0, 2127.0, 2127.0, 2128.0, 2128.0, 2127.0, 2128.0, 2127.0, 2127.0, 2127.0, 2127.0, 2127.0, 2127.0, 2127.0, 2127.0, 2128.0, 2127.0, 2127.0, 2127.0, 2127.0, 2127.0, 2127.0, 2128.0, 2127.0, 2127.0, 2127.0, 2127.0, 2127.0, 2128.0, 2126.0, 2127.0, 2127.0, 2125.0, 2127.0, 2127.0, 2126.0, 2126.0, 2128.0, 2128.0, 2127.0, 2127.0, 2127.0, 2127.0, 2127.0, 2127.0, 2126.0, 2127.0, 2126.0, 2127.0, 2127.0, 2127.0, 2126.0, 2126.0, 2126.0, 2127.0, 2127.0, 2126.0, 2126.0, 2126.0, 2126.0, 2126.0, 2126.0, 2127.0, 2126.0, 2126.0, 2126.0, 2127.0, 2126.0, 2126.0, 2126.0, 2126.0, 2125.0, 2127.0, 2126.0, 2126.0]
    },
    "slices": {}
  }
}