{
  "AcquisitionMatrixPE": 80,
  "AcquisitionNumber": 1,
  "AcquisitionTime": "09:50:40.450000",
  "BandwidthPerPixelPhaseEncode": 25,
  "BaseResolution": 80,
  "BodyPartExamined": "BRAIN",
  "CoilCombinationMethod": "Sum of Squares",
  "ConsistencyInfo": "N4_VE11E_LATEST_20181129",
  "ConversionSoftware": "dcm2niix",
  "ConversionSoftwareVersion": "v1.0.20220720",
  "DerivedVendorReportedEchoSpacing": 0.0005,
  "DeviceSerialNumber": "66112",
  "DwellTime": 2.7e-06,
  "EchoTime": 0.03,
  "EchoTrainLength": 80,
  "EffectiveEchoSpacing": 0.0005,
  "FlipAngle": 10,
  "HeudiconvVersion": "0.13.1",
  "ImageOrientationPatientDICOM": [0.991022, -0.133668, 0.00273136, 0.126601, 0.944804, 0.302187],
  "ImageOrientationText": "Tra>Cor(17.4)>Sag(2.5)",
  "ImageType": [
    "ORIGINAL",
    "PRIMARY",
    "M",
    "ND",
    "NORM",
    "MOSAIC"
],
  "ImagingFrequency": 123.259,
  "InPlanePhaseEncodingDirectionDICOM": "COL",
  "InstitutionAddress": "Maynard 3,Hanover,NH,US,03755",
  "InstitutionName": "Dartmouth College - PBS",
  "InstitutionalDepartmentName": "Department",
  "MRAcquisitionType": "2D",
  "MagneticFieldStrength": 3,
  "Manufacturer": "Siemens",
  "ManufacturersModelName": "Prisma",
  "MatrixCoilMode": "SENSE",
  "Modality": "MR",
  "NonlinearGradientCorrection": false,
  "PartialFourier": 1,
  "PatientPosition": "HFS",
  "PercentPhaseFOV": 100,
  "PercentSampling": 100,
  "PhaseEncodingDirection": "j-",
  "PhaseEncodingSteps": 80,
  "PhaseResolution": 1,
  "PixelBandwidth": 2315,
  "ProcedureStepDescription": "dbic^QA",
  "ProtocolName": "func-bold_fa-10",
  "PulseSequenceDetails": "%SiemensSeq%\\ep2d_bold",
  "ReceiveCoilActiveElements": "HEA;HEP",
  "ReceiveCoilName": "Head_32",
  "ReconMatrixPE": 80,
  "RepetitionTime": 2,
  "SAR": 0.0151421,
  "ScanOptions": "FS",
  "ScanningSequence": "EP",
  "SequenceName": "*epfid2d1_80",
  "SequenceVariant": "SK",
  "SeriesDescription": "func-bold_fa-10",
  "SeriesNumber": 8,
  "ShimSetting": [4222, -7737, -7494, -24, -140, -133, -22, 72],
  "SliceThickness": 3.5,
  "SliceTiming": [0.99, 0, 1.055, 0.0675, 1.1225, 0.1325, 1.1875, 0.1975, 1.255, 0.265, 1.32, 0.33, 1.385, 0.3975, 1.4525, 0.4625, 1.5175, 0.5275, 1.585, 0.595, 1.65, 0.66, 1.715, 0.725, 1.7825, 0.7925, 1.8475, 0.8575, 1.915, 0.925],
  "SoftwareVersions": "syngo MR E11",
  "SpacingBetweenSlices": 3.99,
  "StationName": "AWP66112",
  "TotalReadoutTime": 0.0395,
  "TxRefAmp": 222.226,
  "dcmmeta_affine": [
    [-2.973067283630371, 0.37980392575263977, 0.1714637279510498, 100.90137481689453],
    [0.4010040760040283, 2.8344125747680664, 1.193522572517395, -143.01937866210938],
    [0.008194087073206902, -0.9065614938735962, 3.8034462928771973, -28.65919303894043],
    [0.0, 0.0, 0.0, 1.0]
],
  "dcmmeta_reorient_transform": [
    [0.0, -1.0, 0.0, 79.0],
    [1.0, 0.0, 0.0, 0.0],
    [0.0, 0.0, 1.0, 0.0],
    [0.0, 0.0, 0.0, 1.0]
],
  "dcmmeta_shape": [80, 80, 30, 200],
  "dcmmeta_slice_dim": 2,
  "dcmmeta_version": 0.6,
  "global": {
    "const": {
      "AccessionNumber": "qa",
      "AcquisitionMatrix": [80, 0, 0, 80],
      "AngioFlag": "N",
      "BitsAllocated": 16,
      "BitsStored": 12,
      "BodyPartExamined": "BRAIN",
      "Columns": 480,
      "EchoNumbers": 1,
      "EchoTime": 30.0,
      "EchoTrainLength": 80,
      "FlipAngle": 10.0,
      "HighBit": 11,
      "ImageOrientationPatient": [0.99102240085155, -0.1336680241153, 0.00273136221025, 0.12660130721248, 0.94480422576212, 0.30218716715662],
      "ImagePositionPatient": [-801.48011213398, -567.58093902601, -283.22866948277],
      "ImageType": [
        "ORIGINAL",
        "PRIMARY",
        "M",
        "ND",
        "NORM",
        "MOSAIC"
],
      "ImagedNucleus": "1H",
      "ImagingFrequency": 123.259221,
      "InPlanePhaseEncodingDirection": "COL",
      "MRAcquisitionType": "2D",
      "MagneticFieldStrength": 3.0,
      "Manufacturer": "SIEMENS",
      "ManufacturerModelName": "Prisma",
      "Modality": "MR",
      "NumberOfAverages": 1.0,
      "NumberOfPhaseEncodingSteps": 80,
      "PercentPhaseFieldOfView": 100.0,
      "PercentSampling": 100.0,
      "PerformedProcedureStepStartTime": "092848.738000",
      "PhotometricInterpretation": "MONOCHROME2",
      "PixelBandwidth": 2315.0,
      "PixelRepresentation": 0,
      "PixelSpacing": [3.0, 3.0],
      "ProtocolName": "func-bold_fa-10",
      "RepetitionTime": 2000.0,
      "Rows": 480,
      "SAR": 0.01514206866086,
      "SamplesPerPixel": 1,
      "ScanOptions": "FS",
      "ScanningSequence": "EP",
      "SequenceName": "*epfid2d1_80",
      "SequenceVariant": "SK",
      "SeriesDescription": "func-bold_fa-10",
      "SeriesNumber": 8,
      "SeriesTime": "095119.596000",
      "SliceLocation": -65.76432002188,
      "SliceThickness": 3.5,
      "SmallestImagePixelValue": 0,
      "SoftwareVersions": "syngo MR E11",
      "SpacingBetweenSlices": 3.9900000577101,
      "SpecificCharacterSet": "ISO_IR 100",
      "StudyID": "21",
      "StudyTime": "092848.669000",
      "TransmitCoilName": "Body",
      "VariableFlipAngleFlag": "N",
      "WindowCenterWidthExplanation": "Algo1"
    },
    "slices": {}
  },
  "time": {
    "samples": {
      "AcquisitionNumber": [1, 2, 3, 4, 5, 6, 7, 8, 9, 10, 11, 12, 13, 14, 15, 16, 17, 18, 19, 20, 21, 22, 23, 24, 25, 26, 27, 28, 29, 30, 31, 32, 33, 34, 35, 36, 37, 38, 39, 40, 41, 42, 43, 44, 45, 46, 47, 48, 49, 50, 51, 52, 53, 54, 55, 56, 57, 58, 59, 60, 61, 62, 63, 64, 65, 66, 67, 68, 69, 70, 71, 72, 73, 74, 75, 76, 77, 78, 79, 80, 81, 82, 83, 84, 85, 86, 87, 88, 89, 90, 91, 92, 93, 94, 95, 96, 97, 98, 99, 100, 101, 102, 103, 104, 105, 106, 107, 108, 109, 110, 111, 112, 113, 114, 115, 116, 117, 118, 119, 120, 121, 122, 123, 124, 125, 126, 127, 128, 129, 130, 131, 132, 133, 134, 135, 136, 137, 138, 139, 140, 141, 142, 143, 144, 145, 146, 147, 148, 149, 150, 151, 152, 153, 154, 155, 156, 157, 158, 159, 160, 161, 162, 163, 164, 165, 166, 167, 168, 169, 170, 171, 172, 173, 174, 175, 176, 177, 178, 179, 180, 181, 182, 183, 184, 185, 186, 187, 188, 189, 190, 191, 192, 193, 194, 195, 196, 197, 198, 199, 200],
      "AcquisitionTime": ["095040.450000", "095042.450000", "095044.450000", "095046.450000", "095048.450000", "095050.450000", "095052.450000", "095054.450000", "095056.450000", "095058.450000", "095100.450000", "095102.450000", "095104.450000", "095106.450000", "095108.450000", "095110.450000", "095112.450000", "095114.450000", "095116.450000", "095118.450000", "095120.450000", "095122.450000", "095124.450000", "095126.450000", "095128.450000", "095130.450000", "095132.450000", "095134.450000", "095136.450000", "095138.450000", "095140.450000", "095142.450000", "095144.450000", "095146.450000", "095148.450000", "095150.450000", "095152.450000", "095154.450000", "095156.450000", "095158.450000", "095200.450000", "095202.450000", "095204.450000", "095206.450000", "095208.450000", "095210.450000", "095212.450000", "095214.450000", "095216.450000", "095218.450000", "095220.450000", "095222.450000", "095224.450000", "095226.450000", "095228.450000", "095230.450000", "095232.450000", "095234.450000", "095236.450000", "095238.450000", "095240.450000", "095242.450000", "095244.450000", "095246.450000", "095248.450000", "095250.450000", "095252.450000", "095254.450000", "095256.450000", "095258.450000", "095300.450000", "095302.450000", "095304.450000", "095306.450000", "095308.450000", "095310.450000", "095312.450000", "095314.450000", "095316.450000", "095318.450000", "095320.450000", "095322.450000", "095324.450000", "095326.450000", "095328.450000", "095330.450000", "095332.450000", "095334.450000", "095336.450000", "095338.450000", "095340.450000", "095342.450000", "095344.450000", "095346.450000", "095348.450000", "095350.450000", "095352.450000", "095354.450000", "095356.450000", "095358.450000", "095400.450000", "095402.450000", "095404.450000", "095406.450000", "095408.450000", "095410.450000", "095412.450000", "095414.450000", "095416.450000", "095418.450000", "095420.450000", "095422.450000", "095424.450000", "095426.450000", "095428.450000", "095430.450000", "095432.450000", "095434.450000", "095436.450000", "095438.450000", "095440.450000", "095442.450000", "095444.450000", "095446.450000", "095448.450000", "095450.450000", "095452.450000", "095454.450000", "095456.450000", "095458.450000", "095500.450000", "095502.450000", "095504.450000", "095506.450000", "095508.450000", "095510.450000", "095512.450000", "095514.450000", "095516.450000", "095518.450000", "095520.450000", "095522.450000", "095524.450000", "095526.450000", "095528.450000", "095530.450000", "095532.450000", "095534.450000", "095536.450000", "095538.450000", "095540.450000", "095542.450000", "095544.450000", "095546.450000", "095548.450000", "095550.450000", "095552.450000", "095554.450000", "095556.450000", "095558.450000", "095600.450000", "095602.450000", "095604.450000", "095606.450000", "095608.450000", "095610.450000", "095612.450000", "095614.450000", "095616.450000", "095618.450000", "095620.450000", "095622.450000", "095624.450000", "095626.450000", "095628.450000", "095630.450000", "095632.450000", "095634.450000", "095636.450000", "095638.450000", "095640.450000", "095642.450000", "095644.450000", "095646.450000", "095648.450000", "095650.450000", "095652.450000", "095654.450000", "095656.450000", "095658.450000", "095700.450000", "095702.450000", "095704.450000", "095706.450000", "095708.450000", "095710.450000", "095712.450000", "095714.450000", "095716.450000", "095718.450000"],
      "ContentTime": ["095119.599000", "095119.602000", "095119.604000", "095119.607000", "095119.609000", "095119.615000", "095119.618000", "095119.620000", "095119.622000", "095119.624000", "095119.627000", "095119.629000", "095119.631000", "095119.634000", "095119.636000", "095119.638000", "095119.640000", "095119.643000", "095119.645000", "095119.647000", "095159.593000", "095159.596000", "095159.598000", "095159.600000", "095159.603000", "095159.605000", "095159.614000", "095159.616000", "095159.618000", "095159.620000", "095159.623000", "095159.625000", "095159.627000", "095159.629000", "095159.632000", "095159.634000", "095159.637000", "095159.639000", "095159.641000", "095159.644000", "095239.593000", "095239.596000", "095239.598000", "095239.600000", "095239.602000", "095239.605000", "095239.607000", "095239.609000", "095239.612000", "095239.614000", "095239.616000", "095239.618000", "095239.621000", "095239.623000", "095239.625000", "095239.627000", "095239.630000", "095239.632000", "095239.634000", "095239.636000", "095339.594000", "095339.597000", "095339.599000", "095339.601000", "095339.604000", "095339.606000", "095339.608000", "095339.611000", "095339.613000", "095339.615000", "095339.617000", "095339.620000", "095339.622000", "095339.624000", "095339.626000", "095339.629000", "095339.631000", "095339.633000", "095339.636000", "095339.638000", "095339.640000", "095339.642000", "095339.645000", "095339.647000", "095339.649000", "095339.651000", "095339.654000", "095339.656000", "095339.658000", "095339.661000", "095439.593000", "095439.596000", "095439.598000", "095439.600000", "095439.608000", "095439.610000", "095439.613000", "095439.615000", "095439.617000", "095439.620000", "095439.622000", "095439.624000", "095439.626000", "095439.628000", "095439.631000", "095439.633000", "095439.635000", "095439.638000", "095439.640000", "095439.642000", "095439.644000", "095439.647000", "095439.649000", "095439.651000", "095439.653000", "095439.656000", "095439.658000", "095439.660000", "095439.663000", "095439.665000", "095519.593000", "095519.596000", "095519.606000", "095519.611000", "095519.614000", "095519.616000", "095519.618000", "095519.621000", "095519.623000", "095519.625000", "095519.627000", "095519.630000", "095519.632000", "095519.634000", "095519.636000", "095519.639000", "095519.641000", "095519.643000", "095519.645000", "095519.648000", "095559.594000", "095559.597000", "095559.599000", "095559.602000", "095559.604000", "095559.606000", "095559.608000", "095559.611000", "095559.613000", "095559.615000", "095559.618000", "095559.620000", "095559.622000", "095559.624000", "095559.627000", "095559.629000", "095559.631000", "095559.634000", "095559.636000", "095559.638000", "095639.593000", "095639.596000", "095639.598000", "095639.600000", "095639.603000", "095639.605000", "095639.607000", "095639.609000", "095639.612000", "095639.614000", "095639.616000", "095639.619000", "095639.621000", "095639.623000", "095639.625000", "095639.628000", "095639.630000", "095639.632000", "095639.635000", "095639.637000", "095719.554000", "095719.557000", "095719.560000", "095719.562000", "095719.565000", "095719.567000", "095719.569000", "095719.572000", "095719.574000", "095719.576000", "095719.579000", "095719.581000", "095719.583000", "095719.592000", "095719.595000", "095719.597000", "095719.599000", "095719.602000", "095719.610000", "095719.624000"],
      "InstanceCreationTime": ["095119.599000", "095119.602000", "095119.604000", "095119.607000", "095119.609000", "095119.615000", "095119.618000", "095119.620000", "095119.622000", "095119.624000", "095119.627000", "095119.629000", "095119.631000", "095119.634000", "095119.636000", "095119.638000", "095119.640000", "095119.643000", "095119.645000", "095119.647000", "095159.593000", "095159.596000", "095159.598000", "095159.600000", "095159.603000", "095159.605000", "095159.614000", "095159.616000", "095159.618000", "095159.620000", "095159.623000", "095159.625000", "095159.627000", "095159.629000", "095159.632000", "095159.634000", "095159.637000", "095159.639000", "095159.641000", "095159.644000", "095239.593000", "095239.596000", "095239.598000", "095239.600000", "095239.602000", "095239.605000", "095239.607000", "095239.609000", "095239.612000", "095239.614000", "095239.616000", "095239.618000", "095239.621000", "095239.623000", "095239.625000", "095239.627000", "095239.630000", "095239.632000", "095239.634000", "095239.636000", "095339.594000", "095339.597000", "095339.599000", "095339.601000", "095339.604000", "095339.606000", "095339.608000", "095339.611000", "095339.613000", "095339.615000", "095339.617000", "095339.620000", "095339.622000", "095339.624000", "095339.626000", "095339.629000", "095339.631000", "095339.633000", "095339.636000", "095339.638000", "095339.640000", "095339.642000", "095339.645000", "095339.647000", "095339.649000", "095339.651000", "095339.654000", "095339.656000", "095339.658000", "095339.661000", "095439.593000", "095439.596000", "095439.598000", "095439.600000", "095439.608000", "095439.610000", "095439.613000", "095439.615000", "095439.617000", "095439.620000", "095439.622000", "095439.624000", "095439.626000", "095439.628000", "095439.631000", "095439.633000", "095439.635000", "095439.638000", "095439.640000", "095439.642000", "095439.644000", "095439.647000", "095439.649000", "095439.651000", "095439.653000", "095439.656000", "095439.658000", "095439.660000", "095439.663000", "095439.665000", "095519.593000", "095519.596000", "095519.606000", "095519.611000", "095519.614000", "095519.616000", "095519.618000", "095519.621000", "095519.623000", "095519.625000", "095519.627000", "095519.630000", "095519.632000", "095519.634000", "095519.636000", "095519.639000", "095519.641000", "095519.643000", "095519.645000", "095519.648000", "095559.594000", "095559.597000", "095559.599000", "095559.602000", "095559.604000", "095559.606000", "095559.608000", "095559.611000", "095559.613000", "095559.615000", "095559.618000", "095559.620000", "095559.622000", "095559.624000", "095559.627000", "095559.629000", "095559.631000", "095559.634000", "095559.636000", "095559.638000", "095639.593000", "095639.596000", "095639.598000", "095639.600000", "095639.603000", "095639.605000", "095639.607000", "095639.609000", "095639.612000", "095639.614000", "095639.616000", "095639.619000", "095639.621000", "095639.623000", "095639.625000", "095639.628000", "095639.630000", "095639.632000", "095639.635000", "095639.637000", "095719.554000", "095719.557000", "095719.560000", "095719.562000", "095719.565000", "095719.567000", "095719.569000", "095719.572000", "095719.574000", "095719.576000", "095719.579000", "095719.581000", "095719.583000", "095719.592000", "095719.595000", "095719.597000", "095719.599000", "095719.602000", "095719.610000", "095719.624000"],
      "InstanceNumber": [1, 2, 3, 4, 5, 6, 7, 8, 9, 10, 11, 12, 13, 14, 15, 16, 17, 18, 19, 20, 21, 22, 23, 24, 25, 26, 27, 28, 29, 30, 31, 32, 33, 34, 35, 36, 37, 38, 39, 40, 41, 42, 43, 44, 45, 46, 47, 48, 49, 50, 51, 52, 53, 54, 55, 56, 57, 58, 59, 60, 61, 62, 63, 64, 65, 66, 67, 68, 69, 70, 71, 72, 73, 74, 75, 76, 77, 78, 79, 80, 81, 82, 83, 84, 85, 86, 87, 88, 89, 90, 91, 92, 93, 94, 95, 96, 97, 98, 99, 100, 101, 102, 103, 104, 105, 106, 107, 108, 109, 110, 111, 112, 113, 114, 115, 116, 117, 118, 119, 120, 121, 122, 123, 124, 125, 126, 127, 128, 129, 130, 131, 132, 133, 134, 135, 136, 137, 138, 139, 140, 141, 142, 143, 144, 145, 146, 147, 148, 149, 150, 151, 152, 153, 154, 155, 156, 157, 158, 159, 160, 161, 162, 163, 164, 165, 166, 167, 168, 169, 170, 171, 172, 173, 174, 175, 176, 177, 178, 179, 180, 181, 182, 183, 184, 185, 186, 187, 188, 189, 190, 191, 192, 193, 194, 195, 196, 197, 198, 199, 200],
      "LargestImagePixelValue": [354, 356, 357, 356, 360, 355, 356, 355, 354, 359, 353, 355, 355, 355, 355, 355, 354, 355, 355, 356, 356, 356, 357, 356, 355, 356, 357, 359, 358, 360, 355, 356, 358, 355, 355, 358, 355, 356, 356, 356, 356, 357, 356, 356, 358, 357, 357, 355, 361, 358, 356, 355, 360, 355, 355, 357, 355, 358, 358, 361, 359, 354, 358, 356, 357, 355, 356, 356, 358, 359, 355, 356, 358, 354, 354, 358, 358, 357, 354, 356, 357, 358, 355, 356, 356, 355, 357, 355, 354, 359, 355, 357, 357, 354, 356, 355, 355, 354, 356, 354, 354, 355, 352, 357, 355, 356, 354, 356, 356, 353, 357, 355, 355, 354, 356, 355, 356, 356, 355, 356, 357, 354, 356, 356, 355, 353, 355, 354, 355, 354, 356, 354, 356, 355, 357, 359, 353, 356, 352, 353, 357, 353, 354, 357, 355, 355, 357, 353, 356, 355, 354, 356, 354, 352, 357, 355, 360, 353, 354, 355, 357, 354, 356, 353, 355, 356, 356, 357, 354, 356, 357, 352, 355, 360, 354, 358, 354, 351, 352, 352, 353, 354, 356, 352, 354, 355, 354, 356, 356, 353, 354, 356, 354, 353, 353, 353, 353, 355, 353, 352],
      "WindowCenter": [293.0, 292.0, 293.0, 293.0, 293.0, 293.0, 293.0, 293.0, 293.0, 293.0, 293.0, 293.0, 293.0, 293.0, 293.0, 293.0, 293.0, 293.0, 293.0, 293.0, 293.0, 293.0, 292.0, 292.0, 293.0, 293.0, 293.0, 293.0, 293.0, 293.0, 293.0, 293.0, 293.0, 293.0, 293.0, 293.0, 293.0, 293.0, 293.0, 293.0, 293.0, 293.0, 293.0, 294.0, 293.0, 293.0, 293.0, 293.0, 293.0, 293.0, 293.0, 292.0, 293.0, 293.0, 293.0, 293.0, 293.0, 293.0, 293.0, 293.0, 293.0, 293.0, 293.0, 293.0, 293.0, 293.0, 293.0, 293.0, 293.0, 292.0, 293.0, 293.0, 293.0, 293.0, 293.0, 293.0, 292.0, 293.0, 293.0, 293.0, 293.0, 293.0, 292.0, 293.0, 293.0, 292.0, 292.0, 293.0, 293.0, 293.0, 293.0, 293.0, 293.0, 293.0, 293.0, 293.0, 292.0, 293.0, 293.0, 293.0, 293.0, 292.0, 293.0, 293.0, 293.0, 293.0, 293.0, 293.0, 293.0, 293.0, 293.0, 292.0, 292.0, 293.0, 293.0, 292.0, 293.0, 292.0, 293.0, 293.0, 293.0, 292.0, 293.0, 293.0, 292.0, 293.0, 292.0, 293.0, 293.0, 293.0, 293.0, 292.0, 293.0, 293.0, 293.0, 293.0, 293.0, 293.0, 293.0, 293.0, 293.0, 293.0, 293.0, 293.0, 293.0, 293.0, 293.0, 292.0, 293.0, 293.0, 293.0, 292.0, 293.0, 293.0, 293.0, 292.0, 293.0, 293.0, 292.0, 292.0, 293.0, 293.0, 293.0, 293.0, 293.0, 293.0, 293.0, 293.0, 292.0, 292.0, 293.0, 293.0, 293.0, 293.0, 292.0, 292.0, 292.0, 292.0, 293.0, 293.0, 293.0, 293.0, 292.0, 293.0, 292.0, 292.0, 293.0, 292.0, 292.0, 292.0, 292.0, 293.0, 292.0, 293.0, 293.0, 293.0, 293.0, 293.0, 292.0, 292.0],
      "WindowWidth": [637.0, 637.0, 637.0, 638.0, 637.0, 638.0, 638.0, 638.0, 638.0, 638.0, 638.0, 638.0, 637.0, 638.0, 638.0, 638.0, 638.0, 637.0, 638.0, 638.0, 638.0, 637.0, 637.0, 637.0, 637.0, 638.0, 638.0, 638.0, 637.0, 638.0, 638.0, 637.0, 638.0, 638.0, 637.0, 638.0, 638.0, 637.0, 637.0, 637.0, 637.0, 637.0, 638.0, 639.0, 638.0, 637.0, 637.0, 637.0, 638.0, 637.0, 637.0, 637.0, 637.0, 637.0, 637.0, 638.0, 637.0, 637.0, 637.0, 638.0, 637.0, 637.0, 637.0, 638.0, 637.0, 637.0, 637.0, 637.0, 637.0, 637.0, 637.0, 637.0, 637.0, 637.0, 637.0, 638.0, 637.0, 638.0, 637.0, 637.0, 637.0, 637.0, 637.0, 638.0, 638.0, 637.0, 637.0, 638.0, 637.0, 638.0, 637.0, 638.0, 637.0, 638.0, 637.0, 637.0, 637.0, 637.0, 637.0, 637.0, 637.0, 637.0, 637.0, 637.0, 637.0, 637.0, 637.0, 637.0, 637.0, 637.0, 637.0, 637.0, 637.0, 637.0, 637.0, 637.0, 637.0, 637.0, 637.0, 637.0, 637.0, 637.0, 637.0, 637.0, 637.0, 637.0, 636.0, 637.0, 637.0, 637.0, 637.0, 637.0, 637.0, 637.0, 637.0, 637.0, 637.0, 637.0, 637.0, 637.0, 637.0, 637.0, 637.0, 637.0, 637.0, 637.0, 637.0, 637.0, 637.0, 637.0, 637.0, 637.0, 637.0, 637.0, 637.0, 637.0, 637.0, 637.0, 636.0, 637.0, 637.0, 637.0, 637.0, 637.0, 637.0, 637.0, 637.0, 637.0, 637.0, 637.0, 637.0, 637.0, 637.0, 637.0, 637.0, 636.0, 637.0, 637.0, 637.0, 637.0, 637.0, 637.0, 637.0, 637.0, 637.0, 637.0, 637.0, 637.0, 637.0, 637.0, 637.0, 637.0, 637.0, 637.0, 637.0, 637.0, 637.0, 637.0, 637.0, 636.0]
    },
    "slices": {}
  }
}