{
  "AcquisitionMatrixPE": 80,
  "AcquisitionNumber": 1,
  "AcquisitionTime": "09:43:53.400000",
  "BandwidthPerPixelPhaseEncode": 25,
  "BaseResolution": 80,
  "BodyPartExamined": "BRAIN",
  "CoilCombinationMethod": "Sum of Squares",
  "ConsistencyInfo": "N4_VE11E_LATEST_20181129",
  "ConversionSoftware": "dcm2niix",
  "ConversionSoftwareVersion": "v1.0.20220720",
  "DerivedVendorReportedEchoSpacing": 0.0005,
  "DeviceSerialNumber": "66112",
  "DwellTime": 2.7e-06,
  "EchoTime": 0.03,
  "EchoTrainLength": 80,
  "EffectiveEchoSpacing": 0.0005,
  "FlipAngle": 77,
  "HeudiconvVersion": "0.13.1",
  "ImageOrientationPatientDICOM": [0.991022, -0.133668, 0.00273136, 0.126601, 0.944804, 0.302187],
  "ImageOrientationText": "Tra>Cor(17.4)>Sag(2.5)",
  "ImageType": [
    "ORIGINAL",
    "PRIMARY",
    "M",
    "ND",
    "NORM",
    "MOSAIC"
],
  "ImagingFrequency": 123.259,
  "InPlanePhaseEncodingDirectionDICOM": "COL",
  "InstitutionAddress": "Maynard 3,Hanover,NH,US,03755",
  "InstitutionName": "Dartmouth College - PBS",
  "InstitutionalDepartmentName": "Department",
  "MRAcquisitionType": "2D",
  "MagneticFieldStrength": 3,
  "Manufacturer": "Siemens",
  "ManufacturersModelName": "Prisma",
  "MatrixCoilMode": "SENSE",
  "Modality": "MR",
  "NonlinearGradientCorrection": false,
  "PartialFourier": 1,
  "PatientPosition": "HFS",
  "PercentPhaseFOV": 100,
  "PercentSampling": 100,
  "PhaseEncodingDirection": "j-",
  "PhaseEncodingSteps": 80,
  "PhaseResolution": 1,
  "PixelBandwidth": 2315,
  "ProcedureStepDescription": "dbic^QA",
  "ProtocolName": "func-bold_fa-77",
  "PulseSequenceDetails": "%SiemensSeq%\\ep2d_bold",
  "ReceiveCoilActiveElements": "HEA;HEP",
  "ReceiveCoilName": "Head_32",
  "ReconMatrixPE": 80,
  "RepetitionTime": 2,
  "SAR": 0.0564478,
  "ScanOptions": "FS",
  "ScanningSequence": "EP",
  "SequenceName": "*epfid2d1_80",
  "SequenceVariant": "SK",
  "SeriesDescription": "func-bold_fa-77",
  "SeriesNumber": 7,
  "ShimSetting": [4222, -7737, -7494, -24, -140, -133, -22, 72],
  "SliceThickness": 3.5,
  "SliceTiming": [0.99, 0, 1.055, 0.065, 1.12, 0.1325, 1.1875, 0.1975, 1.2525, 0.2625, 1.32, 0.33, 1.385, 0.395, 1.45, 0.4625, 1.5175, 0.5275, 1.5825, 0.5925, 1.65, 0.66, 1.715, 0.725, 1.78, 0.79, 1.8475, 0.8575, 1.9125, 0.9225],
  "SoftwareVersions": "syngo MR E11",
  "SpacingBetweenSlices": 3.99,
  "StationName": "AWP66112",
  "TotalReadoutTime": 0.0395,
  "TxRefAmp": 222.226,
  "dcmmeta_affine": [
    [-2.973067283630371, 0.37980392575263977, 0.1714637279510498, 100.90137481689453],
    [0.4010040760040283, 2.8344125747680664, 1.193522572517395, -143.01937866210938],
    [0.008194087073206902, -0.9065614938735962, 3.8034462928771973, -28.65919303894043],
    [0.0, 0.0, 0.0, 1.0]
],
  "dcmmeta_reorient_transform": [
    [0.0, -1.0, 0.0, 79.0],
    [1.0, 0.0, 0.0, 0.0],
    [0.0, 0.0, 1.0, 0.0],
    [0.0, 0.0, 0.0, 1.0]
],
  "dcmmeta_shape": [80, 80, 30, 200],
  "dcmmeta_slice_dim": 2,
  "dcmmeta_version": 0.6,
  "global": {
    "const": {
      "AccessionNumber": "qa",
      "AcquisitionMatrix": [80, 0, 0, 80],
      "AngioFlag": "N",
      "BitsAllocated": 16,
      "BitsStored": 12,
      "BodyPartExamined": "BRAIN",
      "Columns": 480,
      "EchoNumbers": 1,
      "EchoTime": 30.0,
      "EchoTrainLength": 80,
      "FlipAngle": 77.0,
      "HighBit": 11,
      "ImageOrientationPatient": [0.99102240085155, -0.1336680241153, 0.00273136221025, 0.12660130721248, 0.94480422576212, 0.30218716715662],
      "ImagePositionPatient": [-801.48011213398, -567.58093902601, -283.22866948277],
      "ImageType": [
        "ORIGINAL",
        "PRIMARY",
        "M",
        "ND",
        "NORM",
        "MOSAIC"
],
      "ImagedNucleus": "1H",
      "ImagingFrequency": 123.259219,
      "InPlanePhaseEncodingDirection": "COL",
      "MRAcquisitionType": "2D",
      "MagneticFieldStrength": 3.0,
      "Manufacturer": "SIEMENS",
      "ManufacturerModelName": "Prisma",
      "Modality": "MR",
      "NumberOfAverages": 1.0,
      "NumberOfPhaseEncodingSteps": 80,
      "PercentPhaseFieldOfView": 100.0,
      "PercentSampling": 100.0,
      "PerformedProcedureStepStartTime": "092848.738000",
      "PhotometricInterpretation": "MONOCHROME2",
      "PixelBandwidth": 2315.0,
      "PixelRepresentation": 0,
      "PixelSpacing": [3.0, 3.0],
      "ProtocolName": "func-bold_fa-77",
      "RepetitionTime": 2000.0,
      "Rows": 480,
      "SAR": 0.05644778032983,
      "SamplesPerPixel": 1,
      "ScanOptions": "FS",
      "ScanningSequence": "EP",
      "SequenceName": "*epfid2d1_80",
      "SequenceVariant": "SK",
      "SeriesDescription": "func-bold_fa-77",
      "SeriesNumber": 7,
      "SeriesTime": "094439.782000",
      "SliceLocation": -65.76432002188,
      "SliceThickness": 3.5,
      "SmallestImagePixelValue": 0,
      "SoftwareVersions": "syngo MR E11",
      "SpacingBetweenSlices": 3.9900000577101,
      "SpecificCharacterSet": "ISO_IR 100",
      "StudyID": "21",
      "StudyTime": "092848.669000",
      "TransmitCoilName": "Body",
      "VariableFlipAngleFlag": "N",
      "WindowCenterWidthExplanation": "Algo1"
    },
    "slices": {}
  },
  "time": {
    "samples": {
      "AcquisitionNumber": [1, 2, 3, 4, 5, 6, 7, 8, 9, 10, 11, 12, 13, 14, 15, 16, 17, 18, 19, 20, 21, 22, 23, 24, 25, 26, 27, 28, 29, 30, 31, 32, 33, 34, 35, 36, 37, 38, 39, 40, 41, 42, 43, 44, 45, 46, 47, 48, 49, 50, 51, 52, 53, 54, 55, 56, 57, 58, 59, 60, 61, 62, 63, 64, 65, 66, 67, 68, 69, 70, 71, 72, 73, 74, 75, 76, 77, 78, 79, 80, 81, 82, 83, 84, 85, 86, 87, 88, 89, 90, 91, 92, 93, 94, 95, 96, 97, 98, 99, 100, 101, 102, 103, 104, 105, 106, 107, 108, 109, 110, 111, 112, 113, 114, 115, 116, 117, 118, 119, 120, 121, 122, 123, 124, 125, 126, 127, 128, 129, 130, 131, 132, 133, 134, 135, 136, 137, 138, 139, 140, 141, 142, 143, 144, 145, 146, 147, 148, 149, 150, 151, 152, 153, 154, 155, 156, 157, 158, 159, 160, 161, 162, 163, 164, 165, 166, 167, 168, 169, 170, 171, 172, 173, 174, 175, 176, 177, 178, 179, 180, 181, 182, 183, 184, 185, 186, 187, 188, 189, 190, 191, 192, 193, 194, 195, 196, 197, 198, 199, 200],
      "AcquisitionTime": ["094353.400000", "094355.400000", "094357.400000", "094359.400000", "094401.400000", "094403.400000", "094405.400000", "094407.400000", "094409.400000", "094411.400000", "094413.400000", "094415.400000", "094417.400000", "094419.400000", "094421.400000", "094423.400000", "094425.400000", "094427.400000", "094429.400000", "094431.400000", "094433.400000", "094435.400000", "094437.400000", "094439.400000", "094441.400000", "094443.400000", "094445.400000", "094447.400000", "094449.400000", "094451.400000", "094453.400000", "094455.400000", "094457.400000", "094459.400000", "094501.400000", "094503.400000", "094505.400000", "094507.400000", "094509.400000", "094511.400000", "094513.400000", "094515.400000", "094517.400000", "094519.400000", "094521.400000", "094523.400000", "094525.400000", "094527.400000", "094529.400000", "094531.400000", "094533.400000", "094535.400000", "094537.400000", "094539.400000", "094541.400000", "094543.400000", "094545.400000", "094547.400000", "094549.400000", "094551.400000", "094553.400000", "094555.400000", "094557.400000", "094559.400000", "094601.400000", "094603.400000", "094605.400000", "094607.400000", "094609.400000", "094611.400000", "094613.400000", "094615.400000", "094617.400000", "094619.400000", "094621.400000", "094623.400000", "094625.400000", "094627.400000", "094629.400000", "094631.400000", "094633.400000", "094635.400000", "094637.400000", "094639.400000", "094641.400000", "094643.400000", "094645.400000", "094647.400000", "094649.400000", "094651.400000", "094653.400000", "094655.400000", "094657.400000", "094659.400000", "094701.400000", "094703.400000", "094705.400000", "094707.400000", "094709.400000", "094711.400000", "094713.400000", "094715.400000", "094717.400000", "094719.400000", "094721.400000", "094723.400000", "094725.400000", "094727.400000", "094729.400000", "094731.400000", "094733.400000", "094735.400000", "094737.400000", "094739.400000", "094741.400000", "094743.400000", "094745.400000", "094747.400000", "094749.400000", "094751.400000", "094753.400000", "094755.400000", "094757.400000", "094759.400000", "094801.400000", "094803.400000", "094805.400000", "094807.400000", "094809.400000", "094811.400000", "094813.400000", "094815.400000", "094817.400000", "094819.400000", "094821.400000", "094823.400000", "094825.400000", "094827.400000", "094829.400000", "094831.400000", "094833.400000", "094835.400000", "094837.400000", "094839.400000", "094841.400000", "094843.400000", "094845.400000", "094847.400000", "094849.400000", "094851.400000", "094853.400000", "094855.400000", "094857.400000", "094859.400000", "094901.400000", "094903.400000", "094905.400000", "094907.400000", "094909.400000", "094911.400000", "094913.400000", "094915.400000", "094917.400000", "094919.400000", "094921.400000", "094923.400000", "094925.400000", "094927.400000", "094929.400000", "094931.400000", "094933.400000", "094935.400000", "094937.400000", "094939.400000", "094941.400000", "094943.400000", "094945.400000", "094947.400000", "094949.400000", "094951.400000", "094953.400000", "094955.400000", "094957.400000", "094959.400000", "095001.400000", "095003.400000", "095005.400000", "095007.400000", "095009.400000", "095011.400000", "095013.400000", "095015.400000", "095017.400000", "095019.400000", "095021.400000", "095023.400000", "095025.400000", "095027.400000", "095029.400000", "095031.400000"],
      "ContentTime": ["094439.785000", "094439.788000", "094439.790000", "094439.792000", "094439.795000", "094439.803000", "094439.805000", "094439.813000", "094439.815000", "094439.818000", "094439.820000", "094439.822000", "094439.824000", "094439.827000", "094439.829000", "094439.831000", "094439.834000", "094439.836000", "094439.838000", "094439.840000", "094439.843000", "094439.845000", "094439.847000", "094519.779000", "094519.782000", "094519.784000", "094519.786000", "094519.789000", "094519.791000", "094519.793000", "094519.796000", "094519.798000", "094519.800000", "094519.802000", "094519.805000", "094519.807000", "094519.809000", "094519.812000", "094519.814000", "094519.816000", "094519.818000", "094519.821000", "094519.823000", "094559.779000", "094559.782000", "094559.784000", "094559.786000", "094559.789000", "094559.791000", "094559.793000", "094559.796000", "094559.798000", "094559.806000", "094559.808000", "094559.811000", "094559.813000", "094559.815000", "094559.817000", "094559.820000", "094559.822000", "094559.824000", "094559.827000", "094559.829000", "094639.780000", "094639.782000", "094639.785000", "094639.787000", "094639.789000", "094639.792000", "094639.794000", "094639.796000", "094639.798000", "094639.801000", "094639.803000", "094639.805000", "094639.807000", "094639.810000", "094639.812000", "094639.815000", "094639.817000", "094639.819000", "094639.821000", "094639.824000", "094719.779000", "094719.781000", "094719.784000", "094719.786000", "094719.788000", "094719.791000", "094719.793000", "094719.795000", "094719.797000", "094719.800000", "094719.802000", "094719.804000", "094719.807000", "094719.809000", "094719.811000", "094719.813000", "094719.816000", "094719.818000", "094719.820000", "094719.822000", "094759.779000", "094759.782000", "094759.784000", "094759.786000", "094759.789000", "094759.791000", "094759.793000", "094759.795000", "094759.800000", "094759.802000", "094759.804000", "094759.806000", "094759.809000", "094759.811000", "094759.813000", "094759.823000", "094759.825000", "094759.827000", "094759.829000", "094759.832000", "094839.780000", "094839.782000", "094839.785000", "094839.795000", "094839.797000", "094839.800000", "094839.802000", "094839.804000", "094839.806000", "094839.809000", "094839.811000", "094839.813000", "094839.816000", "094839.818000", "094839.820000", "094839.822000", "094839.825000", "094839.827000", "094839.829000", "094839.831000", "094919.780000", "094919.783000", "094919.785000", "094919.787000", "094919.790000", "094919.792000", "094919.794000", "094919.797000", "094919.799000", "094919.801000", "094919.804000", "094919.806000", "094919.808000", "094919.810000", "094919.813000", "094919.815000", "094919.817000", "094919.820000", "094919.822000", "094919.824000", "094959.779000", "094959.782000", "094959.784000", "094959.786000", "094959.788000", "094959.791000", "094959.793000", "094959.795000", "094959.798000", "094959.800000", "094959.802000", "094959.804000", "094959.807000", "094959.809000", "094959.811000", "094959.814000", "094959.816000", "094959.818000", "094959.821000", "094959.823000", "095033.193000", "095033.196000", "095033.198000", "095033.201000", "095033.203000", "095033.205000", "095033.208000", "095033.210000", "095033.212000", "095033.215000", "095033.217000", "095033.220000", "095033.224000", "095033.232000", "095033.235000", "095033.238000", "095033.243000"],
      "InstanceCreationTime": ["094439.785000", "094439.788000", "094439.790000", "094439.792000", "094439.795000", "094439.803000", "094439.805000", "094439.813000", "094439.815000", "094439.818000", "094439.820000", "094439.822000", "094439.824000", "094439.827000", "094439.829000", "094439.831000", "094439.834000", "094439.836000", "094439.838000", "094439.840000", "094439.843000", "094439.845000", "094439.847000", "094519.779000", "094519.782000", "094519.784000", "094519.786000", "094519.789000", "094519.791000", "094519.793000", "094519.796000", "094519.798000", "094519.800000", "094519.802000", "094519.805000", "094519.807000", "094519.809000", "094519.812000", "094519.814000", "094519.816000", "094519.818000", "094519.821000", "094519.823000", "094559.779000", "094559.782000", "094559.784000", "094559.786000", "094559.789000", "094559.791000", "094559.793000", "094559.796000", "094559.798000", "094559.806000", "094559.808000", "094559.811000", "094559.813000", "094559.815000", "094559.817000", "094559.820000", "094559.822000", "094559.824000", "094559.827000", "094559.829000", "094639.780000", "094639.782000", "094639.785000", "094639.787000", "094639.789000", "094639.792000", "094639.794000", "094639.796000", "094639.798000", "094639.801000", "094639.803000", "094639.805000", "094639.807000", "094639.810000", "094639.812000", "094639.815000", "094639.817000", "094639.819000", "094639.821000", "094639.824000", "094719.779000", "094719.781000", "094719.784000", "094719.786000", "094719.788000", "094719.791000", "094719.793000", "094719.795000", "094719.797000", "094719.800000", "094719.802000", "094719.804000", "094719.807000", "094719.809000", "094719.811000", "094719.813000", "094719.816000", "094719.818000", "094719.820000", "094719.822000", "094759.779000", "094759.782000", "094759.784000", "094759.786000", "094759.789000", "094759.791000", "094759.793000", "094759.795000", "094759.800000", "094759.802000", "094759.804000", "094759.806000", "094759.809000", "094759.811000", "094759.813000", "094759.823000", "094759.825000", "094759.827000", "094759.829000", "094759.832000", "094839.780000", "094839.782000", "094839.785000", "094839.795000", "094839.797000", "094839.800000", "094839.802000", "094839.804000", "094839.806000", "094839.809000", "094839.811000", "094839.813000", "094839.816000", "094839.818000", "094839.820000", "094839.822000", "094839.825000", "094839.827000", "094839.829000", "094839.831000", "094919.780000", "094919.783000", "094919.785000", "094919.787000", "094919.790000", "094919.792000", "094919.794000", "094919.797000", "094919.799000", "094919.801000", "094919.804000", "094919.806000", "094919.808000", "094919.810000", "094919.813000", "094919.815000", "094919.817000", "094919.820000", "094919.822000", "094919.824000", "094959.779000", "094959.782000", "094959.784000", "094959.786000", "094959.788000", "094959.791000", "094959.793000", "094959.795000", "094959.798000", "094959.800000", "094959.802000", "094959.804000", "094959.807000", "094959.809000", "094959.811000", "094959.814000", "094959.816000", "094959.818000", "094959.821000", "094959.823000", "095033.193000", "095033.196000", "095033.198000", "095033.201000", "095033.203000", "095033.205000", "095033.208000", "095033.210000", "095033.212000", "095033.215000", "095033.217000", "095033.220000", "095033.224000", "095033.232000", "095033.235000", "095033.238000", "095033.243000"],
      "InstanceNumber": [1, 2, 3, 4, 5, 6, 7, 8, 9, 10, 11, 12, 13, 14, 15, 16, 17, 18, 19, 20, 21, 22, 23, 24, 25, 26, 27, 28, 29, 30, 31, 32, 33, 34, 35, 36, 37, 38, 39, 40, 41, 42, 43, 44, 45, 46, 47, 48, 49, 50, 51, 52, 53, 54, 55, 56, 57, 58, 59, 60, 61, 62, 63, 64, 65, 66, 67, 68, 69, 70, 71, 72, 73, 74, 75, 76, 77, 78, 79, 80, 81, 82, 83, 84, 85, 86, 87, 88, 89, 90, 91, 92, 93, 94, 95, 96, 97, 98, 99, 100, 101, 102, 103, 104, 105, 106, 107, 108, 109, 110, 111, 112, 113, 114, 115, 116, 117, 118, 119, 120, 121, 122, 123, 124, 125, 126, 127, 128, 129, 130, 131, 132, 133, 134, 135, 136, 137, 138, 139, 140, 141, 142, 143, 144, 145, 146, 147, 148, 149, 150, 151, 152, 153, 154, 155, 156, 157, 158, 159, 160, 161, 162, 163, 164, 165, 166, 167, 168, 169, 170, 171, 172, 173, 174, 175, 176, 177, 178, 179, 180, 181, 182, 183, 184, 185, 186, 187, 188, 189, 190, 191, 192, 193, 194, 195, 196, 197, 198, 199, 200],
      "LargestImagePixelValue": [1997, 1999, 1998, 1997, 1999, 1999, 1998, 1998, 1998, 1998, 2001, 1998, 1997, 2000, 2000, 1998, 1997, 1996, 1997, 1999, 1996, 1999, 1997, 1997, 2000, 1997, 1996, 1998, 1999, 1996, 1995, 1998, 1997, 1999, 1999, 1998, 1999, 1997, 1999, 1999, 1999, 1998, 1998, 1998, 1998, 1999, 1998, 1997, 1999, 1998, 1997, 1999, 1999, 1997, 1998, 1997, 1999, 1999, 2000, 1999, 1999, 2000, 1999, 1999, 1995, 1998, 2000, 1997, 1997, 2000, 1999, 1998, 1997, 1998, 1996, 1998, 1999, 1998, 2000, 2000, 1996, 1998, 1999, 1998, 1997, 1998, 1998, 1999, 2000, 1998, 1999, 1998, 1997, 1999, 1998, 1999, 1998, 1997, 1999, 1997, 1998, 1998, 1997, 1999, 1998, 1999, 1998, 1998, 2000, 1999, 1998, 1998, 2000, 1997, 1999, 1998, 1999, 1997, 2001, 2000, 1998, 1999, 1996, 1999, 1998, 1998, 1997, 1999, 1997, 1996, 1998, 1998, 1997, 1999, 1999, 1999, 2000, 1996, 1997, 1998, 1998, 1998, 1997, 1999, 1998, 1996, 1998, 1998, 1998, 1999, 1996, 1998, 2001, 1997, 1999, 1998, 1997, 1997, 1997, 1997, 1996, 1996, 1996, 1998, 1997, 1996, 1997, 1996, 1996, 1999, 1998, 1998, 1998, 1998, 1997, 1999, 1997, 1997, 1998, 1999, 1999, 1997, 1998, 1999, 1999, 1998, 1998, 1998, 1998, 1998, 1997, 1997, 1997, 1996, 1999, 1997, 1998, 1997, 1997, 1999],
      "WindowCenter": [1003.0, 1005.0, 1004.0, 1003.0, 1003.0, 1004.0, 1004.0, 1003.0, 1005.0, 1005.0, 1004.0, 1005.0, 1002.0, 1004.0, 1005.0, 1005.0, 1005.0, 1003.0, 1003.0, 1004.0, 1004.0, 1006.0, 1004.0, 1005.0, 1005.0, 1004.0, 1003.0, 1003.0, 1004.0, 1005.0, 1004.0, 1002.0, 1004.0, 1005.0, 1003.0, 1003.0, 1005.0, 1003.0, 1003.0, 1004.0, 1005.0, 1003.0, 1003.0, 1003.0, 1003.0, 1003.0, 1005.0, 1004.0, 1004.0, 1003.0, 1003.0, 1003.0, 1004.0, 1004.0, 1004.0, 1003.0, 1004.0, 1004.0, 1003.0, 1004.0, 1003.0, 1003.0, 1005.0, 1003.0, 1003.0, 1004.0, 1003.0, 1003.0, 1004.0, 1003.0, 1002.0, 1003.0, 1003.0, 1005.0, 1004.0, 1002.0, 1003.0, 1003.0, 1003.0, 1002.0, 1003.0, 1002.0, 1004.0, 1002.0, 1003.0, 1003.0, 1003.0, 1003.0, 1002.0, 1002.0, 1003.0, 1003.0, 1003.0, 1002.0, 1003.0, 1003.0, 1002.0, 1003.0, 1002.0, 1002.0, 1002.0, 1003.0, 1003.0, 1003.0, 1003.0, 1003.0, 1002.0, 1003.0, 1002.0, 1004.0, 1002.0, 1003.0, 1003.0, 1003.0, 1002.0, 1003.0, 1002.0, 1002.0, 1003.0, 1003.0, 1002.0, 1002.0, 1002.0, 1003.0, 1003.0, 1002.0, 1003.0, 1002.0, 1002.0, 1002.0, 1002.0, 1002.0, 1003.0, 1003.0, 1003.0, 1004.0, 1001.0, 1003.0, 1003.0, 1002.0, 1003.0, 1003.0, 1002.0, 1004.0, 1004.0, 1002.0, 1002.0, 1002.0, 1003.0, 1002.0, 1004.0, 1003.0, 1003.0, 1002.0, 1002.0, 1004.0, 1003.0, 1003.0, 1003.0, 1004.0, 1003.0, 1002.0, 1002.0, 1002.0, 1003.0, 1003.0, 1002.0, 1003.0, 1003.0, 1002.0, 1002.0, 1004.0, 1002.0, 1003.0, 1003.0, 1003.0, 1002.0, 1003.0, 1002.0, 1003.0, 1002.0, 1002.0, 1003.0, 1002.0, 1003.0, 1003.0, 1002.0, 1002.0, 1002.0, 1002.0, 1004.0, 1001.0, 1001.0, 1001.0, 1002.0, 1002.0, 1002.0, 1001.0, 1003.0, 1001.0],
      "WindowWidth": [2236.0, 2238.0, 2238.0, 2237.0, 2237.0, 2238.0, 2237.0, 2237.0, 2238.0, 2238.0, 2237.0, 2238.0, 2236.0, 2237.0, 2238.0, 2238.0, 2238.0, 2237.0, 2237.0, 2237.0, 2237.0, 2239.0, 2237.0, 2238.0, 2237.0, 2237.0, 2236.0, 2236.0, 2237.0, 2237.0, 2237.0, 2235.0, 2237.0, 2238.0, 2236.0, 2236.0, 2237.0, 2236.0, 2236.0, 2237.0, 2237.0, 2236.0, 2236.0, 2236.0, 2236.0, 2236.0, 2237.0, 2236.0, 2236.0, 2236.0, 2236.0, 2236.0, 2236.0, 2236.0, 2236.0, 2236.0, 2237.0, 2236.0, 2236.0, 2236.0, 2236.0, 2236.0, 2238.0, 2236.0, 2235.0, 2237.0, 2236.0, 2235.0, 2237.0, 2236.0, 2235.0, 2236.0, 2236.0, 2238.0, 2237.0, 2235.0, 2236.0, 2236.0, 2236.0, 2235.0, 2236.0, 2235.0, 2237.0, 2235.0, 2236.0, 2236.0, 2236.0, 2236.0, 2235.0, 2235.0, 2236.0, 2236.0, 2236.0, 2235.0, 2236.0, 2235.0, 2235.0, 2236.0, 2235.0, 2235.0, 2235.0, 2235.0, 2236.0, 2236.0, 2236.0, 2236.0, 2235.0, 2236.0, 2235.0, 2237.0, 2235.0, 2236.0, 2236.0, 2236.0, 2235.0, 2236.0, 2235.0, 2235.0, 2236.0, 2236.0, 2235.0, 2235.0, 2235.0, 2236.0, 2235.0, 2235.0, 2235.0, 2235.0, 2235.0, 2234.0, 2235.0, 2235.0, 2235.0, 2235.0, 2236.0, 2236.0, 2234.0, 2236.0, 2235.0, 2234.0, 2235.0, 2236.0, 2234.0, 2236.0, 2236.0, 2234.0, 2234.0, 2234.0, 2235.0, 2234.0, 2236.0, 2235.0, 2235.0, 2234.0, 2234.0, 2236.0, 2236.0, 2235.0, 2235.0, 2236.0, 2235.0, 2234.0, 2234.0, 2234.0, 2235.0, 2235.0, 2234.0, 2235.0, 2235.0, 2234.0, 2235.0, 2236.0, 2234.0, 2235.0, 2235.0, 2235.0, 2234.0, 2235.0, 2234.0, 2235.0, 2234.0, 2234.0, 2235.0, 2234.0, 2235.0, 2235.0, 2234.0, 2235.0, 2234.0, 2235.0, 2236.0, 2233.0, 2234.0, 2234.0, 2234.0, 2235.0, 2234.0, 2234.0, 2235.0, 2234.0]
    },
    "slices": {}
  }
}