{
  "AcquisitionMatrixPE": 122,
  "AcquisitionNumber": 1,
  "AcquisitionTime": "09:49:6.450000",
  "BandwidthPerPixelPhaseEncode": 27.785,
  "BaseResolution": 122,
  "BodyPartExamined": "BRAIN",
  "CoilCombinationMethod": "Adaptive Combine",
  "ConsistencyInfo": "N4_VE11C_LATEST_20160120",
  "ConversionSoftware": "dcm2niix",
  "ConversionSoftwareVersion": "v1.0.20220720",
  "DerivedVendorReportedEchoSpacing": 0.000590011,
  "DeviceSerialNumber": "66112",
  "DiffusionScheme": "Monopolar",
  "DwellTime": 2e-06,
  "EchoTime": 0.068,
  "EchoTrainLength": 61,
  "EffectiveEchoSpacing": 0.000295005,
  "FlipAngle": 90,
  "HeudiconvVersion": "0.13.1",
  "ImageOrientationPatientDICOM": [0.980932, 0.193977, 0.0120922, -0.188187, 0.932422, 0.308503],
  "ImageOrientationText": "Tra>Cor(17.8)>Sag(-2.8)",
  "ImageType": [
    "ORIGINAL",
    "PRIMARY",
    "DIFFUSION",
    "NONE",
    "ND",
    "NORM"
],
  "ImagingFrequency": 123.252,
  "InPlanePhaseEncodingDirectionDICOM": "COL",
  "InstitutionAddress": "Maynard 3,Hanover,NH,US,03755",
  "InstitutionName": "Dartmouth College - PBS",
  "InstitutionalDepartmentName": "Department",
  "MRAcquisitionType": "2D",
  "MagneticFieldStrength": 3,
  "Manufacturer": "Siemens",
  "ManufacturersModelName": "Prisma",
  "Modality": "MR",
  "MultibandAccelerationFactor": 4,
  "NonlinearGradientCorrection": false,
  "ParallelReductionFactorInPlane": 2,
  "PartialFourier": 1,
  "PatientPosition": "HFS",
  "PercentPhaseFOV": 100,
  "PercentSampling": 100,
  "PhaseEncodingDirection": "j-",
  "PhaseEncodingSteps": 122,
  "PhaseResolution": 1,
  "PixelBandwidth": 2050,
  "ProcedureStepDescription": "dbic^QA",
  "ProtocolName": "dwi_acq-DTI-30-p2-s4",
  "PulseSequenceDetails": "%SiemensSeq%\\ep2d_diff",
  "ReceiveCoilActiveElements": "HEA;HEP",
  "ReceiveCoilName": "Head_32",
  "ReconMatrixPE": 122,
  "RefLinesPE": 38,
  "RepetitionTime": 3.6,
  "SAR": 0.16105,
  "ScanOptions": "FS",
  "ScanningSequence": "EP",
  "SequenceName": "*ep_b0",
  "SequenceVariant": "SK\\SP",
  "SeriesDescription": "dwi_acq-DTI-30-p2-s4",
  "SeriesNumber": 9,
  "ShimSetting": [4145, -7689, -7506, 276, -45, -154, -43, 59],
  "SliceThickness": 2,
  "SliceTiming": [2.58594, 0, 1.78906, 0.19531, 1.98438, 0.39844, 2.1875, 0.59375, 2.38281, 0.99219, 2.78125, 1.19531, 2.98438, 1.39062, 3.17969, 1.59375, 3.38281, 0.79688, 2.58594, 0, 1.78906, 0.19531, 1.98438, 0.39844, 2.1875, 0.59375, 2.38281, 0.99219, 2.78125, 1.19531, 2.98438, 1.39062, 3.17969, 1.59375, 3.38281, 0.79688, 2.58594, 0, 1.78906, 0.19531, 1.98438, 0.39844, 2.1875, 0.59375, 2.38281, 0.99219, 2.78125, 1.19531, 2.98438, 1.39062, 3.17969, 1.59375, 3.38281, 0.79688, 2.58594, 0, 1.78906, 0.19531, 1.98438, 0.39844, 2.1875, 0.59375, 2.38281, 0.99219, 2.78125, 1.19531, 2.98438, 1.39062, 3.17969, 1.59375, 3.38281, 0.79688],
  "SoftwareVersions": "syngo MR E11",
  "SpacingBetweenSlices": 2,
  "SpoilingState": true,
  "StationName": "AWP66112",
  "TotalReadoutTime": 0.0356956,
  "TxRefAmp": 227.035,
  "dcmmeta_affine": [
    [-1.9297014474868774, -0.370204895734787, -0.09713506698608398, 147.65586853027344],
    [-0.3815942704677582, 1.8342734575271606, 0.6097927093505859, -102.48365783691406],
    [0.023787882179021835, -0.6068912148475647, 1.9022903442382812, -33.92012405395508],
    [0.0, 0.0, 0.0, 1.0]
],
  "dcmmeta_reorient_transform": [
    [0.0, -1.0, 0.0, 121.0],
    [1.0, 0.0, 0.0, 0.0],
    [0.0, 0.0, -1.0, 71.0],
    [0.0, 0.0, 0.0, 1.0]
],
  "dcmmeta_shape": [122, 122, 72, 31],
  "dcmmeta_slice_dim": 2,
  "dcmmeta_version": 0.6,
  "global": {
    "const": {
      "AccessionNumber": "qa",
      "AcquisitionMatrix": [122, 0, 0, 122],
      "AngioFlag": "N",
      "BitsAllocated": 16,
      "BitsStored": 12,
      "BodyPartExamined": "BRAIN",
      "Columns": 122,
      "EchoNumbers": 1,
      "EchoTime": 68.0,
      "EchoTrainLength": 61,
      "FlipAngle": 90.0,
      "HighBit": 11,
      "ImageOrientationPatient": [0.98093153055992, 0.19397709065683, 0.01209217324063, -0.1881874843979, 0.93242229930259, 0.30850304128039],
      "ImageType": [
        "ORIGINAL",
        "PRIMARY",
        "DIFFUSION",
        "NONE",
        "ND",
        "NORM"
],
      "ImagedNucleus": "1H",
      "ImagingFrequency": 123.252419,
      "InPlanePhaseEncodingDirection": "COL",
      "MRAcquisitionType": "2D",
      "MagneticFieldStrength": 3.0,
      "Manufacturer": "SIEMENS",
      "ManufacturerModelName": "Prisma",
      "Modality": "MR",
      "NumberOfAverages": 1.0,
      "NumberOfPhaseEncodingSteps": 122,
      "PercentPhaseFieldOfView": 100.0,
      "PercentSampling": 100.0,
      "PerformedProcedureStepStartTime": "090712.000000",
      "PhotometricInterpretation": "MONOCHROME2",
      "PixelBandwidth": 2050.0,
      "PixelRepresentation": 0,
      "PixelSpacing": [1.9672131538391, 1.9672131538391],
      "ProtocolName": "dwi_acq-DTI-30-p2-s4",
      "RepetitionTime": 3600.0,
      "Rows": 122,
      "SAR": 0.16104960979633,
      "SamplesPerPixel": 1,
      "ScanOptions": "FS",
      "ScanningSequence": "EP",
      "SequenceVariant": [
        "SK",
        "SP"
],
      "SeriesDescription": "dwi_acq-DTI-30-p2-s4",
      "SeriesNumber": 9,
      "SeriesTime": "094915.056000",
      "SliceThickness": 2.0,
      "SmallestImagePixelValue": 0,
      "SoftwareVersions": "syngo MR E11",
      "SpacingBetweenSlices": 2.0,
      "SpecificCharacterSet": "ISO_IR 100",
      "StudyID": "95",
      "StudyTime": "090711.923000",
      "TransmitCoilName": "Body",
      "VariableFlipAngleFlag": "N",
      "WindowCenterWidthExplanation": "Algo1",
      "dBdt": 0.0},
    "slices": {
      "AcquisitionTime": ["094906.450000", "094903.865000", "094905.655000", "094904.065000", "094905.855000", "094904.262500", "094906.052500", "094904.462500", "094906.252500", "094904.860000", "094906.650000", "094905.060000", "094906.850000", "094905.257500", "094907.047500", "094905.457500", "094907.247500", "094904.662500", "094906.450000", "094903.865000", "094905.655000", "094904.065000", "094905.855000", "094904.262500", "094906.052500", "094904.462500", "094906.252500", "094904.860000", "094906.650000", "094905.060000", "094906.850000", "094905.257500", "094907.047500", "094905.457500", "094907.247500", "094904.662500", "094906.450000", "094903.865000", "094905.655000", "094904.065000", "094905.855000", "094904.262500", "094906.052500", "094904.462500", "094906.252500", "094904.860000", "094906.650000", "094905.060000", "094906.850000", "094905.257500", "094907.047500", "094905.457500", "094907.247500", "094904.662500", "094906.450000", "094903.865000", "094905.655000", "094904.065000", "094905.855000", "094904.262500", "094906.052500", "094904.462500", "094906.252500", "094904.860000", "094906.650000", "094905.060000", "094906.850000", "094905.257500", "094907.047500", "094905.457500", "094907.247500", "094904.662500", "094910.050000", "094907.465000", "094909.255000", "094907.665000", "094909.455000", "094907.862500", "094909.652500", "094908.062500", "094909.852500", "094908.460000", "094910.250000", "094908.660000", "094910.450000", "094908.857500", "094910.647500", "094909.057500", "094910.847500", "094908.262500", "094910.050000", "094907.465000", "094909.255000", "094907.665000", "094909.455000", "094907.862500", "094909.652500", "094908.062500", "094909.852500", "094908.460000", "094910.250000", "094908.660000", "094910.450000", "094908.857500", "094910.647500", "094909.057500", "094910.847500", "094908.262500", "094910.050000", "094907.465000", "094909.255000", "094907.665000", "094909.455000", "094907.862500", "094909.652500", "094908.062500", "094909.852500", "094908.460000", "094910.250000", "094908.660000", "094910.450000", "094908.857500", "094910.647500", "094909.057500", "094910.847500", "094908.262500", "094910.050000", "094907.465000", "094909.255000", "094907.665000", "094909.455000", "094907.862500", "094909.652500", "094908.062500", "094909.852500", "094908.460000", "094910.250000", "094908.660000", "094910.450000", "094908.857500", "094910.647500", "094909.057500", "094910.847500", "094908.262500", "094913.650000", "094911.065000", "094912.855000", "094911.265000", "094913.055000", "094911.462500", "094913.252500", "094911.662500", "094913.452500", "094912.060000", "094913.850000", "094912.260000", "094914.050000", "094912.457500", "094914.247500", "094912.657500", "094914.447500", "094911.862500", "094913.650000", "094911.065000", "094912.855000", "094911.265000", "094913.055000", "094911.462500", "094913.252500", "094911.662500", "094913.452500", "094912.060000", "094913.850000", "094912.260000", "094914.050000", "094912.457500", "094914.247500", "094912.657500", "094914.447500", "094911.862500", "094913.650000", "094911.065000", "094912.855000", "094911.265000", "094913.055000", "094911.462500", "094913.252500", "094911.662500", "094913.452500", "094912.060000", "094913.850000", "094912.260000", "094914.050000", "094912.457500", "094914.247500", "094912.657500", "094914.447500", "094911.862500", "094913.650000", "094911.065000", "094912.855000", "094911.265000", "094913.055000", "094911.462500", "094913.252500", "094911.662500", "094913.452500", "094912.060000", "094913.850000", "094912.260000", "094914.050000", "094912.457500", "094914.247500", "094912.657500", "094914.447500", "094911.862500", "094917.250000", "094914.665000", "094916.455000", "094914.865000", "094916.655000", "094915.062500", "094916.852500", "094915.262500", "094917.052500", "094915.660000", "094917.450000", "094915.860000", "094917.650000", "094916.057500", "094917.847500", "094916.257500", "094918.047500", "094915.462500", "094917.250000", "094914.665000", "094916.455000", "094914.865000", "094916.655000", "094915.062500", "094916.852500", "094915.262500", "094917.052500", "094915.660000", "094917.450000", "094915.860000", "094917.650000", "094916.057500", "094917.847500", "094916.257500", "094918.047500", "094915.462500", "094917.250000", "094914.665000", "094916.455000", "094914.865000", "094916.655000", "094915.062500", "094916.852500", "094915.262500", "094917.052500", "094915.660000", "094917.450000", "094915.860000", "094917.650000", "094916.057500", "094917.847500", "094916.257500", "094918.047500", "094915.462500", "094917.250000", "094914.665000", "094916.455000", "094914.865000", "094916.655000", "094915.062500", "094916.852500", "094915.262500", "094917.052500", "094915.660000", "094917.450000", "094915.860000", "094917.650000", "094916.057500", "094917.847500", "094916.257500", "094918.047500", "094915.462500", "094920.850000", "094918.265000", "094920.055000", "094918.465000", "094920.255000", "094918.662500", "094920.452500", "094918.862500", "094920.652500", "094919.260000", "094921.050000", "094919.460000", "094921.250000", "094919.657500", "094921.447500", "094919.857500", "094921.647500", "094919.062500", "094920.850000", "094918.265000", "094920.055000", "094918.465000", "094920.255000", "094918.662500", "094920.452500", "094918.862500", "094920.652500", "094919.260000", "094921.050000", "094919.460000", "094921.250000", "094919.657500", "094921.447500", "094919.857500", "094921.647500", "094919.062500", "094920.850000", "094918.265000", "094920.055000", "094918.465000", "094920.255000", "094918.662500", "094920.452500", "094918.862500", "094920.652500", "094919.260000", "094921.050000", "094919.460000", "094921.250000", "094919.657500", "094921.447500", "094919.857500", "094921.647500", "094919.062500", "094920.850000", "094918.265000", "094920.055000", "094918.465000", "094920.255000", "094918.662500", "094920.452500", "094918.862500", "094920.652500", "094919.260000", "094921.050000", "094919.460000", "094921.250000", "094919.657500", "094921.447500", "094919.857500", "094921.647500", "094919.062500", "094924.450000", "094921.865000", "094923.655000", "094922.065000", "094923.855000", "094922.262500", "094924.052500", "094922.462500", "094924.252500", "094922.860000", "094924.650000", "094923.060000", "094924.850000", "094923.257500", "094925.047500", "094923.457500", "094925.247500", "094922.662500", "094924.450000", "094921.865000", "094923.655000", "094922.065000", "094923.855000", "094922.262500", "094924.052500", "094922.462500", "094924.252500", "094922.860000", "094924.650000", "094923.060000", "094924.850000", "094923.257500", "094925.047500", "094923.457500", "094925.247500", "094922.662500", "094924.450000", "094921.865000", "094923.655000", "094922.065000", "094923.855000", "094922.262500", "094924.052500", "094922.462500", "094924.252500", "094922.860000", "094924.650000", "094923.060000", "094924.850000", "094923.257500", "094925.047500", "094923.457500", "094925.247500", "094922.662500", "094924.450000", "094921.865000", "094923.655000", "094922.065000", "094923.855000", "094922.262500", "094924.052500", "094922.462500", "094924.252500", "094922.860000", "094924.650000", "094923.060000", "094924.850000", "094923.257500", "094925.047500", "094923.457500", "094925.247500", "094922.662500", "094928.050000", "094925.465000", "094927.255000", "094925.665000", "094927.455000", "094925.862500", "094927.652500", "094926.062500", "094927.852500", "094926.460000", "094928.250000", "094926.660000", "094928.450000", "094926.857500", "094928.647500", "094927.057500", "094928.847500", "094926.262500", "094928.050000", "094925.465000", "094927.255000", "094925.665000", "094927.455000", "094925.862500", "094927.652500", "094926.062500", "094927.852500", "094926.460000", "094928.250000", "094926.660000", "094928.450000", "094926.857500", "094928.647500", "094927.057500", "094928.847500", "094926.262500", "094928.050000", "094925.465000", "094927.255000", "094925.665000", "094927.455000", "094925.862500", "094927.652500", "094926.062500", "094927.852500", "094926.460000", "094928.250000", "094926.660000", "094928.450000", "094926.857500", "094928.647500", "094927.057500", "094928.847500", "094926.262500", "094928.050000", "094925.465000", "094927.255000", "094925.665000", "094927.455000", "094925.862500", "094927.652500", "094926.062500", "094927.852500", "094926.460000", "094928.250000", "094926.660000", "094928.450000", "094926.857500", "094928.647500", "094927.057500", "094928.847500", "094926.262500", "094931.650000", "094929.065000", "094930.855000", "094929.265000", "094931.055000", "094929.462500", "094931.252500", "094929.662500", "094931.452500", "094930.060000", "094931.850000", "094930.260000", "094932.050000", "094930.457500", "094932.247500", "094930.657500", "094932.447500", "094929.862500", "094931.650000", "094929.065000", "094930.855000", "094929.265000", "094931.055000", "094929.462500", "094931.252500", "094929.662500", "094931.452500", "094930.060000", "094931.850000", "094930.260000", "094932.050000", "094930.457500", "094932.247500", "094930.657500", "094932.447500", "094929.862500", "094931.650000", "094929.065000", "094930.855000", "094929.265000", "094931.055000", "094929.462500", "094931.252500", "094929.662500", "094931.452500", "094930.060000", "094931.850000", "094930.260000", "094932.050000", "094930.457500", "094932.247500", "094930.657500", "094932.447500", "094929.862500", "094931.650000", "094929.065000", "094930.855000", "094929.265000", "094931.055000", "094929.462500", "094931.252500", "094929.662500", "094931.452500", "094930.060000", "094931.850000", "094930.260000", "094932.050000", "094930.457500", "094932.247500", "094930.657500", "094932.447500", "094929.862500", "094935.250000", "094932.665000", "094934.455000", "094932.865000", "094934.655000", "094933.062500", "094934.852500", "094933.262500", "094935.052500", "094933.660000", "094935.450000", "094933.860000", "094935.650000", "094934.057500", "094935.847500", "094934.257500", "094936.047500", "094933.462500", "094935.250000", "094932.665000", "094934.455000", "094932.865000", "094934.655000", "094933.062500", "094934.852500", "094933.262500", "094935.052500", "094933.660000", "094935.450000", "094933.860000", "094935.650000", "094934.057500", "094935.847500", "094934.257500", "094936.047500", "094933.462500", "094935.250000", "094932.665000", "094934.455000", "094932.865000", "094934.655000", "094933.062500", "094934.852500", "094933.262500", "094935.052500", "094933.660000", "094935.450000", "094933.860000", "094935.650000", "094934.057500", "094935.847500", "094934.257500", "094936.047500", "094933.462500", "094935.250000", "094932.665000", "094934.455000", "094932.865000", "094934.655000", "094933.062500", "094934.852500", "094933.262500", "094935.052500", "094933.660000", "094935.450000", "094933.860000", "094935.650000", "094934.057500", "094935.847500", "094934.257500", "094936.047500", "094933.462500", "094938.850000", "094936.265000", "094938.055000", "094936.465000", "094938.255000", "094936.662500", "094938.452500", "094936.862500", "094938.652500", "094937.260000", "094939.050000", "094937.460000", "094939.250000", "094937.657500", "094939.447500", "094937.857500", "094939.647500", "094937.062500", "094938.850000", "094936.265000", "094938.055000", "094936.465000", "094938.255000", "094936.662500", "094938.452500", "094936.862500", "094938.652500", "094937.260000", "094939.050000", "094937.460000", "094939.250000", "094937.657500", "094939.447500", "094937.857500", "094939.647500", "094937.062500", "094938.850000", "094936.265000", "094938.055000", "094936.465000", "094938.255000", "094936.662500", "094938.452500", "094936.862500", "094938.652500", "094937.260000", "094939.050000", "094937.460000", "094939.250000", "094937.657500", "094939.447500", "094937.857500", "094939.647500", "094937.062500", "094938.850000", "094936.265000", "094938.055000", "094936.465000", "094938.255000", "094936.662500", "094938.452500", "094936.862500", "094938.652500", "094937.260000", "094939.050000", "094937.460000", "094939.250000", "094937.657500", "094939.447500", "094937.857500", "094939.647500", "094937.062500", "094942.450000", "094939.865000", "094941.655000", "094940.065000", "094941.855000", "094940.262500", "094942.052500", "094940.462500", "094942.252500", "094940.860000", "094942.650000", "094941.060000", "094942.850000", "094941.257500", "094943.047500", "094941.457500", "094943.247500", "094940.662500", "094942.450000", "094939.865000", "094941.655000", "094940.065000", "094941.855000", "094940.262500", "094942.052500", "094940.462500", "094942.252500", "094940.860000", "094942.650000", "094941.060000", "094942.850000", "094941.257500", "094943.047500", "094941.457500", "094943.247500", "094940.662500", "094942.450000", "094939.865000", "094941.655000", "094940.065000", "094941.855000", "094940.262500", "094942.052500", "094940.462500", "094942.252500", "094940.860000", "094942.650000", "094941.060000", "094942.850000", "094941.257500", "094943.047500", "094941.457500", "094943.247500", "094940.662500", "094942.450000", "094939.865000", "094941.655000", "094940.065000", "094941.855000", "094940.262500", "094942.052500", "094940.462500", "094942.252500", "094940.860000", "094942.650000", "094941.060000", "094942.850000", "094941.257500", "094943.047500", "094941.457500", "094943.247500", "094940.662500", "094946.050000", "094943.465000", "094945.255000", "094943.665000", "094945.455000", "094943.862500", "094945.652500", "094944.062500", "094945.852500", "094944.460000", "094946.250000", "094944.660000", "094946.450000", "094944.857500", "094946.647500", "094945.057500", "094946.847500", "094944.262500", "094946.050000", "094943.465000", "094945.255000", "094943.665000", "094945.455000", "094943.862500", "094945.652500", "094944.062500", "094945.852500", "094944.460000", "094946.250000", "094944.660000", "094946.450000", "094944.857500", "094946.647500", "094945.057500", "094946.847500", "094944.262500", "094946.050000", "094943.465000", "094945.255000", "094943.665000", "094945.455000", "094943.862500", "094945.652500", "094944.062500", "094945.852500", "094944.460000", "094946.250000", "094944.660000", "094946.450000", "094944.857500", "094946.647500", "094945.057500", "094946.847500", "094944.262500", "094946.050000", "094943.465000", "094945.255000", "094943.665000", "094945.455000", "094943.862500", "094945.652500", "094944.062500", "094945.852500", "094944.460000", "094946.250000", "094944.660000", "094946.450000", "094944.857500", "094946.647500", "094945.057500", "094946.847500", "094944.262500", "094949.650000", "094947.065000", "094948.855000", "094947.265000", "094949.055000", "094947.462500", "094949.252500", "094947.662500", "094949.452500", "094948.060000", "094949.850000", "094948.260000", "094950.050000", "094948.457500", "094950.247500", "094948.657500", "094950.447500", "094947.862500", "094949.650000", "094947.065000", "094948.855000", "094947.265000", "094949.055000", "094947.462500", "094949.252500", "094947.662500", "094949.452500", "094948.060000", "094949.850000", "094948.260000", "094950.050000", "094948.457500", "094950.247500", "094948.657500", "094950.447500", "094947.862500", "094949.650000", "094947.065000", "094948.855000", "094947.265000", "094949.055000", "094947.462500", "094949.252500", "094947.662500", "094949.452500", "094948.060000", "094949.850000", "094948.260000", "094950.050000", "094948.457500", "094950.247500", "094948.657500", "094950.447500", "094947.862500", "094949.650000", "094947.065000", "094948.855000", "094947.265000", "094949.055000", "094947.462500", "094949.252500", "094947.662500", "094949.452500", "094948.060000", "094949.850000", "094948.260000", "094950.050000", "094948.457500", "094950.247500", "094948.657500", "094950.447500", "094947.862500", "094953.250000", "094950.665000", "094952.455000", "094950.865000", "094952.655000", "094951.062500", "094952.852500", "094951.262500", "094953.052500", "094951.660000", "094953.450000", "094951.860000", "094953.650000", "094952.057500", "094953.847500", "094952.257500", "094954.047500", "094951.462500", "094953.250000", "094950.665000", "094952.455000", "094950.865000", "094952.655000", "094951.062500", "094952.852500", "094951.262500", "094953.052500", "094951.660000", "094953.450000", "094951.860000", "094953.650000", "094952.057500", "094953.847500", "094952.257500", "094954.047500", "094951.462500", "094953.250000", "094950.665000", "094952.455000", "094950.865000", "094952.655000", "094951.062500", "094952.852500", "094951.262500", "094953.052500", "094951.660000", "094953.450000", "094951.860000", "094953.650000", "094952.057500", "094953.847500", "094952.257500", "094954.047500", "094951.462500", "094953.250000", "094950.665000", "094952.455000", "094950.865000", "094952.655000", "094951.062500", "094952.852500", "094951.262500", "094953.052500", "094951.660000", "094953.450000", "094951.860000", "094953.650000", "094952.057500", "094953.847500", "094952.257500", "094954.047500", "094951.462500", "094956.850000", "094954.265000", "094956.055000", "094954.465000", "094956.255000", "094954.662500", "094956.452500", "094954.862500", "094956.652500", "094955.260000", "094957.050000", "094955.460000", "094957.250000", "094955.657500", "094957.447500", "094955.857500", "094957.647500", "094955.062500", "094956.850000", "094954.265000", "094956.055000", "094954.465000", "094956.255000", "094954.662500", "094956.452500", "094954.862500", "094956.652500", "094955.260000", "094957.050000", "094955.460000", "094957.250000", "094955.657500", "094957.447500", "094955.857500", "094957.647500", "094955.062500", "094956.850000", "094954.265000", "094956.055000", "094954.465000", "094956.255000", "094954.662500", "094956.452500", "094954.862500", "094956.652500", "094955.260000", "094957.050000", "094955.460000", "094957.250000", "094955.657500", "094957.447500", "094955.857500", "094957.647500", "094955.062500", "094956.850000", "094954.265000", "094956.055000", "094954.465000", "094956.255000", "094954.662500", "094956.452500", "094954.862500", "094956.652500", "094955.260000", "094957.050000", "094955.460000", "094957.250000", "094955.657500", "094957.447500", "094955.857500", "094957.647500", "094955.062500", "095000.450000", "094957.865000", "094959.655000", "094958.065000", "094959.855000", "094958.262500", "095000.052500", "094958.462500", "095000.252500", "094958.860000", "095000.650000", "094959.060000", "095000.850000", "094959.257500", "095001.047500", "094959.457500", "095001.247500", "094958.662500", "095000.450000", "094957.865000", "094959.655000", "094958.065000", "094959.855000", "094958.262500", "095000.052500", "094958.462500", "095000.252500", "094958.860000", "095000.650000", "094959.060000", "095000.850000", "094959.257500", "095001.047500", "094959.457500", "095001.247500", "094958.662500", "095000.450000", "094957.865000", "094959.655000", "094958.065000", "094959.855000", "094958.262500", "095000.052500", "094958.462500", "095000.252500", "094958.860000", "095000.650000", "094959.060000", "095000.850000", "094959.257500", "095001.047500", "094959.457500", "095001.247500", "094958.662500", "095000.450000", "094957.865000", "094959.655000", "094958.065000", "094959.855000", "094958.262500", "095000.052500", "094958.462500", "095000.252500", "094958.860000", "095000.650000", "094959.060000", "095000.850000", "094959.257500", "095001.047500", "094959.457500", "095001.247500", "094958.662500", "095004.050000", "095001.465000", "095003.255000", "095001.665000", "095003.455000", "095001.862500", "095003.652500", "095002.062500", "095003.852500", "095002.460000", "095004.250000", "095002.660000", "095004.450000", "095002.857500", "095004.647500", "095003.057500", "095004.847500", "095002.262500", "095004.050000", "095001.465000", "095003.255000", "095001.665000", "095003.455000", "095001.862500", "095003.652500", "095002.062500", "095003.852500", "095002.460000", "095004.250000", "095002.660000", "095004.450000", "095002.857500", "095004.647500", "095003.057500", "095004.847500", "095002.262500", "095004.050000", "095001.465000", "095003.255000", "095001.665000", "095003.455000", "095001.862500", "095003.652500", "095002.062500", "095003.852500", "095002.460000", "095004.250000", "095002.660000", "095004.450000", "095002.857500", "095004.647500", "095003.057500", "095004.847500", "095002.262500", "095004.050000", "095001.465000", "095003.255000", "095001.665000", "095003.455000", "095001.862500", "095003.652500", "095002.062500", "095003.852500", "095002.460000", "095004.250000", "095002.660000", "095004.450000", "095002.857500", "095004.647500", "095003.057500", "095004.847500", "095002.262500", "095007.650000", "095005.065000", "095006.855000", "095005.265000", "095007.055000", "095005.462500", "095007.252500", "095005.662500", "095007.452500", "095006.060000", "095007.850000", "095006.260000", "095008.050000", "095006.457500", "095008.247500", "095006.657500", "095008.447500", "095005.862500", "095007.650000", "095005.065000", "095006.855000", "095005.265000", "095007.055000", "095005.462500", "095007.252500", "095005.662500", "095007.452500", "095006.060000", "095007.850000", "095006.260000", "095008.050000", "095006.457500", "095008.247500", "095006.657500", "095008.447500", "095005.862500", "095007.650000", "095005.065000", "095006.855000", "095005.265000", "095007.055000", "095005.462500", "095007.252500", "095005.662500", "095007.452500", "095006.060000", "095007.850000", "095006.260000", "095008.050000", "095006.457500", "095008.247500", "095006.657500", "095008.447500", "095005.862500", "095007.650000", "095005.065000", "095006.855000", "095005.265000", "095007.055000", "095005.462500", "095007.252500", "095005.662500", "095007.452500", "095006.060000", "095007.850000", "095006.260000", "095008.050000", "095006.457500", "095008.247500", "095006.657500", "095008.447500", "095005.862500", "095011.250000", "095008.665000", "095010.455000", "095008.865000", "095010.655000", "095009.062500", "095010.852500", "095009.262500", "095011.052500", "095009.660000", "095011.450000", "095009.860000", "095011.650000", "095010.057500", "095011.847500", "095010.257500", "095012.047500", "095009.462500", "095011.250000", "095008.665000", "095010.455000", "095008.865000", "095010.655000", "095009.062500", "095010.852500", "095009.262500", "095011.052500", "095009.660000", "095011.450000", "095009.860000", "095011.650000", "095010.057500", "095011.847500", "095010.257500", "095012.047500", "095009.462500", "095011.250000", "095008.665000", "095010.455000", "095008.865000", "095010.655000", "095009.062500", "095010.852500", "095009.262500", "095011.052500", "095009.660000", "095011.450000", "095009.860000", "095011.650000", "095010.057500", "095011.847500", "095010.257500", "095012.047500", "095009.462500", "095011.250000", "095008.665000", "095010.455000", "095008.865000", "095010.655000", "095009.062500", "095010.852500", "095009.262500", "095011.052500", "095009.660000", "095011.450000", "095009.860000", "095011.650000", "095010.057500", "095011.847500", "095010.257500", "095012.047500", "095009.462500", "095014.850000", "095012.265000", "095014.055000", "095012.465000", "095014.255000", "095012.662500", "095014.452500", "095012.862500", "095014.652500", "095013.260000", "095015.050000", "095013.460000", "095015.250000", "095013.657500", "095015.447500", "095013.857500", "095015.647500", "095013.062500", "095014.850000", "095012.265000", "095014.055000", "095012.465000", "095014.255000", "095012.662500", "095014.452500", "095012.862500", "095014.652500", "095013.260000", "095015.050000", "095013.460000", "095015.250000", "095013.657500", "095015.447500", "095013.857500", "095015.647500", "095013.062500", "095014.850000", "095012.265000", "095014.055000", "095012.465000", "095014.255000", "095012.662500", "095014.452500", "095012.862500", "095014.652500", "095013.260000", "095015.050000", "095013.460000", "095015.250000", "095013.657500", "095015.447500", "095013.857500", "095015.647500", "095013.062500", "095014.850000", "095012.265000", "095014.055000", "095012.465000", "095014.255000", "095012.662500", "095014.452500", "095012.862500", "095014.652500", "095013.260000", "095015.050000", "095