{
  "AcquisitionMatrixPE": 122,
  "AcquisitionNumber": 1,
  "AcquisitionTime": "09:44:44.050000",
  "BandwidthPerPixelPhaseEncode": 28.76,
  "BaseResolution": 122,
  "BodyPartExamined": "BRAIN",
  "CoilCombinationMethod": "Adaptive Combine",
  "ConsistencyInfo": "N4_VE11C_LATEST_20160120",
  "ConversionSoftware": "dcm2niix",
  "ConversionSoftwareVersion": "v1.0.20220720",
  "DerivedVendorReportedEchoSpacing": 0.000570008,
  "DeviceSerialNumber": "66112",
  "DiffusionScheme": "Monopolar",
  "DwellTime": 2e-06,
  "EchoTime": 0.075,
  "EchoTrainLength": 61,
  "EffectiveEchoSpacing": 0.000285004,
  "FlipAngle": 90,
  "HeudiconvVersion": "0.13.1",
  "ImageOrientationPatientDICOM": [0.980932, 0.193977, 0.0120922, -0.188187, 0.932422, 0.308503],
  "ImageOrientationText": "Tra>Cor(17.8)>Sag(-2.8)",
  "ImageType": [
    "ORIGINAL",
    "PRIMARY",
    "DIFFUSION",
    "NONE",
    "ND",
    "NORM"
],
  "ImagingFrequency": 123.252,
  "InPlanePhaseEncodingDirectionDICOM": "COL",
  "InstitutionAddress": "Maynard 3,Hanover,NH,US,03755",
  "InstitutionName": "Dartmouth College - PBS",
  "InstitutionalDepartmentName": "Department",
  "MRAcquisitionType": "2D",
  "MagneticFieldStrength": 3,
  "Manufacturer": "Siemens",
  "ManufacturersModelName": "Prisma",
  "MatrixCoilMode": "GRAPPA",
  "Modality": "MR",
  "NonlinearGradientCorrection": false,
  "ParallelReductionFactorInPlane": 2,
  "PartialFourier": 1,
  "PatientPosition": "HFS",
  "PercentPhaseFOV": 100,
  "PercentSampling": 100,
  "PhaseEncodingDirection": "j-",
  "PhaseEncodingSteps": 122,
  "PhaseResolution": 1,
  "PixelBandwidth": 2050,
  "ProcedureStepDescription": "dbic^QA",
  "ProtocolName": "dwi_acq-DTI-30-p2",
  "PulseSequenceDetails": "%SiemensSeq%\\ep2d_diff",
  "ReceiveCoilActiveElements": "HEA;HEP",
  "ReceiveCoilName": "Head_32",
  "ReconMatrixPE": 122,
  "RefLinesPE": 38,
  "RepetitionTime": 7.7,
  "SAR": 0.10209,
  "ScanOptions": "FS",
  "ScanningSequence": "EP",
  "SequenceName": "*ep_b0",
  "SequenceVariant": "SK\\SP",
  "SeriesDescription": "dwi_acq-DTI-30-p2",
  "SeriesNumber": 8,
  "ShimSetting": [4145, -7689, -7506, 273, -45, -151, -44, 59],
  "SliceThickness": 2,
  "SliceTiming": [3.83594, 0, 3.94531, 0.10938, 4.0625, 0.21875, 4.17188, 0.32812, 4.28125, 0.4375, 4.39062, 0.54688, 4.5, 0.65625, 4.60938, 0.76562, 4.71875, 0.875, 4.82812, 0.98438, 4.9375, 1.09375, 5.04688, 1.20312, 5.15625, 1.32031, 5.26562, 1.42969, 5.375, 1.53906, 5.48438, 1.64062, 5.59375, 1.75781, 5.70312, 1.86719, 5.8125, 1.97656, 5.92188, 2.08594, 6.03125, 2.19531, 6.14062, 2.30469, 6.25781, 2.41406, 6.35938, 2.52344, 6.46875, 2.63281, 6.57812, 2.74219, 6.69531, 2.85156, 6.80469, 2.96094, 6.91406, 3.07031, 7.02344, 3.17969, 7.13281, 3.28906, 7.24219, 3.39844, 7.35156, 3.50781, 7.46094, 3.61719, 7.57031, 3.72656],
  "SoftwareVersions": "syngo MR E11",
  "SpacingBetweenSlices": 2,
  "SpoilingState": true,
  "StationName": "AWP66112",
  "TotalReadoutTime": 0.0344855,
  "TxRefAmp": 227.035,
  "dcmmeta_affine": [
    [-1.9297014474868774, -0.370204895734787, -0.09713500738143921, 147.55873107910156],
    [-0.3815942704677582, 1.8342734575271606, 0.6097908020019531, -101.87373352050781],
    [0.023787882179021835, -0.6068912148475647, 1.9022941589355469, -32.018096923828125],
    [0.0, 0.0, 0.0, 1.0]
],
  "dcmmeta_reorient_transform": [
    [0.0, -1.0, 0.0, 121.0],
    [1.0, 0.0, 0.0, 0.0],
    [0.0, 0.0, -1.0, 69.0],
    [0.0, 0.0, 0.0, 1.0]
],
  "dcmmeta_shape": [122, 122, 70, 31],
  "dcmmeta_slice_dim": 2,
  "dcmmeta_version": 0.6,
  "global": {
    "const": {
      "AccessionNumber": "qa",
      "AcquisitionMatrix": [122, 0, 0, 122],
      "AngioFlag": "N",
      "BitsAllocated": 16,
      "BitsStored": 12,
      "BodyPartExamined": "BRAIN",
      "Columns": 122,
      "EchoNumbers": 1,
      "EchoTime": 75.0,
      "EchoTrainLength": 61,
      "FlipAngle": 90.0,
      "HighBit": 11,
      "ImageOrientationPatient": [0.98093153055992, 0.19397709065683, 0.01209217324063, -0.1881874843979, 0.93242229930259, 0.30850304128039],
      "ImageType": [
        "ORIGINAL",
        "PRIMARY",
        "DIFFUSION",
        "NONE",
        "ND",
        "NORM"
],
      "ImagedNucleus": "1H",
      "ImagingFrequency": 123.252419,
      "InPlanePhaseEncodingDirection": "COL",
      "MRAcquisitionType": "2D",
      "MagneticFieldStrength": 3.0,
      "Manufacturer": "SIEMENS",
      "ManufacturerModelName": "Prisma",
      "Modality": "MR",
      "NumberOfAverages": 1.0,
      "NumberOfPhaseEncodingSteps": 122,
      "PercentPhaseFieldOfView": 100.0,
      "PercentSampling": 100.0,
      "PerformedProcedureStepStartTime": "090712.000000",
      "PhotometricInterpretation": "MONOCHROME2",
      "PixelBandwidth": 2050.0,
      "PixelRepresentation": 0,
      "PixelSpacing": [1.9672131538391, 1.9672131538391],
      "ProtocolName": "dwi_acq-DTI-30-p2",
      "RepetitionTime": 7700.0,
      "Rows": 122,
      "SAR": 0.10208963132626,
      "SamplesPerPixel": 1,
      "ScanOptions": "FS",
      "ScanningSequence": "EP",
      "SequenceVariant": [
        "SK",
        "SP"
],
      "SeriesDescription": "dwi_acq-DTI-30-p2",
      "SeriesNumber": 8,
      "SeriesTime": "094500.335000",
      "SliceThickness": 2.0,
      "SmallestImagePixelValue": 0,
      "SoftwareVersions": "syngo MR E11",
      "SpacingBetweenSlices": 2.0,
      "SpecificCharacterSet": "ISO_IR 100",
      "StudyID": "95",
      "StudyTime": "090711.923000",
      "TransmitCoilName": "Body",
      "VariableFlipAngleFlag": "N",
      "WindowCenterWidthExplanation": "Algo1",
      "dBdt": 0.0},
    "slices": {
      "AcquisitionTime": ["094444.050000", "094440.210000", "094444.160000", "094440.320000", "094444.270000", "094440.430000", "094444.380000", "094440.540000", "094444.490000", "094440.650000", "094444.600000", "094440.760000", "094444.707500", "094440.867500", "094444.817500", "094440.977500", "094444.927500", "094441.087500", "094445.037500", "094441.197500", "094445.147500", "094441.307500", "094445.257500", "094441.417500", "094445.367500", "094441.527500", "094445.477500", "094441.637500", "094445.585000", "094441.747500", "094445.695000", "094441.855000", "094445.805000", "094441.965000", "094445.915000", "094442.075000", "094446.025000", "094442.185000", "094446.135000", "094442.295000", "094446.245000", "094442.405000", "094446.355000", "094442.515000", "094446.465000", "094442.625000", "094446.572500", "094442.732500", "094446.682500", "094442.842500", "094446.792500", "094442.952500", "094446.902500", "094443.062500", "094447.012500", "094443.172500", "094447.122500", "094443.282500", "094447.232500", "094443.392500", "094447.342500", "094443.502500", "094447.452500", "094443.612500", "094447.560000", "094443.720000", "094447.670000", "094443.830000", "094447.780000", "094443.940000", "094451.750000", "094447.910000", "094451.860000", "094448.020000", "094451.970000", "094448.130000", "094452.080000", "094448.240000", "094452.190000", "094448.350000", "094452.300000", "094448.460000", "094452.407500", "094448.567500", "094452.517500", "094448.677500", "094452.627500", "094448.787500", "094452.737500", "094448.897500", "094452.847500", "094449.007500", "094452.957500", "094449.117500", "094453.067500", "094449.227500", "094453.177500", "094449.337500", "094453.285000", "094449.447500", "094453.395000", "094449.555000", "094453.505000", "094449.665000", "094453.615000", "094449.775000", "094453.725000", "094449.885000", "094453.835000", "094449.995000", "094453.945000", "094450.105000", "094454.055000", "094450.215000", "094454.165000", "094450.325000", "094454.272500", "094450.432500", "094454.382500", "094450.542500", "094454.492500", "094450.652500", "094454.602500", "094450.762500", "094454.712500", "094450.872500", "094454.822500", "094450.982500", "094454.932500", "094451.092500", "094455.042500", "094451.202500", "094455.152500", "094451.312500", "094455.260000", "094451.420000", "094455.370000", "094451.530000", "094455.480000", "094451.640000", "094459.450000", "094455.610000", "094459.560000", "094455.720000", "094459.670000", "094455.830000", "094459.780000", "094455.940000", "094459.890000", "094456.050000", "094500.000000", "094456.160000", "094500.107500", "094456.267500", "094500.217500", "094456.377500", "094500.327500", "094456.487500", "094500.437500", "094456.597500", "094500.547500", "094456.707500", "094500.657500", "094456.817500", "094500.767500", "094456.927500", "094500.877500", "094457.037500", "094500.985000", "094457.147500", "094501.095000", "094457.255000", "094501.205000", "094457.365000", "094501.315000", "094457.475000", "094501.425000", "094457.585000", "094501.535000", "094457.695000", "094501.645000", "094457.805000", "094501.755000", "094457.915000", "094501.865000", "094458.025000", "094501.972500", "094458.132500", "094502.082500", "094458.242500", "094502.192500", "094458.352500", "094502.302500", "094458.462500", "094502.412500", "094458.572500", "094502.522500", "094458.682500", "094502.632500", "094458.792500", "094502.742500", "094458.902500", "094502.852500", "094459.012500", "094502.960000", "094459.120000", "094503.070000", "094459.230000", "094503.180000", "094459.340000", "094507.150000", "094503.310000", "094507.260000", "094503.420000", "094507.370000", "094503.530000", "094507.480000", "094503.640000", "094507.590000", "094503.750000", "094507.700000", "094503.860000", "094507.807500", "094503.967500", "094507.917500", "094504.077500", "094508.027500", "094504.187500", "094508.137500", "094504.297500", "094508.247500", "094504.407500", "094508.357500", "094504.517500", "094508.467500", "094504.627500", "094508.577500", "094504.737500", "094508.685000", "094504.847500", "094508.795000", "094504.955000", "094508.905000", "094505.065000", "094509.015000", "094505.175000", "094509.125000", "094505.285000", "094509.235000", "094505.395000", "094509.345000", "094505.505000", "094509.455000", "094505.615000", "094509.565000", "094505.725000", "094509.672500", "094505.832500", "094509.782500", "094505.942500", "094509.892500", "094506.052500", "094510.002500", "094506.162500", "094510.112500", "094506.272500", "094510.222500", "094506.382500", "094510.332500", "094506.492500", "094510.442500", "094506.602500", "094510.552500", "094506.712500", "094510.660000", "094506.820000", "094510.770000", "094506.930000", "094510.880000", "094507.040000", "094514.850000", "094511.010000", "094514.960000", "094511.120000", "094515.070000", "094511.230000", "094515.180000", "094511.340000", "094515.290000", "094511.450000", "094515.400000", "094511.560000", "094515.507500", "094511.667500", "094515.617500", "094511.777500", "094515.727500", "094511.887500", "094515.837500", "094511.997500", "094515.947500", "094512.107500", "094516.057500", "094512.217500", "094516.167500", "094512.327500", "094516.277500", "094512.437500", "094516.385000", "094512.547500", "094516.495000", "094512.655000", "094516.605000", "094512.765000", "094516.715000", "094512.875000", "094516.825000", "094512.985000", "094516.935000", "094513.095000", "094517.045000", "094513.205000", "094517.155000", "094513.315000", "094517.265000", "094513.425000", "094517.372500", "094513.532500", "094517.482500", "094513.642500", "094517.592500", "094513.752500", "094517.702500", "094513.862500", "094517.812500", "094513.972500", "094517.922500", "094514.082500", "094518.032500", "094514.192500", "094518.142500", "094514.302500", "094518.252500", "094514.412500", "094518.360000", "094514.520000", "094518.470000", "094514.630000", "094518.580000", "094514.740000", "094522.550000", "094518.710000", "094522.660000", "094518.820000", "094522.770000", "094518.930000", "094522.880000", "094519.040000", "094522.990000", "094519.150000", "094523.100000", "094519.260000", "094523.207500", "094519.367500", "094523.317500", "094519.477500", "094523.427500", "094519.587500", "094523.537500", "094519.697500", "094523.647500", "094519.807500", "094523.757500", "094519.917500", "094523.867500", "094520.027500", "094523.977500", "094520.137500", "094524.085000", "094520.247500", "094524.195000", "094520.355000", "094524.305000", "094520.465000", "094524.415000", "094520.575000", "094524.525000", "094520.685000", "094524.635000", "094520.795000", "094524.745000", "094520.905000", "094524.855000", "094521.015000", "094524.965000", "094521.125000", "094525.072500", "094521.232500", "094525.182500", "094521.342500", "094525.292500", "094521.452500", "094525.402500", "094521.562500", "094525.512500", "094521.672500", "094525.622500", "094521.782500", "094525.732500", "094521.892500", "094525.842500", "094522.002500", "094525.952500", "094522.112500", "094526.060000", "094522.220000", "094526.170000", "094522.330000", "094526.280000", "094522.440000", "094530.250000", "094526.410000", "094530.360000", "094526.520000", "094530.470000", "094526.630000", "094530.580000", "094526.740000", "094530.690000", "094526.850000", "094530.800000", "094526.960000", "094530.907500", "094527.067500", "094531.017500", "094527.177500", "094531.127500", "094527.287500", "094531.237500", "094527.397500", "094531.347500", "094527.507500", "094531.457500", "094527.617500", "094531.567500", "094527.727500", "094531.677500", "094527.837500", "094531.785000", "094527.947500", "094531.895000", "094528.055000", "094532.005000", "094528.165000", "094532.115000", "094528.275000", "094532.225000", "094528.385000", "094532.335000", "094528.495000", "094532.445000", "094528.605000", "094532.555000", "094528.715000", "094532.665000", "094528.825000", "094532.772500", "094528.932500", "094532.882500", "094529.042500", "094532.992500", "094529.152500", "094533.102500", "094529.262500", "094533.212500", "094529.372500", "094533.322500", "094529.482500", "094533.432500", "094529.592500", "094533.542500", "094529.702500", "094533.652500", "094529.812500", "094533.760000", "094529.920000", "094533.870000", "094530.030000", "094533.980000", "094530.140000", "094537.950000", "094534.110000", "094538.060000", "094534.220000", "094538.170000", "094534.330000", "094538.280000", "094534.440000", "094538.390000", "094534.550000", "094538.500000", "094534.660000", "094538.607500", "094534.767500", "094538.717500", "094534.877500", "094538.827500", "094534.987500", "094538.937500", "094535.097500", "094539.047500", "094535.207500", "094539.157500", "094535.317500", "094539.267500", "094535.427500", "094539.377500", "094535.537500", "094539.485000", "094535.647500", "094539.595000", "094535.755000", "094539.705000", "094535.865000", "094539.815000", "094535.975000", "094539.925000", "094536.085000", "094540.035000", "094536.195000", "094540.145000", "094536.305000", "094540.255000", "094536.415000", "094540.365000", "094536.525000", "094540.472500", "094536.632500", "094540.582500", "094536.742500", "094540.692500", "094536.852500", "094540.802500", "094536.962500", "094540.912500", "094537.072500", "094541.022500", "094537.182500", "094541.132500", "094537.292500", "094541.242500", "094537.402500", "094541.352500", "094537.512500", "094541.460000", "094537.620000", "094541.570000", "094537.730000", "094541.680000", "094537.840000", "094545.650000", "094541.810000", "094545.760000", "094541.920000", "094545.870000", "094542.030000", "094545.980000", "094542.140000", "094546.090000", "094542.250000", "094546.200000", "094542.360000", "094546.307500", "094542.467500", "094546.417500", "094542.577500", "094546.527500", "094542.687500", "094546.637500", "094542.797500", "094546.747500", "094542.907500", "094546.857500", "094543.017500", "094546.967500", "094543.127500", "094547.077500", "094543.237500", "094547.185000", "094543.347500", "094547.295000", "094543.455000", "094547.405000", "094543.565000", "094547.515000", "094543.675000", "094547.625000", "094543.785000", "094547.735000", "094543.895000", "094547.845000", "094544.005000", "094547.955000", "094544.115000", "094548.065000", "094544.225000", "094548.172500", "094544.332500", "094548.282500", "094544.442500", "094548.392500", "094544.552500", "094548.502500", "094544.662500", "094548.612500", "094544.772500", "094548.722500", "094544.882500", "094548.832500", "094544.992500", "094548.942500", "094545.102500", "094549.052500", "094545.212500", "094549.160000", "094545.320000", "094549.270000", "094545.430000", "094549.380000", "094545.540000", "094553.350000", "094549.510000", "094553.460000", "094549.620000", "094553.570000", "094549.730000", "094553.680000", "094549.840000", "094553.790000", "094549.950000", "094553.900000", "094550.060000", "094554.007500", "094550.167500", "094554.117500", "094550.277500", "094554.227500", "094550.387500", "094554.337500", "094550.497500", "094554.447500", "094550.607500", "094554.557500", "094550.717500", "094554.667500", "094550.827500", "094554.777500", "094550.937500", "094554.885000", "094551.047500", "094554.995000", "094551.155000", "094555.105000", "094551.265000", "094555.215000", "094551.375000", "094555.325000", "094551.485000", "094555.435000", "094551.595000", "094555.545000", "094551.705000", "094555.655000", "094551.815000", "094555.765000", "094551.925000", "094555.872500", "094552.032500", "094555.982500", "094552.142500", "094556.092500", "094552.252500", "094556.202500", "094552.362500", "094556.312500", "094552.472500", "094556.422500", "094552.582500", "094556.532500", "094552.692500", "094556.642500", "094552.802500", "094556.752500", "094552.912500", "094556.860000", "094553.020000", "094556.970000", "094553.130000", "094557.080000", "094553.240000", "094601.050000", "094557.210000", "094601.160000", "094557.320000", "094601.270000", "094557.430000", "094601.380000", "094557.540000", "094601.490000", "094557.650000", "094601.600000", "094557.760000", "094601.707500", "094557.867500", "094601.817500", "094557.977500", "094601.927500", "094558.087500", "094602.037500", "094558.197500", "094602.147500", "094558.307500", "094602.257500", "094558.417500", "094602.367500", "094558.527500", "094602.477500", "094558.637500", "094602.585000", "094558.747500", "094602.695000", "094558.855000", "094602.805000", "094558.965000", "094602.915000", "094559.075000", "094603.025000", "094559.185000", "094603.135000", "094559.295000", "094603.245000", "094559.405000", "094603.355000", "094559.515000", "094603.465000", "094559.625000", "094603.572500", "094559.732500", "094603.682500", "094559.842500", "094603.792500", "094559.952500", "094603.902500", "094600.062500", "094604.012500", "094600.172500", "094604.122500", "094600.282500", "094604.232500", "094600.392500", "094604.342500", "094600.502500", "094604.452500", "094600.612500", "094604.560000", "094600.720000", "094604.670000", "094600.830000", "094604.780000", "094600.940000", "094608.750000", "094604.910000", "094608.860000", "094605.020000", "094608.970000", "094605.130000", "094609.080000", "094605.240000", "094609.190000", "094605.350000", "094609.300000", "094605.460000", "094609.407500", "094605.567500", "094609.517500", "094605.677500", "094609.627500", "094605.787500", "094609.737500", "094605.897500", "094609.847500", "094606.007500", "094609.957500", "094606.117500", "094610.067500", "094606.227500", "094610.177500", "094606.337500", "094610.285000", "094606.447500", "094610.395000", "094606.555000", "094610.505000", "094606.665000", "094610.615000", "094606.775000", "094610.725000", "094606.885000", "094610.835000", "094606.995000", "094610.945000", "094607.105000", "094611.055000", "094607.215000", "094611.165000", "094607.325000", "094611.272500", "094607.432500", "094611.382500", "094607.542500", "094611.492500", "094607.652500", "094611.602500", "094607.762500", "094611.712500", "094607.872500", "094611.822500", "094607.982500", "094611.932500", "094608.092500", "094612.042500", "094608.202500", "094612.152500", "094608.312500", "094612.260000", "094608.420000", "094612.370000", "094608.530000", "094612.480000", "094608.640000", "094616.450000", "094612.610000", "094616.560000", "094612.720000", "094616.670000", "094612.830000", "094616.780000", "094612.940000", "094616.890000", "094613.050000", "094617.000000", "094613.160000", "094617.107500", "094613.267500", "094617.217500", "094613.377500", "094617.327500", "094613.487500", "094617.437500", "094613.597500", "094617.547500", "094613.707500", "094617.657500", "094613.817500", "094617.767500", "094613.927500", "094617.877500", "094614.037500", "094617.985000", "094614.147500", "094618.095000", "094614.255000", "094618.205000", "094614.365000", "094618.315000", "094614.475000", "094618.425000", "094614.585000", "094618.535000", "094614.695000", "094618.645000", "094614.805000", "094618.755000", "094614.915000", "094618.865000", "094615.025000", "094618.972500", "094615.132500", "094619.082500", "094615.242500", "094619.192500", "094615.352500", "094619.302500", "094615.462500", "094619.412500", "094615.572500", "094619.522500", "094615.682500", "094619.632500", "094615.792500", "094619.742500", "094615.902500", "094619.852500", "094616.012500", "094619.960000", "094616.120000", "094620.070000", "094616.230000", "094620.180000", "094616.340000", "094624.150000", "094620.310000", "094624.260000", "094620.420000", "094624.370000", "094620.530000", "094624.480000", "094620.640000", "094624.590000", "094620.750000", "094624.700000", "094620.860000", "094624.807500", "094620.967500", "094624.917500", "094621.077500", "094625.027500", "094621.187500", "094625.137500", "094621.297500", "094625.247500", "094621.407500", "094625.357500", "094621.517500", "094625.467500", "094621.627500", "094625.577500", "094621.737500", "094625.685000", "094621.847500", "094625.795000", "094621.955000", "094625.905000", "094622.065000", "094626.015000", "094622.175000", "094626.125000", "094622.285000", "094626.235000", "094622.395000", "094626.345000", "094622.505000", "094626.455000", "094622.615000", "094626.565000", "094622.725000", "094626.672500", "094622.832500", "094626.782500", "094622.942500", "094626.892500", "094623.052500", "094627.002500", "094623.162500", "094627.112500", "094623.272500", "094627.222500", "094623.382500", "094627.332500", "094623.492500", "094627.442500", "094623.602500", "094627.552500", "094623.712500", "094627.660000", "094623.820000", "094627.770000", "094623.930000", "094627.880000", "094624.040000", "094631.850000", "094628.010000", "094631.960000", "094628.120000", "094632.070000", "094628.230000", "094632.180000", "094628.340000", "094632.290000", "094628.450000", "094632.400000", "094628.560000", "094632.507500", "094628.667500", "094632.617500", "094628.777500", "094632.727500", "094628.887500", "094632.837500", "094628.997500", "094632.947500", "094629.107500", "094633.057500", "094629.217500", "094633.167500", "094629.327500", "094633.277500", "094629.437500", "094633.385000", "094629.547500", "094633.495000", "094629.655000", "094633.605000", "094629.765000", "094633.715000", "094629.875000", "094633.825000", "094629.985000", "094633.935000", "094630.095000", "094634.045000", "094630.205000", "094634.155000", "094630.315000", "094634.265000", "094630.425000", "094634.372500", "094630.532500", "094634.482500", "094630.642500", "094634.592500", "094630.752500", "094634.702500", "094630.862500", "094634.812500", "094630.972500", "094634.922500", "094631.082500", "094635.032500", "094631.192500", "094635.142500", "094631.302500", "094635.252500", "094631.412500", "094635.360000", "094631.520000", "094635.470000", "094631.630000", "094635.580000", "094631.740000", "094639.550000", "094635.710000", "094639.660000", "094635.820000", "094639.770000", "094635.930000", "094639.880000", "094636.040000", "094639.990000", "094636.150000", "094640.100000", "094636.260000", "094640.207500", "094636.367500", "094640.317500", "094636.477500", "094640.427500", "094636.587500", "094640.537500", "094636.697500", "094640.647500", "094636.807500", "094640.757500", "094636.917500", "094640.867500", "094637.027500", "094640.977500", "094637.137500", "094641.085000", "094637.247500", "094641.195000", "094637.355000", "094641.305000", "094637.465000", "094641.415000", "094637.575000", "094641.525000", "094637.685000", "094641.635000", "094637.795000", "094641.745000", "094637.905000", "094641.855000", "094638.015000", "094641.965000", "094638.125000", "094642.072500", "094638.232500", "094642.182500", "094638.342500", "094642.292500", "094638.452500", "094642.402500", "094638.562500", "094642.512500", "094638.672500", "094642.622500", "094638.782500", "094642.732500", "094638.892500", "094642.842500", "094639.002500", "094642.952500", "094639.112500", "094643.060000", "094639.220000", "094643.170000", "094639.330000", "094643.280000", "094639.440000", "094647.250000", "094643.410000", "094647.360000", "094643.520000", "094647.470000", "094643.630000", "094647.580000", "094643.740000", "094647.690000", "094643.850000", "094647.800000", "094643.960000", "094647.907500", "094644.067500", "094648.017500", "094644.177500", "094648.127500", "094644.287500", "094648.237500", "094644.397500", "094648.347500", "094644.507500", "094648.457500", "094644.617500", "094648.567500", "094644.727500", "094648.677500", "094644.837500", "094648.785000", "094644.947500", "094648.895000", "094645.055000", "094649.005000", "094645.165000", "094649.115000", "094645.275000", "094649.225000", "094645.385000", "094649.335000", "094645.495000", "094649.445000", "094645.605000", "094649.555000", "094645.715000", "094649.665000", "094645.825000", "094649.772500", "094645.932500", "094649.882500", "094646.042500", "094649.992500", "094646.152500", "094650.102500", "094646.262500", "094650.212500", "094646.372500", "094650.322500", "094646.482500", "094650.432500", "094646.592500", "094650.542500", "094646.702500", "094650.652500", "094646.812500", "094650.760000", "094646.920000", "094650.870000", "094647.030000", "094650.980000", "094647.140000", "094654.950000", "094651.110000", "094655.060000", "094651.220000", "094655.170000", "094651.330000", "094655.280000", "094651.440000", "094655.390000", "094651.550000", "094655.500000", "094651.660000", "094655.607500", "094651.767500", "094655.717500", "094651.877500", "094655.827500", "094651.987500", "094655.937500", "094652.097500", "094656.047500", "094652.207500", "094656.157500", "094652.317500", "094656.267500", "094652.427500", "094656.377500", "094652.537500", "094656.485000", "094652.647500", "094656.595000", "094652.755000", "094656.705000", "094652.865000", "094656.815000", "094652.975000", "094656.925000", "094653.085000", "094657.035000", "094653.195000", "094657.145000", "094653.305000", "094657.255000", "094653.415000", "094657.365000", "094653.525000", "094657.472500", "094653.632500", "094657.582500", "094653.742500", "094657.692500", "094653.852500", "094657.802500", "094653.962500", "094657.912500", "094654.072500", "094658.022500", "094654.182500", "094658.132500", "094654.292500", "094658.242500", "094654.402500", "094658.352500", "094654.512500", "094658.460000", "094654.620000", "094658.570000", "094654.730000", "094658.680000", "094654.840000", "094702.650000", "094658.810000", "094702.760000", "094658.920000", "094702.870000", "094659.030000", "094702.980000", "094659.140000", "094703.090000", "094659.250000", "094703.200000", "094659.360000", "094703.307500", "094659.467500", "094703.417500", "094659.577500", "094703.527500", "094659.687500", "094703.637500", "094659.797500", "094703.747500", "094659.907500", "094703.857500", "094700.017500", "094703.967500", "094700.127500", "094704.077500", "094700.237500", "094704.185000", "094700.347500", "094704.295000", "094700.455000", "094704.405000", "094700.565000", "094704.515000", "094700.675000", "094704.625000", "094700.785000", "094704.735000", "094700.895000", "094704.845000", "094701.005000", "094704.955000", "094701.115000", "094705.065000", "094701.225000", "094705.172500", "094701.332500", "094705.282500", "094701.442500", "094705.392500", "094701.552500", "094705.502500", "094701.662500", "094705.612500", "094701.772500", "094705.722500", "094701.882500", "094705.832500", "094701.992500", "094705.942500", "094702.102500", "094706.052500", "094702.212500", "094706.160000", "094702.320000", "094706.270000", "094702.430000", "094706.380000", "094702.540000", "094710.350000", "094706.510000", "094710.460000", "094706.620000", "094710.570000", "094706.730000", "094710.680000", "094706.840000", "094710.790000", "094706.950000", "094710.900000", "094707.060000", "094711.007500", "094707.167500", "094711.117500", "094707.277500", "094711.227500", "094707.387500", "094711.337500", "094707.497500", "094711.447500", "094707.607500", "094711.557500", "094707.717500", "094711.667500", "094707.827500", "094711.777500", "094707.937500", "094711.885000", "094708.047500", "094711.995000", "094708.155000", "094712.105000", "094708.265000", "094712.215000", "094708.375000", "094712.325000", "094708.485000", "094712.435000", "094708.595000", "094712.545000", "094708.705000", "094712.655000", "094708.815000", "094712.765000", "094708.925000", "094712.872500", "094709.032500", "094712.982500", "094709.142500", "094713.092500", "094709.252500", "094713.202500", "094709.362500", "094713.312500", "094709.472500", "094713.422500", "094709.582500", "094713.532500", "094709.692500", "094713.642500", "094709.802500", "094713.752500", "094709.912500", "094713.860000", "094710.020000", "094713.970000", "094710.130000", "094714.080000", "094710.240000", "094718.050000", "094714.210000", "094718.160000", "094714.320000", "094718.270000", "094714.430000", "094718.380000", "094714.540000", "094718.490000", "094714.650000", "094718.600000", "094714.760000", "094718.707500", "094714.867500", "094718.817500", "094714.977500", "094718.927500", "094715.087500", "094719.037500", "094715.197500", "094719.147500", "094715.307500", "094719.257500", "094715.417500", "094719.367500", "094715.527500", "094719.477500", "094715.637500", "094719.585000", "094715.747500", "094719.695000", "094715.855000", "094719.805000", "094715.965000", "094719.9150