{
  "AcquisitionMatrixPE": 80,
  "AcquisitionNumber": 1,
  "AcquisitionTime": "09:44:9.085000",
  "BandwidthPerPixelPhaseEncode": 46.296,
  "BaseResolution": 80,
  "BodyPartExamined": "BRAIN",
  "CoilCombinationMethod": "Sum of Squares",
  "ConsistencyInfo": "N4_VE11E_LATEST_20181129",
  "ConversionSoftware": "dcm2niix",
  "ConversionSoftwareVersion": "v1.0.20220720",
  "DerivedVendorReportedEchoSpacing": 0.000540003,
  "DeviceSerialNumber": "66112",
  "DwellTime": 2.7e-06,
  "EchoTime": 0.035,
  "EchoTrainLength": 39,
  "EffectiveEchoSpacing": 0.000270002,
  "FlipAngle": 90,
  "HeudiconvVersion": "0.13.1",
  "ImageOrientationPatientDICOM": [0.991953, -0.126526, 0.0044695, 0.119337, 0.946213, 0.300732],
  "ImageOrientationText": "Tra>Cor(17.3)>Sag(2.4)",
  "ImageType": [
    "ORIGINAL",
    "PRIMARY",
    "M",
    "ND",
    "NORM",
    "MOSAIC"
],
  "ImagingFrequency": 123.259,
  "InPlanePhaseEncodingDirectionDICOM": "COL",
  "InstitutionAddress": "Maynard 3,Hanover,NH,US,03755",
  "InstitutionName": "Dartmouth College - PBS",
  "InstitutionalDepartmentName": "Department",
  "MRAcquisitionType": "2D",
  "MagneticFieldStrength": 3,
  "Manufacturer": "Siemens",
  "ManufacturersModelName": "Prisma",
  "Modality": "MR",
  "MultibandAccelerationFactor": 4,
  "NonlinearGradientCorrection": false,
  "ParallelReductionFactorInPlane": 2,
  "PartialFourier": 1,
  "PatientPosition": "HFS",
  "PercentPhaseFOV": 100,
  "PercentSampling": 100,
  "PhaseEncodingDirection": "j-",
  "PhaseEncodingSteps": 79,
  "PhaseResolution": 1,
  "PixelBandwidth": 2315,
  "ProcedureStepDescription": "dbic^QA",
  "ProtocolName": "func-bold_task-rest_acq-p2-s4-3.5mm",
  "PulseSequenceDetails": "%SiemensSeq%\\ep2d_bold",
  "ReceiveCoilActiveElements": "HEA;HEP",
  "ReceiveCoilName": "Head_32",
  "ReconMatrixPE": 80,
  "RefLinesPE": 24,
  "RepetitionTime": 2,
  "SAR": 0.0207157,
  "ScanOptions": "FS",
  "ScanningSequence": "EP",
  "SequenceName": "*epfid2d1_80",
  "SequenceVariant": "SK",
  "SeriesDescription": "func-bold_task-rest_acq-p2-s4-3.5mm",
  "SeriesNumber": 6,
  "ShimSetting": [4220, -7743, -7494, -31, -136, -19, 2, 77],
  "SliceThickness": 3.5,
  "SliceTiming": [1.485, 0, 0.99, 0.2475, 1.2375, 0.7425, 1.7325, 0.495, 1.485, 0, 0.99, 0.2475, 1.2375, 0.7425, 1.7325, 0.495, 1.485, 0, 0.99, 0.2475, 1.2375, 0.7425, 1.7325, 0.495, 1.485, 0, 0.99, 0.2475, 1.2375, 0.7425, 1.7325, 0.495],
  "SoftwareVersions": "syngo MR E11",
  "SpacingBetweenSlices": 3.99,
  "StationName": "AWP66112",
  "TaskName": "rest",
  "TotalReadoutTime": 0.0213301,
  "TxRefAmp": 226.784,
  "dcmmeta_affine": [
    [-2.9758596420288086, 0.35801076889038086, 0.16869574785232544, 101.11883544921875],
    [0.37957876920700073, 2.8386385440826416, 1.1881383657455444, -145.91847229003906],
    [0.013408496975898743, -0.9021971225738525, 3.80525541305542, -22.538530349731445],
    [0.0, 0.0, 0.0, 1.0]
],
  "dcmmeta_reorient_transform": [
    [0.0, -1.0, 0.0, 79.0],
    [1.0, 0.0, 0.0, 0.0],
    [0.0, 0.0, 1.0, 0.0],
    [0.0, 0.0, 0.0, 1.0]
],
  "dcmmeta_shape": [80, 80, 32, 200],
  "dcmmeta_slice_dim": 2,
  "dcmmeta_version": 0.6,
  "global": {
    "const": {
      "AccessionNumber": "qa",
      "AcquisitionMatrix": [80, 0, 0, 80],
      "AngioFlag": "N",
      "BitsAllocated": 16,
      "BitsStored": 12,
      "BodyPartExamined": "BRAIN",
      "Columns": 480,
      "EchoNumbers": 1,
      "EchoTime": 35.0,
      "EchoTrainLength": 39,
      "FlipAngle": 90.0,
      "HighBit": 11,
      "ImageOrientationPatient": [0.99195318970081, -0.1265262542792, 0.00446949890736, 0.11933692525695, 0.94621284192491, 0.30073236614407],
      "ImagePositionPatient": [-796.1757527628, -570.14591788826, -276.93322049206],
      "ImageType": [
        "ORIGINAL",
        "PRIMARY",
        "M",
        "ND",
        "NORM",
        "MOSAIC"
],
      "ImagedNucleus": "1H",
      "ImagingFrequency": 123.25912,
      "InPlanePhaseEncodingDirection": "COL",
      "MRAcquisitionType": "2D",
      "MagneticFieldStrength": 3.0,
      "Manufacturer": "SIEMENS",
      "ManufacturerModelName": "Prisma",
      "Modality": "MR",
      "NumberOfAverages": 1.0,
      "NumberOfPhaseEncodingSteps": 79,
      "PercentPhaseFieldOfView": 100.0,
      "PercentSampling": 100.0,
      "PerformedProcedureStepStartTime": "093144.436000",
      "PhotometricInterpretation": "MONOCHROME2",
      "PixelBandwidth": 2315.0,
      "PixelRepresentation": 0,
      "PixelSpacing": [3.0, 3.0],
      "ProtocolName": "func-bold_task-rest_acq-p2-s4-3.5mm",
      "RepetitionTime": 2000.0,
      "Rows": 480,
      "SAR": 0.02071572792061,
      "SamplesPerPixel": 1,
      "ScanOptions": "FS",
      "ScanningSequence": "EP",
      "SequenceName": "*epfid2d1_80",
      "SequenceVariant": "SK",
      "SeriesDescription": "func-bold_task-rest_acq-p2-s4-3.5mm",
      "SeriesNumber": 6,
      "SeriesTime": "094500.515000",
      "SliceLocation": -60.671152718184,
      "SliceThickness": 3.5,
      "SmallestImagePixelValue": 0,
      "SoftwareVersions": "syngo MR E11",
      "SpacingBetweenSlices": 3.9899999715403,
      "SpecificCharacterSet": "ISO_IR 100",
      "StudyID": "20",
      "StudyTime": "093144.380000",
      "TransmitCoilName": "Body",
      "VariableFlipAngleFlag": "N",
      "WindowCenterWidthExplanation": "Algo1"
    },
    "slices": {}
  },
  "time": {
    "samples": {
      "AcquisitionNumber": [1, 2, 3, 4, 5, 6, 7, 8, 9, 10, 11, 12, 13, 14, 15, 16, 17, 18, 19, 20, 21, 22, 23, 24, 25, 26, 27, 28, 29, 30, 31, 32, 33, 34, 35, 36, 37, 38, 39, 40, 41, 42, 43, 44, 45, 46, 47, 48, 49, 50, 51, 52, 53, 54, 55, 56, 57, 58, 59, 60, 61, 62, 63, 64, 65, 66, 67, 68, 69, 70, 71, 72, 73, 74, 75, 76, 77, 78, 79, 80, 81, 82, 83, 84, 85, 86, 87, 88, 89, 90, 91, 92, 93, 94, 95, 96, 97, 98, 99, 100, 101, 102, 103, 104, 105, 106, 107, 108, 109, 110, 111, 112, 113, 114, 115, 116, 117, 118, 119, 120, 121, 122, 123, 124, 125, 126, 127, 128, 129, 130, 131, 132, 133, 134, 135, 136, 137, 138, 139, 140, 141, 142, 143, 144, 145, 146, 147, 148, 149, 150, 151, 152, 153, 154, 155, 156, 157, 158, 159, 160, 161, 162, 163, 164, 165, 166, 167, 168, 169, 170, 171, 172, 173, 174, 175, 176, 177, 178, 179, 180, 181, 182, 183, 184, 185, 186, 187, 188, 189, 190, 191, 192, 193, 194, 195, 196, 197, 198, 199, 200],
      "AcquisitionTime": ["094409.085000", "094411.085000", "094413.085000", "094415.085000", "094417.085000", "094419.085000", "094421.085000", "094423.085000", "094425.085000", "094427.085000", "094429.085000", "094431.085000", "094433.085000", "094435.085000", "094437.085000", "094439.085000", "094441.085000", "094443.085000", "094445.085000", "094447.085000", "094449.085000", "094451.085000", "094453.085000", "094455.085000", "094457.085000", "094459.085000", "094501.085000", "094503.085000", "094505.085000", "094507.085000", "094509.085000", "094511.085000", "094513.085000", "094515.085000", "094517.085000", "094519.085000", "094521.085000", "094523.085000", "094525.085000", "094527.085000", "094529.085000", "094531.085000", "094533.085000", "094535.085000", "094537.085000", "094539.085000", "094541.085000", "094543.085000", "094545.085000", "094547.085000", "094549.085000", "094551.085000", "094553.085000", "094555.085000", "094557.085000", "094559.085000", "094601.085000", "094603.085000", "094605.085000", "094607.085000", "094609.085000", "094611.085000", "094613.085000", "094615.085000", "094617.085000", "094619.085000", "094621.085000", "094623.085000", "094625.085000", "094627.085000", "094629.085000", "094631.085000", "094633.085000", "094635.085000", "094637.085000", "094639.085000", "094641.085000", "094643.085000", "094645.085000", "094647.085000", "094649.085000", "094651.085000", "094653.085000", "094655.085000", "094657.085000", "094659.085000", "094701.085000", "094703.085000", "094705.085000", "094707.085000", "094709.085000", "094711.085000", "094713.085000", "094715.085000", "094717.085000", "094719.085000", "094721.085000", "094723.085000", "094725.085000", "094727.085000", "094729.085000", "094731.085000", "094733.085000", "094735.085000", "094737.085000", "094739.085000", "094741.085000", "094743.085000", "094745.085000", "094747.085000", "094749.085000", "094751.085000", "094753.085000", "094755.085000", "094757.085000", "094759.085000", "094801.085000", "094803.085000", "094805.085000", "094807.085000", "094809.085000", "094811.085000", "094813.085000", "094815.085000", "094817.085000", "094819.085000", "094821.085000", "094823.085000", "094825.085000", "094827.085000", "094829.085000", "094831.085000", "094833.085000", "094835.085000", "094837.085000", "094839.085000", "094841.085000", "094843.085000", "094845.085000", "094847.085000", "094849.085000", "094851.085000", "094853.085000", "094855.085000", "094857.085000", "094859.085000", "094901.085000", "094903.085000", "094905.085000", "094907.085000", "094909.085000", "094911.085000", "094913.085000", "094915.085000", "094917.085000", "094919.085000", "094921.085000", "094923.085000", "094925.085000", "094927.085000", "094929.085000", "094931.085000", "094933.085000", "094935.085000", "094937.085000", "094939.085000", "094941.085000", "094943.085000", "094945.085000", "094947.085000", "094949.085000", "094951.085000", "094953.085000", "094955.085000", "094957.085000", "094959.085000", "095001.085000", "095003.085000", "095005.085000", "095007.085000", "095009.085000", "095011.085000", "095013.085000", "095015.085000", "095017.085000", "095019.085000", "095021.085000", "095023.085000", "095025.085000", "095027.085000", "095029.085000", "095031.085000", "095033.085000", "095035.085000", "095037.085000", "095039.085000", "095041.085000", "095043.085000", "095045.085000", "095047.085000"],
      "ContentTime": ["094500.518000", "094500.521000", "094500.524000", "094500.526000", "094500.528000", "094500.531000", "094500.533000", "094500.535000", "094500.538000", "094500.540000", "094500.542000", "094500.545000", "094500.547000", "094500.549000", "094500.552000", "094500.554000", "094500.556000", "094500.558000", "094500.561000", "094500.563000", "094500.565000", "094500.568000", "094500.578000", "094500.580000", "094500.582000", "094500.585000", "094540.513000", "094540.516000", "094540.518000", "094540.521000", "094540.523000", "094540.525000", "094540.528000", "094540.530000", "094540.532000", "094540.535000", "094540.537000", "094540.539000", "094540.542000", "094540.544000", "094540.546000", "094540.549000", "094540.551000", "094540.553000", "094540.556000", "094540.558000", "094620.514000", "094620.517000", "094620.519000", "094620.521000", "094620.524000", "094620.526000", "094620.528000", "094620.531000", "094620.533000", "094620.536000", "094620.539000", "094620.541000", "094620.544000", "094620.546000", "094620.548000", "094620.551000", "094620.553000", "094620.555000", "094620.558000", "094620.560000", "094700.514000", "094700.517000", "094700.519000", "094700.522000", "094700.524000", "094700.526000", "094700.529000", "094700.531000", "094700.533000", "094700.536000", "094700.538000", "094700.540000", "094700.542000", "094700.545000", "094700.547000", "094700.549000", "094700.552000", "094700.554000", "094700.556000", "094700.559000", "094740.513000", "094740.516000", "094740.518000", "094740.520000", "094740.523000", "094740.525000", "094740.527000", "094740.530000", "094740.532000", "094740.534000", "094740.537000", "094740.539000", "094740.541000", "094740.544000", "094740.546000", "094740.548000", "094740.551000", "094740.553000", "094740.555000", "094740.558000", "094820.513000", "094820.516000", "094820.518000", "094820.521000", "094820.523000", "094820.526000", "094820.528000", "094820.530000", "094820.533000", "094820.535000", "094820.537000", "094820.540000", "094820.542000", "094820.544000", "094820.547000", "094820.549000", "094820.551000", "094820.554000", "094820.556000", "094820.559000", "094900.514000", "094900.517000", "094900.519000", "094900.521000", "094900.524000", "094900.526000", "094900.528000", "094900.531000", "094900.533000", "094900.535000", "094900.538000", "094900.540000", "094900.542000", "094900.545000", "094900.547000", "094900.549000", "094900.551000", "094900.554000", "094900.556000", "094900.558000", "094940.513000", "094940.516000", "094940.527000", "094940.529000", "094940.531000", "094940.534000", "094940.536000", "094940.538000", "094940.541000", "094940.543000", "094940.545000", "094940.548000", "094940.550000", "094940.552000", "094940.555000", "094940.557000", "094940.559000", "094940.562000", "094940.564000", "094940.566000", "095020.513000", "095020.516000", "095020.518000", "095020.520000", "095020.535000", "095020.537000", "095020.540000", "095020.542000", "095020.544000", "095020.547000", "095020.549000", "095020.551000", "095020.554000", "095020.556000", "095020.558000", "095020.560000", "095020.563000", "095020.565000", "095020.568000", "095020.570000", "095048.459000", "095048.462000", "095048.464000", "095048.467000", "095048.469000", "095048.472000", "095048.474000", "095048.477000", "095048.479000", "095048.482000", "095048.484000", "095048.487000", "095048.489000", "095048.492000"],
      "InstanceCreationTime": ["094500.518000", "094500.521000", "094500.524000", "094500.526000", "094500.528000", "094500.531000", "094500.533000", "094500.535000", "094500.538000", "094500.540000", "094500.542000", "094500.545000", "094500.547000", "094500.549000", "094500.552000", "094500.554000", "094500.556000", "094500.558000", "094500.561000", "094500.563000", "094500.565000", "094500.568000", "094500.578000", "094500.580000", "094500.582000", "094500.585000", "094540.513000", "094540.516000", "094540.518000", "094540.521000", "094540.523000", "094540.525000", "094540.528000", "094540.530000", "094540.532000", "094540.535000", "094540.537000", "094540.539000", "094540.542000", "094540.544000", "094540.546000", "094540.549000", "094540.551000", "094540.553000", "094540.556000", "094540.558000", "094620.514000", "094620.517000", "094620.519000", "094620.521000", "094620.524000", "094620.526000", "094620.528000", "094620.531000", "094620.533000", "094620.536000", "094620.539000", "094620.541000", "094620.544000", "094620.546000", "094620.548000", "094620.551000", "094620.553000", "094620.555000", "094620.558000", "094620.560000", "094700.514000", "094700.517000", "094700.519000", "094700.522000", "094700.524000", "094700.526000", "094700.529000", "094700.531000", "094700.533000", "094700.536000", "094700.538000", "094700.540000", "094700.542000", "094700.545000", "094700.547000", "094700.549000", "094700.552000", "094700.554000", "094700.556000", "094700.559000", "094740.513000", "094740.516000", "094740.518000", "094740.520000", "094740.523000", "094740.525000", "094740.527000", "094740.530000", "094740.532000", "094740.534000", "094740.537000", "094740.539000", "094740.541000", "094740.544000", "094740.546000", "094740.548000", "094740.551000", "094740.553000", "094740.555000", "094740.558000", "094820.513000", "094820.516000", "094820.518000", "094820.521000", "094820.523000", "094820.526000", "094820.528000", "094820.530000", "094820.533000", "094820.535000", "094820.537000", "094820.540000", "094820.542000", "094820.544000", "094820.547000", "094820.549000", "094820.551000", "094820.554000", "094820.556000", "094820.559000", "094900.514000", "094900.517000", "094900.519000", "094900.521000", "094900.524000", "094900.526000", "094900.528000", "094900.531000", "094900.533000", "094900.535000", "094900.538000", "094900.540000", "094900.542000", "094900.545000", "094900.547000", "094900.549000", "094900.551000", "094900.554000", "094900.556000", "094900.558000", "094940.513000", "094940.516000", "094940.527000", "094940.529000", "094940.531000", "094940.534000", "094940.536000", "094940.538000", "094940.541000", "094940.543000", "094940.545000", "094940.548000", "094940.550000", "094940.552000", "094940.555000", "094940.557000", "094940.559000", "094940.562000", "094940.564000", "094940.566000", "095020.513000", "095020.516000", "095020.518000", "095020.520000", "095020.535000", "095020.537000", "095020.540000", "095020.542000", "095020.544000", "095020.547000", "095020.549000", "095020.551000", "095020.554000", "095020.556000", "095020.558000", "095020.560000", "095020.563000", "095020.565000", "095020.568000", "095020.570000", "095048.459000", "095048.462000", "095048.464000", "095048.467000", "095048.469000", "095048.472000", "095048.474000", "095048.477000", "095048.479000", "095048.482000", "095048.484000", "095048.487000", "095048.489000", "095048.492000"],
      "InstanceNumber": [1, 2, 3, 4, 5, 6, 7, 8, 9, 10, 11, 12, 13, 14, 15, 16, 17, 18, 19, 20, 21, 22, 23, 24, 25, 26, 27, 28, 29, 30, 31, 32, 33, 34, 35, 36, 37, 38, 39, 40, 41, 42, 43, 44, 45, 46, 47, 48, 49, 50, 51, 52, 53, 54, 55, 56, 57, 58, 59, 60, 61, 62, 63, 64, 65, 66, 67, 68, 69, 70, 71, 72, 73, 74, 75, 76, 77, 78, 79, 80, 81, 82, 83, 84, 85, 86, 87, 88, 89, 90, 91, 92, 93, 94, 95, 96, 97, 98, 99, 100, 101, 102, 103, 104, 105, 106, 107, 108, 109, 110, 111, 112, 113, 114, 115, 116, 117, 118, 119, 120, 121, 122, 123, 124, 125, 126, 127, 128, 129, 130, 131, 132, 133, 134, 135, 136, 137, 138, 139, 140, 141, 142, 143, 144, 145, 146, 147, 148, 149, 150, 151, 152, 153, 154, 155, 156, 157, 158, 159, 160, 161, 162, 163, 164, 165, 166, 167, 168, 169, 170, 171, 172, 173, 174, 175, 176, 177, 178, 179, 180, 181, 182, 183, 184, 185, 186, 187, 188, 189, 190, 191, 192, 193, 194, 195, 196, 197, 198, 199, 200],
      "LargestImagePixelValue": [2169, 2170, 2169, 2168, 2168, 2172, 2170, 2172, 2169, 2167, 2165, 2168, 2171, 2171, 2170, 2169, 2171, 2168, 2170, 2172, 2165, 2165, 2173, 2171, 2166, 2169, 2172, 2169, 2170, 2169, 2170, 2171, 2172, 2170, 2166, 2166, 2170, 2169, 2165, 2170, 2168, 2166, 2168, 2172, 2169, 2167, 2173, 2171, 2169, 2169, 2169, 2169, 2167, 2168, 2170, 2169, 2171, 2169, 2171, 2168, 2171, 2168, 2165, 2169, 2164, 2167, 2165, 2168, 2169, 2168, 2173, 2169, 2169, 2169, 2171, 2170, 2171, 2171, 2166, 2167, 2170, 2169, 2169, 2168, 2168, 2169, 2172, 2167, 2170, 2171, 2168, 2169, 2172, 2166, 2170, 2167, 2167, 2168, 2167, 2170, 2168, 2170, 2167, 2169, 2169, 2172, 2171, 2169, 2169, 2167, 2168, 2171, 2171, 2168, 2174, 2168, 2166, 2170, 2169, 2164, 2166, 2169, 2165, 2164, 2169, 2168, 2168, 2166, 2168, 2171, 2168, 2168, 2168, 2169, 2174, 2172, 2173, 2167, 2172, 2175, 2173, 2166, 2168, 2172, 2166, 2168, 2169, 2168, 2169, 2168, 2165, 2163, 2169, 2169, 2170, 2165, 2166, 2164, 2166, 2165, 2170, 2168, 2163, 2166, 2172, 2166, 2167, 2170, 2171, 2166, 2167, 2174, 2166, 2169, 2168, 2167, 2164, 2170, 2170, 2166, 2166, 2166, 2168, 2169, 2171, 2167, 2167, 2169, 2169, 2168, 2170, 2168, 2165, 2164, 2165, 2163, 2165, 2170, 2167, 2170],
      "WindowCenter": [968.0, 966.0, 967.0, 968.0, 967.0, 967.0, 966.0, 967.0, 967.0, 967.0, 968.0, 968.0, 967.0, 966.0, 968.0, 966.0, 966.0, 967.0, 968.0, 967.0, 967.0, 967.0, 967.0, 966.0, 966.0, 967.0, 967.0, 967.0, 967.0, 966.0, 967.0, 967.0, 966.0, 967.0, 967.0, 967.0, 968.0, 967.0, 968.0, 967.0, 967.0, 967.0, 968.0, 966.0, 967.0, 967.0, 968.0, 968.0, 967.0, 967.0, 967.0, 966.0, 966.0, 967.0, 967.0, 967.0, 967.0, 967.0, 966.0, 967.0, 967.0, 967.0, 967.0, 966.0, 966.0, 967.0, 967.0, 967.0, 966.0, 966.0, 967.0, 967.0, 967.0, 967.0, 966.0, 967.0, 967.0, 967.0, 967.0, 966.0, 967.0, 966.0, 967.0, 967.0, 967.0, 967.0, 968.0, 967.0, 968.0, 967.0, 968.0, 967.0, 966.0, 967.0, 967.0, 967.0, 967.0, 967.0, 967.0, 967.0, 967.0, 966.0, 967.0, 967.0, 968.0, 968.0, 967.0, 967.0, 967.0, 968.0, 967.0, 967.0, 967.0, 967.0, 967.0, 967.0, 968.0, 967.0, 966.0, 966.0, 967.0, 968.0, 967.0, 968.0, 967.0, 967.0, 968.0, 966.0, 966.0, 967.0, 967.0, 967.0, 968.0, 968.0, 967.0, 967.0, 966.0, 968.0, 967.0, 966.0, 967.0, 967.0, 967.0, 967.0, 967.0, 966.0, 967.0, 967.0, 967.0, 967.0, 967.0, 967.0, 966.0, 966.0, 966.0, 967.0, 967.0, 967.0, 968.0, 967.0, 968.0, 967.0, 967.0, 967.0, 967.0, 968.0, 967.0, 967.0, 967.0, 967.0, 967.0, 967.0, 966.0, 967.0, 966.0, 967.0, 967.0, 967.0, 966.0, 967.0, 967.0, 966.0, 967.0, 967.0, 966.0, 966.0, 967.0, 966.0, 967.0, 967.0, 967.0, 967.0, 967.0, 967.0, 967.0, 966.0, 967.0, 967.0, 967.0, 967.0],
      "WindowWidth": [2285.0, 2283.0, 2284.0, 2285.0, 2284.0, 2284.0, 2283.0, 2284.0, 2284.0, 2284.0, 2284.0, 2285.0, 2284.0, 2283.0, 2285.0, 2283.0, 2283.0, 2284.0, 2285.0, 2284.0, 2283.0, 2284.0, 2284.0, 2283.0, 2283.0, 2284.0, 2284.0, 2284.0, 2284.0, 2283.0, 2284.0, 2284.0, 2283.0, 2284.0, 2284.0, 2284.0, 2285.0, 2283.0, 2285.0, 2284.0, 2284.0, 2284.0, 2285.0, 2283.0, 2284.0, 2284.0, 2285.0, 2284.0, 2284.0, 2284.0, 2284.0, 2283.0, 2283.0, 2284.0, 2283.0, 2284.0, 2284.0, 2284.0, 2283.0, 2284.0, 2284.0, 2284.0, 2284.0, 2283.0, 2283.0, 2284.0, 2284.0, 2284.0, 2283.0, 2283.0, 2284.0, 2284.0, 2283.0, 2284.0, 2283.0, 2284.0, 2284.0, 2284.0, 2284.0, 2283.0, 2284.0, 2283.0, 2283.0, 2283.0, 2284.0, 2284.0, 2284.0, 2284.0, 2285.0, 2283.0, 2284.0, 2284.0, 2283.0, 2284.0, 2284.0, 2283.0, 2283.0, 2283.0, 2283.0, 2283.0, 2283.0, 2283.0, 2283.0, 2283.0, 2284.0, 2284.0, 2283.0, 2283.0, 2283.0, 2284.0, 2283.0, 2284.0, 2283.0, 2283.0, 2283.0, 2284.0, 2284.0, 2283.0, 2283.0, 2282.0, 2283.0, 2284.0, 2283.0, 2284.0, 2283.0, 2283.0, 2283.0, 2282.0, 2283.0, 2283.0, 2283.0, 2283.0, 2284.0, 2284.0, 2283.0, 2283.0, 2282.0, 2283.0, 2283.0, 2282.0, 2283.0, 2283.0, 2283.0, 2283.0, 2283.0, 2282.0, 2283.0, 2283.0, 2283.0, 2283.0, 2283.0, 2283.0, 2282.0, 2282.0, 2282.0, 2283.0, 2283.0, 2283.0, 2283.0, 2283.0, 2283.0, 2283.0, 2283.0, 2283.0, 2283.0, 2283.0, 2283.0, 2283.0, 2283.0, 2283.0, 2283.0, 2283.0, 2282.0, 2283.0, 2282.0, 2283.0, 2283.0, 2283.0, 2282.0, 2283.0, 2283.0, 2282.0, 2283.0, 2284.0, 2283.0, 2282.0, 2282.0, 2282.0, 2282.0, 2283.0, 2283.0, 2283.0, 2283.0, 2283.0, 2283.0, 2282.0, 2283.0, 2283.0, 2283.0, 2282.0]
    },
    "slices": {}
  }
}