{
  "AcquisitionMatrixPE": 80,
  "AcquisitionNumber": 1,
  "AcquisitionTime": "08:36:48.220000",
  "BandwidthPerPixelPhaseEncode": 48.077,
  "BaseResolution": 80,
  "BodyPartExamined": "BRAIN",
  "CoilCombinationMethod": "Sum of Squares",
  "ConsistencyInfo": "N4_VE11C_LATEST_20160120",
  "ConversionSoftware": "dcm2niix",
  "ConversionSoftwareVersion": "v1.0.20220720",
  "DerivedVendorReportedEchoSpacing": 0.000519999,
  "DeviceSerialNumber": "66112",
  "DwellTime": 2.7e-06,
  "EchoTime": 0.035,
  "EchoTrainLength": 39,
  "EffectiveEchoSpacing": 0.00026,
  "FlipAngle": 90,
  "HeudiconvVersion": "0.13.1",
  "ImageOrientationPatientDICOM": [0.98319, 0.182153, 0.0125813, -0.176727, 0.932052, 0.316302],
  "ImageOrientationText": "Tra>Cor(18.3)>Sag(-2.6)",
  "ImageType": [
    "ORIGINAL",
    "PRIMARY",
    "M",
    "ND",
    "NORM",
    "MOSAIC"
],
  "ImagingFrequency": 123.252,
  "InPlanePhaseEncodingDirectionDICOM": "COL",
  "InstitutionAddress": "Maynard 3,Hanover,NH,US,03755",
  "InstitutionName": "Dartmouth College - PBS",
  "InstitutionalDepartmentName": "Department",
  "MRAcquisitionType": "2D",
  "MagneticFieldStrength": 3,
  "Manufacturer": "Siemens",
  "ManufacturersModelName": "Prisma",
  "MatrixCoilMode": "GRAPPA",
  "Modality": "MR",
  "NonlinearGradientCorrection": false,
  "ParallelReductionFactorInPlane": 2,
  "PartialFourier": 1,
  "PatientPosition": "HFS",
  "PercentPhaseFOV": 100,
  "PercentSampling": 100,
  "PhaseEncodingDirection": "j-",
  "PhaseEncodingSteps": 79,
  "PhaseResolution": 1,
  "PixelBandwidth": 2315,
  "ProcedureStepDescription": "dbic^QA",
  "ProtocolName": "func-bold_task-rest_acq-p2",
  "PulseSequenceDetails": "%SiemensSeq%\\ep2d_bold",
  "ReceiveCoilActiveElements": "HC1-7;NC1,2",
  "ReceiveCoilName": "HeadNeck_64",
  "ReconMatrixPE": 80,
  "RefLinesPE": 24,
  "RepetitionTime": 2,
  "SAR": 0.036198,
  "ScanOptions": "FS",
  "ScanningSequence": "EP",
  "SequenceName": "*epfid2d1_80",
  "SequenceVariant": "SK",
  "SeriesDescription": "func-bold_task-rest_acq-p2",
  "SeriesNumber": 5,
  "ShimSetting": [4143, -7692, -7500, 362, -129, -371, -110, 148],
  "SliceThickness": 3.5,
  "SliceTiming": [0.99, 0, 1.0575, 0.0675, 1.1225, 0.1325, 1.1875, 0.2, 1.255, 0.265, 1.32, 0.33, 1.3875, 0.3975, 1.4525, 0.4625, 1.5175, 0.53, 1.585, 0.595, 1.65, 0.66, 1.7175, 0.7275, 1.7825, 0.7925, 1.8475, 0.8575, 1.915, 0.925],
  "SoftwareVersions": "syngo MR E11",
  "SpacingBetweenSlices": 3.99,
  "StationName": "AWP66112",
  "TaskName": "rest",
  "TotalReadoutTime": 0.02054,
  "TxRefAmp": 215.512,
  "dcmmeta_affine": [
    [-2.9495689868927, -0.5301797389984131, -0.1830967217683792, 144.5691375732422],
    [-0.5464596152305603, 2.796156167984009, 1.2496999502182007, -90.29694366455078],
    [0.037744004279375076, -0.9489050507545471, 3.7848153114318848, -36.73228454589844],
    [0.0, 0.0, 0.0, 1.0]
],
  "dcmmeta_reorient_transform": [
    [0.0, -1.0, 0.0, 79.0],
    [1.0, 0.0, 0.0, 0.0],
    [0.0, 0.0, 1.0, 0.0],
    [0.0, 0.0, 0.0, 1.0]
],
  "dcmmeta_shape": [80, 80, 30, 200],
  "dcmmeta_slice_dim": 2,
  "dcmmeta_version": 0.6,
  "global": {
    "const": {
      "AccessionNumber": "qa64",
      "AcquisitionMatrix": [80, 0, 0, 80],
      "AngioFlag": "N",
      "BitsAllocated": 16,
      "BitsStored": 12,
      "BodyPartExamined": "BRAIN",
      "Columns": 480,
      "EchoNumbers": 1,
      "EchoTime": 35.0,
      "EchoTrainLength": 39,
      "FlipAngle": 90.0,
      "HighBit": 11,
      "ImageOrientationPatient": [0.98318966750366, 0.18215319847384, 0.01258133537417, -0.1767265863431, 0.93205201795951, 0.31630167482505],
      "ImagePositionPatient": [-586.56277884441, -799.12251167231, -309.0255875949],
      "ImageType": [
        "ORIGINAL",
        "PRIMARY",
        "M",
        "ND",
        "NORM",
        "MOSAIC"
],
      "ImagedNucleus": "1H",
      "ImagingFrequency": 123.252363,
      "InPlanePhaseEncodingDirection": "COL",
      "MRAcquisitionType": "2D",
      "MagneticFieldStrength": 3.0,
      "Manufacturer": "SIEMENS",
      "ManufacturerModelName": "Prisma",
      "Modality": "MR",
      "NumberOfAverages": 1.0,
      "NumberOfPhaseEncodingSteps": 79,
      "PercentPhaseFieldOfView": 100.0,
      "PercentSampling": 100.0,
      "PerformedProcedureStepStartTime": "083517.614000",
      "PhotometricInterpretation": "MONOCHROME2",
      "PixelBandwidth": 2315.0,
      "PixelRepresentation": 0,
      "PixelSpacing": [3.0, 3.0],
      "ProtocolName": "func-bold_task-rest_acq-p2",
      "RepetitionTime": 2000.0,
      "Rows": 480,
      "SAR": 0.03619803485296,
      "SamplesPerPixel": 1,
      "ScanOptions": "FS",
      "ScanningSequence": "EP",
      "SequenceName": "*epfid2d1_80",
      "SequenceVariant": "SK",
      "SeriesDescription": "func-bold_task-rest_acq-p2",
      "SeriesNumber": 5,
      "SeriesTime": "083741.657000",
      "SliceLocation": -69.759179473781,
      "SliceThickness": 3.5,
      "SmallestImagePixelValue": 0,
      "SoftwareVersions": "syngo MR E11",
      "SpacingBetweenSlices": 3.9900001133024,
      "SpecificCharacterSet": "ISO_IR 100",
      "StudyID": "9",
      "StudyTime": "083517.529000",
      "TransmitCoilName": "Body",
      "VariableFlipAngleFlag": "N",
      "WindowCenterWidthExplanation": "Algo1",
      "dBdt": 0.0},
    "slices": {}
  },
  "time": {
    "samples": {
      "AcquisitionNumber": [1, 2, 3, 4, 5, 6, 7, 8, 9, 10, 11, 12, 13, 14, 15, 16, 17, 18, 19, 20, 21, 22, 23, 24, 25, 26, 27, 28, 29, 30, 31, 32, 33, 34, 35, 36, 37, 38, 39, 40, 41, 42, 43, 44, 45, 46, 47, 48, 49, 50, 51, 52, 53, 54, 55, 56, 57, 58, 59, 60, 61, 62, 63, 64, 65, 66, 67, 68, 69, 70, 71, 72, 73, 74, 75, 76, 77, 78, 79, 80, 81, 82, 83, 84, 85, 86, 87, 88, 89, 90, 91, 92, 93, 94, 95, 96, 97, 98, 99, 100, 101, 102, 103, 104, 105, 106, 107, 108, 109, 110, 111, 112, 113, 114, 115, 116, 117, 118, 119, 120, 121, 122, 123, 124, 125, 126, 127, 128, 129, 130, 131, 132, 133, 134, 135, 136, 137, 138, 139, 140, 141, 142, 143, 144, 145, 146, 147, 148, 149, 150, 151, 152, 153, 154, 155, 156, 157, 158, 159, 160, 161, 162, 163, 164, 165, 166, 167, 168, 169, 170, 171, 172, 173, 174, 175, 176, 177, 178, 179, 180, 181, 182, 183, 184, 185, 186, 187, 188, 189, 190, 191, 192, 193, 194, 195, 196, 197, 198, 199, 200],
      "AcquisitionTime": ["083648.220000", "083650.220000", "083652.220000", "083654.220000", "083656.220000", "083658.220000", "083700.220000", "083702.220000", "083704.220000", "083706.220000", "083708.220000", "083710.220000", "083712.220000", "083714.220000", "083716.220000", "083718.220000", "083720.220000", "083722.220000", "083724.220000", "083726.220000", "083728.220000", "083730.220000", "083732.220000", "083734.220000", "083736.220000", "083738.220000", "083740.220000", "083742.220000", "083744.220000", "083746.220000", "083748.220000", "083750.220000", "083752.220000", "083754.220000", "083756.220000", "083758.220000", "083800.220000", "083802.220000", "083804.220000", "083806.220000", "083808.220000", "083810.220000", "083812.220000", "083814.220000", "083816.220000", "083818.220000", "083820.220000", "083822.220000", "083824.220000", "083826.220000", "083828.220000", "083830.220000", "083832.220000", "083834.220000", "083836.220000", "083838.220000", "083840.220000", "083842.220000", "083844.220000", "083846.220000", "083848.220000", "083850.220000", "083852.220000", "083854.220000", "083856.220000", "083858.220000", "083900.220000", "083902.220000", "083904.220000", "083906.220000", "083908.220000", "083910.220000", "083912.220000", "083914.220000", "083916.220000", "083918.220000", "083920.220000", "083922.220000", "083924.220000", "083926.220000", "083928.220000", "083930.220000", "083932.220000", "083934.220000", "083936.220000", "083938.220000", "083940.220000", "083942.220000", "083944.220000", "083946.220000", "083948.220000", "083950.220000", "083952.220000", "083954.220000", "083956.220000", "083958.220000", "084000.220000", "084002.220000", "084004.220000", "084006.220000", "084008.220000", "084010.220000", "084012.220000", "084014.220000", "084016.220000", "084018.220000", "084020.220000", "084022.220000", "084024.220000", "084026.220000", "084028.220000", "084030.220000", "084032.220000", "084034.220000", "084036.220000", "084038.220000", "084040.220000", "084042.220000", "084044.220000", "084046.220000", "084048.220000", "084050.220000", "084052.220000", "084054.220000", "084056.220000", "084058.220000", "084100.220000", "084102.220000", "084104.220000", "084106.220000", "084108.220000", "084110.220000", "084112.220000", "084114.220000", "084116.220000", "084118.220000", "084120.220000", "084122.220000", "084124.220000", "084126.220000", "084128.220000", "084130.220000", "084132.220000", "084134.220000", "084136.220000", "084138.220000", "084140.220000", "084142.220000", "084144.220000", "084146.220000", "084148.220000", "084150.220000", "084152.220000", "084154.220000", "084156.220000", "084158.220000", "084200.220000", "084202.220000", "084204.220000", "084206.220000", "084208.220000", "084210.220000", "084212.220000", "084214.220000", "084216.220000", "084218.220000", "084220.220000", "084222.220000", "084224.220000", "084226.220000", "084228.220000", "084230.220000", "084232.220000", "084234.220000", "084236.220000", "084238.220000", "084240.220000", "084242.220000", "084244.220000", "084246.220000", "084248.220000", "084250.220000", "084252.220000", "084254.220000", "084256.220000", "084258.220000", "084300.220000", "084302.220000", "084304.220000", "084306.220000", "084308.220000", "084310.220000", "084312.220000", "084314.220000", "084316.220000", "084318.220000", "084320.220000", "084322.220000", "084324.220000", "084326.220000"],
      "ContentTime": ["083741.661000", "083741.664000", "083741.667000", "083741.670000", "083741.672000", "083741.675000", "083741.677000", "083741.680000", "083741.682000", "083741.685000", "083741.688000", "083741.690000", "083741.693000", "083741.695000", "083741.698000", "083741.701000", "083741.703000", "083741.706000", "083741.708000", "083741.711000", "083741.714000", "083741.716000", "083741.719000", "083741.721000", "083741.724000", "083741.727000", "083821.654000", "083821.657000", "083821.660000", "083821.663000", "083821.665000", "083821.668000", "083821.670000", "083821.673000", "083821.676000", "083821.678000", "083821.681000", "083821.683000", "083821.686000", "083821.688000", "083821.691000", "083821.694000", "083821.696000", "083821.699000", "083821.701000", "083821.704000", "083901.656000", "083901.658000", "083901.661000", "083901.664000", "083901.666000", "083901.669000", "083901.671000", "083901.674000", "083901.677000", "083901.679000", "083901.682000", "083901.684000", "083901.687000", "083901.689000", "083901.692000", "083901.695000", "083901.697000", "083901.700000", "083901.702000", "083901.705000", "083941.656000", "083941.659000", "083941.661000", "083941.664000", "083941.666000", "083941.669000", "083941.671000", "083941.674000", "083941.677000", "083941.679000", "083941.682000", "083941.684000", "083941.687000", "083941.690000", "083941.692000", "083941.695000", "083941.698000", "083941.700000", "083941.703000", "083941.705000", "084001.655000", "084001.658000", "084001.661000", "084001.663000", "084001.666000", "084001.668000", "084001.671000", "084001.674000", "084001.676000", "084001.679000", "084041.654000", "084041.657000", "084041.660000", "084041.663000", "084041.665000", "084041.668000", "084041.670000", "084041.673000", "084041.682000", "084041.685000", "084041.687000", "084041.705000", "084041.708000", "084041.710000", "084041.713000", "084041.716000", "084041.718000", "084041.721000", "084041.723000", "084041.726000", "084121.655000", "084121.669000", "084121.672000", "084121.674000", "084121.677000", "084121.680000", "084121.682000", "084121.685000", "084121.687000", "084121.690000", "084121.692000", "084121.695000", "084121.698000", "084121.700000", "084121.703000", "084121.706000", "084121.708000", "084121.711000", "084121.713000", "084121.716000", "084201.655000", "084201.658000", "084201.661000", "084201.664000", "084201.666000", "084201.669000", "084201.671000", "084201.674000", "084201.676000", "084201.679000", "084201.682000", "084201.684000", "084201.687000", "084201.689000", "084201.692000", "084201.695000", "084201.697000", "084201.700000", "084201.702000", "084201.705000", "084241.655000", "084241.658000", "084241.661000", "084241.668000", "084241.671000", "084241.673000", "084241.676000", "084241.679000", "084241.681000", "084241.684000", "084241.686000", "084241.689000", "084241.692000", "084241.694000", "084241.697000", "084241.699000", "084241.702000", "084241.704000", "084241.707000", "084241.710000", "084321.654000", "084321.657000", "084321.660000", "084321.663000", "084321.665000", "084321.668000", "084321.671000", "084321.673000", "084321.676000", "084321.678000", "084321.681000", "084321.684000", "084321.686000", "084321.689000", "084321.691000", "084321.694000", "084321.696000", "084321.699000", "084321.702000", "084321.704000", "084328.160000", "084328.162000", "084328.165000", "084328.168000"],
      "InstanceCreationTime": ["083741.661000", "083741.664000", "083741.667000", "083741.670000", "083741.672000", "083741.675000", "083741.677000", "083741.680000", "083741.682000", "083741.685000", "083741.688000", "083741.690000", "083741.693000", "083741.695000", "083741.698000", "083741.701000", "083741.703000", "083741.706000", "083741.708000", "083741.711000", "083741.714000", "083741.716000", "083741.719000", "083741.721000", "083741.724000", "083741.727000", "083821.654000", "083821.657000", "083821.660000", "083821.663000", "083821.665000", "083821.668000", "083821.670000", "083821.673000", "083821.676000", "083821.678000", "083821.681000", "083821.683000", "083821.686000", "083821.688000", "083821.691000", "083821.694000", "083821.696000", "083821.699000", "083821.701000", "083821.704000", "083901.656000", "083901.658000", "083901.661000", "083901.664000", "083901.666000", "083901.669000", "083901.671000", "083901.674000", "083901.677000", "083901.679000", "083901.682000", "083901.684000", "083901.687000", "083901.689000", "083901.692000", "083901.695000", "083901.697000", "083901.700000", "083901.702000", "083901.705000", "083941.656000", "083941.659000", "083941.661000", "083941.664000", "083941.666000", "083941.669000", "083941.671000", "083941.674000", "083941.677000", "083941.679000", "083941.682000", "083941.684000", "083941.687000", "083941.690000", "083941.692000", "083941.695000", "083941.698000", "083941.700000", "083941.703000", "083941.705000", "084001.655000", "084001.658000", "084001.661000", "084001.663000", "084001.666000", "084001.668000", "084001.671000", "084001.674000", "084001.676000", "084001.679000", "084041.654000", "084041.657000", "084041.660000", "084041.663000", "084041.665000", "084041.668000", "084041.670000", "084041.673000", "084041.682000", "084041.685000", "084041.687000", "084041.705000", "084041.708000", "084041.710000", "084041.713000", "084041.716000", "084041.718000", "084041.721000", "084041.723000", "084041.726000", "084121.655000", "084121.669000", "084121.672000", "084121.674000", "084121.677000", "084121.680000", "084121.682000", "084121.685000", "084121.687000", "084121.690000", "084121.692000", "084121.695000", "084121.698000", "084121.700000", "084121.703000", "084121.706000", "084121.708000", "084121.711000", "084121.713000", "084121.716000", "084201.655000", "084201.658000", "084201.661000", "084201.664000", "084201.666000", "084201.669000", "084201.671000", "084201.674000", "084201.676000", "084201.679000", "084201.682000", "084201.684000", "084201.687000", "084201.689000", "084201.692000", "084201.695000", "084201.697000", "084201.700000", "084201.702000", "084201.705000", "084241.655000", "084241.658000", "084241.661000", "084241.668000", "084241.671000", "084241.673000", "084241.676000", "084241.679000", "084241.681000", "084241.684000", "084241.686000", "084241.689000", "084241.692000", "084241.694000", "084241.697000", "084241.699000", "084241.702000", "084241.704000", "084241.707000", "084241.710000", "084321.654000", "084321.657000", "084321.660000", "084321.663000", "084321.665000", "084321.668000", "084321.671000", "084321.673000", "084321.676000", "084321.678000", "084321.681000", "084321.684000", "084321.686000", "084321.689000", "084321.691000", "084321.694000", "084321.696000", "084321.699000", "084321.702000", "084321.704000", "084328.160000", "084328.162000", "084328.165000", "084328.168000"],
      "InstanceNumber": [1, 2, 3, 4, 5, 6, 7, 8, 9, 10, 11, 12, 13, 14, 15, 16, 17, 18, 19, 20, 21, 22, 23, 24, 25, 26, 27, 28, 29, 30, 31, 32, 33, 34, 35, 36, 37, 38, 39, 40, 41, 42, 43, 44, 45, 46, 47, 48, 49, 50, 51, 52, 53, 54, 55, 56, 57, 58, 59, 60, 61, 62, 63, 64, 65, 66, 67, 68, 69, 70, 71, 72, 73, 74, 75, 76, 77, 78, 79, 80, 81, 82, 83, 84, 85, 86, 87, 88, 89, 90, 91, 92, 93, 94, 95, 96, 97, 98, 99, 100, 101, 102, 103, 104, 105, 106, 107, 108, 109, 110, 111, 112, 113, 114, 115, 116, 117, 118, 119, 120, 121, 122, 123, 124, 125, 126, 127, 128, 129, 130, 131, 132, 133, 134, 135, 136, 137, 138, 139, 140, 141, 142, 143, 144, 145, 146, 147, 148, 149, 150, 151, 152, 153, 154, 155, 156, 157, 158, 159, 160, 161, 162, 163, 164, 165, 166, 167, 168, 169, 170, 171, 172, 173, 174, 175, 176, 177, 178, 179, 180, 181, 182, 183, 184, 185, 186, 187, 188, 189, 190, 191, 192, 193, 194, 195, 196, 197, 198, 199, 200],
      "LargestImagePixelValue": [3764, 3771, 3786, 3777, 3781, 3791, 3780, 3782, 3784, 3772, 3804, 3784, 3782, 3785, 3794, 3777, 3791, 3780, 3778, 3762, 3764, 3758, 3783, 3775, 3773, 3784, 3767, 3777, 3788, 3768, 3778, 3759, 3777, 3769, 3776, 3762, 3765, 3770, 3763, 3773, 3769, 3774, 3786, 3778, 3768, 3771, 3769, 3764, 3794, 3768, 3788, 3763, 3764, 3772, 3777, 3763, 3773, 3761, 3771, 3758, 3768, 3777, 3780, 3775, 3768, 3774, 3766, 3786, 3773, 3774, 3771, 3764, 3774, 3777, 3762, 3761, 3772, 3756, 3772, 3772, 3754, 3766, 3769, 3779, 3776, 3785, 3760, 3776, 3767, 3772, 3769, 3770, 3766, 3764, 3770, 3771, 3780, 3763, 3769, 3765, 3776, 3777, 3763, 3774, 3771, 3766, 3762, 3775, 3767, 3766, 3770, 3754, 3760, 3770, 3768, 3771, 3747, 3755, 3759, 3758, 3750, 3773, 3773, 3752, 3752, 3761, 3765, 3761, 3778, 3768, 3776, 3781, 3768, 3777, 3763, 3770, 3767, 3766, 3779, 3760, 3760, 3763, 3781, 3770, 3771, 3777, 3782, 3762, 3767, 3757, 3756, 3772, 3776, 3764, 3755, 3755, 3766, 3755, 3770, 3768, 3775, 3775, 3761, 3760, 3759, 3765, 3773, 3757, 3766, 3763, 3757, 3771, 3768, 3757, 3771, 3754, 3762, 3761, 3763, 3785, 3771, 3769, 3762, 3770, 3757, 3774, 3754, 3757, 3769, 3750, 3758, 3769, 3757, 3758, 3785, 3764, 3756, 3771, 3759, 3765],
      "WindowCenter": [1419.0, 1418.0, 1419.0, 1418.0, 1419.0, 1418.0, 1418.0, 1419.0, 1419.0, 1419.0, 1418.0, 1419.0, 1419.0, 1418.0, 1419.0, 1419.0, 1419.0, 1418.0, 1418.0, 1418.0, 1418.0, 1418.0, 1418.0, 1417.0, 1418.0, 1417.0, 1418.0, 1418.0, 1418.0, 1418.0, 1418.0, 1418.0, 1418.0, 1418.0, 1418.0, 1418.0, 1418.0, 1418.0, 1418.0, 1417.0, 1418.0, 1418.0, 1418.0, 1417.0, 1417.0, 1417.0, 1418.0, 1418.0, 1417.0, 1417.0, 1417.0, 1417.0, 1417.0, 1417.0, 1417.0, 1417.0, 1418.0, 1417.0, 1417.0, 1417.0, 1417.0, 1417.0, 1418.0, 1417.0, 1417.0, 1417.0, 1418.0, 1417.0, 1417.0, 1416.0, 1417.0, 1418.0, 1417.0, 1416.0, 1417.0, 1417.0, 1417.0, 1417.0, 1416.0, 1416.0, 1416.0, 1416.0, 1417.0, 1417.0, 1416.0, 1416.0, 1417.0, 1417.0, 1416.0, 1417.0, 1416.0, 1416.0, 1417.0, 1416.0, 1415.0, 1416.0, 1416.0, 1416.0, 1416.0, 1416.0, 1416.0, 1416.0, 1416.0, 1416.0, 1416.0, 1416.0, 1417.0, 1416.0, 1416.0, 1416.0, 1416.0, 1416.0, 1416.0, 1416.0, 1416.0, 1416.0, 1416.0, 1416.0, 1416.0, 1416.0, 1416.0, 1415.0, 1415.0, 1416.0, 1415.0, 1415.0, 1416.0, 1415.0, 1415.0, 1415.0, 1415.0, 1415.0, 1415.0, 1416.0, 1415.0, 1416.0, 1415.0, 1416.0, 1416.0, 1415.0, 1415.0, 1416.0, 1415.0, 1414.0, 1415.0, 1415.0, 1415.0, 1415.0, 1415.0, 1415.0, 1415.0, 1415.0, 1415.0, 1414.0, 1415.0, 1415.0, 1415.0, 1415.0, 1415.0, 1415.0, 1416.0, 1416.0, 1415.0, 1414.0, 1415.0, 1414.0, 1415.0, 1415.0, 1415.0, 1415.0, 1415.0, 1414.0, 1414.0, 1414.0, 1414.0, 1415.0, 1415.0, 1415.0, 1414.0, 1414.0, 1414.0, 1415.0, 1415.0, 1414.0, 1415.0, 1414.0, 1415.0, 1414.0, 1415.0, 1415.0, 1415.0, 1414.0, 1415.0, 1414.0, 1414.0, 1414.0, 1415.0, 1414.0, 1414.0, 1415.0],
      "WindowWidth": [3311.0, 3311.0, 3310.0, 3310.0, 3310.0, 3310.0, 3310.0, 3310.0, 3310.0, 3310.0, 3310.0, 3310.0, 3310.0, 3310.0, 3310.0, 3310.0, 3309.0, 3310.0, 3310.0, 3310.0, 3310.0, 3310.0, 3310.0, 3310.0, 3310.0, 3310.0, 3310.0, 3310.0, 3310.0, 3310.0, 3310.0, 3309.0, 3309.0, 3309.0, 3309.0, 3309.0, 3309.0, 3309.0, 3309.0, 3309.0, 3309.0, 3309.0, 3309.0, 3309.0, 3309.0, 3309.0, 3309.0, 3308.0, 3309.0, 3309.0, 3309.0, 3309.0, 3309.0, 3309.0, 3309.0, 3309.0, 3308.0, 3309.0, 3309.0, 3309.0, 3309.0, 3309.0, 3308.0, 3308.0, 3309.0, 3308.0, 3308.0, 3308.0, 3308.0, 3308.0, 3308.0, 3308.0, 3308.0, 3308.0, 3308.0, 3308.0, 3308.0, 3308.0, 3308.0, 3308.0, 3308.0, 3308.0, 3308.0, 3308.0, 3308.0, 3308.0, 3308.0, 3308.0, 3308.0, 3308.0, 3308.0, 3308.0, 3307.0, 3308.0, 3308.0, 3308.0, 3308.0, 3308.0, 3308.0, 3308.0, 3308.0, 3308.0, 3308.0, 3308.0, 3308.0, 3308.0, 3307.0, 3308.0, 3308.0, 3308.0, 3308.0, 3308.0, 3308.0, 3308.0, 3308.0, 3307.0, 3308.0, 3308.0, 3307.0, 3307.0, 3308.0, 3307.0, 3307.0, 3307.0, 3307.0, 3307.0, 3307.0, 3307.0, 3307.0, 3307.0, 3307.0, 3307.0, 3307.0, 3307.0, 3307.0, 3307.0, 3307.0, 3307.0, 3307.0, 3307.0, 3307.0, 3307.0, 3307.0, 3307.0, 3307.0, 3307.0, 3307.0, 3307.0, 3307.0, 3307.0, 3307.0, 3307.0, 3307.0, 3307.0, 3307.0, 3307.0, 3307.0, 3306.0, 3307.0, 3306.0, 3306.0, 3306.0, 3307.0, 3307.0, 3306.0, 3306.0, 3306.0, 3306.0, 3307.0, 3307.0, 3306.0, 3307.0, 3306.0, 3307.0, 3306.0, 3306.0, 3306.0, 3306.0, 3306.0, 3306.0, 3306.0, 3306.0, 3306.0, 3306.0, 3306.0, 3306.0, 3306.0, 3306.0, 3306.0, 3306.0, 3306.0, 3306.0, 3306.0, 3306.0, 3306.0, 3306.0, 3306.0, 3306.0, 3306.0, 3306.0]
    },
    "slices": {}
  }
}