{
  "AcquisitionMatrixPE": 80,
  "AcquisitionNumber": 1,
  "AcquisitionTime": "08:43:39.562500",
  "BandwidthPerPixelPhaseEncode": 25,
  "BaseResolution": 80,
  "BodyPartExamined": "BRAIN",
  "CoilCombinationMethod": "Sum of Squares",
  "ConsistencyInfo": "N4_VE11C_LATEST_20160120",
  "ConversionSoftware": "dcm2niix",
  "ConversionSoftwareVersion": "v1.0.20220720",
  "DerivedVendorReportedEchoSpacing": 0.0005,
  "DeviceSerialNumber": "66112",
  "DwellTime": 2.7e-06,
  "EchoTime": 0.03,
  "EchoTrainLength": 80,
  "EffectiveEchoSpacing": 0.0005,
  "FlipAngle": 77,
  "HeudiconvVersion": "0.13.1",
  "ImageOrientationPatientDICOM": [0.98319, 0.182153, 0.0125813, -0.176727, 0.932052, 0.316302],
  "ImageOrientationText": "Tra>Cor(18.3)>Sag(-2.6)",
  "ImageType": [
    "ORIGINAL",
    "PRIMARY",
    "M",
    "ND",
    "NORM",
    "MOSAIC"
],
  "ImagingFrequency": 123.252,
  "InPlanePhaseEncodingDirectionDICOM": "COL",
  "InstitutionAddress": "Maynard 3,Hanover,NH,US,03755",
  "InstitutionName": "Dartmouth College - PBS",
  "InstitutionalDepartmentName": "Department",
  "MRAcquisitionType": "2D",
  "MagneticFieldStrength": 3,
  "Manufacturer": "Siemens",
  "ManufacturersModelName": "Prisma",
  "MatrixCoilMode": "SENSE",
  "Modality": "MR",
  "NonlinearGradientCorrection": false,
  "PartialFourier": 1,
  "PatientPosition": "HFS",
  "PercentPhaseFOV": 100,
  "PercentSampling": 100,
  "PhaseEncodingDirection": "j-",
  "PhaseEncodingSteps": 80,
  "PhaseResolution": 1,
  "PixelBandwidth": 2315,
  "ProcedureStepDescription": "dbic^QA",
  "ProtocolName": "func-bold_fa-77",
  "PulseSequenceDetails": "%SiemensSeq%\\ep2d_bold",
  "ReceiveCoilActiveElements": "HC1-7;NC1,2",
  "ReceiveCoilName": "HeadNeck_64",
  "ReconMatrixPE": 80,
  "RepetitionTime": 2,
  "SAR": 0.0284462,
  "ScanOptions": "FS",
  "ScanningSequence": "EP",
  "SequenceName": "*epfid2d1_80",
  "SequenceVariant": "SK",
  "SeriesDescription": "func-bold_fa-77",
  "SeriesNumber": 7,
  "ShimSetting": [4143, -7692, -7500, 364, -129, -371, -108, 147],
  "SliceThickness": 3.5,
  "SliceTiming": [0.99, 0, 1.0575, 0.0675, 1.1225, 0.1325, 1.1875, 0.1975, 1.255, 0.265, 1.32, 0.33, 1.385, 0.3975, 1.4525, 0.4625, 1.5175, 0.5275, 1.585, 0.595, 1.65, 0.66, 1.715, 0.7275, 1.7825, 0.7925, 1.8475, 0.8575, 1.915, 0.925],
  "SoftwareVersions": "syngo MR E11",
  "SpacingBetweenSlices": 3.99,
  "StationName": "AWP66112",
  "TotalReadoutTime": 0.0395,
  "TxRefAmp": 215.512,
  "dcmmeta_affine": [
    [-2.9495689868927, -0.5301797389984131, -0.1830967217683792, 142.28346252441406],
    [-0.5464596152305603, 2.796156167984009, 1.2496999502182007, -88.45674133300781],
    [0.037744004279375076, -0.9489050507545471, 3.7848150730133057, -36.10343933105469],
    [0.0, 0.0, 0.0, 1.0]
],
  "dcmmeta_reorient_transform": [
    [0.0, -1.0, 0.0, 79.0],
    [1.0, 0.0, 0.0, 0.0],
    [0.0, 0.0, 1.0, 0.0],
    [0.0, 0.0, 0.0, 1.0]
],
  "dcmmeta_shape": [80, 80, 30, 200],
  "dcmmeta_slice_dim": 2,
  "dcmmeta_version": 0.6,
  "global": {
    "const": {
      "AccessionNumber": "qa64",
      "AcquisitionMatrix": [80, 0, 0, 80],
      "AngioFlag": "N",
      "BitsAllocated": 16,
      "BitsStored": 12,
      "BodyPartExamined": "BRAIN",
      "Columns": 480,
      "EchoNumbers": 1,
      "EchoTime": 30.0,
      "EchoTrainLength": 80,
      "FlipAngle": 77.0,
      "HighBit": 11,
      "ImageOrientationPatient": [0.98318966750366, 0.18215319847384, 0.01258133537417, -0.1767265863431, 0.93205201795951, 0.31630167482505],
      "ImagePositionPatient": [-584.27710927921, -800.96271388465, -308.39674238006],
      "ImageType": [
        "ORIGINAL",
        "PRIMARY",
        "M",
        "ND",
        "NORM",
        "MOSAIC"
],
      "ImagedNucleus": "1H",
      "ImagingFrequency": 123.252359,
      "InPlanePhaseEncodingDirection": "COL",
      "MRAcquisitionType": "2D",
      "MagneticFieldStrength": 3.0,
      "Manufacturer": "SIEMENS",
      "ManufacturerModelName": "Prisma",
      "Modality": "MR",
      "NumberOfAverages": 1.0,
      "NumberOfPhaseEncodingSteps": 80,
      "PercentPhaseFieldOfView": 100.0,
      "PercentSampling": 100.0,
      "PerformedProcedureStepStartTime": "083517.614000",
      "PhotometricInterpretation": "MONOCHROME2",
      "PixelBandwidth": 2315.0,
      "PixelRepresentation": 0,
      "PixelSpacing": [3.0, 3.0],
      "ProtocolName": "func-bold_fa-77",
      "RepetitionTime": 2000.0,
      "Rows": 480,
      "SAR": 0.02844622133499,
      "SamplesPerPixel": 1,
      "ScanOptions": "FS",
      "ScanningSequence": "EP",
      "SequenceName": "*epfid2d1_80",
      "SequenceVariant": "SK",
      "SeriesDescription": "func-bold_fa-77",
      "SeriesNumber": 7,
      "SeriesTime": "084421.727000",
      "SliceLocation": -68.481419568038,
      "SliceThickness": 3.5,
      "SmallestImagePixelValue": 0,
      "SoftwareVersions": "syngo MR E11",
      "SpacingBetweenSlices": 3.9899999896245,
      "SpecificCharacterSet": "ISO_IR 100",
      "StudyID": "9",
      "StudyTime": "083517.529000",
      "TransmitCoilName": "Body",
      "VariableFlipAngleFlag": "N",
      "WindowCenterWidthExplanation": "Algo1",
      "dBdt": 0.0},
    "slices": {}
  },
  "time": {
    "samples": {
      "AcquisitionNumber": [1, 2, 3, 4, 5, 6, 7, 8, 9, 10, 11, 12, 13, 14, 15, 16, 17, 18, 19, 20, 21, 22, 23, 24, 25, 26, 27, 28, 29, 30, 31, 32, 33, 34, 35, 36, 37, 38, 39, 40, 41, 42, 43, 44, 45, 46, 47, 48, 49, 50, 51, 52, 53, 54, 55, 56, 57, 58, 59, 60, 61, 62, 63, 64, 65, 66, 67, 68, 69, 70, 71, 72, 73, 74, 75, 76, 77, 78, 79, 80, 81, 82, 83, 84, 85, 86, 87, 88, 89, 90, 91, 92, 93, 94, 95, 96, 97, 98, 99, 100, 101, 102, 103, 104, 105, 106, 107, 108, 109, 110, 111, 112, 113, 114, 115, 116, 117, 118, 119, 120, 121, 122, 123, 124, 125, 126, 127, 128, 129, 130, 131, 132, 133, 134, 135, 136, 137, 138, 139, 140, 141, 142, 143, 144, 145, 146, 147, 148, 149, 150, 151, 152, 153, 154, 155, 156, 157, 158, 159, 160, 161, 162, 163, 164, 165, 166, 167, 168, 169, 170, 171, 172, 173, 174, 175, 176, 177, 178, 179, 180, 181, 182, 183, 184, 185, 186, 187, 188, 189, 190, 191, 192, 193, 194, 195, 196, 197, 198, 199, 200],
      "AcquisitionTime": ["084339.562500", "084341.562500", "084343.562500", "084345.562500", "084347.562500", "084349.562500", "084351.562500", "084353.562500", "084355.562500", "084357.562500", "084359.562500", "084401.562500", "084403.562500", "084405.562500", "084407.562500", "084409.562500", "084411.562500", "084413.562500", "084415.562500", "084417.562500", "084419.562500", "084421.562500", "084423.562500", "084425.562500", "084427.562500", "084429.562500", "084431.562500", "084433.562500", "084435.562500", "084437.562500", "084439.562500", "084441.562500", "084443.562500", "084445.562500", "084447.562500", "084449.562500", "084451.562500", "084453.562500", "084455.562500", "084457.562500", "084459.562500", "084501.562500", "084503.562500", "084505.562500", "084507.562500", "084509.562500", "084511.562500", "084513.562500", "084515.562500", "084517.562500", "084519.562500", "084521.562500", "084523.562500", "084525.562500", "084527.562500", "084529.562500", "084531.562500", "084533.562500", "084535.562500", "084537.562500", "084539.562500", "084541.562500", "084543.562500", "084545.562500", "084547.562500", "084549.562500", "084551.562500", "084553.562500", "084555.562500", "084557.562500", "084559.562500", "084601.562500", "084603.562500", "084605.562500", "084607.562500", "084609.562500", "084611.562500", "084613.562500", "084615.562500", "084617.562500", "084619.562500", "084621.562500", "084623.562500", "084625.562500", "084627.562500", "084629.562500", "084631.562500", "084633.562500", "084635.562500", "084637.562500", "084639.562500", "084641.562500", "084643.562500", "084645.562500", "084647.562500", "084649.562500", "084651.562500", "084653.562500", "084655.562500", "084657.562500", "084659.562500", "084701.562500", "084703.562500", "084705.562500", "084707.562500", "084709.562500", "084711.562500", "084713.562500", "084715.562500", "084717.562500", "084719.562500", "084721.562500", "084723.562500", "084725.562500", "084727.562500", "084729.562500", "084731.562500", "084733.562500", "084735.562500", "084737.562500", "084739.562500", "084741.562500", "084743.562500", "084745.562500", "084747.562500", "084749.562500", "084751.562500", "084753.562500", "084755.562500", "084757.562500", "084759.562500", "084801.562500", "084803.562500", "084805.562500", "084807.562500", "084809.562500", "084811.562500", "084813.562500", "084815.562500", "084817.562500", "084819.562500", "084821.562500", "084823.562500", "084825.562500", "084827.562500", "084829.562500", "084831.562500", "084833.562500", "084835.562500", "084837.562500", "084839.562500", "084841.562500", "084843.562500", "084845.562500", "084847.562500", "084849.562500", "084851.562500", "084853.562500", "084855.562500", "084857.562500", "084859.562500", "084901.562500", "084903.562500", "084905.562500", "084907.562500", "084909.562500", "084911.562500", "084913.562500", "084915.562500", "084917.562500", "084919.562500", "084921.562500", "084923.562500", "084925.562500", "084927.562500", "084929.562500", "084931.562500", "084933.562500", "084935.562500", "084937.562500", "084939.562500", "084941.562500", "084943.562500", "084945.562500", "084947.562500", "084949.562500", "084951.562500", "084953.562500", "084955.562500", "084957.562500", "084959.562500", "085001.562500", "085003.562500", "085005.562500", "085007.562500", "085009.562500", "085011.562500", "085013.562500", "085015.562500", "085017.562500"],
      "ContentTime": ["084421.730000", "084421.734000", "084421.736000", "084421.739000", "084421.742000", "084421.744000", "084421.747000", "084421.749000", "084421.760000", "084421.763000", "084421.766000", "084421.768000", "084421.771000", "084421.773000", "084421.776000", "084421.778000", "084421.781000", "084421.787000", "084421.789000", "084421.792000", "084421.794000", "084501.736000", "084501.739000", "084501.748000", "084501.751000", "084501.753000", "084501.756000", "084501.758000", "084501.761000", "084501.763000", "084501.766000", "084501.769000", "084501.771000", "084501.774000", "084501.776000", "084501.779000", "084501.781000", "084501.784000", "084501.786000", "084501.789000", "084501.792000", "084541.724000", "084541.729000", "084541.732000", "084541.735000", "084541.738000", "084541.741000", "084541.744000", "084541.746000", "084541.749000", "084541.751000", "084541.754000", "084541.756000", "084541.759000", "084541.761000", "084541.764000", "084541.766000", "084541.769000", "084541.771000", "084541.774000", "084541.777000", "084621.725000", "084621.728000", "084621.731000", "084621.734000", "084621.736000", "084621.739000", "084621.741000", "084621.744000", "084621.746000", "084621.749000", "084621.751000", "084621.754000", "084621.756000", "084621.759000", "084621.762000", "084621.764000", "084621.766000", "084621.769000", "084621.772000", "084621.774000", "084701.725000", "084701.728000", "084701.731000", "084701.734000", "084701.736000", "084701.739000", "084701.741000", "084701.744000", "084701.746000", "084701.749000", "084701.752000", "084701.754000", "084701.757000", "084701.759000", "084701.762000", "084701.764000", "084701.767000", "084701.769000", "084701.772000", "084701.775000", "084741.724000", "084741.727000", "084741.730000", "084741.733000", "084741.735000", "084741.738000", "084741.740000", "084741.743000", "084741.745000", "084741.748000", "084741.750000", "084741.753000", "084741.755000", "084741.758000", "084741.761000", "084741.763000", "084741.766000", "084741.775000", "084741.778000", "084741.780000", "084821.725000", "084821.728000", "084821.731000", "084821.733000", "084821.736000", "084821.738000", "084821.741000", "084821.744000", "084821.746000", "084821.749000", "084821.751000", "084821.754000", "084821.756000", "084821.759000", "084821.762000", "084821.764000", "084821.767000", "084821.769000", "084821.772000", "084821.774000", "084901.725000", "084901.728000", "084901.731000", "084901.734000", "084901.736000", "084901.739000", "084901.741000", "084901.744000", "084901.746000", "084901.749000", "084901.752000", "084901.754000", "084901.757000", "084901.759000", "084901.762000", "084901.764000", "084901.767000", "084901.769000", "084901.772000", "084901.775000", "084941.726000", "084941.728000", "084941.731000", "084941.734000", "084941.736000", "084941.739000", "084941.741000", "084941.744000", "084941.747000", "084941.749000", "084941.752000", "084941.754000", "084941.757000", "084941.759000", "084941.762000", "084941.764000", "084941.773000", "084941.776000", "084941.779000", "084941.781000", "085019.219000", "085019.222000", "085019.225000", "085019.228000", "085019.230000", "085019.233000", "085019.235000", "085019.238000", "085019.240000", "085019.243000", "085019.246000", "085019.248000", "085019.251000", "085019.253000", "085019.256000", "085019.259000", "085019.263000", "085019.269000", "085019.273000"],
      "InstanceCreationTime": ["084421.730000", "084421.734000", "084421.736000", "084421.739000", "084421.742000", "084421.744000", "084421.747000", "084421.749000", "084421.760000", "084421.763000", "084421.766000", "084421.768000", "084421.771000", "084421.773000", "084421.776000", "084421.778000", "084421.781000", "084421.787000", "084421.789000", "084421.792000", "084421.794000", "084501.736000", "084501.739000", "084501.748000", "084501.751000", "084501.753000", "084501.756000", "084501.758000", "084501.761000", "084501.763000", "084501.766000", "084501.769000", "084501.771000", "084501.774000", "084501.776000", "084501.779000", "084501.781000", "084501.784000", "084501.786000", "084501.789000", "084501.792000", "084541.724000", "084541.729000", "084541.732000", "084541.735000", "084541.738000", "084541.741000", "084541.744000", "084541.746000", "084541.749000", "084541.751000", "084541.754000", "084541.756000", "084541.759000", "084541.761000", "084541.764000", "084541.766000", "084541.769000", "084541.771000", "084541.774000", "084541.777000", "084621.725000", "084621.728000", "084621.731000", "084621.734000", "084621.736000", "084621.739000", "084621.741000", "084621.744000", "084621.746000", "084621.749000", "084621.751000", "084621.754000", "084621.756000", "084621.759000", "084621.762000", "084621.764000", "084621.766000", "084621.769000", "084621.772000", "084621.774000", "084701.725000", "084701.728000", "084701.731000", "084701.734000", "084701.736000", "084701.739000", "084701.741000", "084701.744000", "084701.746000", "084701.749000", "084701.752000", "084701.754000", "084701.757000", "084701.759000", "084701.762000", "084701.764000", "084701.767000", "084701.769000", "084701.772000", "084701.775000", "084741.724000", "084741.727000", "084741.730000", "084741.733000", "084741.735000", "084741.738000", "084741.740000", "084741.743000", "084741.745000", "084741.748000", "084741.750000", "084741.753000", "084741.755000", "084741.758000", "084741.761000", "084741.763000", "084741.766000", "084741.775000", "084741.778000", "084741.780000", "084821.725000", "084821.728000", "084821.731000", "084821.733000", "084821.736000", "084821.738000", "084821.741000", "084821.744000", "084821.746000", "084821.749000", "084821.751000", "084821.754000", "084821.756000", "084821.759000", "084821.762000", "084821.764000", "084821.767000", "084821.769000", "084821.772000", "084821.774000", "084901.725000", "084901.728000", "084901.731000", "084901.734000", "084901.736000", "084901.739000", "084901.741000", "084901.744000", "084901.746000", "084901.749000", "084901.752000", "084901.754000", "084901.757000", "084901.759000", "084901.762000", "084901.764000", "084901.767000", "084901.769000", "084901.772000", "084901.775000", "084941.726000", "084941.728000", "084941.731000", "084941.734000", "084941.736000", "084941.739000", "084941.741000", "084941.744000", "084941.747000", "084941.749000", "084941.752000", "084941.754000", "084941.757000", "084941.759000", "084941.762000", "084941.764000", "084941.773000", "084941.776000", "084941.779000", "084941.781000", "085019.219000", "085019.222000", "085019.225000", "085019.228000", "085019.230000", "085019.233000", "085019.235000", "085019.238000", "085019.240000", "085019.243000", "085019.246000", "085019.248000", "085019.251000", "085019.253000", "085019.256000", "085019.259000", "085019.263000", "085019.269000", "085019.273000"],
      "InstanceNumber": [1, 2, 3, 4, 5, 6, 7, 8, 9, 10, 11, 12, 13, 14, 15, 16, 17, 18, 19, 20, 21, 22, 23, 24, 25, 26, 27, 28, 29, 30, 31, 32, 33, 34, 35, 36, 37, 38, 39, 40, 41, 42, 43, 44, 45, 46, 47, 48, 49, 50, 51, 52, 53, 54, 55, 56, 57, 58, 59, 60, 61, 62, 63, 64, 65, 66, 67, 68, 69, 70, 71, 72, 73, 74, 75, 76, 77, 78, 79, 80, 81, 82, 83, 84, 85, 86, 87, 88, 89, 90, 91, 92, 93, 94, 95, 96, 97, 98, 99, 100, 101, 102, 103, 104, 105, 106, 107, 108, 109, 110, 111, 112, 113, 114, 115, 116, 117, 118, 119, 120, 121, 122, 123, 124, 125, 126, 127, 128, 129, 130, 131, 132, 133, 134, 135, 136, 137, 138, 139, 140, 141, 142, 143, 144, 145, 146, 147, 148, 149, 150, 151, 152, 153, 154, 155, 156, 157, 158, 159, 160, 161, 162, 163, 164, 165, 166, 167, 168, 169, 170, 171, 172, 173, 174, 175, 176, 177, 178, 179, 180, 181, 182, 183, 184, 185, 186, 187, 188, 189, 190, 191, 192, 193, 194, 195, 196, 197, 198, 199, 200],
      "LargestImagePixelValue": [3765, 3774, 3774, 3771, 3776, 3776, 3768, 3771, 3771, 3774, 3770, 3769, 3776, 3776, 3777, 3773, 3773, 3773, 3771, 3774, 3773, 3776, 3774, 3770, 3773, 3771, 3772, 3767, 3769, 3767, 3766, 3771, 3776, 3774, 3777, 3781, 3780, 3780, 3775, 3779, 3774, 3775, 3765, 3764, 3768, 3761, 3765, 3761, 3762, 3761, 3766, 3764, 3764, 3765, 3765, 3772, 3776, 3770, 3769, 3770, 3771, 3770, 3770, 3769, 3769, 3773, 3768, 3770, 3768, 3770, 3767, 3764, 3764, 3760, 3760, 3763, 3765, 3765, 3770, 3775, 3777, 3774, 3772, 3777, 3775, 3775, 3774, 3772, 3776, 3772, 3776, 3777, 3778, 3774, 3773, 3768, 3769, 3772, 3771, 3776, 3769, 3773, 3773, 3769, 3767, 3765, 3767, 3766, 3763, 3770, 3768, 3767, 3770, 3771, 3770, 3769, 3764, 3762, 3765, 3763, 3760, 3763, 3764, 3766, 3767, 3766, 3773, 3773, 3776, 3772, 3771, 3772, 3768, 3764, 3767, 3764, 3766, 3769, 3761, 3760, 3754, 3754, 3753, 3757, 3753, 3758, 3758, 3759, 3754, 3753, 3755, 3754, 3754, 3756, 3755, 3754, 3756, 3756, 3760, 3761, 3762, 3764, 3754, 3762, 3758, 3761, 3759, 3762, 3765, 3764, 3772, 3775, 3773, 3772, 3776, 3773, 3773, 3775, 3775, 3772, 3771, 3771, 3769, 3766, 3767, 3761, 3759, 3766, 3764, 3764, 3768, 3766, 3764, 3766, 3762, 3760, 3767, 3766, 3766, 3764],
      "WindowCenter": [1358.0, 1358.0, 1358.0, 1358.0, 1358.0, 1358.0, 1358.0, 1357.0, 1358.0, 1358.0, 1358.0, 1358.0, 1357.0, 1357.0, 1358.0, 1358.0, 1358.0, 1357.0, 1358.0, 1357.0, 1357.0, 1357.0, 1358.0, 1357.0, 1357.0, 1357.0, 1357.0, 1357.0, 1357.0, 1357.0, 1357.0, 1357.0, 1357.0, 1357.0, 1356.0, 1357.0, 1357.0, 1357.0, 1357.0, 1357.0, 1357.0, 1357.0, 1357.0, 1356.0, 1357.0, 1356.0, 1357.0, 1357.0, 1357.0, 1356.0, 1357.0, 1357.0, 1357.0, 1356.0, 1357.0, 1357.0, 1357.0, 1356.0, 1357.0, 1356.0, 1356.0, 1356.0, 1356.0, 1357.0, 1356.0, 1356.0, 1356.0, 1356.0, 1356.0, 1356.0, 1356.0, 1356.0, 1356.0, 1356.0, 1356.0, 1356.0, 1356.0, 1356.0, 1355.0, 1355.0, 1356.0, 1355.0, 1357.0, 1355.0, 1356.0, 1355.0, 1356.0, 1355.0, 1356.0, 1356.0, 1356.0, 1355.0, 1356.0, 1355.0, 1356.0, 1356.0, 1355.0, 1355.0, 1355.0, 1355.0, 1355.0, 1355.0, 1355.0, 1355.0, 1356.0, 1355.0, 1355.0, 1355.0, 1355.0, 1355.0, 1355.0, 1355.0, 1355.0, 1355.0, 1355.0, 1356.0, 1355.0, 1356.0, 1355.0, 1354.0, 1353.0, 1353.0, 1354.0, 1354.0, 1355.0, 1354.0, 1355.0, 1354.0, 1355.0, 1355.0, 1355.0, 1355.0, 1355.0, 1355.0, 1355.0, 1355.0, 1355.0, 1355.0, 1354.0, 1355.0, 1354.0, 1354.0, 1354.0, 1355.0, 1355.0, 1354.0, 1354.0, 1354.0, 1354.0, 1354.0, 1355.0, 1355.0, 1354.0, 1355.0, 1354.0, 1355.0, 1354.0, 1355.0, 1354.0, 1354.0, 1355.0, 1354.0, 1354.0, 1354.0, 1354.0, 1354.0, 1353.0, 1353.0, 1354.0, 1354.0, 1354.0, 1354.0, 1355.0, 1354.0, 1354.0, 1354.0, 1354.0, 1354.0, 1353.0, 1354.0, 1354.0, 1354.0, 1354.0, 1354.0, 1353.0, 1354.0, 1353.0, 1353.0, 1354.0, 1354.0, 1353.0, 1353.0, 1353.0, 1354.0, 1354.0, 1353.0, 1353.0, 1354.0, 1353.0, 1353.0],
      "WindowWidth": [3264.0, 3263.0, 3263.0, 3263.0, 3263.0, 3263.0, 3263.0, 3263.0, 3263.0, 3263.0, 3262.0, 3262.0, 3263.0, 3263.0, 3263.0, 3263.0, 3263.0, 3263.0, 3262.0, 3263.0, 3263.0, 3262.0, 3262.0, 3262.0, 3263.0, 3262.0, 3262.0, 3262.0, 3262.0, 3262.0, 3262.0, 3262.0, 3262.0, 3262.0, 3263.0, 3262.0, 3262.0, 3262.0, 3262.0, 3262.0, 3262.0, 3262.0, 3262.0, 3262.0, 3261.0, 3262.0, 3261.0, 3261.0, 3262.0, 3262.0, 3262.0, 3262.0, 3261.0, 3261.0, 3261.0, 3261.0, 3261.0, 3261.0, 3261.0, 3262.0, 3261.0, 3261.0, 3261.0, 3261.0, 3262.0, 3261.0, 3261.0, 3261.0, 3261.0, 3261.0, 3261.0, 3261.0, 3261.0, 3261.0, 3261.0, 3261.0, 3261.0, 3261.0, 3261.0, 3261.0, 3260.0, 3261.0, 3261.0, 3261.0, 3260.0, 3261.0, 3261.0, 3261.0, 3260.0, 3260.0, 3260.0, 3261.0, 3260.0, 3261.0, 3260.0, 3260.0, 3261.0, 3261.0, 3260.0, 3260.0, 3260.0, 3261.0, 3260.0, 3260.0, 3260.0, 3260.0, 3260.0, 3260.0, 3260.0, 3260.0, 3260.0, 3260.0, 3260.0, 3260.0, 3260.0, 3260.0, 3260.0, 3260.0, 3260.0, 3260.0, 3257.0, 3258.0, 3258.0, 3258.0, 3259.0, 3260.0, 3260.0, 3260.0, 3259.0, 3259.0, 3259.0, 3259.0, 3259.0, 3259.0, 3260.0, 3259.0, 3259.0, 3259.0, 3259.0, 3259.0, 3259.0, 3259.0, 3259.0, 3259.0, 3259.0, 3259.0, 3259.0, 3259.0, 3259.0, 3259.0, 3259.0, 3259.0, 3259.0, 3259.0, 3259.0, 3259.0, 3259.0, 3259.0, 3259.0, 3259.0, 3259.0, 3259.0, 3258.0, 3258.0, 3259.0, 3259.0, 3258.0, 3259.0, 3259.0, 3258.0, 3258.0, 3258.0, 3258.0, 3258.0, 3258.0, 3259.0, 3258.0, 3258.0, 3258.0, 3258.0, 3258.0, 3258.0, 3258.0, 3258.0, 3259.0, 3258.0, 3258.0, 3258.0, 3258.0, 3258.0, 3258.0, 3258.0, 3258.0, 3258.0, 3258.0, 3258.0, 3258.0, 3258.0, 3258.0, 3257.0]
    },
    "slices": {}
  }
}