{
  "AcquisitionMatrixPE": 80,
  "AcquisitionNumber": 1,
  "AcquisitionTime": "09:33:53.760000",
  "BandwidthPerPixelPhaseEncode": 48.077,
  "BaseResolution": 80,
  "BodyPartExamined": "BRAIN",
  "CoilCombinationMethod": "Sum of Squares",
  "ConsistencyInfo": "N4_VE11E_LATEST_20181129",
  "ConversionSoftware": "dcm2niix",
  "ConversionSoftwareVersion": "v1.0.20220720",
  "DerivedVendorReportedEchoSpacing": 0.000519999,
  "DeviceSerialNumber": "66112",
  "DwellTime": 2.7e-06,
  "EchoTime": 0.035,
  "EchoTrainLength": 39,
  "EffectiveEchoSpacing": 0.00026,
  "FlipAngle": 90,
  "HeudiconvVersion": "0.13.1",
  "ImageOrientationPatientDICOM": [0.992652, -0.120946, 0.00386429, 0.114503, 0.949138, 0.293302],
  "ImageOrientationText": "Tra>Cor(16.9)>Sag(2.2)",
  "ImageType": [
    "ORIGINAL",
    "PRIMARY",
    "M",
    "ND",
    "NORM",
    "MOSAIC"
],
  "ImagingFrequency": 123.259,
  "InPlanePhaseEncodingDirectionDICOM": "COL",
  "InstitutionAddress": "Maynard 3,Hanover,NH,US,03755",
  "InstitutionName": "Dartmouth College - PBS",
  "InstitutionalDepartmentName": "Department",
  "MRAcquisitionType": "2D",
  "MagneticFieldStrength": 3,
  "Manufacturer": "Siemens",
  "ManufacturersModelName": "Prisma",
  "MatrixCoilMode": "GRAPPA",
  "Modality": "MR",
  "NonlinearGradientCorrection": false,
  "ParallelReductionFactorInPlane": 2,
  "PartialFourier": 1,
  "PatientPosition": "HFS",
  "PercentPhaseFOV": 100,
  "PercentSampling": 100,
  "PhaseEncodingDirection": "j-",
  "PhaseEncodingSteps": 79,
  "PhaseResolution": 1,
  "PixelBandwidth": 2315,
  "ProcedureStepDescription": "dbic^QA",
  "ProtocolName": "func-bold_task-rest_acq-p2",
  "PulseSequenceDetails": "%SiemensSeq%\\ep2d_bold",
  "ReceiveCoilActiveElements": "HEA;HEP",
  "ReceiveCoilName": "Head_32",
  "ReconMatrixPE": 80,
  "RefLinesPE": 24,
  "RepetitionTime": 2,
  "SAR": 0.0470769,
  "ScanOptions": "FS",
  "ScanningSequence": "EP",
  "SequenceName": "*epfid2d1_80",
  "SequenceVariant": "SK",
  "SeriesDescription": "func-bold_task-rest_acq-p2",
  "SeriesNumber": 5,
  "ShimSetting": [4223, -7756, -7503, -9, -126, -54, -13, 67],
  "SliceThickness": 3.5,
  "SliceTiming": [0.99, 0, 1.055, 0.065, 1.1225, 0.1325, 1.1875, 0.1975, 1.255, 0.265, 1.32, 0.33, 1.385, 0.395, 1.4525, 0.4625, 1.5175, 0.5275, 1.585, 0.595, 1.65, 0.66, 1.715, 0.725, 1.7825, 0.7925, 1.8475, 0.8575, 1.915, 0.925],
  "SoftwareVersions": "syngo MR E11",
  "SpacingBetweenSlices": 3.99,
  "StationName": "AWP66112",
  "TaskName": "rest",
  "TotalReadoutTime": 0.02054,
  "TxRefAmp": 221.309,
  "dcmmeta_affine": [
    [-2.977954626083374, 0.3435077369213104, 0.15617473423480988, 104.36449432373047],
    [0.36283841729164124, 2.8474137783050537, 1.1599115133285522, -149.8190155029297],
    [0.01159286592155695, -0.8799072504043579, 3.8144874572753906, -26.86737823486328],
    [0.0, 0.0, 0.0, 1.0]
],
  "dcmmeta_reorient_transform": [
    [0.0, -1.0, 0.0, 79.0],
    [1.0, 0.0, 0.0, 0.0],
    [0.0, 0.0, 1.0, 0.0],
    [0.0, 0.0, 0.0, 1.0]
],
  "dcmmeta_shape": [80, 80, 30, 200],
  "dcmmeta_slice_dim": 2,
  "dcmmeta_version": 0.6,
  "global": {
    "const": {
      "AccessionNumber": "qa",
      "AcquisitionMatrix": [80, 0, 0, 80],
      "AngioFlag": "N",
      "BitsAllocated": 16,
      "BitsStored": 12,
      "BodyPartExamined": "BRAIN",
      "Columns": 480,
      "EchoNumbers": 1,
      "EchoTime": 35.0,
      "EchoTrainLength": 39,
      "FlipAngle": 90.0,
      "HighBit": 11,
      "ImageOrientationPatient": [0.99265154959775, -0.1209461382382, 0.00386428860783, 0.11450258092365, 0.94913794915684, 0.29330242486582],
      "ImagePositionPatient": [-795.79408425068, -572.04177146395, -274.6800806981],
      "ImageType": [
        "ORIGINAL",
        "PRIMARY",
        "M",
        "ND",
        "NORM",
        "MOSAIC"
],
      "ImagedNucleus": "1H",
      "ImagingFrequency": 123.259123,
      "InPlanePhaseEncodingDirection": "COL",
      "MRAcquisitionType": "2D",
      "MagneticFieldStrength": 3.0,
      "Manufacturer": "SIEMENS",
      "ManufacturerModelName": "Prisma",
      "Modality": "MR",
      "NumberOfAverages": 1.0,
      "NumberOfPhaseEncodingSteps": 79,
      "PercentPhaseFieldOfView": 100.0,
      "PercentSampling": 100.0,
      "PerformedProcedureStepStartTime": "092416.822000",
      "PhotometricInterpretation": "MONOCHROME2",
      "PixelBandwidth": 2315.0,
      "PixelRepresentation": 0,
      "PixelSpacing": [3.0, 3.0],
      "ProtocolName": "func-bold_task-rest_acq-p2",
      "RepetitionTime": 2000.0,
      "Rows": 480,
      "SAR": 0.04707686957862,
      "SamplesPerPixel": 1,
      "ScanOptions": "FS",
      "ScanningSequence": "EP",
      "SequenceName": "*epfid2d1_80",
      "SequenceVariant": "SK",
      "SeriesDescription": "func-bold_task-rest_acq-p2",
      "SeriesNumber": 5,
      "SeriesTime": "093441.744000",
      "SliceLocation": -65.153626578382,
      "SliceThickness": 3.5,
      "SmallestImagePixelValue": 0,
      "SoftwareVersions": "syngo MR E11",
      "SpacingBetweenSlices": 3.9899999697489,
      "SpecificCharacterSet": "ISO_IR 100",
      "StudyID": "25",
      "StudyTime": "092416.608000",
      "TransmitCoilName": "Body",
      "VariableFlipAngleFlag": "N",
      "WindowCenterWidthExplanation": "Algo1"
    },
    "slices": {}
  },
  "time": {
    "samples": {
      "AcquisitionNumber": [1, 2, 3, 4, 5, 6, 7, 8, 9, 10, 11, 12, 13, 14, 15, 16, 17, 18, 19, 20, 21, 22, 23, 24, 25, 26, 27, 28, 29, 30, 31, 32, 33, 34, 35, 36, 37, 38, 39, 40, 41, 42, 43, 44, 45, 46, 47, 48, 49, 50, 51, 52, 53, 54, 55, 56, 57, 58, 59, 60, 61, 62, 63, 64, 65, 66, 67, 68, 69, 70, 71, 72, 73, 74, 75, 76, 77, 78, 79, 80, 81, 82, 83, 84, 85, 86, 87, 88, 89, 90, 91, 92, 93, 94, 95, 96, 97, 98, 99, 100, 101, 102, 103, 104, 105, 106, 107, 108, 109, 110, 111, 112, 113, 114, 115, 116, 117, 118, 119, 120, 121, 122, 123, 124, 125, 126, 127, 128, 129, 130, 131, 132, 133, 134, 135, 136, 137, 138, 139, 140, 141, 142, 143, 144, 145, 146, 147, 148, 149, 150, 151, 152, 153, 154, 155, 156, 157, 158, 159, 160, 161, 162, 163, 164, 165, 166, 167, 168, 169, 170, 171, 172, 173, 174, 175, 176, 177, 178, 179, 180, 181, 182, 183, 184, 185, 186, 187, 188, 189, 190, 191, 192, 193, 194, 195, 196, 197, 198, 199, 200],
      "AcquisitionTime": ["093353.760000", "093355.760000", "093357.760000", "093359.760000", "093401.760000", "093403.760000", "093405.760000", "093407.760000", "093409.760000", "093411.760000", "093413.760000", "093415.760000", "093417.760000", "093419.760000", "093421.760000", "093423.760000", "093425.760000", "093427.760000", "093429.760000", "093431.760000", "093433.760000", "093435.760000", "093437.760000", "093439.760000", "093441.760000", "093443.760000", "093445.760000", "093447.760000", "093449.760000", "093451.760000", "093453.760000", "093455.760000", "093457.760000", "093459.760000", "093501.760000", "093503.760000", "093505.760000", "093507.760000", "093509.760000", "093511.760000", "093513.760000", "093515.760000", "093517.760000", "093519.760000", "093521.760000", "093523.760000", "093525.760000", "093527.760000", "093529.760000", "093531.760000", "093533.760000", "093535.760000", "093537.760000", "093539.760000", "093541.760000", "093543.760000", "093545.760000", "093547.760000", "093549.760000", "093551.760000", "093553.760000", "093555.760000", "093557.760000", "093559.760000", "093601.760000", "093603.760000", "093605.760000", "093607.760000", "093609.760000", "093611.760000", "093613.760000", "093615.760000", "093617.760000", "093619.760000", "093621.760000", "093623.760000", "093625.760000", "093627.760000", "093629.760000", "093631.760000", "093633.760000", "093635.760000", "093637.760000", "093639.760000", "093641.760000", "093643.760000", "093645.760000", "093647.760000", "093649.760000", "093651.760000", "093653.760000", "093655.760000", "093657.760000", "093659.760000", "093701.760000", "093703.760000", "093705.760000", "093707.760000", "093709.760000", "093711.760000", "093713.760000", "093715.760000", "093717.760000", "093719.760000", "093721.760000", "093723.760000", "093725.760000", "093727.760000", "093729.760000", "093731.760000", "093733.760000", "093735.760000", "093737.760000", "093739.760000", "093741.760000", "093743.760000", "093745.760000", "093747.760000", "093749.760000", "093751.760000", "093753.760000", "093755.760000", "093757.760000", "093759.760000", "093801.760000", "093803.760000", "093805.760000", "093807.760000", "093809.760000", "093811.760000", "093813.760000", "093815.760000", "093817.760000", "093819.760000", "093821.760000", "093823.760000", "093825.760000", "093827.760000", "093829.760000", "093831.760000", "093833.760000", "093835.760000", "093837.760000", "093839.760000", "093841.760000", "093843.760000", "093845.760000", "093847.760000", "093849.760000", "093851.760000", "093853.760000", "093855.760000", "093857.760000", "093859.760000", "093901.760000", "093903.760000", "093905.760000", "093907.760000", "093909.760000", "093911.760000", "093913.760000", "093915.760000", "093917.760000", "093919.760000", "093921.760000", "093923.760000", "093925.760000", "093927.760000", "093929.760000", "093931.760000", "093933.760000", "093935.760000", "093937.760000", "093939.760000", "093941.760000", "093943.760000", "093945.760000", "093947.760000", "093949.760000", "093951.760000", "093953.760000", "093955.760000", "093957.760000", "093959.760000", "094001.760000", "094003.760000", "094005.760000", "094007.760000", "094009.760000", "094011.760000", "094013.760000", "094015.760000", "094017.760000", "094019.760000", "094021.760000", "094023.760000", "094025.760000", "094027.760000", "094029.760000", "094031.760000"],
      "ContentTime": ["093441.748000", "093441.751000", "093441.758000", "093441.760000", "093441.763000", "093441.765000", "093441.767000", "093441.769000", "093441.772000", "093441.774000", "093441.776000", "093441.779000", "093441.781000", "093441.787000", "093441.792000", "093441.802000", "093441.804000", "093441.807000", "093441.809000", "093441.811000", "093441.814000", "093441.816000", "093441.818000", "093441.821000", "093521.742000", "093521.745000", "093521.747000", "093521.755000", "093521.758000", "093521.760000", "093521.762000", "093521.765000", "093521.767000", "093521.769000", "093521.772000", "093521.774000", "093521.776000", "093521.779000", "093521.781000", "093521.783000", "093521.786000", "093521.788000", "093521.790000", "093521.793000", "093601.742000", "093601.745000", "093601.747000", "093601.749000", "093601.768000", "093601.770000", "093601.772000", "093601.774000", "093601.777000", "093601.779000", "093601.781000", "093601.783000", "093601.786000", "093601.788000", "093601.790000", "093601.793000", "093601.801000", "093601.803000", "093601.805000", "093601.808000", "093641.742000", "093641.745000", "093641.747000", "093641.749000", "093641.752000", "093641.754000", "093641.756000", "093641.758000", "093641.761000", "093641.763000", "093641.765000", "093641.776000", "093641.779000", "093641.781000", "093641.783000", "093641.786000", "093641.790000", "093641.792000", "093641.795000", "093641.797000", "093721.742000", "093721.745000", "093721.747000", "093721.749000", "093721.751000", "093721.754000", "093721.756000", "093721.758000", "093721.761000", "093721.763000", "093721.765000", "093721.767000", "093721.770000", "093721.772000", "093721.774000", "093721.777000", "093721.779000", "093721.781000", "093721.784000", "093721.786000", "093801.742000", "093801.745000", "093801.757000", "093801.759000", "093801.762000", "093801.764000", "093801.766000", "093801.769000", "093801.771000", "093801.773000", "093801.775000", "093801.778000", "093801.780000", "093801.782000", "093801.785000", "093801.787000", "093801.789000", "093801.792000", "093801.794000", "093801.796000", "093841.742000", "093841.745000", "093841.747000", "093841.749000", "093841.752000", "093841.754000", "093841.756000", "093841.759000", "093841.761000", "093841.772000", "093841.774000", "093841.776000", "093841.779000", "093841.781000", "093841.783000", "093841.786000", "093841.788000", "093841.790000", "093841.792000", "093841.795000", "093921.742000", "093921.745000", "093921.747000", "093921.749000", "093921.763000", "093921.765000", "093921.767000", "093921.776000", "093921.779000", "093921.781000", "093921.783000", "093921.785000", "093921.788000", "093921.790000", "093921.792000", "093921.795000", "093921.797000", "093921.799000", "093921.802000", "093921.804000", "094001.742000", "094001.745000", "094001.747000", "094001.750000", "094001.752000", "094001.754000", "094001.757000", "094001.759000", "094001.761000", "094001.764000", "094001.766000", "094001.768000", "094001.771000", "094001.773000", "094001.775000", "094001.778000", "094001.780000", "094001.783000", "094001.785000", "094001.787000", "094032.982000", "094032.984000", "094032.987000", "094032.989000", "094032.991000", "094032.994000", "094032.996000", "094033.001000", "094033.004000", "094033.006000", "094033.009000", "094033.017000", "094033.020000", "094033.022000", "094033.033000", "094033.038000"],
      "InstanceCreationTime": ["093441.748000", "093441.751000", "093441.758000", "093441.760000", "093441.763000", "093441.765000", "093441.767000", "093441.769000", "093441.772000", "093441.774000", "093441.776000", "093441.779000", "093441.781000", "093441.787000", "093441.792000", "093441.802000", "093441.804000", "093441.807000", "093441.809000", "093441.811000", "093441.814000", "093441.816000", "093441.818000", "093441.821000", "093521.742000", "093521.745000", "093521.747000", "093521.755000", "093521.758000", "093521.760000", "093521.762000", "093521.765000", "093521.767000", "093521.769000", "093521.772000", "093521.774000", "093521.776000", "093521.779000", "093521.781000", "093521.783000", "093521.786000", "093521.788000", "093521.790000", "093521.793000", "093601.742000", "093601.745000", "093601.747000", "093601.749000", "093601.768000", "093601.770000", "093601.772000", "093601.774000", "093601.777000", "093601.779000", "093601.781000", "093601.783000", "093601.786000", "093601.788000", "093601.790000", "093601.793000", "093601.801000", "093601.803000", "093601.805000", "093601.808000", "093641.742000", "093641.745000", "093641.747000", "093641.749000", "093641.752000", "093641.754000", "093641.756000", "093641.758000", "093641.761000", "093641.763000", "093641.765000", "093641.776000", "093641.779000", "093641.781000", "093641.783000", "093641.786000", "093641.790000", "093641.792000", "093641.795000", "093641.797000", "093721.742000", "093721.745000", "093721.747000", "093721.749000", "093721.751000", "093721.754000", "093721.756000", "093721.758000", "093721.761000", "093721.763000", "093721.765000", "093721.767000", "093721.770000", "093721.772000", "093721.774000", "093721.777000", "093721.779000", "093721.781000", "093721.784000", "093721.786000", "093801.742000", "093801.745000", "093801.757000", "093801.759000", "093801.762000", "093801.764000", "093801.766000", "093801.769000", "093801.771000", "093801.773000", "093801.775000", "093801.778000", "093801.780000", "093801.782000", "093801.785000", "093801.787000", "093801.789000", "093801.792000", "093801.794000", "093801.796000", "093841.742000", "093841.745000", "093841.747000", "093841.749000", "093841.752000", "093841.754000", "093841.756000", "093841.759000", "093841.761000", "093841.772000", "093841.774000", "093841.776000", "093841.779000", "093841.781000", "093841.783000", "093841.786000", "093841.788000", "093841.790000", "093841.792000", "093841.795000", "093921.742000", "093921.745000", "093921.747000", "093921.749000", "093921.763000", "093921.765000", "093921.767000", "093921.776000", "093921.779000", "093921.781000", "093921.783000", "093921.785000", "093921.788000", "093921.790000", "093921.792000", "093921.795000", "093921.797000", "093921.799000", "093921.802000", "093921.804000", "094001.742000", "094001.745000", "094001.747000", "094001.750000", "094001.752000", "094001.754000", "094001.757000", "094001.759000", "094001.761000", "094001.764000", "094001.766000", "094001.768000", "094001.771000", "094001.773000", "094001.775000", "094001.778000", "094001.780000", "094001.783000", "094001.785000", "094001.787000", "094032.982000", "094032.984000", "094032.987000", "094032.989000", "094032.991000", "094032.994000", "094032.996000", "094033.001000", "094033.004000", "094033.006000", "094033.009000", "094033.017000", "094033.020000", "094033.022000", "094033.033000", "094033.038000"],
      "InstanceNumber": [1, 2, 3, 4, 5, 6, 7, 8, 9, 10, 11, 12, 13, 14, 15, 16, 17, 18, 19, 20, 21, 22, 23, 24, 25, 26, 27, 28, 29, 30, 31, 32, 33, 34, 35, 36, 37, 38, 39, 40, 41, 42, 43, 44, 45, 46, 47, 48, 49, 50, 51, 52, 53, 54, 55, 56, 57, 58, 59, 60, 61, 62, 63, 64, 65, 66, 67, 68, 69, 70, 71, 72, 73, 74, 75, 76, 77, 78, 79, 80, 81, 82, 83, 84, 85, 86, 87, 88, 89, 90, 91, 92, 93, 94, 95, 96, 97, 98, 99, 100, 101, 102, 103, 104, 105, 106, 107, 108, 109, 110, 111, 112, 113, 114, 115, 116, 117, 118, 119, 120, 121, 122, 123, 124, 125, 126, 127, 128, 129, 130, 131, 132, 133, 134, 135, 136, 137, 138, 139, 140, 141, 142, 143, 144, 145, 146, 147, 148, 149, 150, 151, 152, 153, 154, 155, 156, 157, 158, 159, 160, 161, 162, 163, 164, 165, 166, 167, 168, 169, 170, 171, 172, 173, 174, 175, 176, 177, 178, 179, 180, 181, 182, 183, 184, 185, 186, 187, 188, 189, 190, 191, 192, 193, 194, 195, 196, 197, 198, 199, 200],
      "LargestImagePixelValue": [2223, 2219, 2219, 2220, 2218, 2216, 2217, 2220, 2220, 2214, 2223, 2221, 2224, 2224, 2223, 2224, 2218, 2222, 2218, 2220, 2220, 2226, 2221, 2226, 2220, 2222, 2220, 2215, 2218, 2218, 2223, 2221, 2219, 2218, 2223, 2220, 2223, 2219, 2218, 2223, 2219, 2219, 2221, 2224, 2216, 2219, 2217, 2222, 2224, 2224, 2217, 2217, 2217, 2219, 2222, 2217, 2227, 2217, 2220, 2219, 2220, 2220, 2221, 2221, 2222, 2220, 2221, 2221, 2223, 2219, 2219, 2215, 2216, 2225, 2221, 2217, 2220, 2216, 2219, 2222, 2221, 2219, 2218, 2223, 2217, 2220, 2220, 2216, 2219, 2220, 2221, 2216, 2213, 2220, 2218, 2217, 2214, 2224, 2219, 2220, 2217, 2219, 2222, 2216, 2215, 2223, 2217, 2215, 2214, 2222, 2222, 2225, 2216, 2218, 2215, 2218, 2219, 2218, 2219, 2226, 2227, 2220, 2218, 2218, 2216, 2219, 2217, 2222, 2217, 2219, 2212, 2220, 2218, 2223, 2216, 2217, 2214, 2218, 2214, 2214, 2215, 2213, 2215, 2220, 2216, 2215, 2220, 2217, 2221, 2220, 2216, 2215, 2216, 2218, 2215, 2219, 2217, 2218, 2214, 2216, 2216, 2216, 2222, 2216, 2217, 2215, 2216, 2214, 2215, 2216, 2217, 2216, 2218, 2214, 2215, 2217, 2218, 2214, 2216, 2218, 2216, 2219, 2215, 2220, 2218, 2217, 2217, 2217, 2217, 2212, 2221, 2216, 2215, 2220, 2217, 2218, 2218, 2217, 2218, 2217],
      "WindowCenter": [1039.0, 1038.0, 1038.0, 1038.0, 1038.0, 1038.0, 1038.0, 1038.0, 1038.0, 1038.0, 1038.0, 1038.0, 1038.0, 1038.0, 1038.0, 1038.0, 1038.0, 1038.0, 1038.0, 1038.0, 1038.0, 1038.0, 1038.0, 1038.0, 1038.0, 1038.0, 1038.0, 1038.0, 1038.0, 1038.0, 1038.0, 1038.0, 1038.0, 1038.0, 1038.0, 1038.0, 1038.0, 1038.0, 1038.0, 1038.0, 1038.0, 1038.0, 1038.0, 1038.0, 1038.0, 1038.0, 1038.0, 1038.0, 1038.0, 1038.0, 1038.0, 1038.0, 1038.0, 1038.0, 1038.0, 1038.0, 1038.0, 1038.0, 1038.0, 1038.0, 1038.0, 1038.0, 1038.0, 1038.0, 1038.0, 1038.0, 1038.0, 1038.0, 1038.0, 1038.0, 1038.0, 1038.0, 1038.0, 1038.0, 1038.0, 1038.0, 1038.0, 1038.0, 1038.0, 1038.0, 1038.0, 1038.0, 1038.0, 1038.0, 1038.0, 1038.0, 1038.0, 1038.0, 1038.0, 1038.0, 1038.0, 1038.0, 1038.0, 1038.0, 1038.0, 1038.0, 1038.0, 1038.0, 1038.0, 1038.0, 1038.0, 1038.0, 1038.0, 1038.0, 1038.0, 1038.0, 1038.0, 1038.0, 1038.0, 1038.0, 1038.0, 1038.0, 1038.0, 1038.0, 1038.0, 1038.0, 1038.0, 1038.0, 1038.0, 1038.0, 1038.0, 1038.0, 1037.0, 1037.0, 1038.0, 1038.0, 1038.0, 1037.0, 1037.0, 1037.0, 1037.0, 1037.0, 1037.0, 1038.0, 1037.0, 1038.0, 1038.0, 1037.0, 1037.0, 1037.0, 1037.0, 1037.0, 1037.0, 1037.0, 1037.0, 1037.0, 1037.0, 1037.0, 1037.0, 1037.0, 1037.0, 1037.0, 1037.0, 1037.0, 1037.0, 1037.0, 1037.0, 1037.0, 1037.0, 1037.0, 1037.0, 1037.0, 1037.0, 1037.0, 1037.0, 1037.0, 1037.0, 1037.0, 1037.0, 1037.0, 1037.0, 1037.0, 1037.0, 1037.0, 1037.0, 1037.0, 1037.0, 1037.0, 1037.0, 1037.0, 1037.0, 1037.0, 1037.0, 1037.0, 1037.0, 1037.0, 1037.0, 1037.0, 1037.0, 1037.0, 1037.0, 1037.0, 1037.0, 1037.0, 1037.0, 1037.0, 1037.0, 1037.0, 1037.0, 1037.0],
      "WindowWidth": [2321.0, 2320.0, 2320.0, 2320.0, 2320.0, 2320.0, 2320.0, 2320.0, 2320.0, 2320.0, 2320.0, 2320.0, 2320.0, 2320.0, 2320.0, 2320.0, 2320.0, 2320.0, 2320.0, 2320.0, 2320.0, 2320.0, 2320.0, 2320.0, 2320.0, 2320.0, 2320.0, 2320.0, 2320.0, 2320.0, 2320.0, 2320.0, 2320.0, 2320.0, 2320.0, 2320.0, 2320.0, 2319.0, 2320.0, 2319.0, 2319.0, 2319.0, 2319.0, 2320.0, 2319.0, 2319.0, 2319.0, 2319.0, 2319.0, 2319.0, 2319.0, 2319.0, 2319.0, 2319.0, 2319.0, 2319.0, 2319.0, 2319.0, 2319.0, 2319.0, 2319.0, 2319.0, 2319.0, 2319.0, 2319.0, 2319.0, 2319.0, 2319.0, 2319.0, 2319.0, 2318.0, 2319.0, 2319.0, 2319.0, 2318.0, 2318.0, 2319.0, 2319.0, 2318.0, 2318.0, 2318.0, 2319.0, 2319.0, 2318.0, 2318.0, 2318.0, 2318.0, 2318.0, 2318.0, 2318.0, 2318.0, 2318.0, 2318.0, 2318.0, 2318.0, 2318.0, 2318.0, 2318.0, 2318.0, 2318.0, 2318.0, 2318.0, 2318.0, 2318.0, 2318.0, 2318.0, 2318.0, 2318.0, 2318.0, 2318.0, 2318.0, 2318.0, 2318.0, 2318.0, 2318.0, 2318.0, 2318.0, 2317.0, 2317.0, 2318.0, 2318.0, 2318.0, 2317.0, 2317.0, 2317.0, 2317.0, 2317.0, 2317.0, 2317.0, 2317.0, 2317.0, 2317.0, 2317.0, 2317.0, 2317.0, 2317.0, 2317.0, 2317.0, 2317.0, 2317.0, 2317.0, 2317.0, 2317.0, 2317.0, 2317.0, 2317.0, 2317.0, 2317.0, 2317.0, 2317.0, 2317.0, 2317.0, 2317.0, 2317.0, 2317.0, 2317.0, 2317.0, 2317.0, 2317.0, 2317.0, 2317.0, 2317.0, 2317.0, 2317.0, 2317.0, 2317.0, 2317.0, 2317.0, 2317.0, 2317.0, 2317.0, 2317.0, 2317.0, 2317.0, 2317.0, 2317.0, 2317.0, 2317.0, 2317.0, 2316.0, 2317.0, 2317.0, 2316.0, 2317.0, 2316.0, 2316.0, 2316.0, 2317.0, 2316.0, 2316.0, 2317.0, 2317.0, 2317.0, 2316.0, 2317.0, 2316.0, 2316.0, 2316.0, 2316.0, 2317.0]
    },
    "slices": {}
  }
}