{
  "AcquisitionMatrixPE": 80,
  "AcquisitionNumber": 1,
  "AcquisitionTime": "08:52:51.507500",
  "BandwidthPerPixelPhaseEncode": 25,
  "BaseResolution": 80,
  "BodyPartExamined": "BRAIN",
  "CoilCombinationMethod": "Sum of Squares",
  "ConsistencyInfo": "N4_VE11C_LATEST_20160120",
  "ConversionSoftware": "dcm2niix",
  "ConversionSoftwareVersion": "v1.0.20220720",
  "DerivedVendorReportedEchoSpacing": 0.0005,
  "DeviceSerialNumber": "66112",
  "DwellTime": 2.7e-06,
  "EchoTime": 0.03,
  "EchoTrainLength": 80,
  "EffectiveEchoSpacing": 0.0005,
  "FlipAngle": 77,
  "HeudiconvVersion": "0.13.1",
  "ImageOrientationPatientDICOM": [0.981153, 0.192804, 0.012843, -0.187343, 0.932869, 0.307667],
  "ImageOrientationText": "Tra>Cor(17.7)>Sag(-2.7)",
  "ImageType": [
    "ORIGINAL",
    "PRIMARY",
    "M",
    "ND",
    "NORM",
    "MOSAIC"
],
  "ImagingFrequency": 123.252,
  "InPlanePhaseEncodingDirectionDICOM": "COL",
  "InstitutionAddress": "Maynard 3,Hanover,NH,US,03755",
  "InstitutionName": "Dartmouth College - PBS",
  "InstitutionalDepartmentName": "Department",
  "MRAcquisitionType": "2D",
  "MagneticFieldStrength": 3,
  "Manufacturer": "Siemens",
  "ManufacturersModelName": "Prisma",
  "MatrixCoilMode": "SENSE",
  "Modality": "MR",
  "NonlinearGradientCorrection": false,
  "PartialFourier": 1,
  "PatientPosition": "HFS",
  "PercentPhaseFOV": 100,
  "PercentSampling": 100,
  "PhaseEncodingDirection": "j-",
  "PhaseEncodingSteps": 80,
  "PhaseResolution": 1,
  "PixelBandwidth": 2315,
  "ProcedureStepDescription": "dbic^QA",
  "ProtocolName": "func-bold_fa-77",
  "PulseSequenceDetails": "%SiemensSeq%\\ep2d_bold",
  "ReceiveCoilActiveElements": "HEA;HEP",
  "ReceiveCoilName": "Head_32",
  "ReconMatrixPE": 80,
  "RepetitionTime": 2,
  "SAR": 0.0437333,
  "ScanOptions": "FS",
  "ScanningSequence": "EP",
  "SequenceName": "*epfid2d1_80",
  "SequenceVariant": "SK",
  "SeriesDescription": "func-bold_fa-77",
  "SeriesNumber": 8,
  "ShimSetting": [4147, -7695, -7506, 309, -26, -148, -44, 57],
  "SliceThickness": 3.5,
  "SliceTiming": [0.99, 0, 1.0575, 0.0675, 1.1225, 0.1325, 1.1875, 0.2, 1.255, 0.265, 1.32, 0.33, 1.3875, 0.3975, 1.4525, 0.4625, 1.5175, 0.53, 1.585, 0.595, 1.65, 0.66, 1.7175, 0.7275, 1.7825, 0.7925, 1.8475, 0.86, 1.915, 0.925],
  "SoftwareVersions": "syngo MR E11",
  "SpacingBetweenSlices": 3.99,
  "StationName": "AWP66112",
  "TotalReadoutTime": 0.0395,
  "TxRefAmp": 226.985,
  "dcmmeta_affine": [
    [-2.943459987640381, -0.5620275139808655, -0.18888044357299805, 145.9053497314453],
    [-0.5784105658531189, 2.7986056804656982, 1.2140557765960693, -94.19125366210938],
    [0.038529034703969955, -0.923001229763031, 3.7961153984069824, -25.96240997314453],
    [0.0, 0.0, 0.0, 1.0]
],
  "dcmmeta_reorient_transform": [
    [0.0, -1.0, 0.0, 79.0],
    [1.0, 0.0, 0.0, 0.0],
    [0.0, 0.0, 1.0, 0.0],
    [0.0, 0.0, 0.0, 1.0]
],
  "dcmmeta_shape": [80, 80, 30, 200],
  "dcmmeta_slice_dim": 2,
  "dcmmeta_version": 0.6,
  "global": {
    "const": {
      "AccessionNumber": "qa",
      "AcquisitionMatrix": [80, 0, 0, 80],
      "AngioFlag": "N",
      "BitsAllocated": 16,
      "BitsStored": 12,
      "BodyPartExamined": "BRAIN",
      "Columns": 480,
      "EchoNumbers": 1,
      "EchoTime": 30.0,
      "EchoTrainLength": 80,
      "FlipAngle": 77.0,
      "HighBit": 11,
      "ImageOrientationPatient": [0.98115332924387, 0.1928035310375, 0.01284301106247, -0.1873425068314, 0.9328685610046, 0.307667081475],
      "ImagePositionPatient": [-577.79166496643, -802.30184793596, -291.18556344094],
      "ImageType": [
        "ORIGINAL",
        "PRIMARY",
        "M",
        "ND",
        "NORM",
        "MOSAIC"
],
      "ImagedNucleus": "1H",
      "ImagingFrequency": 123.252408,
      "InPlanePhaseEncodingDirection": "COL",
      "MRAcquisitionType": "2D",
      "MagneticFieldStrength": 3.0,
      "Manufacturer": "SIEMENS",
      "ManufacturerModelName": "Prisma",
      "Modality": "MR",
      "NumberOfAverages": 1.0,
      "NumberOfPhaseEncodingSteps": 80,
      "PercentPhaseFieldOfView": 100.0,
      "PercentSampling": 100.0,
      "PerformedProcedureStepStartTime": "083457.956000",
      "PhotometricInterpretation": "MONOCHROME2",
      "PixelBandwidth": 2315.0,
      "PixelRepresentation": 0,
      "PixelSpacing": [3.0, 3.0],
      "ProtocolName": "func-bold_fa-77",
      "RepetitionTime": 2000.0,
      "Rows": 480,
      "SAR": 0.0437333391862,
      "SamplesPerPixel": 1,
      "ScanOptions": "FS",
      "ScanningSequence": "EP",
      "SequenceName": "*epfid2d1_80",
      "SequenceVariant": "SK",
      "SeriesDescription": "func-bold_fa-77",
      "SeriesNumber": 8,
      "SeriesTime": "085349.492000",
      "SliceLocation": -60.267771537733,
      "SliceThickness": 3.5,
      "SmallestImagePixelValue": 0,
      "SoftwareVersions": "syngo MR E11",
      "SpacingBetweenSlices": 3.9899999722688,
      "SpecificCharacterSet": "ISO_IR 100",
      "StudyID": "25",
      "StudyTime": "083457.887000",
      "TransmitCoilName": "Body",
      "VariableFlipAngleFlag": "N",
      "WindowCenterWidthExplanation": "Algo1",
      "dBdt": 0.0},
    "slices": {}
  },
  "time": {
    "samples": {
      "AcquisitionNumber": [1, 2, 3, 4, 5, 6, 7, 8, 9, 10, 11, 12, 13, 14, 15, 16, 17, 18, 19, 20, 21, 22, 23, 24, 25, 26, 27, 28, 29, 30, 31, 32, 33, 34, 35, 36, 37, 38, 39, 40, 41, 42, 43, 44, 45, 46, 47, 48, 49, 50, 51, 52, 53, 54, 55, 56, 57, 58, 59, 60, 61, 62, 63, 64, 65, 66, 67, 68, 69, 70, 71, 72, 73, 74, 75, 76, 77, 78, 79, 80, 81, 82, 83, 84, 85, 86, 87, 88, 89, 90, 91, 92, 93, 94, 95, 96, 97, 98, 99, 100, 101, 102, 103, 104, 105, 106, 107, 108, 109, 110, 111, 112, 113, 114, 115, 116, 117, 118, 119, 120, 121, 122, 123, 124, 125, 126, 127, 128, 129, 130, 131, 132, 133, 134, 135, 136, 137, 138, 139, 140, 141, 142, 143, 144, 145, 146, 147, 148, 149, 150, 151, 152, 153, 154, 155, 156, 157, 158, 159, 160, 161, 162, 163, 164, 165, 166, 167, 168, 169, 170, 171, 172, 173, 174, 175, 176, 177, 178, 179, 180, 181, 182, 183, 184, 185, 186, 187, 188, 189, 190, 191, 192, 193, 194, 195, 196, 197, 198, 199, 200],
      "AcquisitionTime": ["085251.507500", "085253.507500", "085255.507500", "085257.507500", "085259.507500", "085301.507500", "085303.507500", "085305.507500", "085307.507500", "085309.507500", "085311.507500", "085313.507500", "085315.507500", "085317.507500", "085319.507500", "085321.507500", "085323.507500", "085325.507500", "085327.507500", "085329.507500", "085331.507500", "085333.507500", "085335.507500", "085337.507500", "085339.507500", "085341.507500", "085343.507500", "085345.507500", "085347.507500", "085349.507500", "085351.507500", "085353.507500", "085355.507500", "085357.507500", "085359.507500", "085401.507500", "085403.507500", "085405.507500", "085407.507500", "085409.507500", "085411.507500", "085413.507500", "085415.507500", "085417.507500", "085419.507500", "085421.507500", "085423.507500", "085425.507500", "085427.507500", "085429.507500", "085431.507500", "085433.507500", "085435.507500", "085437.507500", "085439.507500", "085441.507500", "085443.507500", "085445.507500", "085447.507500", "085449.507500", "085451.507500", "085453.507500", "085455.507500", "085457.507500", "085459.507500", "085501.507500", "085503.507500", "085505.507500", "085507.507500", "085509.507500", "085511.507500", "085513.507500", "085515.507500", "085517.507500", "085519.507500", "085521.507500", "085523.507500", "085525.507500", "085527.507500", "085529.507500", "085531.507500", "085533.507500", "085535.507500", "085537.507500", "085539.507500", "085541.507500", "085543.507500", "085545.507500", "085547.507500", "085549.507500", "085551.507500", "085553.507500", "085555.507500", "085557.507500", "085559.507500", "085601.507500", "085603.507500", "085605.507500", "085607.507500", "085609.507500", "085611.507500", "085613.507500", "085615.507500", "085617.507500", "085619.507500", "085621.507500", "085623.507500", "085625.507500", "085627.507500", "085629.507500", "085631.507500", "085633.507500", "085635.507500", "085637.507500", "085639.507500", "085641.507500", "085643.507500", "085645.507500", "085647.507500", "085649.507500", "085651.507500", "085653.507500", "085655.507500", "085657.507500", "085659.507500", "085701.507500", "085703.507500", "085705.507500", "085707.507500", "085709.507500", "085711.507500", "085713.507500", "085715.507500", "085717.507500", "085719.507500", "085721.507500", "085723.507500", "085725.507500", "085727.507500", "085729.507500", "085731.507500", "085733.507500", "085735.507500", "085737.507500", "085739.507500", "085741.507500", "085743.507500", "085745.507500", "085747.507500", "085749.507500", "085751.507500", "085753.507500", "085755.507500", "085757.507500", "085759.507500", "085801.507500", "085803.507500", "085805.507500", "085807.507500", "085809.507500", "085811.507500", "085813.507500", "085815.507500", "085817.507500", "085819.507500", "085821.507500", "085823.507500", "085825.507500", "085827.507500", "085829.507500", "085831.507500", "085833.507500", "085835.507500", "085837.507500", "085839.507500", "085841.507500", "085843.507500", "085845.507500", "085847.507500", "085849.507500", "085851.507500", "085853.507500", "085855.507500", "085857.507500", "085859.507500", "085901.507500", "085903.507500", "085905.507500", "085907.507500", "085909.507500", "085911.507500", "085913.507500", "085915.507500", "085917.507500", "085919.507500", "085921.507500", "085923.507500", "085925.507500", "085927.507500", "085929.507500"],
      "ContentTime": ["085349.495000", "085349.499000", "085349.501000", "085349.504000", "085349.507000", "085349.509000", "085349.512000", "085349.514000", "085349.517000", "085349.519000", "085349.522000", "085349.524000", "085349.527000", "085349.529000", "085349.532000", "085349.535000", "085349.537000", "085349.540000", "085349.542000", "085349.545000", "085349.547000", "085349.550000", "085349.553000", "085349.555000", "085349.558000", "085349.560000", "085349.563000", "085349.565000", "085349.580000", "085429.489000", "085429.492000", "085429.495000", "085429.497000", "085429.500000", "085429.503000", "085429.505000", "085429.508000", "085429.520000", "085429.523000", "085429.526000", "085429.528000", "085429.531000", "085429.533000", "085429.536000", "085429.538000", "085429.541000", "085429.543000", "085429.546000", "085429.548000", "085509.489000", "085509.492000", "085509.495000", "085509.497000", "085509.500000", "085509.502000", "085509.505000", "085509.508000", "085509.510000", "085509.513000", "085509.515000", "085509.518000", "085509.520000", "085509.523000", "085509.525000", "085509.528000", "085509.530000", "085509.533000", "085509.535000", "085509.538000", "085549.490000", "085549.493000", "085549.496000", "085549.499000", "085549.501000", "085549.504000", "085549.506000", "085549.509000", "085549.511000", "085549.514000", "085549.517000", "085549.519000", "085549.522000", "085549.524000", "085549.527000", "085549.529000", "085549.532000", "085549.534000", "085549.537000", "085549.540000", "085629.489000", "085629.492000", "085629.495000", "085629.497000", "085629.500000", "085629.502000", "085629.505000", "085629.508000", "085629.510000", "085629.513000", "085629.515000", "085629.518000", "085629.521000", "085629.523000", "085629.526000", "085629.528000", "085629.531000", "085629.533000", "085629.536000", "085629.539000", "085709.490000", "085709.492000", "085709.495000", "085709.498000", "085709.500000", "085709.503000", "085709.505000", "085709.508000", "085709.510000", "085709.513000", "085709.515000", "085709.518000", "085709.520000", "085709.523000", "085709.525000", "085709.528000", "085709.530000", "085709.533000", "085709.535000", "085709.538000", "085749.491000", "085749.493000", "085749.496000", "085749.499000", "085749.501000", "085749.504000", "085749.507000", "085749.509000", "085749.512000", "085749.514000", "085749.517000", "085749.520000", "085749.522000", "085749.525000", "085749.527000", "085749.530000", "085749.532000", "085749.535000", "085749.538000", "085749.540000", "085829.490000", "085829.493000", "085829.496000", "085829.498000", "085829.501000", "085829.504000", "085829.506000", "085829.509000", "085829.511000", "085829.521000", "085829.523000", "085829.526000", "085829.528000", "085829.531000", "085829.534000", "085829.536000", "085829.539000", "085829.541000", "085829.544000", "085829.546000", "085909.489000", "085909.492000", "085909.495000", "085909.497000", "085909.500000", "085909.503000", "085909.505000", "085909.508000", "085909.510000", "085909.513000", "085909.515000", "085909.518000", "085909.520000", "085909.523000", "085909.526000", "085909.528000", "085909.531000", "085909.533000", "085909.536000", "085909.538000", "085931.388000", "085931.391000", "085931.393000", "085931.396000", "085931.398000", "085931.401000", "085931.404000", "085931.406000", "085931.409000", "085931.411000", "085931.414000"],
      "InstanceCreationTime": ["085349.495000", "085349.499000", "085349.501000", "085349.504000", "085349.507000", "085349.509000", "085349.512000", "085349.514000", "085349.517000", "085349.519000", "085349.522000", "085349.524000", "085349.527000", "085349.529000", "085349.532000", "085349.535000", "085349.537000", "085349.540000", "085349.542000", "085349.545000", "085349.547000", "085349.550000", "085349.553000", "085349.555000", "085349.558000", "085349.560000", "085349.563000", "085349.565000", "085349.580000", "085429.489000", "085429.492000", "085429.495000", "085429.497000", "085429.500000", "085429.503000", "085429.505000", "085429.508000", "085429.520000", "085429.523000", "085429.526000", "085429.528000", "085429.531000", "085429.533000", "085429.536000", "085429.538000", "085429.541000", "085429.543000", "085429.546000", "085429.548000", "085509.489000", "085509.492000", "085509.495000", "085509.497000", "085509.500000", "085509.502000", "085509.505000", "085509.508000", "085509.510000", "085509.513000", "085509.515000", "085509.518000", "085509.520000", "085509.523000", "085509.525000", "085509.528000", "085509.530000", "085509.533000", "085509.535000", "085509.538000", "085549.490000", "085549.493000", "085549.496000", "085549.499000", "085549.501000", "085549.504000", "085549.506000", "085549.509000", "085549.511000", "085549.514000", "085549.517000", "085549.519000", "085549.522000", "085549.524000", "085549.527000", "085549.529000", "085549.532000", "085549.534000", "085549.537000", "085549.540000", "085629.489000", "085629.492000", "085629.495000", "085629.497000", "085629.500000", "085629.502000", "085629.505000", "085629.508000", "085629.510000", "085629.513000", "085629.515000", "085629.518000", "085629.521000", "085629.523000", "085629.526000", "085629.528000", "085629.531000", "085629.533000", "085629.536000", "085629.539000", "085709.490000", "085709.492000", "085709.495000", "085709.498000", "085709.500000", "085709.503000", "085709.505000", "085709.508000", "085709.510000", "085709.513000", "085709.515000", "085709.518000", "085709.520000", "085709.523000", "085709.525000", "085709.528000", "085709.530000", "085709.533000", "085709.535000", "085709.538000", "085749.491000", "085749.493000", "085749.496000", "085749.499000", "085749.501000", "085749.504000", "085749.507000", "085749.509000", "085749.512000", "085749.514000", "085749.517000", "085749.520000", "085749.522000", "085749.525000", "085749.527000", "085749.530000", "085749.532000", "085749.535000", "085749.538000", "085749.540000", "085829.490000", "085829.493000", "085829.496000", "085829.498000", "085829.501000", "085829.504000", "085829.506000", "085829.509000", "085829.511000", "085829.521000", "085829.523000", "085829.526000", "085829.528000", "085829.531000", "085829.534000", "085829.536000", "085829.539000", "085829.541000", "085829.544000", "085829.546000", "085909.489000", "085909.492000", "085909.495000", "085909.497000", "085909.500000", "085909.503000", "085909.505000", "085909.508000", "085909.510000", "085909.513000", "085909.515000", "085909.518000", "085909.520000", "085909.523000", "085909.526000", "085909.528000", "085909.531000", "085909.533000", "085909.536000", "085909.538000", "085931.388000", "085931.391000", "085931.393000", "085931.396000", "085931.398000", "085931.401000", "085931.404000", "085931.406000", "085931.409000", "085931.411000", "085931.414000"],
      "InstanceNumber": [1, 2, 3, 4, 5, 6, 7, 8, 9, 10, 11, 12, 13, 14, 15, 16, 17, 18, 19, 20, 21, 22, 23, 24, 25, 26, 27, 28, 29, 30, 31, 32, 33, 34, 35, 36, 37, 38, 39, 40, 41, 42, 43, 44, 45, 46, 47, 48, 49, 50, 51, 52, 53, 54, 55, 56, 57, 58, 59, 60, 61, 62, 63, 64, 65, 66, 67, 68, 69, 70, 71, 72, 73, 74, 75, 76, 77, 78, 79, 80, 81, 82, 83, 84, 85, 86, 87, 88, 89, 90, 91, 92, 93, 94, 95, 96, 97, 98, 99, 100, 101, 102, 103, 104, 105, 106, 107, 108, 109, 110, 111, 112, 113, 114, 115, 116, 117, 118, 119, 120, 121, 122, 123, 124, 125, 126, 127, 128, 129, 130, 131, 132, 133, 134, 135, 136, 137, 138, 139, 140, 141, 142, 143, 144, 145, 146, 147, 148, 149, 150, 151, 152, 153, 154, 155, 156, 157, 158, 159, 160, 161, 162, 163, 164, 165, 166, 167, 168, 169, 170, 171, 172, 173, 174, 175, 176, 177, 178, 179, 180, 181, 182, 183, 184, 185, 186, 187, 188, 189, 190, 191, 192, 193, 194, 195, 196, 197, 198, 199, 200],
      "LargestImagePixelValue": [1887, 1892, 1891, 1892, 1892, 1892, 1890, 1893, 1889, 1891, 1889, 1890, 1887, 1888, 1891, 1890, 1892, 1889, 1891, 1890, 1887, 1889, 1889, 1889, 1892, 1887, 1889, 1887, 1887, 1889, 1889, 1890, 1891, 1889, 1888, 1889, 1886, 1887, 1887, 1888, 1884, 1885, 1886, 1889, 1887, 1888, 1886, 1889, 1888, 1884, 1886, 1884, 1885, 1887, 1886, 1889, 1889, 1889, 1890, 1888, 1887, 1888, 1887, 1886, 1886, 1888, 1890, 1888, 1889, 1892, 1890, 1891, 1891, 1892, 1889, 1888, 1889, 1887, 1888, 1889, 1890, 1889, 1889, 1890, 1888, 1890, 1886, 1888, 1888, 1890, 1891, 1889, 1891, 1892, 1885, 1887, 1888, 1888, 1887, 1888, 1887, 1888, 1885, 1887, 1888, 1886, 1887, 1888, 1886, 1886, 1887, 1888, 1890, 1890, 1890, 1886, 1886, 1885, 1883, 1882, 1885, 1885, 1884, 1888, 1886, 1883, 1887, 1887, 1887, 1888, 1885, 1883, 1885, 1883, 1883, 1886, 1888, 1887, 1888, 1887, 1888, 1886, 1887, 1888, 1889, 1886, 1888, 1889, 1884, 1885, 1885, 1884, 1887, 1884, 1882, 1885, 1884, 1884, 1887, 1886, 1886, 1888, 1886, 1885, 1884, 1884, 1884, 1885, 1884, 1886, 1884, 1885, 1883, 1883, 1884, 1883, 1883, 1883, 1884, 1885, 1885, 1883, 1885, 1886, 1883, 1883, 1885, 1882, 1884, 1886, 1885, 1881, 1885, 1882, 1886, 1884, 1884, 1884, 1882, 1885],
      "WindowCenter": [955.0, 955.0, 955.0, 955.0, 955.0, 954.0, 954.0, 955.0, 955.0, 955.0, 955.0, 953.0, 955.0, 954.0, 954.0, 955.0, 955.0, 955.0, 953.0, 954.0, 954.0, 955.0, 955.0, 954.0, 953.0, 953.0, 954.0, 953.0, 954.0, 953.0, 954.0, 955.0, 955.0, 954.0, 954.0, 955.0, 955.0, 954.0, 954.0, 953.0, 955.0, 955.0, 955.0, 953.0, 955.0, 955.0, 954.0, 955.0, 954.0, 955.0, 954.0, 953.0, 954.0, 955.0, 955.0, 954.0, 954.0, 954.0, 954.0, 954.0, 955.0, 954.0, 954.0, 954.0, 954.0, 954.0, 954.0, 954.0, 954.0, 954.0, 954.0, 954.0, 954.0, 954.0, 954.0, 954.0, 954.0, 954.0, 954.0, 954.0, 953.0, 954.0, 954.0, 954.0, 954.0, 954.0, 954.0, 954.0, 953.0, 954.0, 954.0, 953.0, 954.0, 953.0, 955.0, 953.0, 954.0, 954.0, 954.0, 954.0, 954.0, 954.0, 954.0, 954.0, 954.0, 954.0, 954.0, 954.0, 953.0, 954.0, 954.0, 954.0, 954.0, 953.0, 953.0, 954.0, 953.0, 952.0, 953.0, 953.0, 953.0, 953.0, 953.0, 954.0, 953.0, 953.0, 954.0, 953.0, 954.0, 953.0, 954.0, 954.0, 953.0, 954.0, 954.0, 954.0, 953.0, 953.0, 954.0, 954.0, 954.0, 953.0, 954.0, 953.0, 954.0, 953.0, 954.0, 953.0, 954.0, 954.0, 954.0, 954.0, 954.0, 954.0, 954.0, 953.0, 953.0, 951.0, 953.0, 953.0, 955.0, 954.0, 954.0, 954.0, 954.0, 954.0, 953.0, 952.0, 954.0, 954.0, 954.0, 954.0, 954.0, 954.0, 954.0, 954.0, 954.0, 952.0, 954.0, 954.0, 953.0, 953.0, 954.0, 954.0, 954.0, 954.0, 954.0, 954.0, 954.0, 954.0, 952.0, 953.0, 953.0, 953.0, 954.0, 951.0, 953.0, 953.0, 953.0, 953.0],
      "WindowWidth": [2073.0, 2073.0, 2072.0, 2074.0, 2072.0, 2072.0, 2072.0, 2073.0, 2073.0, 2073.0, 2072.0, 2070.0, 2072.0, 2071.0, 2072.0, 2072.0, 2072.0, 2072.0, 2071.0, 2072.0, 2071.0, 2072.0, 2072.0, 2071.0, 2071.0, 2071.0, 2072.0, 2071.0, 2071.0, 2070.0, 2071.0, 2072.0, 2072.0, 2071.0, 2071.0, 2072.0, 2072.0, 2071.0, 2071.0, 2070.0, 2072.0, 2071.0, 2071.0, 2070.0, 2071.0, 2071.0, 2071.0, 2071.0, 2071.0, 2071.0, 2071.0, 2070.0, 2071.0, 2071.0, 2071.0, 2071.0, 2071.0, 2071.0, 2071.0, 2071.0, 2072.0, 2071.0, 2071.0, 2071.0, 2071.0, 2071.0, 2071.0, 2071.0, 2071.0, 2071.0, 2071.0, 2071.0, 2071.0, 2071.0, 2071.0, 2071.0, 2070.0, 2070.0, 2070.0, 2070.0, 2070.0, 2070.0, 2070.0, 2070.0, 2071.0, 2071.0, 2071.0, 2070.0, 2070.0, 2070.0, 2071.0, 2070.0, 2071.0, 2070.0, 2071.0, 2070.0, 2070.0, 2070.0, 2070.0, 2070.0, 2070.0, 2070.0, 2070.0, 2070.0, 2070.0, 2070.0, 2070.0, 2070.0, 2070.0, 2070.0, 2070.0, 2070.0, 2070.0, 2069.0, 2069.0, 2070.0, 2069.0, 2068.0, 2069.0, 2069.0, 2069.0, 2069.0, 2069.0, 2070.0, 2069.0, 2069.0, 2070.0, 2070.0, 2070.0, 2070.0, 2070.0, 2070.0, 2069.0, 2070.0, 2070.0, 2070.0, 2069.0, 2069.0, 2070.0, 2070.0, 2070.0, 2069.0, 2070.0, 2069.0, 2070.0, 2069.0, 2070.0, 2069.0, 2070.0, 2070.0, 2070.0, 2070.0, 2070.0, 2070.0, 2070.0, 2069.0, 2069.0, 2068.0, 2069.0, 2069.0, 2071.0, 2070.0, 2070.0, 2070.0, 2070.0, 2070.0, 2068.0, 2068.0, 2070.0, 2069.0, 2070.0, 2069.0, 2069.0, 2070.0, 2070.0, 2070.0, 2069.0, 2068.0, 2069.0, 2069.0, 2069.0, 2068.0, 2069.0, 2070.0, 2070.0, 2070.0, 2069.0, 2070.0, 2069.0, 2069.0, 2068.0, 2069.0, 2068.0, 2069.0, 2069.0, 2067.0, 2068.0, 2069.0, 2068.0, 2069.0]
    },
    "slices": {}
  }
}