{
  "AcquisitionMatrixPE": 80,
  "AcquisitionNumber": 1,
  "AcquisitionTime": "08:46:2.150000",
  "BandwidthPerPixelPhaseEncode": 44.643,
  "BaseResolution": 80,
  "BodyPartExamined": "BRAIN",
  "CoilCombinationMethod": "Sum of Squares",
  "ConsistencyInfo": "N4_VE11C_LATEST_20160120",
  "ConversionSoftware": "dcm2niix",
  "ConversionSoftwareVersion": "v1.0.20220720",
  "DerivedVendorReportedEchoSpacing": 0.000559998,
  "DeviceSerialNumber": "66112",
  "DwellTime": 2.7e-06,
  "EchoTime": 0.035,
  "EchoTrainLength": 39,
  "EffectiveEchoSpacing": 0.000279999,
  "FlipAngle": 90,
  "HeudiconvVersion": "0.13.1",
  "ImageOrientationPatientDICOM": [0.981153, 0.192804, 0.012843, -0.187343, 0.932869, 0.307667],
  "ImageOrientationText": "Tra>Cor(17.7)>Sag(-2.7)",
  "ImageType": [
    "ORIGINAL",
    "PRIMARY",
    "M",
    "ND",
    "NORM",
    "MOSAIC"
],
  "ImagingFrequency": 123.252,
  "InPlanePhaseEncodingDirectionDICOM": "COL",
  "InstitutionAddress": "Maynard 3,Hanover,NH,US,03755",
  "InstitutionName": "Dartmouth College - PBS",
  "InstitutionalDepartmentName": "Department",
  "MRAcquisitionType": "2D",
  "MagneticFieldStrength": 3,
  "Manufacturer": "Siemens",
  "ManufacturersModelName": "Prisma",
  "Modality": "MR",
  "MultibandAccelerationFactor": 4,
  "NonlinearGradientCorrection": false,
  "ParallelReductionFactorInPlane": 2,
  "PartialFourier": 1,
  "PatientPosition": "HFS",
  "PercentPhaseFOV": 100,
  "PercentSampling": 100,
  "PhaseEncodingDirection": "j-",
  "PhaseEncodingSteps": 79,
  "PhaseResolution": 1,
  "PixelBandwidth": 2315,
  "ProcedureStepDescription": "dbic^QA",
  "ProtocolName": "func-bold_task-rest_acq-p2-s4-3.5mm",
  "PulseSequenceDetails": "%SiemensSeq%\\ep2d_bold",
  "ReceiveCoilActiveElements": "HEA;HEP",
  "ReceiveCoilName": "Head_32",
  "ReconMatrixPE": 80,
  "RefLinesPE": 24,
  "RepetitionTime": 2,
  "SAR": 0.0209264,
  "ScanOptions": "FS",
  "ScanningSequence": "EP",
  "SequenceName": "*epfid2d1_80",
  "SequenceVariant": "SK",
  "SeriesDescription": "func-bold_task-rest_acq-p2-s4-3.5mm",
  "SeriesNumber": 7,
  "ShimSetting": [4147, -7696, -7506, 308, -27, -153, -44, 57],
  "SliceThickness": 3.5,
  "SliceTiming": [1.485, 0, 0.99, 0.2475, 1.2375, 0.7425, 1.7325, 0.495, 1.485, 0, 0.99, 0.2475, 1.2375, 0.7425, 1.7325, 0.495, 1.485, 0, 0.99, 0.2475, 1.2375, 0.7425, 1.7325, 0.495, 1.485, 0, 0.99, 0.2475, 1.2375, 0.7425, 1.7325, 0.495],
  "SoftwareVersions": "syngo MR E11",
  "SpacingBetweenSlices": 3.99,
  "StationName": "AWP66112",
  "TaskName": "rest",
  "TotalReadoutTime": 0.0221199,
  "TxRefAmp": 226.985,
  "dcmmeta_affine": [
    [-2.943459987640381, -0.5620275139808655, -0.18888045847415924, 146.73033142089844],
    [-0.5784105658531189, 2.7986056804656982, 1.2140557765960693, -95.49612426757812],
    [0.038529034703969955, -0.923001229763031, 3.7961156368255615, -32.359230041503906],
    [0.0, 0.0, 0.0, 1.0]
],
  "dcmmeta_reorient_transform": [
    [0.0, -1.0, 0.0, 79.0],
    [1.0, 0.0, 0.0, 0.0],
    [0.0, 0.0, 1.0, 0.0],
    [0.0, 0.0, 0.0, 1.0]
],
  "dcmmeta_shape": [80, 80, 32, 200],
  "dcmmeta_slice_dim": 2,
  "dcmmeta_version": 0.6,
  "global": {
    "const": {
      "AccessionNumber": "qa",
      "AcquisitionMatrix": [80, 0, 0, 80],
      "AngioFlag": "N",
      "BitsAllocated": 16,
      "BitsStored": 12,
      "BodyPartExamined": "BRAIN",
      "Columns": 480,
      "EchoNumbers": 1,
      "EchoTime": 35.0,
      "EchoTrainLength": 39,
      "FlipAngle": 90.0,
      "HighBit": 11,
      "ImageOrientationPatient": [0.98115332924387, 0.1928035310375, 0.01284301106247, -0.1873425068314, 0.9328685610046, 0.307667081475],
      "ImagePositionPatient": [-578.61664379486, -800.99698209886, -297.5823835093],
      "ImageType": [
        "ORIGINAL",
        "PRIMARY",
        "M",
        "ND",
        "NORM",
        "MOSAIC"
],
      "ImagedNucleus": "1H",
      "ImagingFrequency": 123.252413,
      "InPlanePhaseEncodingDirection": "COL",
      "MRAcquisitionType": "2D",
      "MagneticFieldStrength": 3.0,
      "Manufacturer": "SIEMENS",
      "ManufacturerModelName": "Prisma",
      "Modality": "MR",
      "NumberOfAverages": 1.0,
      "NumberOfPhaseEncodingSteps": 79,
      "PercentPhaseFieldOfView": 100.0,
      "PercentSampling": 100.0,
      "PerformedProcedureStepStartTime": "083457.956000",
      "PhotometricInterpretation": "MONOCHROME2",
      "PixelBandwidth": 2315.0,
      "PixelRepresentation": 0,
      "PixelSpacing": [3.0, 3.0],
      "ProtocolName": "func-bold_task-rest_acq-p2-s4-3.5mm",
      "RepetitionTime": 2000.0,
      "Rows": 480,
      "SAR": 0.02092640167312,
      "SamplesPerPixel": 1,
      "ScanOptions": "FS",
      "ScanningSequence": "EP",
      "SequenceName": "*epfid2d1_80",
      "SequenceVariant": "SK",
      "SeriesDescription": "func-bold_task-rest_acq-p2-s4-3.5mm",
      "SeriesNumber": 7,
      "SeriesTime": "084649.422000",
      "SliceLocation": -66.789844217856,
      "SliceThickness": 3.5,
      "SmallestImagePixelValue": 0,
      "SoftwareVersions": "syngo MR E11",
      "SpacingBetweenSlices": 3.9900001292477,
      "SpecificCharacterSet": "ISO_IR 100",
      "StudyID": "25",
      "StudyTime": "083457.887000",
      "TransmitCoilName": "Body",
      "VariableFlipAngleFlag": "N",
      "WindowCenterWidthExplanation": "Algo1",
      "dBdt": 0.0},
    "slices": {}
  },
  "time": {
    "samples": {
      "AcquisitionNumber": [1, 2, 3, 4, 5, 6, 7, 8, 9, 10, 11, 12, 13, 14, 15, 16, 17, 18, 19, 20, 21, 22, 23, 24, 25, 26, 27, 28, 29, 30, 31, 32, 33, 34, 35, 36, 37, 38, 39, 40, 41, 42, 43, 44, 45, 46, 47, 48, 49, 50, 51, 52, 53, 54, 55, 56, 57, 58, 59, 60, 61, 62, 63, 64, 65, 66, 67, 68, 69, 70, 71, 72, 73, 74, 75, 76, 77, 78, 79, 80, 81, 82, 83, 84, 85, 86, 87, 88, 89, 90, 91, 92, 93, 94, 95, 96, 97, 98, 99, 100, 101, 102, 103, 104, 105, 106, 107, 108, 109, 110, 111, 112, 113, 114, 115, 116, 117, 118, 119, 120, 121, 122, 123, 124, 125, 126, 127, 128, 129, 130, 131, 132, 133, 134, 135, 136, 137, 138, 139, 140, 141, 142, 143, 144, 145, 146, 147, 148, 149, 150, 151, 152, 153, 154, 155, 156, 157, 158, 159, 160, 161, 162, 163, 164, 165, 166, 167, 168, 169, 170, 171, 172, 173, 174, 175, 176, 177, 178, 179, 180, 181, 182, 183, 184, 185, 186, 187, 188, 189, 190, 191, 192, 193, 194, 195, 196, 197, 198, 199, 200],
      "AcquisitionTime": ["084602.150000", "084604.150000", "084606.150000", "084608.150000", "084610.150000", "084612.150000", "084614.150000", "084616.150000", "084618.150000", "084620.150000", "084622.150000", "084624.150000", "084626.150000", "084628.150000", "084630.150000", "084632.150000", "084634.150000", "084636.150000", "084638.150000", "084640.150000", "084642.150000", "084644.150000", "084646.150000", "084648.150000", "084650.150000", "084652.150000", "084654.150000", "084656.150000", "084658.150000", "084700.150000", "084702.150000", "084704.150000", "084706.150000", "084708.150000", "084710.150000", "084712.150000", "084714.150000", "084716.150000", "084718.150000", "084720.150000", "084722.150000", "084724.150000", "084726.150000", "084728.150000", "084730.150000", "084732.150000", "084734.150000", "084736.150000", "084738.150000", "084740.150000", "084742.150000", "084744.150000", "084746.150000", "084748.150000", "084750.150000", "084752.150000", "084754.150000", "084756.150000", "084758.150000", "084800.150000", "084802.150000", "084804.150000", "084806.150000", "084808.150000", "084810.150000", "084812.150000", "084814.150000", "084816.150000", "084818.150000", "084820.150000", "084822.150000", "084824.150000", "084826.150000", "084828.150000", "084830.150000", "084832.150000", "084834.150000", "084836.150000", "084838.150000", "084840.150000", "084842.150000", "084844.150000", "084846.150000", "084848.150000", "084850.150000", "084852.150000", "084854.150000", "084856.150000", "084858.150000", "084900.150000", "084902.150000", "084904.150000", "084906.150000", "084908.150000", "084910.150000", "084912.150000", "084914.150000", "084916.150000", "084918.150000", "084920.150000", "084922.150000", "084924.150000", "084926.150000", "084928.150000", "084930.150000", "084932.150000", "084934.150000", "084936.150000", "084938.150000", "084940.150000", "084942.150000", "084944.150000", "084946.150000", "084948.150000", "084950.150000", "084952.150000", "084954.150000", "084956.150000", "084958.150000", "085000.150000", "085002.150000", "085004.150000", "085006.150000", "085008.150000", "085010.150000", "085012.150000", "085014.150000", "085016.150000", "085018.150000", "085020.150000", "085022.150000", "085024.150000", "085026.150000", "085028.150000", "085030.150000", "085032.150000", "085034.150000", "085036.150000", "085038.150000", "085040.150000", "085042.150000", "085044.150000", "085046.150000", "085048.150000", "085050.150000", "085052.150000", "085054.150000", "085056.150000", "085058.150000", "085100.150000", "085102.150000", "085104.150000", "085106.150000", "085108.150000", "085110.150000", "085112.150000", "085114.150000", "085116.150000", "085118.150000", "085120.150000", "085122.150000", "085124.150000", "085126.150000", "085128.150000", "085130.150000", "085132.150000", "085134.150000", "085136.150000", "085138.150000", "085140.150000", "085142.150000", "085144.150000", "085146.150000", "085148.150000", "085150.150000", "085152.150000", "085154.150000", "085156.150000", "085158.150000", "085200.150000", "085202.150000", "085204.150000", "085206.150000", "085208.150000", "085210.150000", "085212.150000", "085214.150000", "085216.150000", "085218.150000", "085220.150000", "085222.150000", "085224.150000", "085226.150000", "085228.150000", "085230.150000", "085232.150000", "085234.150000", "085236.150000", "085238.150000", "085240.150000"],
      "ContentTime": ["084649.425000", "084649.429000", "084649.432000", "084649.434000", "084649.437000", "084649.439000", "084649.442000", "084649.444000", "084649.447000", "084649.450000", "084649.452000", "084649.455000", "084649.457000", "084649.466000", "084649.475000", "084649.484000", "084649.487000", "084649.489000", "084649.492000", "084649.494000", "084649.497000", "084649.511000", "084649.514000", "084649.517000", "084709.420000", "084709.423000", "084709.425000", "084709.428000", "084709.430000", "084709.433000", "084709.443000", "084709.445000", "084709.448000", "084709.451000", "084749.419000", "084749.422000", "084749.425000", "084749.428000", "084749.430000", "084749.433000", "084749.435000", "084749.438000", "084749.445000", "084749.447000", "084749.450000", "084749.453000", "084749.455000", "084749.458000", "084749.460000", "084749.463000", "084749.465000", "084749.468000", "084749.471000", "084749.473000", "084829.420000", "084829.423000", "084829.426000", "084829.435000", "084829.438000", "084829.440000", "084829.443000", "084829.445000", "084829.448000", "084829.451000", "084829.453000", "084829.456000", "084829.458000", "084829.461000", "084829.464000", "084829.466000", "084829.469000", "084829.471000", "084829.474000", "084829.476000", "084909.420000", "084909.423000", "084909.426000", "084909.429000", "084909.431000", "084909.434000", "084909.436000", "084909.439000", "084909.441000", "084909.444000", "084909.446000", "084909.449000", "084909.452000", "084909.461000", "084909.463000", "084909.466000", "084909.468000", "084909.471000", "084909.474000", "084909.476000", "084949.420000", "084949.422000", "084949.425000", "084949.428000", "084949.430000", "084949.433000", "084949.435000", "084949.438000", "084949.441000", "084949.443000", "084949.446000", "084949.448000", "084949.451000", "084949.453000", "084949.456000", "084949.459000", "084949.461000", "084949.464000", "084949.466000", "084949.469000", "085029.419000", "085029.422000", "085029.425000", "085029.428000", "085029.430000", "085029.433000", "085029.435000", "085029.438000", "085029.441000", "085029.443000", "085029.446000", "085029.448000", "085029.451000", "085029.454000", "085029.462000", "085029.465000", "085029.467000", "085029.470000", "085029.472000", "085029.475000", "085109.420000", "085109.423000", "085109.426000", "085109.429000", "085109.431000", "085109.434000", "085109.436000", "085109.439000", "085109.441000", "085109.444000", "085109.447000", "085109.449000", "085109.452000", "085109.454000", "085109.457000", "085109.460000", "085109.462000", "085109.465000", "085109.467000", "085109.470000", "085149.419000", "085149.422000", "085149.425000", "085149.428000", "085149.430000", "085149.433000", "085149.436000", "085149.438000", "085149.441000", "085149.444000", "085149.446000", "085149.449000", "085149.451000", "085149.454000", "085149.456000", "085149.459000", "085149.462000", "085149.464000", "085149.467000", "085149.469000", "085229.420000", "085229.423000", "085229.425000", "085229.428000", "085229.430000", "085229.433000", "085229.436000", "085229.438000", "085229.441000", "085229.443000", "085229.446000", "085229.449000", "085229.451000", "085229.454000", "085229.456000", "085229.459000", "085229.461000", "085229.464000", "085229.467000", "085229.469000", "085241.102000", "085241.105000", "085241.107000", "085241.110000", "085241.113000", "085241.115000"],
      "InstanceCreationTime": ["084649.425000", "084649.429000", "084649.432000", "084649.434000", "084649.437000", "084649.439000", "084649.442000", "084649.444000", "084649.447000", "084649.450000", "084649.452000", "084649.455000", "084649.457000", "084649.466000", "084649.475000", "084649.484000", "084649.487000", "084649.489000", "084649.492000", "084649.494000", "084649.497000", "084649.511000", "084649.514000", "084649.517000", "084709.420000", "084709.423000", "084709.425000", "084709.428000", "084709.430000", "084709.433000", "084709.443000", "084709.445000", "084709.448000", "084709.451000", "084749.419000", "084749.422000", "084749.425000", "084749.428000", "084749.430000", "084749.433000", "084749.435000", "084749.438000", "084749.445000", "084749.447000", "084749.450000", "084749.453000", "084749.455000", "084749.458000", "084749.460000", "084749.463000", "084749.465000", "084749.468000", "084749.471000", "084749.473000", "084829.420000", "084829.423000", "084829.426000", "084829.435000", "084829.438000", "084829.440000", "084829.443000", "084829.445000", "084829.448000", "084829.451000", "084829.453000", "084829.456000", "084829.458000", "084829.461000", "084829.464000", "084829.466000", "084829.469000", "084829.471000", "084829.474000", "084829.476000", "084909.420000", "084909.423000", "084909.426000", "084909.429000", "084909.431000", "084909.434000", "084909.436000", "084909.439000", "084909.441000", "084909.444000", "084909.446000", "084909.449000", "084909.452000", "084909.461000", "084909.463000", "084909.466000", "084909.468000", "084909.471000", "084909.474000", "084909.476000", "084949.420000", "084949.422000", "084949.425000", "084949.428000", "084949.430000", "084949.433000", "084949.435000", "084949.438000", "084949.441000", "084949.443000", "084949.446000", "084949.448000", "084949.451000", "084949.453000", "084949.456000", "084949.459000", "084949.461000", "084949.464000", "084949.466000", "084949.469000", "085029.419000", "085029.422000", "085029.425000", "085029.428000", "085029.430000", "085029.433000", "085029.435000", "085029.438000", "085029.441000", "085029.443000", "085029.446000", "085029.448000", "085029.451000", "085029.454000", "085029.462000", "085029.465000", "085029.467000", "085029.470000", "085029.472000", "085029.475000", "085109.420000", "085109.423000", "085109.426000", "085109.429000", "085109.431000", "085109.434000", "085109.436000", "085109.439000", "085109.441000", "085109.444000", "085109.447000", "085109.449000", "085109.452000", "085109.454000", "085109.457000", "085109.460000", "085109.462000", "085109.465000", "085109.467000", "085109.470000", "085149.419000", "085149.422000", "085149.425000", "085149.428000", "085149.430000", "085149.433000", "085149.436000", "085149.438000", "085149.441000", "085149.444000", "085149.446000", "085149.449000", "085149.451000", "085149.454000", "085149.456000", "085149.459000", "085149.462000", "085149.464000", "085149.467000", "085149.469000", "085229.420000", "085229.423000", "085229.425000", "085229.428000", "085229.430000", "085229.433000", "085229.436000", "085229.438000", "085229.441000", "085229.443000", "085229.446000", "085229.449000", "085229.451000", "085229.454000", "085229.456000", "085229.459000", "085229.461000", "085229.464000", "085229.467000", "085229.469000", "085241.102000", "085241.105000", "085241.107000", "085241.110000", "085241.113000", "085241.115000"],
      "InstanceNumber": [1, 2, 3, 4, 5, 6, 7, 8, 9, 10, 11, 12, 13, 14, 15, 16, 17, 18, 19, 20, 21, 22, 23, 24, 25, 26, 27, 28, 29, 30, 31, 32, 33, 34, 35, 36, 37, 38, 39, 40, 41, 42, 43, 44, 45, 46, 47, 48, 49, 50, 51, 52, 53, 54, 55, 56, 57, 58, 59, 60, 61, 62, 63, 64, 65, 66, 67, 68, 69, 70, 71, 72, 73, 74, 75, 76, 77, 78, 79, 80, 81, 82, 83, 84, 85, 86, 87, 88, 89, 90, 91, 92, 93, 94, 95, 96, 97, 98, 99, 100, 101, 102, 103, 104, 105, 106, 107, 108, 109, 110, 111, 112, 113, 114, 115, 116, 117, 118, 119, 120, 121, 122, 123, 124, 125, 126, 127, 128, 129, 130, 131, 132, 133, 134, 135, 136, 137, 138, 139, 140, 141, 142, 143, 144, 145, 146, 147, 148, 149, 150, 151, 152, 153, 154, 155, 156, 157, 158, 159, 160, 161, 162, 163, 164, 165, 166, 167, 168, 169, 170, 171, 172, 173, 174, 175, 176, 177, 178, 179, 180, 181, 182, 183, 184, 185, 186, 187, 188, 189, 190, 191, 192, 193, 194, 195, 196, 197, 198, 199, 200],
      "LargestImagePixelValue": [1940, 1937, 1937, 1941, 1942, 1933, 1932, 1935, 1938, 1931, 1939, 1939, 1946, 1941, 1941, 1938, 1937, 1940, 1942, 1937, 1936, 1945, 1935, 1936, 1940, 1933, 1939, 1940, 1940, 1936, 1933, 1934, 1939, 1939, 1939, 1939, 1934, 1935, 1934, 1935, 1935, 1939, 1941, 1941, 1943, 1940, 1942, 1939, 1939, 1933, 1942, 1944, 1944, 1940, 1944, 1934, 1941, 1933, 1941, 1938, 1939, 1941, 1944, 1944, 1938, 1941, 1933, 1931, 1937, 1941, 1943, 1939, 1939, 1935, 1930, 1932, 1932, 1933, 1934, 1932, 1936, 1936, 1935, 1936, 1936, 1938, 1937, 1930, 1936, 1940, 1935, 1941, 1931, 1935, 1934, 1938, 1934, 1937, 1931, 1938, 1942, 1933, 1934, 1931, 1931, 1926, 1930, 1932, 1932, 1934, 1928, 1938, 1934, 1936, 1938, 1938, 1941, 1940, 1940, 1931, 1934, 1931, 1935, 1931, 1927, 1927, 1928, 1931, 1928, 1935, 1934, 1933, 1934, 1927, 1934, 1935, 1939, 1937, 1934, 1936, 1929, 1933, 1933, 1929, 1929, 1932, 1932, 1935, 1934, 1933, 1937, 1934, 1933, 1928, 1930, 1934, 1942, 1939, 1935, 1930, 1932, 1934, 1935, 1932, 1937, 1939, 1939, 1937, 1934, 1936, 1936, 1938, 1936, 1937, 1937, 1934, 1939, 1935, 1938, 1934, 1928, 1934, 1932, 1937, 1931, 1932, 1930, 1931, 1930, 1930, 1934, 1940, 1938, 1934, 1939, 1934, 1931, 1930, 1929, 1932],
      "WindowCenter": [904.0, 904.0, 904.0, 904.0, 904.0, 904.0, 904.0, 904.0, 904.0, 904.0, 904.0, 904.0, 904.0, 904.0, 904.0, 904.0, 904.0, 904.0, 904.0, 904.0, 904.0, 904.0, 904.0, 904.0, 904.0, 904.0, 904.0, 904.0, 904.0, 904.0, 904.0, 904.0, 904.0, 904.0, 904.0, 904.0, 904.0, 904.0, 904.0, 904.0, 904.0, 904.0, 904.0, 904.0, 904.0, 904.0, 904.0, 904.0, 904.0, 904.0, 904.0, 904.0, 904.0, 905.0, 904.0, 904.0, 904.0, 904.0, 904.0, 904.0, 904.0, 904.0, 904.0, 904.0, 904.0, 904.0, 904.0, 904.0, 904.0, 904.0, 904.0, 904.0, 904.0, 904.0, 904.0, 904.0, 904.0, 904.0, 904.0, 904.0, 904.0, 904.0, 904.0, 904.0, 904.0, 904.0, 904.0, 904.0, 904.0, 904.0, 904.0, 904.0, 904.0, 904.0, 904.0, 904.0, 904.0, 904.0, 904.0, 904.0, 904.0, 904.0, 904.0, 904.0, 904.0, 904.0, 904.0, 904.0, 904.0, 904.0, 904.0, 904.0, 904.0, 904.0, 904.0, 904.0, 904.0, 904.0, 904.0, 904.0, 904.0, 904.0, 904.0, 904.0, 904.0, 904.0, 904.0, 904.0, 904.0, 904.0, 904.0, 904.0, 904.0, 904.0, 904.0, 904.0, 904.0, 904.0, 904.0, 904.0, 904.0, 904.0, 904.0, 904.0, 904.0, 904.0, 904.0, 904.0, 904.0, 904.0, 904.0, 904.0, 904.0, 904.0, 904.0, 904.0, 904.0, 904.0, 904.0, 904.0, 904.0, 904.0, 904.0, 904.0, 904.0, 904.0, 904.0, 904.0, 904.0, 904.0, 904.0, 904.0, 904.0, 904.0, 904.0, 904.0, 904.0, 904.0, 904.0, 904.0, 904.0, 904.0, 904.0, 904.0, 904.0, 904.0, 904.0, 904.0, 904.0, 904.0, 904.0, 904.0, 904.0, 904.0, 904.0, 904.0, 904.0, 904.0, 904.0, 904.0],
      "WindowWidth": [2038.0, 2038.0, 2038.0, 2038.0, 2038.0, 2038.0, 2038.0, 2038.0, 2038.0, 2038.0, 2038.0, 2038.0, 2038.0, 2038.0, 2038.0, 2038.0, 2038.0, 2038.0, 2038.0, 2038.0, 2038.0, 2038.0, 2038.0, 2038.0, 2039.0, 2038.0, 2038.0, 2038.0, 2038.0, 2039.0, 2038.0, 2038.0, 2038.0, 2038.0, 2038.0, 2038.0, 2038.0, 2038.0, 2038.0, 2038.0, 2038.0, 2038.0, 2038.0, 2038.0, 2038.0, 2038.0, 2038.0, 2038.0, 2038.0, 2038.0, 2038.0, 2038.0, 2038.0, 2039.0, 2038.0, 2038.0, 2038.0, 2038.0, 2038.0, 2038.0, 2038.0, 2038.0, 2038.0, 2038.0, 2038.0, 2038.0, 2038.0, 2038.0, 2038.0, 2038.0, 2038.0, 2038.0, 2038.0, 2038.0, 2038.0, 2038.0, 2038.0, 2038.0, 2038.0, 2038.0, 2038.0, 2038.0, 2038.0, 2038.0, 2038.0, 2038.0, 2038.0, 2038.0, 2038.0, 2038.0, 2038.0, 2038.0, 2038.0, 2038.0, 2038.0, 2038.0, 2038.0, 2038.0, 2038.0, 2038.0, 2038.0, 2038.0, 2038.0, 2038.0, 2038.0, 2038.0, 2038.0, 2038.0, 2038.0, 2038.0, 2038.0, 2038.0, 2038.0, 2038.0, 2038.0, 2038.0, 2038.0, 2038.0, 2038.0, 2038.0, 2038.0, 2038.0, 2038.0, 2038.0, 2038.0, 2038.0, 2038.0, 2038.0, 2038.0, 2038.0, 2038.0, 2038.0, 2038.0, 2038.0, 2038.0, 2038.0, 2038.0, 2038.0, 2038.0, 2038.0, 2038.0, 2038.0, 2038.0, 2038.0, 2038.0, 2038.0, 2038.0, 2038.0, 2038.0, 2038.0, 2038.0, 2038.0, 2038.0, 2038.0, 2038.0, 2038.0, 2038.0, 2038.0, 2038.0, 2038.0, 2038.0, 2038.0, 2038.0, 2038.0, 2038.0, 2038.0, 2038.0, 2038.0, 2038.0, 2038.0, 2038.0, 2038.0, 2038.0, 2038.0, 2038.0, 2038.0, 2038.0, 2038.0, 2038.0, 2038.0, 2038.0, 2038.0, 2038.0, 2038.0, 2038.0, 2038.0, 2038.0, 2038.0, 2038.0, 2038.0, 2038.0, 2038.0, 2038.0, 2038.0, 2038.0, 2038.0, 2038.0, 2038.0, 2038.0, 2038.0]
    },
    "slices": {}
  }
}