{
  "AcquisitionMatrixPE": 80,
  "AcquisitionNumber": 1,
  "AcquisitionTime": "08:59:38.507500",
  "BandwidthPerPixelPhaseEncode": 25,
  "BaseResolution": 80,
  "BodyPartExamined": "BRAIN",
  "CoilCombinationMethod": "Sum of Squares",
  "ConsistencyInfo": "N4_VE11C_LATEST_20160120",
  "ConversionSoftware": "dcm2niix",
  "ConversionSoftwareVersion": "v1.0.20220720",
  "DerivedVendorReportedEchoSpacing": 0.0005,
  "DeviceSerialNumber": "66112",
  "DwellTime": 2.7e-06,
  "EchoTime": 0.03,
  "EchoTrainLength": 80,
  "EffectiveEchoSpacing": 0.0005,
  "FlipAngle": 10,
  "HeudiconvVersion": "0.13.1",
  "ImageOrientationPatientDICOM": [0.981153, 0.192804, 0.012843, -0.187343, 0.932869, 0.307667],
  "ImageOrientationText": "Tra>Cor(17.7)>Sag(-2.7)",
  "ImageType": [
    "ORIGINAL",
    "PRIMARY",
    "M",
    "ND",
    "NORM",
    "MOSAIC"
],
  "ImagingFrequency": 123.252,
  "InPlanePhaseEncodingDirectionDICOM": "COL",
  "InstitutionAddress": "Maynard 3,Hanover,NH,US,03755",
  "InstitutionName": "Dartmouth College - PBS",
  "InstitutionalDepartmentName": "Department",
  "MRAcquisitionType": "2D",
  "MagneticFieldStrength": 3,
  "Manufacturer": "Siemens",
  "ManufacturersModelName": "Prisma",
  "MatrixCoilMode": "SENSE",
  "Modality": "MR",
  "NonlinearGradientCorrection": false,
  "PartialFourier": 1,
  "PatientPosition": "HFS",
  "PercentPhaseFOV": 100,
  "PercentSampling": 100,
  "PhaseEncodingDirection": "j-",
  "PhaseEncodingSteps": 80,
  "PhaseResolution": 1,
  "PixelBandwidth": 2315,
  "ProcedureStepDescription": "dbic^QA",
  "ProtocolName": "func-bold_fa-10",
  "PulseSequenceDetails": "%SiemensSeq%\\ep2d_bold",
  "ReceiveCoilActiveElements": "HEA;HEP",
  "ReceiveCoilName": "Head_32",
  "ReconMatrixPE": 80,
  "RepetitionTime": 2,
  "SAR": 0.0117314,
  "ScanOptions": "FS",
  "ScanningSequence": "EP",
  "SequenceName": "*epfid2d1_80",
  "SequenceVariant": "SK",
  "SeriesDescription": "func-bold_fa-10",
  "SeriesNumber": 10,
  "ShimSetting": [4147, -7695, -7506, 309, -26, -148, -44, 57],
  "SliceThickness": 3.5,
  "SliceTiming": [0.99, 0, 1.055, 0.065, 1.1225, 0.1325, 1.1875, 0.1975, 1.255, 0.265, 1.32, 0.33, 1.385, 0.395, 1.4525, 0.4625, 1.5175, 0.5275, 1.585, 0.595, 1.65, 0.66, 1.715, 0.725, 1.7825, 0.7925, 1.8475, 0.8575, 1.915, 0.925],
  "SoftwareVersions": "syngo MR E11",
  "SpacingBetweenSlices": 3.99,
  "StationName": "AWP66112",
  "TotalReadoutTime": 0.0395,
  "TxRefAmp": 226.985,
  "dcmmeta_affine": [
    [-2.943459987640381, -0.5620275139808655, -0.18888044357299805, 145.9053497314453],
    [-0.5784105658531189, 2.7986056804656982, 1.2140557765960693, -94.19125366210938],
    [0.038529034703969955, -0.923001229763031, 3.7961153984069824, -25.96240997314453],
    [0.0, 0.0, 0.0, 1.0]
],
  "dcmmeta_reorient_transform": [
    [0.0, -1.0, 0.0, 79.0],
    [1.0, 0.0, 0.0, 0.0],
    [0.0, 0.0, 1.0, 0.0],
    [0.0, 0.0, 0.0, 1.0]
],
  "dcmmeta_shape": [80, 80, 30, 200],
  "dcmmeta_slice_dim": 2,
  "dcmmeta_version": 0.6,
  "global": {
    "const": {
      "AccessionNumber": "qa",
      "AcquisitionMatrix": [80, 0, 0, 80],
      "AngioFlag": "N",
      "BitsAllocated": 16,
      "BitsStored": 12,
      "BodyPartExamined": "BRAIN",
      "Columns": 480,
      "EchoNumbers": 1,
      "EchoTime": 30.0,
      "EchoTrainLength": 80,
      "FlipAngle": 10.0,
      "HighBit": 11,
      "ImageOrientationPatient": [0.98115332924387, 0.1928035310375, 0.01284301106247, -0.1873425068314, 0.9328685610046, 0.307667081475],
      "ImagePositionPatient": [-577.79166496643, -802.30184793596, -291.18556344094],
      "ImageType": [
        "ORIGINAL",
        "PRIMARY",
        "M",
        "ND",
        "NORM",
        "MOSAIC"
],
      "ImagedNucleus": "1H",
      "ImagingFrequency": 123.252408,
      "InPlanePhaseEncodingDirection": "COL",
      "MRAcquisitionType": "2D",
      "MagneticFieldStrength": 3.0,
      "Manufacturer": "SIEMENS",
      "ManufacturerModelName": "Prisma",
      "Modality": "MR",
      "NumberOfAverages": 1.0,
      "NumberOfPhaseEncodingSteps": 80,
      "PercentPhaseFieldOfView": 100.0,
      "PercentSampling": 100.0,
      "PerformedProcedureStepStartTime": "083457.956000",
      "PhotometricInterpretation": "MONOCHROME2",
      "PixelBandwidth": 2315.0,
      "PixelRepresentation": 0,
      "PixelSpacing": [3.0, 3.0],
      "ProtocolName": "func-bold_fa-10",
      "RepetitionTime": 2000.0,
      "Rows": 480,
      "SAR": 0.01173142952934,
      "SamplesPerPixel": 1,
      "ScanOptions": "FS",
      "ScanningSequence": "EP",
      "SequenceName": "*epfid2d1_80",
      "SequenceVariant": "SK",
      "SeriesDescription": "func-bold_fa-10",
      "SeriesNumber": 10,
      "SeriesTime": "090029.352000",
      "SliceLocation": -60.267771537733,
      "SliceThickness": 3.5,
      "SmallestImagePixelValue": 0,
      "SoftwareVersions": "syngo MR E11",
      "SpacingBetweenSlices": 3.9899999722688,
      "SpecificCharacterSet": "ISO_IR 100",
      "StudyID": "25",
      "StudyTime": "083457.887000",
      "TransmitCoilName": "Body",
      "VariableFlipAngleFlag": "N",
      "WindowCenterWidthExplanation": "Algo1",
      "dBdt": 0.0},
    "slices": {}
  },
  "time": {
    "samples": {
      "AcquisitionNumber": [1, 2, 3, 4, 5, 6, 7, 8, 9, 10, 11, 12, 13, 14, 15, 16, 17, 18, 19, 20, 21, 22, 23, 24, 25, 26, 27, 28, 29, 30, 31, 32, 33, 34, 35, 36, 37, 38, 39, 40, 41, 42, 43, 44, 45, 46, 47, 48, 49, 50, 51, 52, 53, 54, 55, 56, 57, 58, 59, 60, 61, 62, 63, 64, 65, 66, 67, 68, 69, 70, 71, 72, 73, 74, 75, 76, 77, 78, 79, 80, 81, 82, 83, 84, 85, 86, 87, 88, 89, 90, 91, 92, 93, 94, 95, 96, 97, 98, 99, 100, 101, 102, 103, 104, 105, 106, 107, 108, 109, 110, 111, 112, 113, 114, 115, 116, 117, 118, 119, 120, 121, 122, 123, 124, 125, 126, 127, 128, 129, 130, 131, 132, 133, 134, 135, 136, 137, 138, 139, 140, 141, 142, 143, 144, 145, 146, 147, 148, 149, 150, 151, 152, 153, 154, 155, 156, 157, 158, 159, 160, 161, 162, 163, 164, 165, 166, 167, 168, 169, 170, 171, 172, 173, 174, 175, 176, 177, 178, 179, 180, 181, 182, 183, 184, 185, 186, 187, 188, 189, 190, 191, 192, 193, 194, 195, 196, 197, 198, 199, 200],
      "AcquisitionTime": ["085938.507500", "085940.507500", "085942.507500", "085944.507500", "085946.507500", "085948.507500", "085950.507500", "085952.507500", "085954.507500", "085956.507500", "085958.507500", "090000.507500", "090002.507500", "090004.507500", "090006.507500", "090008.507500", "090010.507500", "090012.507500", "090014.507500", "090016.507500", "090018.507500", "090020.507500", "090022.507500", "090024.507500", "090026.507500", "090028.507500", "090030.507500", "090032.507500", "090034.507500", "090036.507500", "090038.507500", "090040.507500", "090042.507500", "090044.507500", "090046.507500", "090048.507500", "090050.507500", "090052.507500", "090054.507500", "090056.507500", "090058.507500", "090100.507500", "090102.507500", "090104.507500", "090106.507500", "090108.507500", "090110.507500", "090112.507500", "090114.507500", "090116.507500", "090118.507500", "090120.507500", "090122.507500", "090124.507500", "090126.507500", "090128.507500", "090130.507500", "090132.507500", "090134.507500", "090136.507500", "090138.507500", "090140.507500", "090142.507500", "090144.507500", "090146.507500", "090148.507500", "090150.507500", "090152.507500", "090154.507500", "090156.507500", "090158.507500", "090200.507500", "090202.507500", "090204.507500", "090206.507500", "090208.507500", "090210.507500", "090212.507500", "090214.507500", "090216.507500", "090218.507500", "090220.507500", "090222.507500", "090224.507500", "090226.507500", "090228.507500", "090230.507500", "090232.507500", "090234.507500", "090236.507500", "090238.507500", "090240.507500", "090242.507500", "090244.507500", "090246.507500", "090248.507500", "090250.507500", "090252.507500", "090254.507500", "090256.507500", "090258.507500", "090300.507500", "090302.507500", "090304.507500", "090306.507500", "090308.507500", "090310.507500", "090312.507500", "090314.507500", "090316.507500", "090318.507500", "090320.507500", "090322.507500", "090324.507500", "090326.507500", "090328.507500", "090330.507500", "090332.507500", "090334.507500", "090336.507500", "090338.507500", "090340.507500", "090342.507500", "090344.507500", "090346.507500", "090348.507500", "090350.507500", "090352.507500", "090354.507500", "090356.507500", "090358.507500", "090400.507500", "090402.507500", "090404.507500", "090406.507500", "090408.507500", "090410.507500", "090412.507500", "090414.507500", "090416.507500", "090418.507500", "090420.507500", "090422.507500", "090424.507500", "090426.507500", "090428.507500", "090430.507500", "090432.507500", "090434.507500", "090436.507500", "090438.507500", "090440.507500", "090442.507500", "090444.507500", "090446.507500", "090448.507500", "090450.507500", "090452.507500", "090454.507500", "090456.507500", "090458.507500", "090500.507500", "090502.507500", "090504.507500", "090506.507500", "090508.507500", "090510.507500", "090512.507500", "090514.507500", "090516.507500", "090518.507500", "090520.507500", "090522.507500", "090524.507500", "090526.507500", "090528.507500", "090530.507500", "090532.507500", "090534.507500", "090536.507500", "090538.507500", "090540.507500", "090542.507500", "090544.507500", "090546.507500", "090548.507500", "090550.507500", "090552.507500", "090554.507500", "090556.507500", "090558.507500", "090600.507500", "090602.507500", "090604.507500", "090606.507500", "090608.507500", "090610.507500", "090612.507500", "090614.507500", "090616.507500"],
      "ContentTime": ["090029.355000", "090029.358000", "090029.361000", "090029.363000", "090029.366000", "090029.369000", "090029.377000", "090029.380000", "090029.382000", "090029.385000", "090029.387000", "090029.390000", "090029.392000", "090029.395000", "090029.397000", "090029.400000", "090029.402000", "090029.405000", "090029.407000", "090029.410000", "090029.413000", "090029.415000", "090029.418000", "090029.420000", "090029.423000", "090109.349000", "090109.352000", "090109.355000", "090109.357000", "090109.360000", "090109.362000", "090109.365000", "090109.367000", "090109.370000", "090109.372000", "090109.375000", "090109.377000", "090109.380000", "090109.383000", "090109.385000", "090109.388000", "090109.390000", "090109.393000", "090109.395000", "090109.398000", "090149.350000", "090149.352000", "090149.355000", "090149.357000", "090149.360000", "090149.363000", "090149.365000", "090149.368000", "090149.370000", "090149.373000", "090149.375000", "090149.378000", "090149.388000", "090149.391000", "090149.393000", "090149.396000", "090149.398000", "090149.401000", "090149.403000", "090149.406000", "090229.350000", "090229.353000", "090229.356000", "090229.358000", "090229.361000", "090229.363000", "090229.366000", "090229.368000", "090229.371000", "090229.374000", "090229.376000", "090229.379000", "090229.381000", "090229.384000", "090229.386000", "090229.389000", "090229.391000", "090229.394000", "090229.396000", "090229.399000", "090309.349000", "090309.352000", "090309.355000", "090309.357000", "090309.360000", "090309.362000", "090309.365000", "090309.368000", "090309.370000", "090309.373000", "090309.375000", "090309.378000", "090309.380000", "090309.383000", "090309.385000", "090309.388000", "090309.390000", "090309.393000", "090309.395000", "090309.398000", "090349.349000", "090349.352000", "090349.355000", "090349.357000", "090349.360000", "090349.362000", "090349.365000", "090349.367000", "090349.370000", "090349.372000", "090349.375000", "090349.377000", "090349.380000", "090349.383000", "090349.385000", "090349.388000", "090349.390000", "090349.393000", "090349.395000", "090349.398000", "090429.350000", "090429.353000", "090429.356000", "090429.358000", "090429.361000", "090429.363000", "090429.366000", "090429.369000", "090429.371000", "090429.374000", "090429.376000", "090429.379000", "090429.381000", "090429.384000", "090429.386000", "090429.389000", "090429.391000", "090429.394000", "090429.396000", "090429.399000", "090509.350000", "090509.353000", "090509.356000", "090509.358000", "090509.361000", "090509.363000", "090509.366000", "090509.368000", "090509.371000", "090509.374000", "090509.376000", "090509.379000", "090509.381000", "090509.384000", "090509.386000", "090509.389000", "090509.391000", "090509.394000", "090509.396000", "090509.399000", "090549.349000", "090549.352000", "090549.355000", "090549.357000", "090549.360000", "090549.363000", "090549.366000", "090549.368000", "090549.371000", "090549.383000", "090549.386000", "090549.388000", "090549.391000", "090549.393000", "090549.396000", "090549.398000", "090549.401000", "090549.404000", "090549.406000", "090549.409000", "090617.762000", "090617.765000", "090617.767000", "090617.770000", "090617.773000", "090617.775000", "090617.778000", "090617.780000", "090617.783000", "090617.785000", "090617.788000", "090617.791000", "090617.793000", "090617.796000", "090617.798000"],
      "InstanceCreationTime": ["090029.355000", "090029.358000", "090029.361000", "090029.363000", "090029.366000", "090029.369000", "090029.377000", "090029.380000", "090029.382000", "090029.385000", "090029.387000", "090029.390000", "090029.392000", "090029.395000", "090029.397000", "090029.400000", "090029.402000", "090029.405000", "090029.407000", "090029.410000", "090029.413000", "090029.415000", "090029.418000", "090029.420000", "090029.423000", "090109.349000", "090109.352000", "090109.355000", "090109.357000", "090109.360000", "090109.362000", "090109.365000", "090109.367000", "090109.370000", "090109.372000", "090109.375000", "090109.377000", "090109.380000", "090109.383000", "090109.385000", "090109.388000", "090109.390000", "090109.393000", "090109.395000", "090109.398000", "090149.350000", "090149.352000", "090149.355000", "090149.357000", "090149.360000", "090149.363000", "090149.365000", "090149.368000", "090149.370000", "090149.373000", "090149.375000", "090149.378000", "090149.388000", "090149.391000", "090149.393000", "090149.396000", "090149.398000", "090149.401000", "090149.403000", "090149.406000", "090229.350000", "090229.353000", "090229.356000", "090229.358000", "090229.361000", "090229.363000", "090229.366000", "090229.368000", "090229.371000", "090229.374000", "090229.376000", "090229.379000", "090229.381000", "090229.384000", "090229.386000", "090229.389000", "090229.391000", "090229.394000", "090229.396000", "090229.399000", "090309.349000", "090309.352000", "090309.355000", "090309.357000", "090309.360000", "090309.362000", "090309.365000", "090309.368000", "090309.370000", "090309.373000", "090309.375000", "090309.378000", "090309.380000", "090309.383000", "090309.385000", "090309.388000", "090309.390000", "090309.393000", "090309.395000", "090309.398000", "090349.349000", "090349.352000", "090349.355000", "090349.357000", "090349.360000", "090349.362000", "090349.365000", "090349.367000", "090349.370000", "090349.372000", "090349.375000", "090349.377000", "090349.380000", "090349.383000", "090349.385000", "090349.388000", "090349.390000", "090349.393000", "090349.395000", "090349.398000", "090429.350000", "090429.353000", "090429.356000", "090429.358000", "090429.361000", "090429.363000", "090429.366000", "090429.369000", "090429.371000", "090429.374000", "090429.376000", "090429.379000", "090429.381000", "090429.384000", "090429.386000", "090429.389000", "090429.391000", "090429.394000", "090429.396000", "090429.399000", "090509.350000", "090509.353000", "090509.356000", "090509.358000", "090509.361000", "090509.363000", "090509.366000", "090509.368000", "090509.371000", "090509.374000", "090509.376000", "090509.379000", "090509.381000", "090509.384000", "090509.386000", "090509.389000", "090509.391000", "090509.394000", "090509.396000", "090509.399000", "090549.349000", "090549.352000", "090549.355000", "090549.357000", "090549.360000", "090549.363000", "090549.366000", "090549.368000", "090549.371000", "090549.383000", "090549.386000", "090549.388000", "090549.391000", "090549.393000", "090549.396000", "090549.398000", "090549.401000", "090549.404000", "090549.406000", "090549.409000", "090617.762000", "090617.765000", "090617.767000", "090617.770000", "090617.773000", "090617.775000", "090617.778000", "090617.780000", "090617.783000", "090617.785000", "090617.788000", "090617.791000", "090617.793000", "090617.796000", "090617.798000"],
      "InstanceNumber": [1, 2, 3, 4, 5, 6, 7, 8, 9, 10, 11, 12, 13, 14, 15, 16, 17, 18, 19, 20, 21, 22, 23, 24, 25, 26, 27, 28, 29, 30, 31, 32, 33, 34, 35, 36, 37, 38, 39, 40, 41, 42, 43, 44, 45, 46, 47, 48, 49, 50, 51, 52, 53, 54, 55, 56, 57, 58, 59, 60, 61, 62, 63, 64, 65, 66, 67, 68, 69, 70, 71, 72, 73, 74, 75, 76, 77, 78, 79, 80, 81, 82, 83, 84, 85, 86, 87, 88, 89, 90, 91, 92, 93, 94, 95, 96, 97, 98, 99, 100, 101, 102, 103, 104, 105, 106, 107, 108, 109, 110, 111, 112, 113, 114, 115, 116, 117, 118, 119, 120, 121, 122, 123, 124, 125, 126, 127, 128, 129, 130, 131, 132, 133, 134, 135, 136, 137, 138, 139, 140, 141, 142, 143, 144, 145, 146, 147, 148, 149, 150, 151, 152, 153, 154, 155, 156, 157, 158, 159, 160, 161, 162, 163, 164, 165, 166, 167, 168, 169, 170, 171, 172, 173, 174, 175, 176, 177, 178, 179, 180, 181, 182, 183, 184, 185, 186, 187, 188, 189, 190, 191, 192, 193, 194, 195, 196, 197, 198, 199, 200],
      "LargestImagePixelValue": [315, 317, 315, 315, 317, 318, 316, 316, 315, 317, 317, 316, 316, 315, 314, 317, 316, 317, 317, 315, 317, 316, 316, 316, 316, 315, 316, 317, 316, 316, 316, 317, 316, 317, 315, 316, 315, 315, 316, 318, 315, 316, 315, 315, 315, 317, 315, 316, 316, 317, 316, 317, 316, 316, 317, 316, 317, 316, 315, 315, 316, 317, 316, 315, 316, 316, 315, 317, 316, 317, 315, 316, 316, 316, 316, 315, 316, 316, 317, 316, 315, 316, 317, 314, 316, 317, 316, 315, 315, 317, 316, 315, 315, 316, 316, 316, 315, 316, 315, 316, 316, 317, 315, 315, 318, 314, 318, 315, 316, 316, 318, 316, 315, 316, 316, 317, 317, 317, 316, 317, 317, 316, 318, 315, 316, 317, 320, 316, 315, 317, 316, 315, 316, 316, 315, 315, 315, 316, 317, 316, 316, 317, 316, 315, 316, 315, 317, 316, 317, 315, 318, 317, 317, 316, 316, 315, 316, 314, 317, 317, 314, 315, 316, 316, 316, 315, 316, 317, 317, 316, 315, 316, 316, 315, 318, 317, 315, 317, 316, 314, 315, 316, 316, 317, 315, 316, 316, 316, 314, 316, 315, 316, 315, 316, 315, 318, 316, 315, 316, 317],
      "WindowCenter": [265.0, 265.0, 265.0, 265.0, 265.0, 265.0, 265.0, 265.0, 265.0, 265.0, 265.0, 265.0, 265.0, 265.0, 265.0, 265.0, 265.0, 265.0, 265.0, 265.0, 265.0, 265.0, 265.0, 265.0, 265.0, 265.0, 265.0, 265.0, 265.0, 265.0, 265.0, 265.0, 265.0, 265.0, 265.0, 265.0, 265.0, 265.0, 265.0, 265.0, 265.0, 265.0, 265.0, 265.0, 265.0, 265.0, 265.0, 265.0, 265.0, 265.0, 265.0, 264.0, 265.0, 265.0, 265.0, 265.0, 265.0, 265.0, 265.0, 265.0, 265.0, 265.0, 265.0, 265.0, 265.0, 265.0, 265.0, 265.0, 265.0, 265.0, 265.0, 265.0, 265.0, 265.0, 265.0, 264.0, 264.0, 264.0, 264.0, 264.0, 264.0, 265.0, 264.0, 264.0, 265.0, 265.0, 265.0, 264.0, 264.0, 264.0, 264.0, 265.0, 264.0, 264.0, 264.0, 264.0, 265.0, 264.0, 264.0, 264.0, 264.0, 264.0, 264.0, 264.0, 264.0, 264.0, 264.0, 264.0, 264.0, 264.0, 265.0, 264.0, 264.0, 264.0, 265.0, 264.0, 264.0, 264.0, 264.0, 264.0, 264.0, 264.0, 264.0, 264.0, 264.0, 264.0, 265.0, 264.0, 264.0, 264.0, 264.0, 264.0, 264.0, 264.0, 264.0, 264.0, 264.0, 264.0, 264.0, 264.0, 264.0, 264.0, 264.0, 264.0, 264.0, 264.0, 264.0, 264.0, 264.0, 264.0, 264.0, 264.0, 264.0, 264.0, 264.0, 264.0, 264.0, 264.0, 264.0, 264.0, 264.0, 264.0, 264.0, 264.0, 264.0, 264.0, 264.0, 264.0, 264.0, 264.0, 264.0, 264.0, 264.0, 264.0, 264.0, 264.0, 264.0, 264.0, 264.0, 264.0, 264.0, 264.0, 264.0, 264.0, 264.0, 264.0, 264.0, 264.0, 264.0, 264.0, 264.0, 264.0, 264.0, 264.0, 264.0, 264.0, 264.0, 264.0, 264.0, 264.0],
      "WindowWidth": [585.0, 584.0, 584.0, 584.0, 584.0, 584.0, 584.0, 584.0, 585.0, 584.0, 585.0, 584.0, 584.0, 585.0, 584.0, 584.0, 585.0, 584.0, 585.0, 585.0, 585.0, 585.0, 584.0, 584.0, 584.0, 584.0, 585.0, 584.0, 584.0, 584.0, 584.0, 585.0, 584.0, 584.0, 585.0, 584.0, 584.0, 584.0, 584.0, 584.0, 584.0, 584.0, 584.0, 584.0, 584.0, 584.0, 584.0, 584.0, 585.0, 584.0, 584.0, 583.0, 584.0, 584.0, 584.0, 584.0, 585.0, 584.0, 584.0, 584.0, 584.0, 584.0, 584.0, 585.0, 584.0, 584.0, 584.0, 584.0, 584.0, 584.0, 584.0, 584.0, 584.0, 584.0, 584.0, 583.0, 583.0, 583.0, 583.0, 583.0, 583.0, 584.0, 583.0, 583.0, 584.0, 584.0, 584.0, 583.0, 583.0, 583.0, 583.0, 583.0, 583.0, 583.0, 583.0, 583.0, 583.0, 583.0, 583.0, 583.0, 583.0, 583.0, 583.0, 583.0, 583.0, 583.0, 583.0, 583.0, 583.0, 583.0, 583.0, 583.0, 583.0, 583.0, 584.0, 583.0, 583.0, 583.0, 583.0, 583.0, 583.0, 583.0, 583.0, 583.0, 583.0, 583.0, 583.0, 583.0, 583.0, 583.0, 583.0, 583.0, 583.0, 583.0, 583.0, 583.0, 583.0, 583.0, 583.0, 583.0, 583.0, 583.0, 583.0, 583.0, 583.0, 583.0, 583.0, 583.0, 583.0, 583.0, 583.0, 583.0, 583.0, 583.0, 583.0, 583.0, 583.0, 583.0, 583.0, 583.0, 583.0, 583.0, 583.0, 583.0, 583.0, 583.0, 583.0, 583.0, 583.0, 583.0, 583.0, 583.0, 583.0, 583.0, 583.0, 583.0, 583.0, 582.0, 583.0, 583.0, 583.0, 583.0, 583.0, 583.0, 582.0, 583.0, 583.0, 583.0, 583.0, 583.0, 583.0, 583.0, 583.0, 583.0, 583.0, 583.0, 583.0, 582.0, 583.0, 583.0]
    },
    "slices": {}
  }
}