{
  "AcquisitionMatrixPE": 80,
  "AcquisitionNumber": 1,
  "AcquisitionTime": "08:39:7.252500",
  "BandwidthPerPixelPhaseEncode": 48.077,
  "BaseResolution": 80,
  "BodyPartExamined": "BRAIN",
  "CoilCombinationMethod": "Sum of Squares",
  "ConsistencyInfo": "N4_VE11C_LATEST_20160120",
  "ConversionSoftware": "dcm2niix",
  "ConversionSoftwareVersion": "v1.0.20220720",
  "DerivedVendorReportedEchoSpacing": 0.000519999,
  "DeviceSerialNumber": "66112",
  "DwellTime": 2.7e-06,
  "EchoTime": 0.035,
  "EchoTrainLength": 39,
  "EffectiveEchoSpacing": 0.00026,
  "FlipAngle": 90,
  "HeudiconvVersion": "0.13.1",
  "ImageOrientationPatientDICOM": [0.981153, 0.192804, 0.012843, -0.187343, 0.932869, 0.307667],
  "ImageOrientationText": "Tra>Cor(17.7)>Sag(-2.7)",
  "ImageType": [
    "ORIGINAL",
    "PRIMARY",
    "M",
    "ND",
    "NORM",
    "MOSAIC"
],
  "ImagingFrequency": 123.252,
  "InPlanePhaseEncodingDirectionDICOM": "COL",
  "InstitutionAddress": "Maynard 3,Hanover,NH,US,03755",
  "InstitutionName": "Dartmouth College - PBS",
  "InstitutionalDepartmentName": "Department",
  "MRAcquisitionType": "2D",
  "MagneticFieldStrength": 3,
  "Manufacturer": "Siemens",
  "ManufacturersModelName": "Prisma",
  "MatrixCoilMode": "GRAPPA",
  "Modality": "MR",
  "NonlinearGradientCorrection": false,
  "ParallelReductionFactorInPlane": 2,
  "PartialFourier": 1,
  "PatientPosition": "HFS",
  "PercentPhaseFOV": 100,
  "PercentSampling": 100,
  "PhaseEncodingDirection": "j-",
  "PhaseEncodingSteps": 79,
  "PhaseResolution": 1,
  "PixelBandwidth": 2315,
  "ProcedureStepDescription": "dbic^QA",
  "ProtocolName": "func-bold_task-rest_acq-p2",
  "PulseSequenceDetails": "%SiemensSeq%\\ep2d_bold",
  "ReceiveCoilActiveElements": "HEA;HEP",
  "ReceiveCoilName": "Head_32",
  "ReconMatrixPE": 80,
  "RefLinesPE": 24,
  "RepetitionTime": 2,
  "SAR": 0.055651,
  "ScanOptions": "FS",
  "ScanningSequence": "EP",
  "SequenceName": "*epfid2d1_80",
  "SequenceVariant": "SK",
  "SeriesDescription": "func-bold_task-rest_acq-p2",
  "SeriesNumber": 5,
  "ShimSetting": [4147, -7695, -7506, 309, -26, -150, -46, 57],
  "SliceThickness": 3.5,
  "SliceTiming": [0.99, 0, 1.055, 0.065, 1.12, 0.13, 1.1875, 0.1975, 1.2525, 0.2625, 1.32, 0.33, 1.385, 0.395, 1.45, 0.46, 1.5175, 0.5275, 1.5825, 0.5925, 1.65, 0.66, 1.715, 0.725, 1.78, 0.79, 1.8475, 0.8575, 1.9125, 0.9225],
  "SoftwareVersions": "syngo MR E11",
  "SpacingBetweenSlices": 3.99,
  "StationName": "AWP66112",
  "TaskName": "rest",
  "TotalReadoutTime": 0.02054,
  "TxRefAmp": 226.985,
  "dcmmeta_affine": [
    [-2.943459987640381, -0.5620275139808655, -0.18888044357299805, 146.54144287109375],
    [-0.5784105658531189, 2.7986056804656982, 1.2140557765960693, -94.28206634521484],
    [0.038529034703969955, -0.923001229763031, 3.7961153984069824, -28.5631103515625],
    [0.0, 0.0, 0.0, 1.0]
],
  "dcmmeta_reorient_transform": [
    [0.0, -1.0, 0.0, 79.0],
    [1.0, 0.0, 0.0, 0.0],
    [0.0, 0.0, 1.0, 0.0],
    [0.0, 0.0, 0.0, 1.0]
],
  "dcmmeta_shape": [80, 80, 30, 200],
  "dcmmeta_slice_dim": 2,
  "dcmmeta_version": 0.6,
  "global": {
    "const": {
      "AccessionNumber": "qa",
      "AcquisitionMatrix": [80, 0, 0, 80],
      "AngioFlag": "N",
      "BitsAllocated": 16,
      "BitsStored": 12,
      "BodyPartExamined": "BRAIN",
      "Columns": 480,
      "EchoNumbers": 1,
      "EchoTime": 35.0,
      "EchoTrainLength": 39,
      "FlipAngle": 90.0,
      "HighBit": 11,
      "ImageOrientationPatient": [0.98115332924387, 0.1928035310375, 0.01284301106247, -0.1873425068314, 0.9328685610046, 0.307667081475],
      "ImagePositionPatient": [-578.42776335129, -802.21103811388, -293.78626381936],
      "ImageType": [
        "ORIGINAL",
        "PRIMARY",
        "M",
        "ND",
        "NORM",
        "MOSAIC"
],
      "ImagedNucleus": "1H",
      "ImagingFrequency": 123.252414,
      "InPlanePhaseEncodingDirection": "COL",
      "MRAcquisitionType": "2D",
      "MagneticFieldStrength": 3.0,
      "Manufacturer": "SIEMENS",
      "ManufacturerModelName": "Prisma",
      "Modality": "MR",
      "NumberOfAverages": 1.0,
      "NumberOfPhaseEncodingSteps": 79,
      "PercentPhaseFieldOfView": 100.0,
      "PercentSampling": 100.0,
      "PerformedProcedureStepStartTime": "083457.956000",
      "PhotometricInterpretation": "MONOCHROME2",
      "PixelBandwidth": 2315.0,
      "PixelRepresentation": 0,
      "PixelSpacing": [3.0, 3.0],
      "ProtocolName": "func-bold_task-rest_acq-p2",
      "RepetitionTime": 2000.0,
      "Rows": 480,
      "SAR": 0.05565101219855,
      "SamplesPerPixel": 1,
      "ScanOptions": "FS",
      "ScanningSequence": "EP",
      "SequenceName": "*epfid2d1_80",
      "SequenceVariant": "SK",
      "SeriesDescription": "func-bold_task-rest_acq-p2",
      "SeriesNumber": 5,
      "SeriesTime": "083949.352000",
      "SliceLocation": -62.799840141428,
      "SliceThickness": 3.5,
      "SmallestImagePixelValue": 0,
      "SoftwareVersions": "syngo MR E11",
      "SpacingBetweenSlices": 3.9899999819831,
      "SpecificCharacterSet": "ISO_IR 100",
      "StudyID": "25",
      "StudyTime": "083457.887000",
      "TransmitCoilName": "Body",
      "VariableFlipAngleFlag": "N",
      "WindowCenterWidthExplanation": "Algo1",
      "dBdt": 0.0},
    "slices": {}
  },
  "time": {
    "samples": {
      "AcquisitionNumber": [1, 2, 3, 4, 5, 6, 7, 8, 9, 10, 11, 12, 13, 14, 15, 16, 17, 18, 19, 20, 21, 22, 23, 24, 25, 26, 27, 28, 29, 30, 31, 32, 33, 34, 35, 36, 37, 38, 39, 40, 41, 42, 43, 44, 45, 46, 47, 48, 49, 50, 51, 52, 53, 54, 55, 56, 57, 58, 59, 60, 61, 62, 63, 64, 65, 66, 67, 68, 69, 70, 71, 72, 73, 74, 75, 76, 77, 78, 79, 80, 81, 82, 83, 84, 85, 86, 87, 88, 89, 90, 91, 92, 93, 94, 95, 96, 97, 98, 99, 100, 101, 102, 103, 104, 105, 106, 107, 108, 109, 110, 111, 112, 113, 114, 115, 116, 117, 118, 119, 120, 121, 122, 123, 124, 125, 126, 127, 128, 129, 130, 131, 132, 133, 134, 135, 136, 137, 138, 139, 140, 141, 142, 143, 144, 145, 146, 147, 148, 149, 150, 151, 152, 153, 154, 155, 156, 157, 158, 159, 160, 161, 162, 163, 164, 165, 166, 167, 168, 169, 170, 171, 172, 173, 174, 175, 176, 177, 178, 179, 180, 181, 182, 183, 184, 185, 186, 187, 188, 189, 190, 191, 192, 193, 194, 195, 196, 197, 198, 199, 200],
      "AcquisitionTime": ["083907.252500", "083909.252500", "083911.252500", "083913.252500", "083915.252500", "083917.252500", "083919.252500", "083921.252500", "083923.252500", "083925.252500", "083927.252500", "083929.252500", "083931.252500", "083933.252500", "083935.252500", "083937.252500", "083939.252500", "083941.252500", "083943.252500", "083945.252500", "083947.252500", "083949.252500", "083951.252500", "083953.252500", "083955.252500", "083957.252500", "083959.252500", "084001.252500", "084003.252500", "084005.252500", "084007.252500", "084009.252500", "084011.252500", "084013.252500", "084015.252500", "084017.252500", "084019.252500", "084021.252500", "084023.252500", "084025.252500", "084027.252500", "084029.252500", "084031.252500", "084033.252500", "084035.252500", "084037.252500", "084039.252500", "084041.252500", "084043.252500", "084045.252500", "084047.252500", "084049.252500", "084051.252500", "084053.252500", "084055.252500", "084057.252500", "084059.252500", "084101.252500", "084103.252500", "084105.252500", "084107.252500", "084109.252500", "084111.252500", "084113.252500", "084115.252500", "084117.252500", "084119.252500", "084121.252500", "084123.252500", "084125.252500", "084127.252500", "084129.252500", "084131.252500", "084133.252500", "084135.252500", "084137.252500", "084139.252500", "084141.252500", "084143.252500", "084145.252500", "084147.252500", "084149.252500", "084151.252500", "084153.252500", "084155.252500", "084157.252500", "084159.252500", "084201.252500", "084203.252500", "084205.252500", "084207.252500", "084209.252500", "084211.252500", "084213.252500", "084215.252500", "084217.252500", "084219.252500", "084221.252500", "084223.252500", "084225.252500", "084227.252500", "084229.252500", "084231.252500", "084233.252500", "084235.252500", "084237.252500", "084239.252500", "084241.252500", "084243.252500", "084245.252500", "084247.252500", "084249.252500", "084251.252500", "084253.252500", "084255.252500", "084257.252500", "084259.252500", "084301.252500", "084303.252500", "084305.252500", "084307.252500", "084309.252500", "084311.252500", "084313.252500", "084315.252500", "084317.252500", "084319.252500", "084321.252500", "084323.252500", "084325.252500", "084327.252500", "084329.252500", "084331.252500", "084333.252500", "084335.252500", "084337.252500", "084339.252500", "084341.252500", "084343.252500", "084345.252500", "084347.252500", "084349.252500", "084351.252500", "084353.252500", "084355.252500", "084357.252500", "084359.252500", "084401.252500", "084403.252500", "084405.252500", "084407.252500", "084409.252500", "084411.252500", "084413.252500", "084415.252500", "084417.252500", "084419.252500", "084421.252500", "084423.252500", "084425.252500", "084427.252500", "084429.252500", "084431.252500", "084433.252500", "084435.252500", "084437.252500", "084439.252500", "084441.252500", "084443.252500", "084445.252500", "084447.252500", "084449.252500", "084451.252500", "084453.252500", "084455.252500", "084457.252500", "084459.252500", "084501.252500", "084503.252500", "084505.252500", "084507.252500", "084509.252500", "084511.252500", "084513.252500", "084515.252500", "084517.252500", "084519.252500", "084521.252500", "084523.252500", "084525.252500", "084527.252500", "084529.252500", "084531.252500", "084533.252500", "084535.252500", "084537.252500", "084539.252500", "084541.252500", "084543.252500", "084545.252500"],
      "ContentTime": ["083949.356000", "083949.359000", "083949.368000", "083949.371000", "083949.373000", "083949.376000", "083949.379000", "083949.381000", "083949.384000", "083949.386000", "083949.389000", "083949.392000", "083949.394000", "083949.397000", "083949.400000", "083949.402000", "083949.405000", "083949.407000", "083949.410000", "083949.418000", "083949.420000", "084029.349000", "084029.352000", "084029.364000", "084029.367000", "084029.369000", "084029.372000", "084029.374000", "084029.377000", "084029.380000", "084029.382000", "084029.385000", "084029.395000", "084029.398000", "084029.400000", "084029.403000", "084029.405000", "084029.408000", "084029.411000", "084029.414000", "084029.416000", "084109.349000", "084109.352000", "084109.364000", "084109.366000", "084109.369000", "084109.371000", "084109.374000", "084109.376000", "084109.379000", "084109.382000", "084109.384000", "084109.387000", "084109.389000", "084109.392000", "084109.395000", "084109.397000", "084109.400000", "084109.402000", "084109.405000", "084109.408000", "084149.351000", "084149.353000", "084149.356000", "084149.359000", "084149.361000", "084149.364000", "084149.367000", "084149.377000", "084149.380000", "084149.383000", "084149.385000", "084149.388000", "084149.390000", "084149.393000", "084149.396000", "084149.398000", "084149.401000", "084149.403000", "084149.406000", "084149.408000", "084229.349000", "084229.352000", "084229.355000", "084229.357000", "084229.360000", "084229.362000", "084229.365000", "084229.368000", "084229.370000", "084229.373000", "084229.376000", "084229.378000", "084229.381000", "084229.383000", "084229.386000", "084229.388000", "084229.391000", "084229.393000", "084229.396000", "084229.399000", "084309.349000", "084309.352000", "084309.355000", "084309.357000", "084309.360000", "084309.363000", "084309.365000", "084309.368000", "084309.370000", "084309.373000", "084309.388000", "084309.391000", "084309.393000", "084309.403000", "084309.405000", "084309.408000", "084309.411000", "084309.413000", "084309.416000", "084309.418000", "084349.351000", "084349.353000", "084349.356000", "084349.359000", "084349.361000", "084349.364000", "084349.366000", "084349.369000", "084349.371000", "084349.374000", "084349.377000", "084349.379000", "084349.382000", "084349.384000", "084349.387000", "084349.390000", "084349.392000", "084349.404000", "084349.406000", "084349.409000", "084429.350000", "084429.353000", "084429.356000", "084429.358000", "084429.361000", "084429.364000", "084429.374000", "084429.377000", "084429.380000", "084429.382000", "084429.385000", "084429.388000", "084429.390000", "084429.393000", "084429.396000", "084429.398000", "084429.401000", "084429.404000", "084429.406000", "084429.409000", "084509.349000", "084509.352000", "084509.355000", "084509.358000", "084509.360000", "084509.363000", "084509.365000", "084509.368000", "084509.371000", "084509.373000", "084509.376000", "084509.378000", "084509.389000", "084509.391000", "084509.394000", "084509.396000", "084509.399000", "084509.402000", "084509.405000", "084509.407000", "084547.098000", "084547.101000", "084547.104000", "084547.106000", "084547.109000", "084547.111000", "084547.114000", "084547.117000", "084547.125000", "084547.132000", "084547.135000", "084547.139000", "084547.143000", "084547.147000", "084547.149000", "084547.152000", "084547.156000", "084547.159000", "084547.162000"],
      "InstanceCreationTime": ["083949.356000", "083949.359000", "083949.368000", "083949.371000", "083949.373000", "083949.376000", "083949.379000", "083949.381000", "083949.384000", "083949.386000", "083949.389000", "083949.392000", "083949.394000", "083949.397000", "083949.400000", "083949.402000", "083949.405000", "083949.407000", "083949.410000", "083949.418000", "083949.420000", "084029.349000", "084029.352000", "084029.364000", "084029.367000", "084029.369000", "084029.372000", "084029.374000", "084029.377000", "084029.380000", "084029.382000", "084029.385000", "084029.395000", "084029.398000", "084029.400000", "084029.403000", "084029.405000", "084029.408000", "084029.411000", "084029.414000", "084029.416000", "084109.349000", "084109.352000", "084109.364000", "084109.366000", "084109.369000", "084109.371000", "084109.374000", "084109.376000", "084109.379000", "084109.382000", "084109.384000", "084109.387000", "084109.389000", "084109.392000", "084109.395000", "084109.397000", "084109.400000", "084109.402000", "084109.405000", "084109.408000", "084149.351000", "084149.353000", "084149.356000", "084149.359000", "084149.361000", "084149.364000", "084149.367000", "084149.377000", "084149.380000", "084149.383000", "084149.385000", "084149.388000", "084149.390000", "084149.393000", "084149.396000", "084149.398000", "084149.401000", "084149.403000", "084149.406000", "084149.408000", "084229.349000", "084229.352000", "084229.355000", "084229.357000", "084229.360000", "084229.362000", "084229.365000", "084229.368000", "084229.370000", "084229.373000", "084229.376000", "084229.378000", "084229.381000", "084229.383000", "084229.386000", "084229.388000", "084229.391000", "084229.393000", "084229.396000", "084229.399000", "084309.349000", "084309.352000", "084309.355000", "084309.357000", "084309.360000", "084309.363000", "084309.365000", "084309.368000", "084309.370000", "084309.373000", "084309.388000", "084309.391000", "084309.393000", "084309.403000", "084309.405000", "084309.408000", "084309.411000", "084309.413000", "084309.416000", "084309.418000", "084349.351000", "084349.353000", "084349.356000", "084349.359000", "084349.361000", "084349.364000", "084349.366000", "084349.369000", "084349.371000", "084349.374000", "084349.377000", "084349.379000", "084349.382000", "084349.384000", "084349.387000", "084349.390000", "084349.392000", "084349.404000", "084349.406000", "084349.409000", "084429.350000", "084429.353000", "084429.356000", "084429.358000", "084429.361000", "084429.364000", "084429.374000", "084429.377000", "084429.380000", "084429.382000", "084429.385000", "084429.388000", "084429.390000", "084429.393000", "084429.396000", "084429.398000", "084429.401000", "084429.404000", "084429.406000", "084429.409000", "084509.349000", "084509.352000", "084509.355000", "084509.358000", "084509.360000", "084509.363000", "084509.365000", "084509.368000", "084509.371000", "084509.373000", "084509.376000", "084509.378000", "084509.389000", "084509.391000", "084509.394000", "084509.396000", "084509.399000", "084509.402000", "084509.405000", "084509.407000", "084547.098000", "084547.101000", "084547.104000", "084547.106000", "084547.109000", "084547.111000", "084547.114000", "084547.117000", "084547.125000", "084547.132000", "084547.135000", "084547.139000", "084547.143000", "084547.147000", "084547.149000", "084547.152000", "084547.156000", "084547.159000", "084547.162000"],
      "InstanceNumber": [1, 2, 3, 4, 5, 6, 7, 8, 9, 10, 11, 12, 13, 14, 15, 16, 17, 18, 19, 20, 21, 22, 23, 24, 25, 26, 27, 28, 29, 30, 31, 32, 33, 34, 35, 36, 37, 38, 39, 40, 41, 42, 43, 44, 45, 46, 47, 48, 49, 50, 51, 52, 53, 54, 55, 56, 57, 58, 59, 60, 61, 62, 63, 64, 65, 66, 67, 68, 69, 70, 71, 72, 73, 74, 75, 76, 77, 78, 79, 80, 81, 82, 83, 84, 85, 86, 87, 88, 89, 90, 91, 92, 93, 94, 95, 96, 97, 98, 99, 100, 101, 102, 103, 104, 105, 106, 107, 108, 109, 110, 111, 112, 113, 114, 115, 116, 117, 118, 119, 120, 121, 122, 123, 124, 125, 126, 127, 128, 129, 130, 131, 132, 133, 134, 135, 136, 137, 138, 139, 140, 141, 142, 143, 144, 145, 146, 147, 148, 149, 150, 151, 152, 153, 154, 155, 156, 157, 158, 159, 160, 161, 162, 163, 164, 165, 166, 167, 168, 169, 170, 171, 172, 173, 174, 175, 176, 177, 178, 179, 180, 181, 182, 183, 184, 185, 186, 187, 188, 189, 190, 191, 192, 193, 194, 195, 196, 197, 198, 199, 200],
      "LargestImagePixelValue": [1940, 1938, 1935, 1930, 1935, 1932, 1938, 1928, 1938, 1931, 1934, 1934, 1932, 1932, 1931, 1928, 1934, 1932, 1941, 1939, 1926, 1934, 1930, 1941, 1937, 1930, 1934, 1932, 1933, 1933, 1935, 1933, 1932, 1937, 1942, 1941, 1932, 1938, 1939, 1935, 1930, 1939, 1932, 1928, 1936, 1927, 1944, 1933, 1929, 1933, 1939, 1938, 1931, 1929, 1930, 1944, 1927, 1932, 1940, 1932, 1936, 1928, 1933, 1944, 1933, 1923, 1934, 1933, 1927, 1933, 1932, 1932, 1938, 1931, 1931, 1936, 1934, 1936, 1941, 1931, 1932, 1932, 1939, 1935, 1927, 1931, 1933, 1936, 1926, 1947, 1934, 1935, 1933, 1932, 1934, 1935, 1949, 1951, 1953, 1947, 1949, 1948, 1955, 1956, 1953, 1950, 1947, 1946, 1946, 1951, 1944, 1939, 1933, 1943, 1944, 1943, 1948, 1940, 1942, 1948, 1944, 1944, 1945, 1933, 1937, 1937, 1935, 1927, 1933, 1937, 1940, 1939, 1935, 1936, 1936, 1937, 1935, 1937, 1935, 1940, 1934, 1936, 1936, 1942, 1942, 1933, 1943, 1942, 1937, 1936, 1932, 1938, 1938, 1938, 1940, 1935, 1935, 1937, 1934, 1940, 1940, 1934, 1931, 1933, 1942, 1936, 1928, 1936, 1935, 1932, 1938, 1937, 1933, 1936, 1938, 1938, 1939, 1932, 1937, 1942, 1934, 1933, 1939, 1932, 1928, 1933, 1935, 1938, 1936, 1935, 1929, 1932, 1934, 1936, 1934, 1938, 1929, 1935, 1937, 1937],
      "WindowCenter": [967.0, 967.0, 967.0, 967.0, 967.0, 967.0, 967.0, 967.0, 967.0, 967.0, 967.0, 967.0, 967.0, 967.0, 967.0, 967.0, 967.0, 967.0, 967.0, 967.0, 967.0, 967.0, 967.0, 967.0, 967.0, 967.0, 967.0, 967.0, 967.0, 967.0, 967.0, 966.0, 967.0, 967.0, 968.0, 967.0, 967.0, 967.0, 966.0, 967.0, 967.0, 967.0, 967.0, 966.0, 967.0, 968.0, 967.0, 966.0, 967.0, 966.0, 967.0, 966.0, 967.0, 967.0, 966.0, 967.0, 967.0, 967.0, 967.0, 966.0, 966.0, 967.0, 967.0, 967.0, 966.0, 967.0, 967.0, 967.0, 968.0, 967.0, 967.0, 966.0, 966.0, 967.0, 966.0, 967.0, 966.0, 966.0, 966.0, 967.0, 967.0, 966.0, 967.0, 966.0, 967.0, 966.0, 967.0, 968.0, 967.0, 966.0, 966.0, 966.0, 966.0, 966.0, 967.0, 967.0, 966.0, 966.0, 966.0, 968.0, 966.0, 966.0, 966.0, 966.0, 966.0, 967.0, 967.0, 967.0, 968.0, 967.0, 967.0, 966.0, 967.0, 966.0, 966.0, 967.0, 966.0, 967.0, 967.0, 967.0, 966.0, 966.0, 966.0, 966.0, 967.0, 966.0, 966.0, 966.0, 966.0, 966.0, 966.0, 966.0, 966.0, 966.0, 966.0, 966.0, 966.0, 966.0, 966.0, 966.0, 966.0, 966.0, 966.0, 967.0, 966.0, 967.0, 967.0, 967.0, 966.0, 966.0, 966.0, 966.0, 967.0, 966.0, 966.0, 966.0, 967.0, 966.0, 966.0, 966.0, 966.0, 966.0, 966.0, 965.0, 966.0, 966.0, 966.0, 966.0, 965.0, 966.0, 966.0, 966.0, 966.0, 965.0, 965.0, 966.0, 965.0, 966.0, 965.0, 966.0, 965.0, 965.0, 966.0, 965.0, 966.0, 966.0, 965.0, 965.0, 966.0, 966.0, 966.0, 965.0, 965.0, 966.0, 965.0, 965.0, 965.0, 965.0, 966.0, 966.0],
      "WindowWidth": [2102.0, 2101.0, 2102.0, 2101.0, 2101.0, 2102.0, 2101.0, 2102.0, 2101.0, 2101.0, 2101.0, 2101.0, 2102.0, 2102.0, 2101.0, 2101.0, 2102.0, 2101.0, 2102.0, 2101.0, 2101.0, 2102.0, 2102.0, 2101.0, 2101.0, 2101.0, 2101.0, 2101.0, 2102.0, 2101.0, 2101.0, 2100.0, 2101.0, 2101.0, 2102.0, 2101.0, 2101.0, 2101.0, 2100.0, 2101.0, 2101.0, 2101.0, 2101.0, 2101.0, 2101.0, 2102.0, 2101.0, 2100.0, 2101.0, 2101.0, 2101.0, 2101.0, 2101.0, 2101.0, 2100.0, 2101.0, 2101.0, 2101.0, 2101.0, 2100.0, 2100.0, 2101.0, 2100.0, 2101.0, 2100.0, 2101.0, 2101.0, 2101.0, 2101.0, 2101.0, 2101.0, 2100.0, 2100.0, 2100.0, 2100.0, 2101.0, 2100.0, 2100.0, 2100.0, 2101.0, 2101.0, 2100.0, 2101.0, 2100.0, 2101.0, 2100.0, 2100.0, 2101.0, 2100.0, 2100.0, 2100.0, 2100.0, 2100.0, 2100.0, 2101.0, 2100.0, 2100.0, 2100.0, 2100.0, 2101.0, 2099.0, 2099.0, 2100.0, 2100.0, 2100.0, 2101.0, 2100.0, 2100.0, 2101.0, 2101.0, 2100.0, 2100.0, 2100.0, 2100.0, 2100.0, 2100.0, 2099.0, 2100.0, 2100.0, 2100.0, 2099.0, 2099.0, 2099.0, 2099.0, 2100.0, 2099.0, 2099.0, 2100.0, 2100.0, 2100.0, 2099.0, 2100.0, 2099.0, 2100.0, 2099.0, 2099.0, 2099.0, 2099.0, 2100.0, 2099.0, 2099.0, 2099.0, 2099.0, 2100.0, 2099.0, 2100.0, 2100.0, 2100.0, 2099.0, 2099.0, 2099.0, 2099.0, 2100.0, 2099.0, 2099.0, 2099.0, 2100.0, 2100.0, 2099.0, 2099.0, 2099.0, 2099.0, 2099.0, 2099.0, 2099.0, 2099.0, 2099.0, 2099.0, 2099.0, 2099.0, 2099.0, 2099.0, 2099.0, 2099.0, 2099.0, 2099.0, 2099.0, 2099.0, 2099.0, 2099.0, 2099.0, 2099.0, 2099.0, 2098.0, 2099.0, 2099.0, 2099.0, 2099.0, 2099.0, 2099.0, 2099.0, 2098.0, 2098.0, 2099.0, 2098.0, 2098.0, 2098.0, 2098.0, 2099.0, 2099.0]
    },
    "slices": {}
  }
}