{
  "AcquisitionMatrixPE": 122,
  "AcquisitionNumber": 1,
  "AcquisitionTime": "09:52:12.472500",
  "BandwidthPerPixelPhaseEncode": 27.785,
  "BaseResolution": 122,
  "BodyPartExamined": "BRAIN",
  "CoilCombinationMethod": "Adaptive Combine",
  "ConsistencyInfo": "N4_VE11C_LATEST_20160120",
  "ConversionSoftware": "dcm2niix",
  "ConversionSoftwareVersion": "v1.0.20220720",
  "DerivedVendorReportedEchoSpacing": 0.000590011,
  "DeviceSerialNumber": "66112",
  "DiffusionScheme": "Monopolar",
  "DwellTime": 2e-06,
  "EchoTime": 0.068,
  "EchoTrainLength": 61,
  "EffectiveEchoSpacing": 0.000295005,
  "FlipAngle": 90,
  "HeudiconvVersion": "0.13.1",
  "ImageOrientationPatientDICOM": [0.992458, 0.122396, 0.00678374, -0.118519, 0.943945, 0.308092],
  "ImageOrientationText": "Tra>Cor(17.9)>Sag(-1.8)",
  "ImageType": [
    "ORIGINAL",
    "PRIMARY",
    "DIFFUSION",
    "NONE",
    "ND",
    "NORM"
],
  "ImagingFrequency": 123.252,
  "InPlanePhaseEncodingDirectionDICOM": "COL",
  "InstitutionAddress": "Maynard 3,Hanover,NH,US,03755",
  "InstitutionName": "Dartmouth College - PBS",
  "InstitutionalDepartmentName": "Department",
  "MRAcquisitionType": "2D",
  "MagneticFieldStrength": 3,
  "Manufacturer": "Siemens",
  "ManufacturersModelName": "Prisma",
  "Modality": "MR",
  "MultibandAccelerationFactor": 4,
  "NonlinearGradientCorrection": false,
  "ParallelReductionFactorInPlane": 2,
  "PartialFourier": 1,
  "PatientPosition": "HFS",
  "PercentPhaseFOV": 100,
  "PercentSampling": 100,
  "PhaseEncodingDirection": "j-",
  "PhaseEncodingSteps": 122,
  "PhaseResolution": 1,
  "PixelBandwidth": 2050,
  "ProcedureStepDescription": "dbic^QA",
  "ProtocolName": "dwi_acq-DTI-30-p2-s4",
  "PulseSequenceDetails": "%SiemensSeq%\\ep2d_diff",
  "ReceiveCoilActiveElements": "HEA;HEP",
  "ReceiveCoilName": "Head_32",
  "ReconMatrixPE": 122,
  "RefLinesPE": 38,
  "RepetitionTime": 3.6,
  "SAR": 0.158779,
  "ScanOptions": "FS",
  "ScanningSequence": "EP",
  "SequenceName": "*ep_b0",
  "SequenceVariant": "SK\\SP",
  "SeriesDescription": "dwi_acq-DTI-30-p2-s4",
  "SeriesNumber": 13,
  "ShimSetting": [4141, -7702, -7518, 257, -88, -40, -34, 80],
  "SliceThickness": 2,
  "SliceTiming": [2.58594, 0, 1.78906, 0.20312, 1.99219, 0.39844, 2.19531, 0.60156, 2.39062, 1, 2.78906, 1.19531, 2.98438, 1.39844, 3.1875, 1.59375, 3.38281, 0.79688, 2.58594, 0, 1.78906, 0.20312, 1.99219, 0.39844, 2.19531, 0.60156, 2.39062, 1, 2.78906, 1.19531, 2.98438, 1.39844, 3.1875, 1.59375, 3.38281, 0.79688, 2.58594, 0, 1.78906, 0.20312, 1.99219, 0.39844, 2.19531, 0.60156, 2.39062, 1, 2.78906, 1.19531, 2.98438, 1.39844, 3.1875, 1.59375, 3.38281, 0.79688, 2.58594, 0, 1.78906, 0.20312, 1.99219, 0.39844, 2.19531, 0.60156, 2.39062, 1, 2.78906, 1.19531, 2.98438, 1.39844, 3.1875, 1.59375, 3.38281, 0.79688],
  "SoftwareVersions": "syngo MR E11",
  "SpacingBetweenSlices": 2,
  "SpoilingState": true,
  "StationName": "AWP66112",
  "TotalReadoutTime": 0.0356956,
  "TxRefAmp": 223.007,
  "dcmmeta_affine": [
    [-1.9523767232894897, -0.23315241932868958, -0.06261157989501953, 135.4592742919922],
    [-0.2407793402671814, 1.8569414615631104, 0.6131439208984375, -120.25605773925781],
    [0.013345069251954556, -0.6060823798179626, 1.9026641845703125, -28.914039611816406],
    [0.0, 0.0, 0.0, 1.0]
],
  "dcmmeta_reorient_transform": [
    [0.0, -1.0, 0.0, 121.0],
    [1.0, 0.0, 0.0, 0.0],
    [0.0, 0.0, -1.0, 71.0],
    [0.0, 0.0, 0.0, 1.0]
],
  "dcmmeta_shape": [122, 122, 72, 31],
  "dcmmeta_slice_dim": 2,
  "dcmmeta_version": 0.6,
  "global": {
    "const": {
      "AccessionNumber": "qa",
      "AcquisitionMatrix": [122, 0, 0, 122],
      "AngioFlag": "N",
      "BitsAllocated": 16,
      "BitsStored": 12,
      "BodyPartExamined": "BRAIN",
      "Columns": 122,
      "EchoNumbers": 1,
      "EchoTime": 68.0,
      "EchoTrainLength": 61,
      "FlipAngle": 90.0,
      "HighBit": 11,
      "ImageOrientationPatient": [0.99245814029866, 0.12239616243445, 0.0067837435281, -0.1185191451466, 0.94394523286765, 0.30809188496316],
      "ImageType": [
        "ORIGINAL",
        "PRIMARY",
        "DIFFUSION",
        "NONE",
        "ND",
        "NORM"
],
      "ImagedNucleus": "1H",
      "ImagingFrequency": 123.252357,
      "InPlanePhaseEncodingDirection": "COL",
      "MRAcquisitionType": "2D",
      "MagneticFieldStrength": 3.0,
      "Manufacturer": "SIEMENS",
      "ManufacturerModelName": "Prisma",
      "Modality": "MR",
      "NumberOfAverages": 1.0,
      "NumberOfPhaseEncodingSteps": 122,
      "PercentPhaseFieldOfView": 100.0,
      "PercentSampling": 100.0,
      "PerformedProcedureStepStartTime": "091157.467000",
      "PhotometricInterpretation": "MONOCHROME2",
      "PixelBandwidth": 2050.0,
      "PixelRepresentation": 0,
      "PixelSpacing": [1.9672131538391, 1.9672131538391],
      "ProtocolName": "dwi_acq-DTI-30-p2-s4",
      "RepetitionTime": 3600.0,
      "Rows": 122,
      "SAR": 0.15877859405993,
      "SamplesPerPixel": 1,
      "ScanOptions": "FS",
      "ScanningSequence": "EP",
      "SequenceVariant": [
        "SK",
        "SP"
],
      "SeriesDescription": "dwi_acq-DTI-30-p2-s4",
      "SeriesNumber": 13,
      "SeriesTime": "095221.733000",
      "SliceThickness": 2.0,
      "SmallestImagePixelValue": 0,
      "SoftwareVersions": "syngo MR E11",
      "SpacingBetweenSlices": 2.0,
      "SpecificCharacterSet": "ISO_IR 100",
      "StudyID": "46",
      "StudyTime": "091157.415000",
      "TransmitCoilName": "Body",
      "VariableFlipAngleFlag": "N",
      "WindowCenterWidthExplanation": "Algo1",
      "dBdt": 0.0},
    "slices": {
      "AcquisitionTime": ["095212.472500", "095209.885000", "095211.675000", "095210.085000", "095211.875000", "095210.285000", "095212.075000", "095210.482500", "095212.272500", "095210.880000", "095212.670000", "095211.080000", "095212.870000", "095211.277500", "095213.067500", "095211.477500", "095213.267500", "095210.682500", "095212.472500", "095209.885000", "095211.675000", "095210.085000", "095211.875000", "095210.285000", "095212.075000", "095210.482500", "095212.272500", "095210.880000", "095212.670000", "095211.080000", "095212.870000", "095211.277500", "095213.067500", "095211.477500", "095213.267500", "095210.682500", "095212.472500", "095209.885000", "095211.675000", "095210.085000", "095211.875000", "095210.285000", "095212.075000", "095210.482500", "095212.272500", "095210.880000", "095212.670000", "095211.080000", "095212.870000", "095211.277500", "095213.067500", "095211.477500", "095213.267500", "095210.682500", "095212.472500", "095209.885000", "095211.675000", "095210.085000", "095211.875000", "095210.285000", "095212.075000", "095210.482500", "095212.272500", "095210.880000", "095212.670000", "095211.080000", "095212.870000", "095211.277500", "095213.067500", "095211.477500", "095213.267500", "095210.682500", "095216.072500", "095213.485000", "095215.275000", "095213.685000", "095215.475000", "095213.885000", "095215.675000", "095214.082500", "095215.872500", "095214.480000", "095216.270000", "095214.680000", "095216.470000", "095214.877500", "095216.667500", "095215.077500", "095216.867500", "095214.282500", "095216.072500", "095213.485000", "095215.275000", "095213.685000", "095215.475000", "095213.885000", "095215.675000", "095214.082500", "095215.872500", "095214.480000", "095216.270000", "095214.680000", "095216.470000", "095214.877500", "095216.667500", "095215.077500", "095216.867500", "095214.282500", "095216.072500", "095213.485000", "095215.275000", "095213.685000", "095215.475000", "095213.885000", "095215.675000", "095214.082500", "095215.872500", "095214.480000", "095216.270000", "095214.680000", "095216.470000", "095214.877500", "095216.667500", "095215.077500", "095216.867500", "095214.282500", "095216.072500", "095213.485000", "095215.275000", "095213.685000", "095215.475000", "095213.885000", "095215.675000", "095214.082500", "095215.872500", "095214.480000", "095216.270000", "095214.680000", "095216.470000", "095214.877500", "095216.667500", "095215.077500", "095216.867500", "095214.282500", "095219.672500", "095217.085000", "095218.875000", "095217.285000", "095219.075000", "095217.485000", "095219.275000", "095217.682500", "095219.472500", "095218.080000", "095219.870000", "095218.280000", "095220.070000", "095218.477500", "095220.267500", "095218.677500", "095220.467500", "095217.882500", "095219.672500", "095217.085000", "095218.875000", "095217.285000", "095219.075000", "095217.485000", "095219.275000", "095217.682500", "095219.472500", "095218.080000", "095219.870000", "095218.280000", "095220.070000", "095218.477500", "095220.267500", "095218.677500", "095220.467500", "095217.882500", "095219.672500", "095217.085000", "095218.875000", "095217.285000", "095219.075000", "095217.485000", "095219.275000", "095217.682500", "095219.472500", "095218.080000", "095219.870000", "095218.280000", "095220.070000", "095218.477500", "095220.267500", "095218.677500", "095220.467500", "095217.882500", "095219.672500", "095217.085000", "095218.875000", "095217.285000", "095219.075000", "095217.485000", "095219.275000", "095217.682500", "095219.472500", "095218.080000", "095219.870000", "095218.280000", "095220.070000", "095218.477500", "095220.267500", "095218.677500", "095220.467500", "095217.882500", "095223.272500", "095220.685000", "095222.475000", "095220.885000", "095222.675000", "095221.085000", "095222.875000", "095221.282500", "095223.072500", "095221.680000", "095223.470000", "095221.880000", "095223.670000", "095222.077500", "095223.867500", "095222.277500", "095224.067500", "095221.482500", "095223.272500", "095220.685000", "095222.475000", "095220.885000", "095222.675000", "095221.085000", "095222.875000", "095221.282500", "095223.072500", "095221.680000", "095223.470000", "095221.880000", "095223.670000", "095222.077500", "095223.867500", "095222.277500", "095224.067500", "095221.482500", "095223.272500", "095220.685000", "095222.475000", "095220.885000", "095222.675000", "095221.085000", "095222.875000", "095221.282500", "095223.072500", "095221.680000", "095223.470000", "095221.880000", "095223.670000", "095222.077500", "095223.867500", "095222.277500", "095224.067500", "095221.482500", "095223.272500", "095220.685000", "095222.475000", "095220.885000", "095222.675000", "095221.085000", "095222.875000", "095221.282500", "095223.072500", "095221.680000", "095223.470000", "095221.880000", "095223.670000", "095222.077500", "095223.867500", "095222.277500", "095224.067500", "095221.482500", "095226.872500", "095224.285000", "095226.075000", "095224.485000", "095226.275000", "095224.685000", "095226.475000", "095224.882500", "095226.672500", "095225.280000", "095227.070000", "095225.480000", "095227.270000", "095225.677500", "095227.467500", "095225.877500", "095227.667500", "095225.082500", "095226.872500", "095224.285000", "095226.075000", "095224.485000", "095226.275000", "095224.685000", "095226.475000", "095224.882500", "095226.672500", "095225.280000", "095227.070000", "095225.480000", "095227.270000", "095225.677500", "095227.467500", "095225.877500", "095227.667500", "095225.082500", "095226.872500", "095224.285000", "095226.075000", "095224.485000", "095226.275000", "095224.685000", "095226.475000", "095224.882500", "095226.672500", "095225.280000", "095227.070000", "095225.480000", "095227.270000", "095225.677500", "095227.467500", "095225.877500", "095227.667500", "095225.082500", "095226.872500", "095224.285000", "095226.075000", "095224.485000", "095226.275000", "095224.685000", "095226.475000", "095224.882500", "095226.672500", "095225.280000", "095227.070000", "095225.480000", "095227.270000", "095225.677500", "095227.467500", "095225.877500", "095227.667500", "095225.082500", "095230.472500", "095227.885000", "095229.675000", "095228.085000", "095229.875000", "095228.285000", "095230.075000", "095228.482500", "095230.272500", "095228.880000", "095230.670000", "095229.080000", "095230.870000", "095229.277500", "095231.067500", "095229.477500", "095231.267500", "095228.682500", "095230.472500", "095227.885000", "095229.675000", "095228.085000", "095229.875000", "095228.285000", "095230.075000", "095228.482500", "095230.272500", "095228.880000", "095230.670000", "095229.080000", "095230.870000", "095229.277500", "095231.067500", "095229.477500", "095231.267500", "095228.682500", "095230.472500", "095227.885000", "095229.675000", "095228.085000", "095229.875000", "095228.285000", "095230.075000", "095228.482500", "095230.272500", "095228.880000", "095230.670000", "095229.080000", "095230.870000", "095229.277500", "095231.067500", "095229.477500", "095231.267500", "095228.682500", "095230.472500", "095227.885000", "095229.675000", "095228.085000", "095229.875000", "095228.285000", "095230.075000", "095228.482500", "095230.272500", "095228.880000", "095230.670000", "095229.080000", "095230.870000", "095229.277500", "095231.067500", "095229.477500", "095231.267500", "095228.682500", "095234.072500", "095231.485000", "095233.275000", "095231.685000", "095233.475000", "095231.885000", "095233.675000", "095232.082500", "095233.872500", "095232.480000", "095234.270000", "095232.680000", "095234.470000", "095232.877500", "095234.667500", "095233.077500", "095234.867500", "095232.282500", "095234.072500", "095231.485000", "095233.275000", "095231.685000", "095233.475000", "095231.885000", "095233.675000", "095232.082500", "095233.872500", "095232.480000", "095234.270000", "095232.680000", "095234.470000", "095232.877500", "095234.667500", "095233.077500", "095234.867500", "095232.282500", "095234.072500", "095231.485000", "095233.275000", "095231.685000", "095233.475000", "095231.885000", "095233.675000", "095232.082500", "095233.872500", "095232.480000", "095234.270000", "095232.680000", "095234.470000", "095232.877500", "095234.667500", "095233.077500", "095234.867500", "095232.282500", "095234.072500", "095231.485000", "095233.275000", "095231.685000", "095233.475000", "095231.885000", "095233.675000", "095232.082500", "095233.872500", "095232.480000", "095234.270000", "095232.680000", "095234.470000", "095232.877500", "095234.667500", "095233.077500", "095234.867500", "095232.282500", "095237.672500", "095235.085000", "095236.875000", "095235.285000", "095237.075000", "095235.485000", "095237.275000", "095235.682500", "095237.472500", "095236.080000", "095237.870000", "095236.280000", "095238.070000", "095236.477500", "095238.267500", "095236.677500", "095238.467500", "095235.882500", "095237.672500", "095235.085000", "095236.875000", "095235.285000", "095237.075000", "095235.485000", "095237.275000", "095235.682500", "095237.472500", "095236.080000", "095237.870000", "095236.280000", "095238.070000", "095236.477500", "095238.267500", "095236.677500", "095238.467500", "095235.882500", "095237.672500", "095235.085000", "095236.875000", "095235.285000", "095237.075000", "095235.485000", "095237.275000", "095235.682500", "095237.472500", "095236.080000", "095237.870000", "095236.280000", "095238.070000", "095236.477500", "095238.267500", "095236.677500", "095238.467500", "095235.882500", "095237.672500", "095235.085000", "095236.875000", "095235.285000", "095237.075000", "095235.485000", "095237.275000", "095235.682500", "095237.472500", "095236.080000", "095237.870000", "095236.280000", "095238.070000", "095236.477500", "095238.267500", "095236.677500", "095238.467500", "095235.882500", "095241.272500", "095238.685000", "095240.475000", "095238.885000", "095240.675000", "095239.085000", "095240.875000", "095239.282500", "095241.072500", "095239.680000", "095241.470000", "095239.880000", "095241.670000", "095240.077500", "095241.867500", "095240.277500", "095242.067500", "095239.482500", "095241.272500", "095238.685000", "095240.475000", "095238.885000", "095240.675000", "095239.085000", "095240.875000", "095239.282500", "095241.072500", "095239.680000", "095241.470000", "095239.880000", "095241.670000", "095240.077500", "095241.867500", "095240.277500", "095242.067500", "095239.482500", "095241.272500", "095238.685000", "095240.475000", "095238.885000", "095240.675000", "095239.085000", "095240.875000", "095239.282500", "095241.072500", "095239.680000", "095241.470000", "095239.880000", "095241.670000", "095240.077500", "095241.867500", "095240.277500", "095242.067500", "095239.482500", "095241.272500", "095238.685000", "095240.475000", "095238.885000", "095240.675000", "095239.085000", "095240.875000", "095239.282500", "095241.072500", "095239.680000", "095241.470000", "095239.880000", "095241.670000", "095240.077500", "095241.867500", "095240.277500", "095242.067500", "095239.482500", "095244.872500", "095242.285000", "095244.075000", "095242.485000", "095244.275000", "095242.685000", "095244.475000", "095242.882500", "095244.672500", "095243.280000", "095245.070000", "095243.480000", "095245.270000", "095243.677500", "095245.467500", "095243.877500", "095245.667500", "095243.082500", "095244.872500", "095242.285000", "095244.075000", "095242.485000", "095244.275000", "095242.685000", "095244.475000", "095242.882500", "095244.672500", "095243.280000", "095245.070000", "095243.480000", "095245.270000", "095243.677500", "095245.467500", "095243.877500", "095245.667500", "095243.082500", "095244.872500", "095242.285000", "095244.075000", "095242.485000", "095244.275000", "095242.685000", "095244.475000", "095242.882500", "095244.672500", "095243.280000", "095245.070000", "095243.480000", "095245.270000", "095243.677500", "095245.467500", "095243.877500", "095245.667500", "095243.082500", "095244.872500", "095242.285000", "095244.075000", "095242.485000", "095244.275000", "095242.685000", "095244.475000", "095242.882500", "095244.672500", "095243.280000", "095245.070000", "095243.480000", "095245.270000", "095243.677500", "095245.467500", "095243.877500", "095245.667500", "095243.082500", "095248.472500", "095245.885000", "095247.675000", "095246.085000", "095247.875000", "095246.285000", "095248.075000", "095246.482500", "095248.272500", "095246.880000", "095248.670000", "095247.080000", "095248.870000", "095247.277500", "095249.067500", "095247.477500", "095249.267500", "095246.682500", "095248.472500", "095245.885000", "095247.675000", "095246.085000", "095247.875000", "095246.285000", "095248.075000", "095246.482500", "095248.272500", "095246.880000", "095248.670000", "095247.080000", "095248.870000", "095247.277500", "095249.067500", "095247.477500", "095249.267500", "095246.682500", "095248.472500", "095245.885000", "095247.675000", "095246.085000", "095247.875000", "095246.285000", "095248.075000", "095246.482500", "095248.272500", "095246.880000", "095248.670000", "095247.080000", "095248.870000", "095247.277500", "095249.067500", "095247.477500", "095249.267500", "095246.682500", "095248.472500", "095245.885000", "095247.675000", "095246.085000", "095247.875000", "095246.285000", "095248.075000", "095246.482500", "095248.272500", "095246.880000", "095248.670000", "095247.080000", "095248.870000", "095247.277500", "095249.067500", "095247.477500", "095249.267500", "095246.682500", "095252.072500", "095249.485000", "095251.275000", "095249.685000", "095251.475000", "095249.885000", "095251.675000", "095250.082500", "095251.872500", "095250.480000", "095252.270000", "095250.680000", "095252.470000", "095250.877500", "095252.667500", "095251.077500", "095252.867500", "095250.282500", "095252.072500", "095249.485000", "095251.275000", "095249.685000", "095251.475000", "095249.885000", "095251.675000", "095250.082500", "095251.872500", "095250.480000", "095252.270000", "095250.680000", "095252.470000", "095250.877500", "095252.667500", "095251.077500", "095252.867500", "095250.282500", "095252.072500", "095249.485000", "095251.275000", "095249.685000", "095251.475000", "095249.885000", "095251.675000", "095250.082500", "095251.872500", "095250.480000", "095252.270000", "095250.680000", "095252.470000", "095250.877500", "095252.667500", "095251.077500", "095252.867500", "095250.282500", "095252.072500", "095249.485000", "095251.275000", "095249.685000", "095251.475000", "095249.885000", "095251.675000", "095250.082500", "095251.872500", "095250.480000", "095252.270000", "095250.680000", "095252.470000", "095250.877500", "095252.667500", "095251.077500", "095252.867500", "095250.282500", "095255.672500", "095253.085000", "095254.875000", "095253.285000", "095255.075000", "095253.485000", "095255.275000", "095253.682500", "095255.472500", "095254.080000", "095255.870000", "095254.280000", "095256.070000", "095254.477500", "095256.267500", "095254.677500", "095256.467500", "095253.882500", "095255.672500", "095253.085000", "095254.875000", "095253.285000", "095255.075000", "095253.485000", "095255.275000", "095253.682500", "095255.472500", "095254.080000", "095255.870000", "095254.280000", "095256.070000", "095254.477500", "095256.267500", "095254.677500", "095256.467500", "095253.882500", "095255.672500", "095253.085000", "095254.875000", "095253.285000", "095255.075000", "095253.485000", "095255.275000", "095253.682500", "095255.472500", "095254.080000", "095255.870000", "095254.280000", "095256.070000", "095254.477500", "095256.267500", "095254.677500", "095256.467500", "095253.882500", "095255.672500", "095253.085000", "095254.875000", "095253.285000", "095255.075000", "095253.485000", "095255.275000", "095253.682500", "095255.472500", "095254.080000", "095255.870000", "095254.280000", "095256.070000", "095254.477500", "095256.267500", "095254.677500", "095256.467500", "095253.882500", "095259.272500", "095256.685000", "095258.475000", "095256.885000", "095258.675000", "095257.085000", "095258.875000", "095257.282500", "095259.072500", "095257.680000", "095259.470000", "095257.880000", "095259.670000", "095258.077500", "095259.867500", "095258.277500", "095300.067500", "095257.482500", "095259.272500", "095256.685000", "095258.475000", "095256.885000", "095258.675000", "095257.085000", "095258.875000", "095257.282500", "095259.072500", "095257.680000", "095259.470000", "095257.880000", "095259.670000", "095258.077500", "095259.867500", "095258.277500", "095300.067500", "095257.482500", "095259.272500", "095256.685000", "095258.475000", "095256.885000", "095258.675000", "095257.085000", "095258.875000", "095257.282500", "095259.072500", "095257.680000", "095259.470000", "095257.880000", "095259.670000", "095258.077500", "095259.867500", "095258.277500", "095300.067500", "095257.482500", "095259.272500", "095256.685000", "095258.475000", "095256.885000", "095258.675000", "095257.085000", "095258.875000", "095257.282500", "095259.072500", "095257.680000", "095259.470000", "095257.880000", "095259.670000", "095258.077500", "095259.867500", "095258.277500", "095300.067500", "095257.482500", "095302.872500", "095300.285000", "095302.075000", "095300.485000", "095302.275000", "095300.685000", "095302.475000", "095300.882500", "095302.672500", "095301.280000", "095303.070000", "095301.480000", "095303.270000", "095301.677500", "095303.467500", "095301.877500", "095303.667500", "095301.082500", "095302.872500", "095300.285000", "095302.075000", "095300.485000", "095302.275000", "095300.685000", "095302.475000", "095300.882500", "095302.672500", "095301.280000", "095303.070000", "095301.480000", "095303.270000", "095301.677500", "095303.467500", "095301.877500", "095303.667500", "095301.082500", "095302.872500", "095300.285000", "095302.075000", "095300.485000", "095302.275000", "095300.685000", "095302.475000", "095300.882500", "095302.672500", "095301.280000", "095303.070000", "095301.480000", "095303.270000", "095301.677500", "095303.467500", "095301.877500", "095303.667500", "095301.082500", "095302.872500", "095300.285000", "095302.075000", "095300.485000", "095302.275000", "095300.685000", "095302.475000", "095300.882500", "095302.672500", "095301.280000", "095303.070000", "095301.480000", "095303.270000", "095301.677500", "095303.467500", "095301.877500", "095303.667500", "095301.082500", "095306.472500", "095303.885000", "095305.675000", "095304.085000", "095305.875000", "095304.285000", "095306.075000", "095304.482500", "095306.272500", "095304.880000", "095306.670000", "095305.080000", "095306.870000", "095305.277500", "095307.067500", "095305.477500", "095307.267500", "095304.682500", "095306.472500", "095303.885000", "095305.675000", "095304.085000", "095305.875000", "095304.285000", "095306.075000", "095304.482500", "095306.272500", "095304.880000", "095306.670000", "095305.080000", "095306.870000", "095305.277500", "095307.067500", "095305.477500", "095307.267500", "095304.682500", "095306.472500", "095303.885000", "095305.675000", "095304.085000", "095305.875000", "095304.285000", "095306.075000", "095304.482500", "095306.272500", "095304.880000", "095306.670000", "095305.080000", "095306.870000", "095305.277500", "095307.067500", "095305.477500", "095307.267500", "095304.682500", "095306.472500", "095303.885000", "095305.675000", "095304.085000", "095305.875000", "095304.285000", "095306.075000", "095304.482500", "095306.272500", "095304.880000", "095306.670000", "095305.080000", "095306.870000", "095305.277500", "095307.067500", "095305.477500", "095307.267500", "095304.682500", "095310.072500", "095307.485000", "095309.275000", "095307.685000", "095309.475000", "095307.885000", "095309.675000", "095308.082500", "095309.872500", "095308.480000", "095310.270000", "095308.680000", "095310.470000", "095308.877500", "095310.667500", "095309.077500", "095310.867500", "095308.282500", "095310.072500", "095307.485000", "095309.275000", "095307.685000", "095309.475000", "095307.885000", "095309.675000", "095308.082500", "095309.872500", "095308.480000", "095310.270000", "095308.680000", "095310.470000", "095308.877500", "095310.667500", "095309.077500", "095310.867500", "095308.282500", "095310.072500", "095307.485000", "095309.275000", "095307.685000", "095309.475000", "095307.885000", "095309.675000", "095308.082500", "095309.872500", "095308.480000", "095310.270000", "095308.680000", "095310.470000", "095308.877500", "095310.667500", "095309.077500", "095310.867500", "095308.282500", "095310.072500", "095307.485000", "095309.275000", "095307.685000", "095309.475000", "095307.885000", "095309.675000", "095308.082500", "095309.872500", "095308.480000", "095310.270000", "095308.680000", "095310.470000", "095308.877500", "095310.667500", "095309.077500", "095310.867500", "095308.282500", "095313.672500", "095311.085000", "095312.875000", "095311.285000", "095313.075000", "095311.485000", "095313.275000", "095311.682500", "095313.472500", "095312.080000", "095313.870000", "095312.280000", "095314.070000", "095312.477500", "095314.267500", "095312.677500", "095314.467500", "095311.882500", "095313.672500", "095311.085000", "095312.875000", "095311.285000", "095313.075000", "095311.485000", "095313.275000", "095311.682500", "095313.472500", "095312.080000", "095313.870000", "095312.280000", "095314.070000", "095312.477500", "095314.267500", "095312.677500", "095314.467500", "095311.882500", "095313.672500", "095311.085000", "095312.875000", "095311.285000", "095313.075000", "095311.485000", "095313.275000", "095311.682500", "095313.472500", "095312.080000", "095313.870000", "095312.280000", "095314.070000", "095312.477500", "095314.267500", "095312.677500", "095314.467500", "095311.882500", "095313.672500", "095311.085000", "095312.875000", "095311.285000", "095313.075000", "095311.485000", "095313.275000", "095311.682500", "095313.472500", "095312.080000", "095313.870000", "095312.280000", "095314.070000", "095312.477500", "095314.267500", "095312.677500", "095314.467500", "095311.882500", "095317.272500", "095314.685000", "095316.475000", "095314.885000", "095316.675000", "095315.085000", "095316.875000", "095315.282500", "095317.072500", "095315.680000", "095317.470000", "095315.880000", "095317.670000", "095316.077500", "095317.867500", "095316.277500", "095318.067500", "095315.482500", "095317.272500", "095314.685000", "095316.475000", "095314.885000", "095316.675000", "095315.085000", "095316.875000", "095315.282500", "095317.072500", "095315.680000", "095317.470000", "095315.880000", "095317.670000", "095316.077500", "095317.867500", "095316.277500", "095318.067500", "095315.482500", "095317.272500", "095314.685000", "095316.475000", "095314.885000", "095316.675000", "095315.085000", "095316.875000", "095315.282500", "095317.072500", "095315.680000", "095317.470000", "095315.880000", "095317.670000", "095316.077500", "095317.867500", "095316.277500", "095318.067500", "095315.482500", "095317.272500", "095314.685000", "095316.475000", "095314.885000", "095316.675000", "095315.085000", "095316.875000", "095315.282500", "095317.072500", "095315.680000", "095317.470000", "095315.880000", "095317.670000", "095316.077500", "095317.867500", "095316.277500", "095318.067500", "095315.482500", "095320.872500", "095318.285000", "095320.075000", "095318.485000", "095320.275000", "095318.685000", "095320.475000", "095318.882500", "095320.672500", "095319.280000", "095321.070000", "095319.480000", "095321.270000", "095319.677500", "095321.467500", "095319.877500", "095321.667500", "095319.082500", "095320.872500", "095318.285000", "095320.075000", "095318.485000", "095320.275000", "095318.685000", "095320.475000", "095318.882500", "095320.672500", "095319.280000", "095321.070000", "095319.480000", "095321.270000", "095319.677500", "095321.467500", "095319.877500", "095321.667500", "095319.082500", "095320.872500", "095318.285000", "095320.075000", "095318.485000", "095320.275000", "095318.685000", "095320.475000", "095318.882500", "095320.672500", "095319.280000", "095321.070000", "095319.480000", "095321.270000", "095319.677500", "095321.467500", "095319.877500", "095321.667500", "095319.082500", "095320.872500", "095318.285000", "095320.075000", "095318.485000", "095320.275000", "095318.685000", "095320.475000", "095318.882500", "095320.672500", "095319.280000", "095321.070000", "095319.480000", "09532