{
  "AcquisitionMatrixPE": 122,
  "AcquisitionNumber": 1,
  "AcquisitionTime": "09:47:51.102500",
  "BandwidthPerPixelPhaseEncode": 28.76,
  "BaseResolution": 122,
  "BodyPartExamined": "BRAIN",
  "CoilCombinationMethod": "Adaptive Combine",
  "ConsistencyInfo": "N4_VE11C_LATEST_20160120",
  "ConversionSoftware": "dcm2niix",
  "ConversionSoftwareVersion": "v1.0.20220720",
  "DerivedVendorReportedEchoSpacing": 0.000570008,
  "DeviceSerialNumber": "66112",
  "DiffusionScheme": "Monopolar",
  "DwellTime": 2e-06,
  "EchoTime": 0.075,
  "EchoTrainLength": 61,
  "EffectiveEchoSpacing": 0.000285004,
  "FlipAngle": 90,
  "HeudiconvVersion": "0.13.1",
  "ImageOrientationPatientDICOM": [0.992458, 0.122396, 0.00678374, -0.118519, 0.943945, 0.308092],
  "ImageOrientationText": "Tra>Cor(17.9)>Sag(-1.8)",
  "ImageType": [
    "ORIGINAL",
    "PRIMARY",
    "DIFFUSION",
    "NONE",
    "ND",
    "NORM"
],
  "ImagingFrequency": 123.252,
  "InPlanePhaseEncodingDirectionDICOM": "COL",
  "InstitutionAddress": "Maynard 3,Hanover,NH,US,03755",
  "InstitutionName": "Dartmouth College - PBS",
  "InstitutionalDepartmentName": "Department",
  "MRAcquisitionType": "2D",
  "MagneticFieldStrength": 3,
  "Manufacturer": "Siemens",
  "ManufacturersModelName": "Prisma",
  "MatrixCoilMode": "GRAPPA",
  "Modality": "MR",
  "NonlinearGradientCorrection": false,
  "ParallelReductionFactorInPlane": 2,
  "PartialFourier": 1,
  "PatientPosition": "HFS",
  "PercentPhaseFOV": 100,
  "PercentSampling": 100,
  "PhaseEncodingDirection": "j-",
  "PhaseEncodingSteps": 122,
  "PhaseResolution": 1,
  "PixelBandwidth": 2050,
  "ProcedureStepDescription": "dbic^QA",
  "ProtocolName": "dwi_acq-DTI-30-p2",
  "PulseSequenceDetails": "%SiemensSeq%\\ep2d_diff",
  "ReceiveCoilActiveElements": "HEA;HEP",
  "ReceiveCoilName": "Head_32",
  "ReconMatrixPE": 122,
  "RefLinesPE": 38,
  "RepetitionTime": 7.7,
  "SAR": 0.101282,
  "ScanOptions": "FS",
  "ScanningSequence": "EP",
  "SequenceName": "*ep_b0",
  "SequenceVariant": "SK\\SP",
  "SeriesDescription": "dwi_acq-DTI-30-p2",
  "SeriesNumber": 12,
  "ShimSetting": [4141, -7702, -7518, 259, -87, -39, -34, 81],
  "SliceThickness": 2,
  "SliceTiming": [3.83594, 0, 3.94531, 0.10938, 4.05469, 0.21094, 4.16406, 0.32812, 4.27344, 0.4375, 4.38281, 0.54688, 4.49219, 0.65625, 4.60156, 0.76562, 4.71094, 0.875, 4.82812, 0.98438, 4.92969, 1.09375, 5.03906, 1.20312, 5.14844, 1.3125, 5.26562, 1.42188, 5.375, 1.53125, 5.48438, 1.64062, 5.59375, 1.75, 5.70312, 1.85938, 5.8125, 1.96875, 5.92188, 2.07812, 6.03125, 2.1875, 6.14062, 2.29688, 6.25, 2.40625, 6.35938, 2.51562, 6.46875, 2.63281, 6.57812, 2.74219, 6.6875, 2.85156, 6.79688, 2.96094, 6.90625, 3.07031, 7.01562, 3.17969, 7.125, 3.28906, 7.23438, 3.39844, 7.34375, 3.50781, 7.45312, 3.61719, 7.57031, 3.72656],
  "SoftwareVersions": "syngo MR E11",
  "SpacingBetweenSlices": 2,
  "SpoilingState": true,
  "StationName": "AWP66112",
  "TotalReadoutTime": 0.0344855,
  "TxRefAmp": 223.007,
  "dcmmeta_affine": [
    [-1.9523767232894897, -0.23315241932868958, -0.06261157989501953, 135.39666748046875],
    [-0.2407793402671814, 1.8569414615631104, 0.6131458282470703, -119.6430435180664],
    [0.013345069251954556, -0.6060823798179626, 1.9026641845703125, -27.011375427246094],
    [0.0, 0.0, 0.0, 1.0]
],
  "dcmmeta_reorient_transform": [
    [0.0, -1.0, 0.0, 121.0],
    [1.0, 0.0, 0.0, 0.0],
    [0.0, 0.0, -1.0, 69.0],
    [0.0, 0.0, 0.0, 1.0]
],
  "dcmmeta_shape": [122, 122, 70, 31],
  "dcmmeta_slice_dim": 2,
  "dcmmeta_version": 0.6,
  "global": {
    "const": {
      "AccessionNumber": "qa",
      "AcquisitionMatrix": [122, 0, 0, 122],
      "AngioFlag": "N",
      "BitsAllocated": 16,
      "BitsStored": 12,
      "BodyPartExamined": "BRAIN",
      "Columns": 122,
      "EchoNumbers": 1,
      "EchoTime": 75.0,
      "EchoTrainLength": 61,
      "FlipAngle": 90.0,
      "HighBit": 11,
      "ImageOrientationPatient": [0.99245814029866, 0.12239616243445, 0.0067837435281, -0.1185191451466, 0.94394523286765, 0.30809188496316],
      "ImageType": [
        "ORIGINAL",
        "PRIMARY",
        "DIFFUSION",
        "NONE",
        "ND",
        "NORM"
],
      "ImagedNucleus": "1H",
      "ImagingFrequency": 123.252357,
      "InPlanePhaseEncodingDirection": "COL",
      "MRAcquisitionType": "2D",
      "MagneticFieldStrength": 3.0,
      "Manufacturer": "SIEMENS",
      "ManufacturerModelName": "Prisma",
      "Modality": "MR",
      "NumberOfAverages": 1.0,
      "NumberOfPhaseEncodingSteps": 122,
      "PercentPhaseFieldOfView": 100.0,
      "PercentSampling": 100.0,
      "PerformedProcedureStepStartTime": "091157.467000",
      "PhotometricInterpretation": "MONOCHROME2",
      "PixelBandwidth": 2050.0,
      "PixelRepresentation": 0,
      "PixelSpacing": [1.9672131538391, 1.9672131538391],
      "ProtocolName": "dwi_acq-DTI-30-p2",
      "RepetitionTime": 7700.0,
      "Rows": 122,
      "SAR": 0.10128168516963,
      "SamplesPerPixel": 1,
      "ScanOptions": "FS",
      "ScanningSequence": "EP",
      "SequenceVariant": [
        "SK",
        "SP"
],
      "SeriesDescription": "dwi_acq-DTI-30-p2",
      "SeriesNumber": 12,
      "SeriesTime": "094805.258000",
      "SliceThickness": 2.0,
      "SmallestImagePixelValue": 0,
      "SoftwareVersions": "syngo MR E11",
      "SpacingBetweenSlices": 2.0,
      "SpecificCharacterSet": "ISO_IR 100",
      "StudyID": "46",
      "StudyTime": "091157.415000",
      "TransmitCoilName": "Body",
      "VariableFlipAngleFlag": "N",
      "WindowCenterWidthExplanation": "Algo1",
      "dBdt": 0.0},
    "slices": {
      "AcquisitionTime": ["094751.102500", "094747.262500", "094751.210000", "094747.372500", "094751.320000", "094747.480000", "094751.430000", "094747.590000", "094751.540000", "094747.700000", "094751.650000", "094747.810000", "094751.760000", "094747.920000", "094751.870000", "094748.030000", "094751.980000", "094748.140000", "094752.090000", "094748.250000", "094752.197500", "094748.357500", "094752.307500", "094748.467500", "094752.417500", "094748.577500", "094752.527500", "094748.687500", "094752.637500", "094748.797500", "094752.747500", "094748.907500", "094752.857500", "094749.017500", "094752.967500", "094749.127500", "094753.077500", "094749.237500", "094753.185000", "094749.345000", "094753.295000", "094749.455000", "094753.405000", "094749.565000", "094753.515000", "094749.675000", "094753.625000", "094749.785000", "094753.735000", "094749.895000", "094753.845000", "094750.005000", "094753.955000", "094750.115000", "094754.062500", "094750.225000", "094754.172500", "094750.332500", "094754.282500", "094750.442500", "094754.392500", "094750.552500", "094754.502500", "094750.662500", "094754.612500", "094750.772500", "094754.722500", "094750.882500", "094754.832500", "094750.992500", "094758.802500", "094754.962500", "094758.910000", "094755.072500", "094759.020000", "094755.180000", "094759.130000", "094755.290000", "094759.240000", "094755.400000", "094759.350000", "094755.510000", "094759.460000", "094755.620000", "094759.570000", "094755.730000", "094759.680000", "094755.840000", "094759.790000", "094755.950000", "094759.897500", "094756.057500", "094800.007500", "094756.167500", "094800.117500", "094756.277500", "094800.227500", "094756.387500", "094800.337500", "094756.497500", "094800.447500", "094756.607500", "094800.557500", "094756.717500", "094800.667500", "094756.827500", "094800.777500", "094756.937500", "094800.885000", "094757.045000", "094800.995000", "094757.155000", "094801.105000", "094757.265000", "094801.215000", "094757.375000", "094801.325000", "094757.485000", "094801.435000", "094757.595000", "094801.545000", "094757.705000", "094801.655000", "094757.815000", "094801.762500", "094757.925000", "094801.872500", "094758.032500", "094801.982500", "094758.142500", "094802.092500", "094758.252500", "094802.202500", "094758.362500", "094802.312500", "094758.472500", "094802.422500", "094758.582500", "094802.532500", "094758.692500", "094806.502500", "094802.662500", "094806.610000", "094802.772500", "094806.720000", "094802.880000", "094806.830000", "094802.990000", "094806.940000", "094803.100000", "094807.050000", "094803.210000", "094807.160000", "094803.320000", "094807.270000", "094803.430000", "094807.380000", "094803.540000", "094807.490000", "094803.650000", "094807.597500", "094803.757500", "094807.707500", "094803.867500", "094807.817500", "094803.977500", "094807.927500", "094804.087500", "094808.037500", "094804.197500", "094808.147500", "094804.307500", "094808.257500", "094804.417500", "094808.367500", "094804.527500", "094808.477500", "094804.637500", "094808.585000", "094804.745000", "094808.695000", "094804.855000", "094808.805000", "094804.965000", "094808.915000", "094805.075000", "094809.025000", "094805.185000", "094809.135000", "094805.295000", "094809.245000", "094805.405000", "094809.355000", "094805.515000", "094809.462500", "094805.625000", "094809.572500", "094805.732500", "094809.682500", "094805.842500", "094809.792500", "094805.952500", "094809.902500", "094806.062500", "094810.012500", "094806.172500", "094810.122500", "094806.282500", "094810.232500", "094806.392500", "094814.202500", "094810.362500", "094814.310000", "094810.472500", "094814.420000", "094810.580000", "094814.530000", "094810.690000", "094814.640000", "094810.800000", "094814.750000", "094810.910000", "094814.860000", "094811.020000", "094814.970000", "094811.130000", "094815.080000", "094811.240000", "094815.190000", "094811.350000", "094815.297500", "094811.457500", "094815.407500", "094811.567500", "094815.517500", "094811.677500", "094815.627500", "094811.787500", "094815.737500", "094811.897500", "094815.847500", "094812.007500", "094815.957500", "094812.117500", "094816.067500", "094812.227500", "094816.177500", "094812.337500", "094816.285000", "094812.445000", "094816.395000", "094812.555000", "094816.505000", "094812.665000", "094816.615000", "094812.775000", "094816.725000", "094812.885000", "094816.835000", "094812.995000", "094816.945000", "094813.105000", "094817.055000", "094813.215000", "094817.162500", "094813.325000", "094817.272500", "094813.432500", "094817.382500", "094813.542500", "094817.492500", "094813.652500", "094817.602500", "094813.762500", "094817.712500", "094813.872500", "094817.822500", "094813.982500", "094817.932500", "094814.092500", "094821.902500", "094818.062500", "094822.010000", "094818.172500", "094822.120000", "094818.280000", "094822.230000", "094818.390000", "094822.340000", "094818.500000", "094822.450000", "094818.610000", "094822.560000", "094818.720000", "094822.670000", "094818.830000", "094822.780000", "094818.940000", "094822.890000", "094819.050000", "094822.997500", "094819.157500", "094823.107500", "094819.267500", "094823.217500", "094819.377500", "094823.327500", "094819.487500", "094823.437500", "094819.597500", "094823.547500", "094819.707500", "094823.657500", "094819.817500", "094823.767500", "094819.927500", "094823.877500", "094820.037500", "094823.985000", "094820.145000", "094824.095000", "094820.255000", "094824.205000", "094820.365000", "094824.315000", "094820.475000", "094824.425000", "094820.585000", "094824.535000", "094820.695000", "094824.645000", "094820.805000", "094824.755000", "094820.915000", "094824.862500", "094821.025000", "094824.972500", "094821.132500", "094825.082500", "094821.242500", "094825.192500", "094821.352500", "094825.302500", "094821.462500", "094825.412500", "094821.572500", "094825.522500", "094821.682500", "094825.632500", "094821.792500", "094829.602500", "094825.762500", "094829.710000", "094825.872500", "094829.820000", "094825.980000", "094829.930000", "094826.090000", "094830.040000", "094826.200000", "094830.150000", "094826.310000", "094830.260000", "094826.420000", "094830.370000", "094826.530000", "094830.480000", "094826.640000", "094830.590000", "094826.750000", "094830.697500", "094826.857500", "094830.807500", "094826.967500", "094830.917500", "094827.077500", "094831.027500", "094827.187500", "094831.137500", "094827.297500", "094831.247500", "094827.407500", "094831.357500", "094827.517500", "094831.467500", "094827.627500", "094831.577500", "094827.737500", "094831.685000", "094827.845000", "094831.795000", "094827.955000", "094831.905000", "094828.065000", "094832.015000", "094828.175000", "094832.125000", "094828.285000", "094832.235000", "094828.395000", "094832.345000", "094828.505000", "094832.455000", "094828.615000", "094832.562500", "094828.725000", "094832.672500", "094828.832500", "094832.782500", "094828.942500", "094832.892500", "094829.052500", "094833.002500", "094829.162500", "094833.112500", "094829.272500", "094833.222500", "094829.382500", "094833.332500", "094829.492500", "094837.302500", "094833.462500", "094837.410000", "094833.572500", "094837.520000", "094833.680000", "094837.630000", "094833.790000", "094837.740000", "094833.900000", "094837.850000", "094834.010000", "094837.960000", "094834.120000", "094838.070000", "094834.230000", "094838.180000", "094834.340000", "094838.290000", "094834.450000", "094838.397500", "094834.557500", "094838.507500", "094834.667500", "094838.617500", "094834.777500", "094838.727500", "094834.887500", "094838.837500", "094834.997500", "094838.947500", "094835.107500", "094839.057500", "094835.217500", "094839.167500", "094835.327500", "094839.277500", "094835.437500", "094839.385000", "094835.545000", "094839.495000", "094835.655000", "094839.605000", "094835.765000", "094839.715000", "094835.875000", "094839.825000", "094835.985000", "094839.935000", "094836.095000", "094840.045000", "094836.205000", "094840.155000", "094836.315000", "094840.262500", "094836.425000", "094840.372500", "094836.532500", "094840.482500", "094836.642500", "094840.592500", "094836.752500", "094840.702500", "094836.862500", "094840.812500", "094836.972500", "094840.922500", "094837.082500", "094841.032500", "094837.192500", "094845.002500", "094841.162500", "094845.110000", "094841.272500", "094845.220000", "094841.380000", "094845.330000", "094841.490000", "094845.440000", "094841.600000", "094845.550000", "094841.710000", "094845.660000", "094841.820000", "094845.770000", "094841.930000", "094845.880000", "094842.040000", "094845.990000", "094842.150000", "094846.097500", "094842.257500", "094846.207500", "094842.367500", "094846.317500", "094842.477500", "094846.427500", "094842.587500", "094846.537500", "094842.697500", "094846.647500", "094842.807500", "094846.757500", "094842.917500", "094846.867500", "094843.027500", "094846.977500", "094843.137500", "094847.085000", "094843.245000", "094847.195000", "094843.355000", "094847.305000", "094843.465000", "094847.415000", "094843.575000", "094847.525000", "094843.685000", "094847.635000", "094843.795000", "094847.745000", "094843.905000", "094847.855000", "094844.015000", "094847.962500", "094844.125000", "094848.072500", "094844.232500", "094848.182500", "094844.342500", "094848.292500", "094844.452500", "094848.402500", "094844.562500", "094848.512500", "094844.672500", "094848.622500", "094844.782500", "094848.732500", "094844.892500", "094852.702500", "094848.862500", "094852.810000", "094848.972500", "094852.920000", "094849.080000", "094853.030000", "094849.190000", "094853.140000", "094849.300000", "094853.250000", "094849.410000", "094853.360000", "094849.520000", "094853.470000", "094849.630000", "094853.580000", "094849.740000", "094853.690000", "094849.850000", "094853.797500", "094849.957500", "094853.907500", "094850.067500", "094854.017500", "094850.177500", "094854.127500", "094850.287500", "094854.237500", "094850.397500", "094854.347500", "094850.507500", "094854.457500", "094850.617500", "094854.567500", "094850.727500", "094854.677500", "094850.837500", "094854.785000", "094850.945000", "094854.895000", "094851.055000", "094855.005000", "094851.165000", "094855.115000", "094851.275000", "094855.225000", "094851.385000", "094855.335000", "094851.495000", "094855.445000", "094851.605000", "094855.555000", "094851.715000", "094855.662500", "094851.825000", "094855.772500", "094851.932500", "094855.882500", "094852.042500", "094855.992500", "094852.152500", "094856.102500", "094852.262500", "094856.212500", "094852.372500", "094856.322500", "094852.482500", "094856.432500", "094852.592500", "094900.402500", "094856.562500", "094900.510000", "094856.672500", "094900.620000", "094856.780000", "094900.730000", "094856.890000", "094900.840000", "094857.000000", "094900.950000", "094857.110000", "094901.060000", "094857.220000", "094901.170000", "094857.330000", "094901.280000", "094857.440000", "094901.390000", "094857.550000", "094901.497500", "094857.657500", "094901.607500", "094857.767500", "094901.717500", "094857.877500", "094901.827500", "094857.987500", "094901.937500", "094858.097500", "094902.047500", "094858.207500", "094902.157500", "094858.317500", "094902.267500", "094858.427500", "094902.377500", "094858.537500", "094902.485000", "094858.645000", "094902.595000", "094858.755000", "094902.705000", "094858.865000", "094902.815000", "094858.975000", "094902.925000", "094859.085000", "094903.035000", "094859.195000", "094903.145000", "094859.305000", "094903.255000", "094859.415000", "094903.362500", "094859.525000", "094903.472500", "094859.632500", "094903.582500", "094859.742500", "094903.692500", "094859.852500", "094903.802500", "094859.962500", "094903.912500", "094900.072500", "094904.022500", "094900.182500", "094904.132500", "094900.292500", "094908.102500", "094904.262500", "094908.210000", "094904.372500", "094908.320000", "094904.480000", "094908.430000", "094904.590000", "094908.540000", "094904.700000", "094908.650000", "094904.810000", "094908.760000", "094904.920000", "094908.870000", "094905.030000", "094908.980000", "094905.140000", "094909.090000", "094905.250000", "094909.197500", "094905.357500", "094909.307500", "094905.467500", "094909.417500", "094905.577500", "094909.527500", "094905.687500", "094909.637500", "094905.797500", "094909.747500", "094905.907500", "094909.857500", "094906.017500", "094909.967500", "094906.127500", "094910.077500", "094906.237500", "094910.185000", "094906.345000", "094910.295000", "094906.455000", "094910.405000", "094906.565000", "094910.515000", "094906.675000", "094910.625000", "094906.785000", "094910.735000", "094906.895000", "094910.845000", "094907.005000", "094910.955000", "094907.115000", "094911.062500", "094907.225000", "094911.172500", "094907.332500", "094911.282500", "094907.442500", "094911.392500", "094907.552500", "094911.502500", "094907.662500", "094911.612500", "094907.772500", "094911.722500", "094907.882500", "094911.832500", "094907.992500", "094915.802500", "094911.962500", "094915.910000", "094912.072500", "094916.020000", "094912.180000", "094916.130000", "094912.290000", "094916.240000", "094912.400000", "094916.350000", "094912.510000", "094916.460000", "094912.620000", "094916.570000", "094912.730000", "094916.680000", "094912.840000", "094916.790000", "094912.950000", "094916.897500", "094913.057500", "094917.007500", "094913.167500", "094917.117500", "094913.277500", "094917.227500", "094913.387500", "094917.337500", "094913.497500", "094917.447500", "094913.607500", "094917.557500", "094913.717500", "094917.667500", "094913.827500", "094917.777500", "094913.937500", "094917.885000", "094914.045000", "094917.995000", "094914.155000", "094918.105000", "094914.265000", "094918.215000", "094914.375000", "094918.325000", "094914.485000", "094918.435000", "094914.595000", "094918.545000", "094914.705000", "094918.655000", "094914.815000", "094918.762500", "094914.925000", "094918.872500", "094915.032500", "094918.982500", "094915.142500", "094919.092500", "094915.252500", "094919.202500", "094915.362500", "094919.312500", "094915.472500", "094919.422500", "094915.582500", "094919.532500", "094915.692500", "094923.502500", "094919.662500", "094923.610000", "094919.772500", "094923.720000", "094919.880000", "094923.830000", "094919.990000", "094923.940000", "094920.100000", "094924.050000", "094920.210000", "094924.160000", "094920.320000", "094924.270000", "094920.430000", "094924.380000", "094920.540000", "094924.490000", "094920.650000", "094924.597500", "094920.757500", "094924.707500", "094920.867500", "094924.817500", "094920.977500", "094924.927500", "094921.087500", "094925.037500", "094921.197500", "094925.147500", "094921.307500", "094925.257500", "094921.417500", "094925.367500", "094921.527500", "094925.477500", "094921.637500", "094925.585000", "094921.745000", "094925.695000", "094921.855000", "094925.805000", "094921.965000", "094925.915000", "094922.075000", "094926.025000", "094922.185000", "094926.135000", "094922.295000", "094926.245000", "094922.405000", "094926.355000", "094922.515000", "094926.462500", "094922.625000", "094926.572500", "094922.732500", "094926.682500", "094922.842500", "094926.792500", "094922.952500", "094926.902500", "094923.062500", "094927.012500", "094923.172500", "094927.122500", "094923.282500", "094927.232500", "094923.392500", "094931.202500", "094927.362500", "094931.310000", "094927.472500", "094931.420000", "094927.580000", "094931.530000", "094927.690000", "094931.640000", "094927.800000", "094931.750000", "094927.910000", "094931.860000", "094928.020000", "094931.970000", "094928.130000", "094932.080000", "094928.240000", "094932.190000", "094928.350000", "094932.297500", "094928.457500", "094932.407500", "094928.567500", "094932.517500", "094928.677500", "094932.627500", "094928.787500", "094932.737500", "094928.897500", "094932.847500", "094929.007500", "094932.957500", "094929.117500", "094933.067500", "094929.227500", "094933.177500", "094929.337500", "094933.285000", "094929.445000", "094933.395000", "094929.555000", "094933.505000", "094929.665000", "094933.615000", "094929.775000", "094933.725000", "094929.885000", "094933.835000", "094929.995000", "094933.945000", "094930.105000", "094934.055000", "094930.215000", "094934.162500", "094930.325000", "094934.272500", "094930.432500", "094934.382500", "094930.542500", "094934.492500", "094930.652500", "094934.602500", "094930.762500", "094934.712500", "094930.872500", "094934.822500", "094930.982500", "094934.932500", "094931.092500", "094938.902500", "094935.062500", "094939.010000", "094935.172500", "094939.120000", "094935.280000", "094939.230000", "094935.390000", "094939.340000", "094935.500000", "094939.450000", "094935.610000", "094939.560000", "094935.720000", "094939.670000", "094935.830000", "094939.780000", "094935.940000", "094939.890000", "094936.050000", "094939.997500", "094936.157500", "094940.107500", "094936.267500", "094940.217500", "094936.377500", "094940.327500", "094936.487500", "094940.437500", "094936.597500", "094940.547500", "094936.707500", "094940.657500", "094936.817500", "094940.767500", "094936.927500", "094940.877500", "094937.037500", "094940.985000", "094937.145000", "094941.095000", "094937.255000", "094941.205000", "094937.365000", "094941.315000", "094937.475000", "094941.425000", "094937.585000", "094941.535000", "094937.695000", "094941.645000", "094937.805000", "094941.755000", "094937.915000", "094941.862500", "094938.025000", "094941.972500", "094938.132500", "094942.082500", "094938.242500", "094942.192500", "094938.352500", "094942.302500", "094938.462500", "094942.412500", "094938.572500", "094942.522500", "094938.682500", "094942.632500", "094938.792500", "094946.602500", "094942.762500", "094946.710000", "094942.872500", "094946.820000", "094942.980000", "094946.930000", "094943.090000", "094947.040000", "094943.200000", "094947.150000", "094943.310000", "094947.260000", "094943.420000", "094947.370000", "094943.530000", "094947.480000", "094943.640000", "094947.590000", "094943.750000", "094947.697500", "094943.857500", "094947.807500", "094943.967500", "094947.917500", "094944.077500", "094948.027500", "094944.187500", "094948.137500", "094944.297500", "094948.247500", "094944.407500", "094948.357500", "094944.517500", "094948.467500", "094944.627500", "094948.577500", "094944.737500", "094948.685000", "094944.845000", "094948.795000", "094944.955000", "094948.905000", "094945.065000", "094949.015000", "094945.175000", "094949.125000", "094945.285000", "094949.235000", "094945.395000", "094949.345000", "094945.505000", "094949.455000", "094945.615000", "094949.562500", "094945.725000", "094949.672500", "094945.832500", "094949.782500", "094945.942500", "094949.892500", "094946.052500", "094950.002500", "094946.162500", "094950.112500", "094946.272500", "094950.222500", "094946.382500", "094950.332500", "094946.492500", "094954.302500", "094950.462500", "094954.410000", "094950.572500", "094954.520000", "094950.680000", "094954.630000", "094950.790000", "094954.740000", "094950.900000", "094954.850000", "094951.010000", "094954.960000", "094951.120000", "094955.070000", "094951.230000", "094955.180000", "094951.340000", "094955.290000", "094951.450000", "094955.397500", "094951.557500", "094955.507500", "094951.667500", "094955.617500", "094951.777500", "094955.727500", "094951.887500", "094955.837500", "094951.997500", "094955.947500", "094952.107500", "094956.057500", "094952.217500", "094956.167500", "094952.327500", "094956.277500", "094952.437500", "094956.385000", "094952.545000", "094956.495000", "094952.655000", "094956.605000", "094952.765000", "094956.715000", "094952.875000", "094956.825000", "094952.985000", "094956.935000", "094953.095000", "094957.045000", "094953.205000", "094957.155000", "094953.315000", "094957.262500", "094953.425000", "094957.372500", "094953.532500", "094957.482500", "094953.642500", "094957.592500", "094953.752500", "094957.702500", "094953.862500", "094957.812500", "094953.972500", "094957.922500", "094954.082500", "094958.032500", "094954.192500", "095002.002500", "094958.162500", "095002.110000", "094958.272500", "095002.220000", "094958.380000", "095002.330000", "094958.490000", "095002.440000", "094958.600000", "095002.550000", "094958.710000", "095002.660000", "094958.820000", "095002.770000", "094958.930000", "095002.880000", "094959.040000", "095002.990000", "094959.150000", "095003.097500", "094959.257500", "095003.207500", "094959.367500", "095003.317500", "094959.477500", "095003.427500", "094959.587500", "095003.537500", "094959.697500", "095003.647500", "094959.807500", "095003.757500", "094959.917500", "095003.867500", "095000.027500", "095003.977500", "095000.137500", "095004.085000", "095000.245000", "095004.195000", "095000.355000", "095004.305000", "095000.465000", "095004.415000", "095000.575000", "095004.525000", "095000.685000", "095004.635000", "095000.795000", "095004.745000", "095000.905000", "095004.855000", "095001.015000", "095004.962500", "095001.125000", "095005.072500", "095001.232500", "095005.182500", "095001.342500", "095005.292500", "095001.452500", "095005.402500", "095001.562500", "095005.512500", "095001.672500", "095005.622500", "095001.782500", "095005.732500", "095001.892500", "095009.702500", "095005.862500", "095009.810000", "095005.972500", "095009.920000", "095006.080000", "095010.030000", "095006.190000", "095010.140000", "095006.300000", "095010.250000", "095006.410000", "095010.360000", "095006.520000", "095010.470000", "095006.630000", "095010.580000", "095006.740000", "095010.690000", "095006.850000", "095010.797500", "095006.957500", "095010.907500", "095007.067500", "095011.017500", "095007.177500", "095011.127500", "095007.287500", "095011.237500", "095007.397500", "095011.347500", "095007.507500", "095011.457500", "095007.617500", "095011.567500", "095007.727500", "095011.677500", "095007.837500", "095011.785000", "095007.945000", "095011.895000", "095008.055000", "095012.005000", "095008.165000", "095012.115000", "095008.275000", "095012.225000", "095008.385000", "095012.335000", "095008.495000", "095012.445000", "095008.605000", "095012.555000", "095008.715000", "095012.662500", "095008.825000", "095012.772500", "095008.932500", "095012.882500", "095009.042500", "095012.992500", "095009.152500", "095013.102500", "095009.262500", "095013.212500", "095009.372500", "095013.322500", "095009.482500", "095013.432500", "095009.592500", "095017.402500", "095013.562500", "095017.510000", "095013.672500", "095017.620000", "095013.780000", "095017.730000", "095013.890000", "095017.840000", "095014.000000", "095017.950000", "095014.110000", "095018.060000", "095014.220000", "095018.170000", "095014.330000", "095018.280000", "095014.440000", "095018.390000", "095014.550000", "095018.497500", "095014.657500", "095018.607500", "095014.767500", "095018.717500", "095014.877500", "095018.827500", "095014.987500", "095018.937500", "095015.097500", "095019.047500", "095015.207500", "095019.157500", "095015.317500", "095019.267500", "095015.427500", "095019.377500", "095015.537500", "095019.485000", "095015.645000", "095019.595000", "095015.755000", "095019.705000", "095015.865000", "095019.815000", "095015.975000", "095019.925000", "095016.085000", "095020.035000", "095016.195000", "095020.145000", "095016.305000", "095020.255000", "095016.415000", "095020.362500", "095016.525000", "095020.472500", "095016.632500", "095020.582500", "095016.742500", "095020.692500", "095016.852500", "095020.802500", "095016.962500", "095020.912500", "095017.072500", "095021.022500", "095017.182500", "095021.132500", "095017.292500", "095025.102500", "095021.262500", "095025.210000", "095021.372500", "095025.320000", "095021.480000", "095025.430000", "095021.590000", "095025.540000", "095021.700000", "095025.650000", "095021.810000", "095025.760000", "095021.920000", "095025.870000", "095022.030000", "095025.980000", "095022.140000", "095026.090000", "095022.250000", "095026.197500", "095022.357500", "095026.307500", "095022.467500", "095026.417500", "095022.577500", "095026.527500", "095022.687500", "095026.637500", "095022.797500", "095026.747500", "095022.907500", "095026.857500", "095023.017500", "095026.967500