{
  "AcquisitionMatrixPE": 82,
  "AcquisitionNumber": 1,
  "AcquisitionTime": "11:17:6.480000",
  "BaseResolution": 82,
  "BodyPartExamined": "BRAIN",
  "CoilCombinationMethod": "Sum of Squares",
  "ConsistencyInfo": "N4_VE11C_LATEST_20160120",
  "ConversionSoftware": "dcm2niix",
  "ConversionSoftwareVersion": "v1.0.20220720",
  "DeviceSerialNumber": "66112",
  "DwellTime": 1.02e-05,
  "EchoNumber": 2,
  "EchoTime": 0.00738,
  "EchoTime1": 0.00492,
  "EchoTime2": 0.00738,
  "FlipAngle": 45,
  "HeudiconvVersion": "0.13.1",
  "ImageOrientationPatientDICOM": [0.997625, 0.0688858, 0, -0.0688858, 0.997625, 0],
  "ImageOrientationText": "Tra",
  "ImageType": [
    "ORIGINAL",
    "PRIMARY",
    "P",
    "ND",
    "PHASE"
],
  "ImagingFrequency": 123.252,
  "InPlanePhaseEncodingDirectionDICOM": "COL",
  "InstitutionAddress": "Maynard 3,Hanover,NH,US,03755",
  "InstitutionName": "Dartmouth College - PBS",
  "InstitutionalDepartmentName": "Department",
  "MRAcquisitionType": "2D",
  "MagneticFieldStrength": 3,
  "Manufacturer": "Siemens",
  "ManufacturersModelName": "Prisma",
  "MatrixCoilMode": "SENSE",
  "Modality": "MR",
  "NonlinearGradientCorrection": false,
  "PartialFourier": 1,
  "PatientPosition": "HFS",
  "PercentPhaseFOV": 100,
  "PercentSampling": 100,
  "PhaseEncodingDirection": "j-",
  "PhaseEncodingSteps": 82,
  "PhaseResolution": 1,
  "PixelBandwidth": 600,
  "ProcedureStepDescription": "dbic^QA",
  "ProtocolName": "fmap_dir-AP_acq-3mm",
  "PulseSequenceDetails": "%SiemensSeq%\\gre_field_mapping",
  "ReceiveCoilActiveElements": "HEA;HEP",
  "ReceiveCoilName": "Head_32",
  "ReconMatrixPE": 82,
  "RepetitionTime": 0.52,
  "SAR": 0.121766,
  "ScanningSequence": "GR",
  "SequenceName": "*fm2d2r",
  "SequenceVariant": "SP",
  "SeriesDescription": "fmap_dir-AP_acq-3mm",
  "SeriesNumber": 25,
  "ShimSetting": [4143, -7700, -7245, -872, -66, -20, -63, 80],
  "SliceThickness": 3,
  "SliceTiming": [0.25781, 0, 0.27344, 0.00781, 0.28125, 0.02344, 0.29688, 0.03125, 0.30469, 0.04688, 0.3125, 0.05469, 0.32812, 0.0625, 0.33594, 0.07812, 0.35156, 0.08594, 0.35938, 0.10156, 0.36719, 0.10938, 0.38281, 0.125, 0.39062, 0.13281, 0.39844, 0.14062, 0.41406, 0.15625, 0.42188, 0.16406, 0.4375, 0.17188, 0.44531, 0.1875, 0.45312, 0.19531, 0.46875, 0.20312, 0.47656, 0.21875, 0.49219, 0.22656, 0.5, 0.24219, 0.50781, 0.25],
  "SoftwareVersions": "syngo MR E11",
  "SpacingBetweenSlices": 3,
  "StationName": "AWP66112",
  "TxRefAmp": 186.051,
  "dcmmeta_affine": [
    [-3.0172059535980225, -0.208337664604187, 0.0, 134.12107849121094],
    [-0.208337664604187, 3.0172059535980225, 0.0, -99.4400634765625],
    [0.0, 0.0, 3.0, -95.49585723876953],
    [0.0, 0.0, 0.0, 1.0]
],
  "dcmmeta_reorient_transform": [
    [0.0, -1.0, 0.0, 81.0],
    [1.0, 0.0, 0.0, 0.0],
    [0.0, 0.0, -1.0, 47.0],
    [0.0, 0.0, 0.0, 1.0]
],
  "dcmmeta_shape": [82, 82, 48],
  "dcmmeta_slice_dim": 2,
  "dcmmeta_version": 0.6,
  "global": {
    "const": {
      "AccessionNumber": "qa-emmet",
      "AcquisitionMatrix": [82, 0, 0, 82],
      "AcquisitionNumber": 1,
      "AngioFlag": "N",
      "BitsAllocated": 16,
      "BitsStored": 12,
      "BodyPartExamined": "BRAIN",
      "Columns": 82,
      "EchoNumbers": 2,
      "EchoTime": 7.38,
      "EchoTrainLength": 0,
      "FlipAngle": 45.0,
      "HighBit": 11,
      "ImageOrientationPatient": [0.9976245490056, 0.06888584195156, 0.0, -0.0688858419516, 0.9976245490056, 0.0],
      "ImageType": [
        "ORIGINAL",
        "PRIMARY",
        "P",
        "ND"
],
      "ImagedNucleus": "1H",
      "ImagingFrequency": 123.252342,
      "InPlanePhaseEncodingDirection": "COL",
      "MRAcquisitionType": "2D",
      "MagneticFieldStrength": 3.0,
      "Manufacturer": "SIEMENS",
      "ManufacturerModelName": "Prisma",
      "Modality": "MR",
      "NumberOfAverages": 1.0,
      "NumberOfPhaseEncodingSteps": 82,
      "PercentPhaseFieldOfView": 100.0,
      "PercentSampling": 100.0,
      "PerformedProcedureStepStartTime": "103605.312000",
      "PhotometricInterpretation": "MONOCHROME2",
      "PixelBandwidth": 600.0,
      "PixelRepresentation": 0,
      "PixelSpacing": [3.0243902206421, 3.0243902206421],
      "ProtocolName": "fmap_dir-AP_acq-3mm",
      "RepetitionTime": 520.0,
      "RescaleIntercept": -4096.0,
      "RescaleSlope": 2.0,
      "RescaleType": "US",
      "Rows": 82,
      "SAR": 0.12176565055317,
      "SamplesPerPixel": 1,
      "ScanningSequence": "GR",
      "SequenceName": "*fm2d2r",
      "SequenceVariant": "SP",
      "SeriesDescription": "fmap_dir-AP_acq-3mm",
      "SeriesNumber": 25,
      "SeriesTime": "111832.420000",
      "SliceThickness": 3.0,
      "SoftwareVersions": "syngo MR E11",
      "SpacingBetweenSlices": 3.0,
      "SpecificCharacterSet": "ISO_IR 100",
      "StudyID": "2",
      "StudyTime": "103605.248000",
      "TransmitCoilName": "Body",
      "VariableFlipAngleFlag": "N",
      "WindowCenterWidthExplanation": "Algo1",
      "dBdt": 0.0},
    "slices": {
      "AcquisitionTime": ["111706.480000", "111706.220000", "111706.490000", "111706.230000", "111706.502500", "111706.242500", "111706.512500", "111706.252500", "111706.522500", "111706.262500", "111706.535000", "111706.275000", "111706.545000", "111706.285000", "111706.555000", "111706.295000", "111706.567500", "111706.307500", "111706.577500", "111706.317500", "111706.587500", "111706.327500", "111706.600000", "111706.340000", "111706.610000", "111706.350000", "111706.620000", "111706.360000", "111706.632500", "111706.372500", "111706.642500", "111706.382500", "111706.652500", "111706.392500", "111706.665000", "111706.405000", "111706.675000", "111706.415000", "111706.685000", "111706.425000", "111706.697500", "111706.437500", "111706.707500", "111706.447500", "111706.717500", "111706.457500", "111706.730000", "111706.470000"],
      "ContentTime": ["111832.483000", "111832.422000", "111832.485000", "111832.425000", "111832.488000", "111832.427000", "111832.490000", "111832.429000", "111832.493000", "111832.431000", "111832.504000", "111832.433000", "111832.507000", "111832.435000", "111832.509000", "111832.437000", "111832.512000", "111832.439000", "111832.514000", "111832.441000", "111832.517000", "111832.443000", "111832.519000", "111832.445000", "111832.522000", "111832.447000", "111832.525000", "111832.449000", "111832.527000", "111832.451000", "111832.530000", "111832.453000", "111832.532000", "111832.455000", "111832.535000", "111832.457000", "111832.537000", "111832.459000", "111832.540000", "111832.472000", "111832.542000", "111832.474000", "111832.544000", "111832.476000", "111832.546000", "111832.478000", "111832.548000", "111832.480000"],
      "CsaImage.ICE_Dims": [
        "X_2_1_1_1_1_1_25_1_1_1_1_65",
        "X_2_1_1_1_1_1_1_1_1_2_1_65",
        "X_2_1_1_1_1_1_26_1_1_3_1_65",
        "X_2_1_1_1_1_1_2_1_1_4_1_65",
        "X_2_1_1_1_1_1_27_1_1_5_1_65",
        "X_2_1_1_1_1_1_3_1_1_6_1_65",
        "X_2_1_1_1_1_1_28_1_1_7_1_65",
        "X_2_1_1_1_1_1_4_1_1_8_1_65",
        "X_2_1_1_1_1_1_29_1_1_9_1_65",
        "X_2_1_1_1_1_1_5_1_1_10_1_65",
        "X_2_1_1_1_1_1_30_1_1_11_1_65",
        "X_2_1_1_1_1_1_6_1_1_12_1_65",
        "X_2_1_1_1_1_1_31_1_1_13_1_65",
        "X_2_1_1_1_1_1_7_1_1_14_1_65",
        "X_2_1_1_1_1_1_32_1_1_15_1_65",
        "X_2_1_1_1_1_1_8_1_1_16_1_65",
        "X_2_1_1_1_1_1_33_1_1_17_1_65",
        "X_2_1_1_1_1_1_9_1_1_18_1_65",
        "X_2_1_1_1_1_1_34_1_1_19_1_65",
        "X_2_1_1_1_1_1_10_1_1_20_1_65",
        "X_2_1_1_1_1_1_35_1_1_21_1_65",
        "X_2_1_1_1_1_1_11_1_1_22_1_65",
        "X_2_1_1_1_1_1_36_1_1_23_1_65",
        "X_2_1_1_1_1_1_12_1_1_24_1_65",
        "X_2_1_1_1_1_1_37_1_1_25_1_65",
        "X_2_1_1_1_1_1_13_1_1_26_1_65",
        "X_2_1_1_1_1_1_38_1_1_27_1_65",
        "X_2_1_1_1_1_1_14_1_1_28_1_65",
        "X_2_1_1_1_1_1_39_1_1_29_1_65",
        "X_2_1_1_1_1_1_15_1_1_30_1_65",
        "X_2_1_1_1_1_1_40_1_1_31_1_65",
        "X_2_1_1_1_1_1_16_1_1_32_1_65",
        "X_2_1_1_1_1_1_41_1_1_33_1_65",
        "X_2_1_1_1_1_1_17_1_1_34_1_65",
        "X_2_1_1_1_1_1_42_1_1_35_1_65",
        "X_2_1_1_1_1_1_18_1_1_36_1_65",
        "X_2_1_1_1_1_1_43_1_1_37_1_65",
        "X_2_1_1_1_1_1_19_1_1_38_1_65",
        "X_2_1_1_1_1_1_44_1_1_39_1_65",
        "X_2_1_1_1_1_1_20_1_1_40_1_65",
        "X_2_1_1_1_1_1_45_1_1_41_1_65",
        "X_2_1_1_1_1_1_21_1_1_42_1_65",
        "X_2_1_1_1_1_1_46_1_1_43_1_65",
        "X_2_1_1_1_1_1_22_1_1_44_1_65",
        "X_2_1_1_1_1_1_47_1_1_45_1_65",
        "X_2_1_1_1_1_1_23_1_1_46_1_65",
        "X_2_1_1_1_1_1_48_1_1_47_1_65",
        "X_2_1_1_1_1_1_24_1_1_48_1_65"
],
      "CsaImage.ProtocolSliceNumber": [0, 1, 2, 3, 4, 5, 6, 7, 8, 9, 10, 11, 12, 13, 14, 15, 16, 17, 18, 19, 20, 21, 22, 23, 24, 25, 26, 27, 28, 29, 30, 31, 32, 33, 34, 35, 36, 37, 38, 39, 40, 41, 42, 43, 44, 45, 46, 47],
      "CsaImage.SlicePosition_PCS": [
        [-117.24573399, -144.95361967, -95.49585724],
        [-117.24573399, -144.95361967, -92.49585724],
        [-117.24573399, -144.95361967, -89.49585724],
        [-117.24573399, -144.95361967, -86.49585724],
        [-117.24573399, -144.95361967, -83.49585724],
        [-117.24573399, -144.95361967, -80.49585724],
        [-117.24573399, -144.95361967, -77.49585724],
        [-117.24573399, -144.95361967, -74.49585724],
        [-117.24573399, -144.95361967, -71.49585724],
        [-117.24573399, -144.95361967, -68.49585724],
        [-117.24573399, -144.95361967, -65.49585724],
        [-117.24573399, -144.95361967, -62.49585724],
        [-117.24573399, -144.95361967, -59.49585724],
        [-117.24573399, -144.95361967, -56.49585724],
        [-117.24573399, -144.95361967, -53.49585724],
        [-117.24573399, -144.95361967, -50.49585724],
        [-117.24573399, -144.95361967, -47.49585724],
        [-117.24573399, -144.95361967, -44.49585724],
        [-117.24573399, -144.95361967, -41.49585724],
        [-117.24573399, -144.95361967, -38.49585724],
        [-117.24573399, -144.95361967, -35.49585724],
        [-117.24573399, -144.95361967, -32.49585724],
        [-117.24573399, -144.95361967, -29.49585915],
        [-117.24573399, -144.95361967, -26.49585915],
        [-117.24573399, -144.95361967, -23.49585915],
        [-117.24573399, -144.95361967, -20.49585915],
        [-117.24573399, -144.95361967, -17.49585915],
        [-117.24573399, -144.95361967, -14.49585819],
        [-117.24573399, -144.95361967, -11.49585819],
        [-117.24573399, -144.95361967, -8.49585819],
        [-117.24573399, -144.95361967, -5.49585819],
        [-117.24573399, -144.95361967, -2.49585819],
        [-117.24573399, -144.95361967, 0.50414175],
        [-117.24573399, -144.95361967, 3.50414181],
        [-117.24573399, -144.95361967, 6.50414181],
        [-117.24573399, -144.95361967, 9.50414181],
        [-117.24573399, -144.95361967, 12.50414181],
        [-117.24573399, -144.95361967, 15.50414181],
        [-117.24573399, -144.95361967, 18.50414085],
        [-117.24573399, -144.95361967, 21.50414085],
        [-117.24573399, -144.95361967, 24.50414085],
        [-117.24573399, -144.95361967, 27.50414085],
        [-117.24573399, -144.95361967, 30.50414085],
        [-117.24573399, -144.95361967, 33.50414276],
        [-117.24573399, -144.95361967, 36.50414276],
        [-117.24573399, -144.95361967, 39.50414276],
        [-117.24573399, -144.95361967, 42.50414276],
        [-117.24573399, -144.95361967, 45.50414276]
],
      "CsaImage.TimeAfterStart": [0.7825, 0.5225, 0.7925, 0.5325, 0.805, 0.545, 0.815, 0.555, 0.825, 0.565, 0.8375, 0.5775, 0.8475, 0.5875, 0.8575, 0.5975, 0.87, 0.61, 0.88, 0.62, 0.89, 0.63, 0.9025, 0.6425, 0.9125, 0.6525, 0.9225, 0.6625, 0.935, 0.675, 0.945, 0.685, 0.955, 0.695, 0.9675, 0.7075, 0.9775, 0.7175, 0.9875, 0.7275, 1.0, 0.74, 1.01, 0.75, 1.02, 0.76, 1.0325, 0.7725],
      "ImagePositionPatient": [
        [-117.24573398949, -144.95361966831, -95.49585723877],
        [-117.24573398949, -144.95361966831, -92.49585723877],
        [-117.24573398949, -144.95361966831, -89.49585723877],
        [-117.24573398949, -144.95361966831, -86.49585723877],
        [-117.24573398949, -144.95361966831, -83.49585723877],
        [-117.24573398949, -144.95361966831, -80.49585723877],
        [-117.24573398949, -144.95361966831, -77.49585723877],
        [-117.24573398949, -144.95361966831, -74.49585723877],
        [-117.24573398949, -144.95361966831, -71.49585723877],
        [-117.24573398949, -144.95361966831, -68.49585723877],
        [-117.24573398949, -144.95361966831, -65.49585723877],
        [-117.24573398949, -144.95361966831, -62.49585723877],
        [-117.24573398949, -144.95361966831, -59.49585723877],
        [-117.24573398949, -144.95361966831, -56.49585723877],
        [-117.24573398949, -144.95361966831, -53.49585723877],
        [-117.24573398949, -144.95361966831, -50.49585723877],
        [-117.24573398949, -144.95361966831, -47.49585723877],
        [-117.24573398949, -144.95361966831, -44.49585723877],
        [-117.24573398949, -144.95361966831, -41.49585723877],
        [-117.24573398949, -144.95361966831, -38.49585723877],
        [-117.24573398949, -144.95361966831, -35.49585723877],
        [-117.24573398949, -144.95361966831, -32.49585723877],
        [-117.24573398949, -144.95361966831, -29.495859146118],
        [-117.24573398949, -144.95361966831, -26.495859146118],
        [-117.24573398949, -144.95361966831, -23.495859146118],
        [-117.24573398949, -144.95361966831, -20.495859146118],
        [-117.24573398949, -144.95361966831, -17.495859146118],
        [-117.24573398949, -144.95361966831, -14.495858192444],
        [-117.24573398949, -144.95361966831, -11.495858192444],
        [-117.24573398949, -144.95361966831, -8.4958581924438],
        [-117.24573398949, -144.95361966831, -5.4958581924438],
        [-117.24573398949, -144.95361966831, -2.4958581924438],
        [-117.24573398949, -144.95361966831, 0.50414174795151],
        [-117.24573398949, -144.95361966831, 3.5041418075562],
        [-117.24573398949, -144.95361966831, 6.5041418075562],
        [-117.24573398949, -144.95361966831, 9.5041418075562],
        [-117.24573398949, -144.95361966831, 12.504141807556],
        [-117.24573398949, -144.95361966831, 15.504141807556],
        [-117.24573398949, -144.95361966831, 18.504140853882],
        [-117.24573398949, -144.95361966831, 21.504140853882],
        [-117.24573398949, -144.95361966831, 24.504140853882],
        [-117.24573398949, -144.95361966831, 27.504140853882],
        [-117.24573398949, -144.95361966831, 30.504140853882],
        [-117.24573398949, -144.95361966831, 33.50414276123],
        [-117.24573398949, -144.95361966831, 36.50414276123],
        [-117.24573398949, -144.95361966831, 39.50414276123],
        [-117.24573398949, -144.95361966831, 42.50414276123],
        [-117.24573398949, -144.95361966831, 45.50414276123]
],
      "InstanceCreationTime": ["111832.483000", "111832.422000", "111832.485000", "111832.425000", "111832.488000", "111832.427000", "111832.490000", "111832.429000", "111832.493000", "111832.431000", "111832.504000", "111832.433000", "111832.507000", "111832.435000", "111832.509000", "111832.437000", "111832.512000", "111832.439000", "111832.514000", "111832.441000", "111832.517000", "111832.443000", "111832.519000", "111832.445000", "111832.522000", "111832.447000", "111832.525000", "111832.449000", "111832.527000", "111832.451000", "111832.530000", "111832.453000", "111832.532000", "111832.455000", "111832.535000", "111832.457000", "111832.537000", "111832.459000", "111832.540000", "111832.472000", "111832.542000", "111832.474000", "111832.544000", "111832.476000", "111832.546000", "111832.478000", "111832.548000", "111832.480000"],
      "InstanceNumber": [1, 2, 3, 4, 5, 6, 7, 8, 9, 10, 11, 12, 13, 14, 15, 16, 17, 18, 19, 20, 21, 22, 23, 24, 25, 26, 27, 28, 29, 30, 31, 32, 33, 34, 35, 36, 37, 38, 39, 40, 41, 42, 43, 44, 45, 46, 47, 48],
      "LargestImagePixelValue": [4087, 4086, 4090, 4093, 4091, 4093, 4095, 4086, 4094, 4094, 4094, 4095, 4087, 4093, 4090, 4089, 4088, 4073, 4091, 4092, 4095, 4092, 4092, 4094, 4092, 4086, 4095, 4087, 4086, 4092, 4095, 4090, 4093, 4076, 4091, 4093, 4094, 4078, 4089, 4094, 4092, 4083, 4089, 4085, 4094, 4094, 4095, 4093],
      "SliceLocation": [-95.49585723877, -92.49585723877, -89.49585723877, -86.49585723877, -83.49585723877, -80.49585723877, -77.49585723877, -74.49585723877, -71.49585723877, -68.49585723877, -65.49585723877, -62.49585723877, -59.49585723877, -56.49585723877, -53.49585723877, -50.49585723877, -47.49585723877, -44.49585723877, -41.49585723877, -38.49585723877, -35.49585723877, -32.49585723877, -29.495859146118, -26.495859146118, -23.495859146118, -20.495859146118, -17.495859146118, -14.495858192444, -11.495858192444, -8.4958581924438, -5.4958581924438, -2.4958581924438, 0.50414174795151, 3.5041418075562, 6.5041418075562, 9.5041418075562, 12.504141807556, 15.504141807556, 18.504140853882, 21.504140853882, 24.504140853882, 27.504140853882, 30.504140853882, 33.50414276123, 36.50414276123, 39.50414276123, 42.50414276123, 45.50414276123],
      "SmallestImagePixelValue": [4, 0, 3, 1, 0, 1, 2, 1, 13, 3, 1, 0, 0, 6, 2, 0, 0, 8, 1, 0, 4, 1, 0, 5, 3, 6, 3, 6, 4, 2, 8, 0, 2, 5, 3, 5, 1, 2, 6, 0, 0, 1, 5, 19, 10, 0, 11, 0],
      "WindowCenter": [-214.0, -256.0, -302.0, -276.0, -244.0, -264.0, -224.0, -168.0, -130.0, -102.0, -92.0, -72.0, -60.0, -204.0, -182.0, -162.0, -150.0, -134.0, -114.0, -120.0, -106.0, -78.0, -64.0, -52.0, -62.0, -62.0, -98.0, -174.0, -26.0, -50.0, -88.0, -60.0, -36.0, -60.0, -84.0, -130.0, -118.0, -126.0, -156.0, -222.0, -204.0, -234.0, -276.0, -290.0, -300.0, -366.0, -378.0, -418.0],
      "WindowWidth": [6082.0, 6012.0, 5970.0, 5968.0, 5984.0, 5932.0, 5960.0, 5866.0, 5826.0, 5640.0, 5566.0, 5484.0, 5444.0, 4616.0, 4570.0, 4540.0, 4518.0, 4496.0, 4480.0, 4488.0, 4472.0, 4458.0, 4442.0, 4434.0, 4444.0, 4438.0, 4492.0, 4564.0, 5420.0, 5446.0, 5308.0, 5500.0, 5580.0, 5488.0, 5472.0, 5372.0, 5532.0, 5564.0, 5662.0, 5708.0, 5686.0, 5716.0, 5674.0, 5704.0, 5726.0, 5834.0, 5914.0, 5890.0]
    }
  }
}