{
  "AcquisitionMatrixPE": 82,
  "AcquisitionNumber": 1,
  "AcquisitionTime": "11:16:12.457500",
  "BandwidthPerPixelPhaseEncode": 23.452,
  "BaseResolution": 82,
  "BodyPartExamined": "BRAIN",
  "CoilCombinationMethod": "Sum of Squares",
  "ConsistencyInfo": "N4_VE11C_LATEST_20160120",
  "ConversionSoftware": "dcm2niix",
  "ConversionSoftwareVersion": "v1.0.20220720",
  "DerivedVendorReportedEchoSpacing": 0.000520003,
  "DeviceSerialNumber": "66112",
  "DiffusionScheme": "Monopolar",
  "DwellTime": 2.1e-06,
  "EchoTime": 0.073,
  "EchoTrainLength": 82,
  "EffectiveEchoSpacing": 0.000520003,
  "FlipAngle": 90,
  "HeudiconvVersion": "0.13.1",
  "ImageOrientationPatientDICOM": [0.997625, 0.0688858, 0, -0.0688858, 0.997625, 0],
  "ImageOrientationText": "Tra",
  "ImageType": [
    "ORIGINAL",
    "PRIMARY",
    "DIFFUSION",
    "NONE",
    "ND",
    "NORM"
],
  "ImagingFrequency": 123.252,
  "InPlanePhaseEncodingDirectionDICOM": "COL",
  "InstitutionAddress": "Maynard 3,Hanover,NH,US,03755",
  "InstitutionName": "Dartmouth College - PBS",
  "InstitutionalDepartmentName": "Department",
  "IntendedFor": [
    "ses-20180521/dwi/sub-emmet_ses-20180521_acq-DTIX30Xp2Xs4X2mm_dwi.nii.gz",
    "ses-20180521/func/sub-emmet_ses-20180521_task-rest_acq-3mm_bold.nii.gz"
],
  "MRAcquisitionType": "2D",
  "MagneticFieldStrength": 3,
  "Manufacturer": "Siemens",
  "ManufacturersModelName": "Prisma",
  "MatrixCoilMode": "SENSE",
  "Modality": "MR",
  "NonlinearGradientCorrection": false,
  "PartialFourier": 1,
  "PatientPosition": "HFS",
  "PercentPhaseFOV": 100,
  "PercentSampling": 100,
  "PhaseEncodingDirection": "j-",
  "PhaseEncodingSteps": 82,
  "PhaseResolution": 1,
  "PixelBandwidth": 2905,
  "ProcedureStepDescription": "dbic^QA",
  "ProtocolName": "fmap_dir-AP_acq-topup-b0-3mm",
  "PulseSequenceDetails": "%SiemensSeq%\\ep2d_diff",
  "ReceiveCoilActiveElements": "HEA;HEP",
  "ReceiveCoilName": "Head_32",
  "ReconMatrixPE": 82,
  "RepetitionTime": 7.2,
  "SAR": 0.181966,
  "ScanOptions": "FS",
  "ScanningSequence": "EP",
  "SequenceName": "*ep_b0",
  "SequenceVariant": "SK\\SP",
  "SeriesDescription": "fmap_dir-AP_acq-topup-b0-3mm",
  "SeriesNumber": 22,
  "ShimSetting": [4143, -7700, -7245, -872, -66, -20, -63, 80],
  "SliceThickness": 3,
  "SliceTiming": [3.59375, 0, 3.74219, 0.14844, 3.89062, 0.29688, 4.03906, 0.45312, 4.1875, 0.60156, 4.33594, 0.75, 4.48438, 0.89844, 4.64062, 1.04688, 4.78906, 1.19531, 4.9375, 1.35156, 5.08594, 1.49219, 5.23438, 1.64844, 5.38281, 1.79688, 5.53906, 1.94531, 5.6875, 2.09375, 5.83594, 2.24219, 5.98438, 2.39062, 6.13281, 2.53906, 6.28125, 2.69531, 6.42969, 2.84375, 6.58594, 2.99219, 6.73438, 3.14062, 6.88281, 3.28906, 7.03125, 3.4375],
  "SoftwareVersions": "syngo MR E11",
  "SpacingBetweenSlices": 3,
  "SpoilingState": true,
  "StationName": "AWP66112",
  "TotalReadoutTime": 0.0421203,
  "TxRefAmp": 186.051,
  "dcmmeta_affine": [
    [-3.0172059535980225, -0.208337664604187, 0.0, 134.12107849121094],
    [-0.208337664604187, 3.0172059535980225, 0.0, -99.4400634765625],
    [0.0, 0.0, 3.0, -95.49585723876953],
    [0.0, 0.0, 0.0, 1.0]
],
  "dcmmeta_reorient_transform": [
    [0.0, -1.0, 0.0, 81.0],
    [1.0, 0.0, 0.0, 0.0],
    [0.0, 0.0, -1.0, 47.0],
    [0.0, 0.0, 0.0, 1.0]
],
  "dcmmeta_shape": [82, 82, 48],
  "dcmmeta_slice_dim": 2,
  "dcmmeta_version": 0.6,
  "global": {
    "const": {
      "AccessionNumber": "qa-emmet",
      "AcquisitionMatrix": [82, 0, 0, 82],
      "AcquisitionNumber": 1,
      "AngioFlag": "N",
      "BitsAllocated": 16,
      "BitsStored": 12,
      "BodyPartExamined": "BRAIN",
      "Columns": 82,
      "EchoNumbers": 1,
      "EchoTime": 73.0,
      "EchoTrainLength": 82,
      "FlipAngle": 90.0,
      "HighBit": 11,
      "ImageOrientationPatient": [0.9976245490056, 0.06888584195156, 0.0, -0.0688858419516, 0.9976245490056, 0.0],
      "ImageType": [
        "ORIGINAL",
        "PRIMARY",
        "DIFFUSION",
        "NONE",
        "ND",
        "NORM"
],
      "ImagedNucleus": "1H",
      "ImagingFrequency": 123.252342,
      "InPlanePhaseEncodingDirection": "COL",
      "MRAcquisitionType": "2D",
      "MagneticFieldStrength": 3.0,
      "Manufacturer": "SIEMENS",
      "ManufacturerModelName": "Prisma",
      "Modality": "MR",
      "NumberOfAverages": 1.0,
      "NumberOfPhaseEncodingSteps": 82,
      "PercentPhaseFieldOfView": 100.0,
      "PercentSampling": 100.0,
      "PerformedProcedureStepStartTime": "103605.312000",
      "PhotometricInterpretation": "MONOCHROME2",
      "PixelBandwidth": 2905.0,
      "PixelRepresentation": 0,
      "PixelSpacing": [3.0243902206421, 3.0243902206421],
      "ProtocolName": "fmap_dir-AP_acq-topup-b0-3mm",
      "RepetitionTime": 7200.0,
      "Rows": 82,
      "SAR": 0.18196570435726,
      "SamplesPerPixel": 1,
      "ScanOptions": "FS",
      "ScanningSequence": "EP",
      "SequenceName": "*ep_b0",
      "SequenceVariant": [
        "SK",
        "SP"
],
      "SeriesDescription": "fmap_dir-AP_acq-topup-b0-3mm",
      "SeriesNumber": 22,
      "SeriesTime": "111616.906000",
      "SliceThickness": 3.0,
      "SmallestImagePixelValue": 0,
      "SoftwareVersions": "syngo MR E11",
      "SpacingBetweenSlices": 3.0,
      "SpecificCharacterSet": "ISO_IR 100",
      "StudyID": "2",
      "StudyTime": "103605.248000",
      "TransmitCoilName": "Body",
      "VariableFlipAngleFlag": "N",
      "WindowCenterWidthExplanation": "Algo1",
      "dBdt": 0.0},
    "slices": {
      "AcquisitionTime": ["111612.457500", "111608.867500", "111612.607500", "111609.017500", "111612.757500", "111609.167500", "111612.907500", "111609.317500", "111613.055000", "111609.465000", "111613.205000", "111609.615000", "111613.355000", "111609.765000", "111613.505000", "111609.915000", "111613.655000", "111610.065000", "111613.805000", "111610.215000", "111613.952500", "111610.362500", "111614.102500", "111610.512500", "111614.252500", "111610.662500", "111614.402500", "111610.812500", "111614.552500", "111610.962500", "111614.702500", "111611.112500", "111614.850000", "111611.260000", "111615.000000", "111611.410000", "111615.150000", "111611.560000", "111615.300000", "111611.710000", "111615.450000", "111611.860000", "111615.600000", "111612.010000", "111615.747500", "111612.157500", "111615.897500", "111612.307500"],
      "ContentTime": ["111616.962000", "111616.909000", "111616.964000", "111616.913000", "111616.966000", "111616.915000", "111616.968000", "111616.917000", "111616.970000", "111616.919000", "111616.973000", "111616.921000", "111616.975000", "111616.923000", "111616.977000", "111616.925000", "111616.979000", "111616.928000", "111616.981000", "111616.930000", "111616.983000", "111616.932000", "111616.986000", "111616.934000", "111616.988000", "111616.936000", "111616.990000", "111616.938000", "111616.992000", "111616.940000", "111616.994000", "111616.942000", "111616.996000", "111616.944000", "111616.998000", "111616.947000", "111617.002000", "111616.949000", "111617.004000", "111616.951000", "111617.007000", "111616.953000", "111617.009000", "111616.955000", "111617.011000", "111616.957000", "111617.014000", "111616.959000"],
      "CsaImage.GSWDDataType": [
        "measured",
        "predicted",
        "measured",
        "predicted",
        "measured",
        "predicted",
        "measured",
        "predicted",
        "measured",
        "predicted",
        "measured",
        "predicted",
        "measured",
        "predicted",
        "measured",
        "measured",
        "measured",
        "measured",
        "measured",
        "measured",
        "measured",
        "measured",
        "measured",
        "measured",
        "measured",
        "measured",
        "measured",
        "measured",
        "measured",
        "measured",
        "measured",
        "measured",
        "measured",
        "measured",
        "measured",
        "measured",
        "measured",
        "measured",
        "measured",
        "measured",
        "measured",
        "measured",
        "measured",
        "measured",
        "measured",
        "measured",
        "measured",
        "measured"
],
      "CsaImage.ICE_Dims": [
        "X_1_1_1_1_1_1_25_1_1_1_1_61",
        "X_1_1_1_1_1_1_1_1_1_2_1_61",
        "X_1_1_1_1_1_1_26_1_1_3_1_61",
        "X_1_1_1_1_1_1_2_1_1_4_1_61",
        "X_1_1_1_1_1_1_27_1_1_5_1_61",
        "X_1_1_1_1_1_1_3_1_1_6_1_61",
        "X_1_1_1_1_1_1_28_1_1_7_1_61",
        "X_1_1_1_1_1_1_4_1_1_8_1_61",
        "X_1_1_1_1_1_1_29_1_1_9_1_61",
        "X_1_1_1_1_1_1_5_1_1_10_1_61",
        "X_1_1_1_1_1_1_30_1_1_11_1_61",
        "X_1_1_1_1_1_1_6_1_1_12_1_61",
        "X_1_1_1_1_1_1_31_1_1_13_1_61",
        "X_1_1_1_1_1_1_7_1_1_14_1_61",
        "X_1_1_1_1_1_1_32_1_1_15_1_61",
        "X_1_1_1_1_1_1_8_1_1_16_1_61",
        "X_1_1_1_1_1_1_33_1_1_17_1_61",
        "X_1_1_1_1_1_1_9_1_1_18_1_61",
        "X_1_1_1_1_1_1_34_1_1_19_1_61",
        "X_1_1_1_1_1_1_10_1_1_20_1_61",
        "X_1_1_1_1_1_1_35_1_1_21_1_61",
        "X_1_1_1_1_1_1_11_1_1_22_1_61",
        "X_1_1_1_1_1_1_36_1_1_23_1_61",
        "X_1_1_1_1_1_1_12_1_1_24_1_61",
        "X_1_1_1_1_1_1_37_1_1_25_1_61",
        "X_1_1_1_1_1_1_13_1_1_26_1_61",
        "X_1_1_1_1_1_1_38_1_1_27_1_61",
        "X_1_1_1_1_1_1_14_1_1_28_1_61",
        "X_1_1_1_1_1_1_39_1_1_29_1_61",
        "X_1_1_1_1_1_1_15_1_1_30_1_61",
        "X_1_1_1_1_1_1_40_1_1_31_1_61",
        "X_1_1_1_1_1_1_16_1_1_32_1_61",
        "X_1_1_1_1_1_1_41_1_1_33_1_61",
        "X_1_1_1_1_1_1_17_1_1_34_1_61",
        "X_1_1_1_1_1_1_42_1_1_35_1_61",
        "X_1_1_1_1_1_1_18_1_1_36_1_61",
        "X_1_1_1_1_1_1_43_1_1_37_1_61",
        "X_1_1_1_1_1_1_19_1_1_38_1_61",
        "X_1_1_1_1_1_1_44_1_1_39_1_61",
        "X_1_1_1_1_1_1_20_1_1_40_1_61",
        "X_1_1_1_1_1_1_45_1_1_41_1_61",
        "X_1_1_1_1_1_1_21_1_1_42_1_61",
        "X_1_1_1_1_1_1_46_1_1_43_1_61",
        "X_1_1_1_1_1_1_22_1_1_44_1_61",
        "X_1_1_1_1_1_1_47_1_1_45_1_61",
        "X_1_1_1_1_1_1_23_1_1_46_1_61",
        "X_1_1_1_1_1_1_48_1_1_47_1_61",
        "X_1_1_1_1_1_1_24_1_1_48_1_61"
],
      "CsaImage.ProtocolSliceNumber": [0, 1, 2, 3, 4, 5, 6, 7, 8, 9, 10, 11, 12, 13, 14, 15, 16, 17, 18, 19, 20, 21, 22, 23, 24, 25, 26, 27, 28, 29, 30, 31, 32, 33, 34, 35, 36, 37, 38, 39, 40, 41, 42, 43, 44, 45, 46, 47],
      "CsaImage.SlicePosition_PCS": [
        [-117.24573399, -144.95361967, -95.49585724],
        [-117.24573399, -144.95361967, -92.49585724],
        [-117.24573399, -144.95361967, -89.49585724],
        [-117.24573399, -144.95361967, -86.49585724],
        [-117.24573399, -144.95361967, -83.49585724],
        [-117.24573399, -144.95361967, -80.49585724],
        [-117.24573399, -144.95361967, -77.49585724],
        [-117.24573399, -144.95361967, -74.49585724],
        [-117.24573399, -144.95361967, -71.49585724],
        [-117.24573399, -144.95361967, -68.49585724],
        [-117.24573399, -144.95361967, -65.49585724],
        [-117.24573399, -144.95361967, -62.49585724],
        [-117.24573399, -144.95361967, -59.49585724],
        [-117.24573399, -144.95361967, -56.49585724],
        [-117.24573399, -144.95361967, -53.49585724],
        [-117.24573399, -144.95361967, -50.49585724],
        [-117.24573399, -144.95361967, -47.49585724],
        [-117.24573399, -144.95361967, -44.49585724],
        [-117.24573399, -144.95361967, -41.49585724],
        [-117.24573399, -144.95361967, -38.49585724],
        [-117.24573399, -144.95361967, -35.49585724],
        [-117.24573399, -144.95361967, -32.49585724],
        [-117.24573399, -144.95361967, -29.49585915],
        [-117.24573399, -144.95361967, -26.49585915],
        [-117.24573399, -144.95361967, -23.49585915],
        [-117.24573399, -144.95361967, -20.49585915],
        [-117.24573399, -144.95361967, -17.49585915],
        [-117.24573399, -144.95361967, -14.49585819],
        [-117.24573399, -144.95361967, -11.49585819],
        [-117.24573399, -144.95361967, -8.49585819],
        [-117.24573399, -144.95361967, -5.49585819],
        [-117.24573399, -144.95361967, -2.49585819],
        [-117.24573399, -144.95361967, 0.50414175],
        [-117.24573399, -144.95361967, 3.50414181],
        [-117.24573399, -144.95361967, 6.50414181],
        [-117.24573399, -144.95361967, 9.50414181],
        [-117.24573399, -144.95361967, 12.50414181],
        [-117.24573399, -144.95361967, 15.50414181],
        [-117.24573399, -144.95361967, 18.50414085],
        [-117.24573399, -144.95361967, 21.50414085],
        [-117.24573399, -144.95361967, 24.50414085],
        [-117.24573399, -144.95361967, 27.50414085],
        [-117.24573399, -144.95361967, 30.50414085],
        [-117.24573399, -144.95361967, 33.50414276],
        [-117.24573399, -144.95361967, 36.50414276],
        [-117.24573399, -144.95361967, 39.50414276],
        [-117.24573399, -144.95361967, 42.50414276],
        [-117.24573399, -144.95361967, 45.50414276]
],
      "CsaImage.TimeAfterStart": [3.59, 0.0, 3.74, 0.15, 3.8875, 0.2975, 4.0375, 0.4475, 4.1875, 0.5975, 4.3375, 0.7475, 4.4875, 0.8975, 4.6375, 1.0475, 4.785, 1.195, 4.935, 1.345, 5.085, 1.495, 5.235, 1.645, 5.385, 1.795, 5.535, 1.945, 5.6825, 2.0925, 5.8325, 2.2425, 5.9825, 2.3925, 6.1325, 2.5425, 6.2825, 2.6925, 6.4325, 2.8425, 6.58, 2.99, 6.73, 3.14, 6.88, 3.29, 7.03, 3.44],
      "ImagePositionPatient": [
        [-117.24573398949, -144.95361966831, -95.49585723877],
        [-117.24573398949, -144.95361966831, -92.49585723877],
        [-117.24573398949, -144.95361966831, -89.49585723877],
        [-117.24573398949, -144.95361966831, -86.49585723877],
        [-117.24573398949, -144.95361966831, -83.49585723877],
        [-117.24573398949, -144.95361966831, -80.49585723877],
        [-117.24573398949, -144.95361966831, -77.49585723877],
        [-117.24573398949, -144.95361966831, -74.49585723877],
        [-117.24573398949, -144.95361966831, -71.49585723877],
        [-117.24573398949, -144.95361966831, -68.49585723877],
        [-117.24573398949, -144.95361966831, -65.49585723877],
        [-117.24573398949, -144.95361966831, -62.49585723877],
        [-117.24573398949, -144.95361966831, -59.49585723877],
        [-117.24573398949, -144.95361966831, -56.49585723877],
        [-117.24573398949, -144.95361966831, -53.49585723877],
        [-117.24573398949, -144.95361966831, -50.49585723877],
        [-117.24573398949, -144.95361966831, -47.49585723877],
        [-117.24573398949, -144.95361966831, -44.49585723877],
        [-117.24573398949, -144.95361966831, -41.49585723877],
        [-117.24573398949, -144.95361966831, -38.49585723877],
        [-117.24573398949, -144.95361966831, -35.49585723877],
        [-117.24573398949, -144.95361966831, -32.49585723877],
        [-117.24573398949, -144.95361966831, -29.495859146118],
        [-117.24573398949, -144.95361966831, -26.495859146118],
        [-117.24573398949, -144.95361966831, -23.495859146118],
        [-117.24573398949, -144.95361966831, -20.495859146118],
        [-117.24573398949, -144.95361966831, -17.495859146118],
        [-117.24573398949, -144.95361966831, -14.495858192444],
        [-117.24573398949, -144.95361966831, -11.495858192444],
        [-117.24573398949, -144.95361966831, -8.4958581924438],
        [-117.24573398949, -144.95361966831, -5.4958581924438],
        [-117.24573398949, -144.95361966831, -2.4958581924438],
        [-117.24573398949, -144.95361966831, 0.50414174795151],
        [-117.24573398949, -144.95361966831, 3.5041418075562],
        [-117.24573398949, -144.95361966831, 6.5041418075562],
        [-117.24573398949, -144.95361966831, 9.5041418075562],
        [-117.24573398949, -144.95361966831, 12.504141807556],
        [-117.24573398949, -144.95361966831, 15.504141807556],
        [-117.24573398949, -144.95361966831, 18.504140853882],
        [-117.24573398949, -144.95361966831, 21.504140853882],
        [-117.24573398949, -144.95361966831, 24.504140853882],
        [-117.24573398949, -144.95361966831, 27.504140853882],
        [-117.24573398949, -144.95361966831, 30.504140853882],
        [-117.24573398949, -144.95361966831, 33.50414276123],
        [-117.24573398949, -144.95361966831, 36.50414276123],
        [-117.24573398949, -144.95361966831, 39.50414276123],
        [-117.24573398949, -144.95361966831, 42.50414276123],
        [-117.24573398949, -144.95361966831, 45.50414276123]
],
      "InstanceCreationTime": ["111616.962000", "111616.909000", "111616.964000", "111616.913000", "111616.966000", "111616.915000", "111616.968000", "111616.917000", "111616.970000", "111616.919000", "111616.973000", "111616.921000", "111616.975000", "111616.923000", "111616.977000", "111616.925000", "111616.979000", "111616.928000", "111616.981000", "111616.930000", "111616.983000", "111616.932000", "111616.986000", "111616.934000", "111616.988000", "111616.936000", "111616.990000", "111616.938000", "111616.992000", "111616.940000", "111616.994000", "111616.942000", "111616.996000", "111616.944000", "111616.998000", "111616.947000", "111617.002000", "111616.949000", "111617.004000", "111616.951000", "111617.007000", "111616.953000", "111617.009000", "111616.955000", "111617.011000", "111616.957000", "111617.014000", "111616.959000"],
      "InstanceNumber": [1, 2, 3, 4, 5, 6, 7, 8, 9, 10, 11, 12, 13, 14, 15, 16, 17, 18, 19, 20, 21, 22, 23, 24, 25, 26, 27, 28, 29, 30, 31, 32, 33, 34, 35, 36, 37, 38, 39, 40, 41, 42, 43, 44, 45, 46, 47, 48],
      "LargestImagePixelValue": [1078, 856, 890, 850, 829, 838, 956, 739, 1093, 926, 802, 751, 770, 755, 799, 788, 1003, 958, 716, 673, 876, 967, 707, 712, 734, 981, 949, 1071, 756, 758, 779, 918, 992, 949, 1019, 982, 737, 762, 828, 790, 919, 897, 830, 817, 831, 860, 922, 956],
      "SliceLocation": [-95.49585723877, -92.49585723877, -89.49585723877, -86.49585723877, -83.49585723877, -80.49585723877, -77.49585723877, -74.49585723877, -71.49585723877, -68.49585723877, -65.49585723877, -62.49585723877, -59.49585723877, -56.49585723877, -53.49585723877, -50.49585723877, -47.49585723877, -44.49585723877, -41.49585723877, -38.49585723877, -35.49585723877, -32.49585723877, -29.495859146118, -26.495859146118, -23.495859146118, -20.495859146118, -17.495859146118, -14.495858192444, -11.495858192444, -8.4958581924438, -5.4958581924438, -2.4958581924438, 0.50414174795151, 3.5041418075562, 6.5041418075562, 9.5041418075562, 12.504141807556, 15.504141807556, 18.504140853882, 21.504140853882, 24.504140853882, 27.504140853882, 30.504140853882, 33.50414276123, 36.50414276123, 39.50414276123, 42.50414276123, 45.50414276123],
      "WindowCenter": [458.0, 436.0, 474.0, 495.0, 499.0, 504.0, 511.0, 457.0, 513.0, 522.0, 523.0, 526.0, 532.0, 481.0, 526.0, 546.0, 557.0, 558.0, 559.0, 535.0, 523.0, 552.0, 567.0, 561.0, 563.0, 568.0, 517.0, 566.0, 569.0, 573.0, 580.0, 577.0, 540.0, 561.0, 572.0, 579.0, 572.0, 571.0, 565.0, 510.0, 558.0, 571.0, 568.0, 562.0, 557.0, 486.0, 535.0, 555.0],
      "WindowWidth": [968.0, 920.0, 995.0, 1031.0, 1040.0, 1051.0, 1071.0, 959.0, 1075.0, 1086.0, 1082.0, 1086.0, 1097.0, 994.0, 1083.0, 1115.0, 1135.0, 1137.0, 1137.0, 1093.0, 1069.0, 1121.0, 1147.0, 1141.0, 1145.0, 1160.0, 1070.0, 1161.0, 1156.0, 1163.0, 1173.0, 1180.0, 1120.0, 1158.0, 1170.0, 1177.0, 1160.0, 1160.0, 1152.0, 1054.0, 1141.0, 1162.0, 1153.0, 1144.0, 1136.0, 1022.0, 1097.0, 1132.0]
    }
  }
}