{
  "AcquisitionMatrixPE": 82,
  "AcquisitionNumber": 1,
  "AcquisitionTime": "11:20:6.757500",
  "BaseResolution": 82,
  "BodyPartExamined": "BRAIN",
  "CoilCombinationMethod": "Sum of Squares",
  "ConsistencyInfo": "N4_VE11C_LATEST_20160120",
  "ConversionSoftware": "dcm2niix",
  "ConversionSoftwareVersion": "v1.0.20220720",
  "DeviceSerialNumber": "66112",
  "DwellTime": 1.02e-05,
  "EchoNumber": 2,
  "EchoTime": 0.00738,
  "EchoTime1": 0.00492,
  "EchoTime2": 0.00738,
  "FlipAngle": 45,
  "HeudiconvVersion": "0.13.1",
  "ImageOrientationPatientDICOM": [0.997625, 0.0688858, 0, -0.0688858, 0.997625, 0],
  "ImageOrientationText": "Tra",
  "ImageType": [
    "ORIGINAL",
    "PRIMARY",
    "P",
    "ND",
    "PHASE"
],
  "ImagingFrequency": 123.252,
  "InPlanePhaseEncodingDirectionDICOM": "COL",
  "InstitutionAddress": "Maynard 3,Hanover,NH,US,03755",
  "InstitutionName": "Dartmouth College - PBS",
  "InstitutionalDepartmentName": "Department",
  "MRAcquisitionType": "2D",
  "MagneticFieldStrength": 3,
  "Manufacturer": "Siemens",
  "ManufacturersModelName": "Prisma",
  "MatrixCoilMode": "SENSE",
  "Modality": "MR",
  "NonlinearGradientCorrection": false,
  "PartialFourier": 1,
  "PatientPosition": "HFS",
  "PercentPhaseFOV": 100,
  "PercentSampling": 100,
  "PhaseEncodingDirection": "j",
  "PhaseEncodingSteps": 82,
  "PhaseResolution": 1,
  "PixelBandwidth": 600,
  "ProcedureStepDescription": "dbic^QA",
  "ProtocolName": "fmap_dir-PA_acq-3mm",
  "PulseSequenceDetails": "%SiemensSeq%\\gre_field_mapping",
  "ReceiveCoilActiveElements": "HEA;HEP",
  "ReceiveCoilName": "Head_32",
  "ReconMatrixPE": 82,
  "RepetitionTime": 0.52,
  "SAR": 0.121766,
  "ScanningSequence": "GR",
  "SequenceName": "*fm2d2r",
  "SequenceVariant": "SP",
  "SeriesDescription": "fmap_dir-PA_acq-3mm",
  "SeriesNumber": 29,
  "ShimSetting": [4143, -7700, -7245, -872, -66, -20, -63, 80],
  "SliceThickness": 3,
  "SliceTiming": [0.25781, 0, 0.27344, 0.00781, 0.28125, 0.02344, 0.28906, 0.03125, 0.30469, 0.03906, 0.3125, 0.05469, 0.32031, 0.0625, 0.33594, 0.07812, 0.34375, 0.08594, 0.35156, 0.09375, 0.36719, 0.10938, 0.375, 0.11719, 0.39062, 0.125, 0.39844, 0.14062, 0.40625, 0.14844, 0.42188, 0.15625, 0.42969, 0.17188, 0.44531, 0.17969, 0.45312, 0.19531, 0.46875, 0.20312, 0.47656, 0.21875, 0.48438, 0.22656, 0.5, 0.23438, 0.50781, 0.25],
  "SoftwareVersions": "syngo MR E11",
  "SpacingBetweenSlices": 3,
  "StationName": "AWP66112",
  "TxRefAmp": 186.051,
  "dcmmeta_affine": [
    [-3.0172059535980225, -0.208337664604187, 0.0, 134.12107849121094],
    [-0.208337664604187, 3.0172059535980225, 0.0, -99.4400634765625],
    [0.0, 0.0, 3.0, -95.49585723876953],
    [0.0, 0.0, 0.0, 1.0]
],
  "dcmmeta_reorient_transform": [
    [0.0, -1.0, 0.0, 81.0],
    [1.0, 0.0, 0.0, 0.0],
    [0.0, 0.0, -1.0, 47.0],
    [0.0, 0.0, 0.0, 1.0]
],
  "dcmmeta_shape": [82, 82, 48],
  "dcmmeta_slice_dim": 2,
  "dcmmeta_version": 0.6,
  "global": {
    "const": {
      "AccessionNumber": "qa-emmet",
      "AcquisitionMatrix": [82, 0, 0, 82],
      "AcquisitionNumber": 1,
      "AngioFlag": "N",
      "BitsAllocated": 16,
      "BitsStored": 12,
      "BodyPartExamined": "BRAIN",
      "Columns": 82,
      "EchoNumbers": 2,
      "EchoTime": 7.38,
      "EchoTrainLength": 0,
      "FlipAngle": 45.0,
      "HighBit": 11,
      "ImageOrientationPatient": [0.9976245490056, 0.06888584195156, 0.0, -0.0688858419516, 0.9976245490056, 0.0],
      "ImageType": [
        "ORIGINAL",
        "PRIMARY",
        "P",
        "ND"
],
      "ImagedNucleus": "1H",
      "ImagingFrequency": 123.252342,
      "InPlanePhaseEncodingDirection": "COL",
      "MRAcquisitionType": "2D",
      "MagneticFieldStrength": 3.0,
      "Manufacturer": "SIEMENS",
      "ManufacturerModelName": "Prisma",
      "Modality": "MR",
      "NumberOfAverages": 1.0,
      "NumberOfPhaseEncodingSteps": 82,
      "PercentPhaseFieldOfView": 100.0,
      "PercentSampling": 100.0,
      "PerformedProcedureStepStartTime": "103605.312000",
      "PhotometricInterpretation": "MONOCHROME2",
      "PixelBandwidth": 600.0,
      "PixelRepresentation": 0,
      "PixelSpacing": [3.0243902206421, 3.0243902206421],
      "ProtocolName": "fmap_dir-PA_acq-3mm",
      "RepetitionTime": 520.0,
      "RescaleIntercept": -4096.0,
      "RescaleSlope": 2.0,
      "RescaleType": "US",
      "Rows": 82,
      "SAR": 0.12176565055317,
      "SamplesPerPixel": 1,
      "ScanningSequence": "GR",
      "SequenceName": "*fm2d2r",
      "SequenceVariant": "SP",
      "SeriesDescription": "fmap_dir-PA_acq-3mm",
      "SeriesNumber": 29,
      "SeriesTime": "112132.020000",
      "SliceThickness": 3.0,
      "SoftwareVersions": "syngo MR E11",
      "SpacingBetweenSlices": 3.0,
      "SpecificCharacterSet": "ISO_IR 100",
      "StudyID": "2",
      "StudyTime": "103605.248000",
      "TransmitCoilName": "Body",
      "VariableFlipAngleFlag": "N",
      "WindowCenterWidthExplanation": "Algo1",
      "dBdt": 0.0},
    "slices": {
      "AcquisitionTime": ["112006.757500", "112006.497500", "112006.770000", "112006.510000", "112006.780000", "112006.520000", "112006.790000", "112006.530000", "112006.802500", "112006.542500", "112006.812500", "112006.552500", "112006.822500", "112006.562500", "112006.835000", "112006.575000", "112006.845000", "112006.585000", "112006.855000", "112006.595000", "112006.867500", "112006.607500", "112006.877500", "112006.617500", "112006.887500", "112006.627500", "112006.900000", "112006.640000", "112006.910000", "112006.650000", "112006.920000", "112006.660000", "112006.932500", "112006.672500", "112006.942500", "112006.682500", "112006.952500", "112006.692500", "112006.965000", "112006.705000", "112006.975000", "112006.715000", "112006.985000", "112006.725000", "112006.997500", "112006.737500", "112007.007500", "112006.747500"],
      "ContentTime": ["112132.093000", "112132.024000", "112132.095000", "112132.028000", "112132.098000", "112132.031000", "112132.100000", "112132.035000", "112132.103000", "112132.039000", "112132.106000", "112132.042000", "112132.109000", "112132.044000", "112132.111000", "112132.046000", "112132.113000", "112132.049000", "112132.115000", "112132.052000", "112132.117000", "112132.054000", "112132.119000", "112132.056000", "112132.129000", "112132.058000", "112132.135000", "112132.061000", "112132.138000", "112132.063000", "112132.140000", "112132.066000", "112132.143000", "112132.070000", "112132.145000", "112132.074000", "112132.147000", "112132.078000", "112132.150000", "112132.081000", "112132.152000", "112132.084000", "112132.154000", "112132.086000", "112132.157000", "112132.089000", "112132.159000", "112132.091000"],
      "CsaImage.ICE_Dims": [
        "X_2_1_1_1_1_1_25_1_1_1_1_68",
        "X_2_1_1_1_1_1_1_1_1_2_1_68",
        "X_2_1_1_1_1_1_26_1_1_3_1_68",
        "X_2_1_1_1_1_1_2_1_1_4_1_68",
        "X_2_1_1_1_1_1_27_1_1_5_1_68",
        "X_2_1_1_1_1_1_3_1_1_6_1_68",
        "X_2_1_1_1_1_1_28_1_1_7_1_68",
        "X_2_1_1_1_1_1_4_1_1_8_1_68",
        "X_2_1_1_1_1_1_29_1_1_9_1_68",
        "X_2_1_1_1_1_1_5_1_1_10_1_68",
        "X_2_1_1_1_1_1_30_1_1_11_1_68",
        "X_2_1_1_1_1_1_6_1_1_12_1_68",
        "X_2_1_1_1_1_1_31_1_1_13_1_68",
        "X_2_1_1_1_1_1_7_1_1_14_1_68",
        "X_2_1_1_1_1_1_32_1_1_15_1_68",
        "X_2_1_1_1_1_1_8_1_1_16_1_68",
        "X_2_1_1_1_1_1_33_1_1_17_1_68",
        "X_2_1_1_1_1_1_9_1_1_18_1_68",
        "X_2_1_1_1_1_1_34_1_1_19_1_68",
        "X_2_1_1_1_1_1_10_1_1_20_1_68",
        "X_2_1_1_1_1_1_35_1_1_21_1_68",
        "X_2_1_1_1_1_1_11_1_1_22_1_68",
        "X_2_1_1_1_1_1_36_1_1_23_1_68",
        "X_2_1_1_1_1_1_12_1_1_24_1_68",
        "X_2_1_1_1_1_1_37_1_1_25_1_68",
        "X_2_1_1_1_1_1_13_1_1_26_1_68",
        "X_2_1_1_1_1_1_38_1_1_27_1_68",
        "X_2_1_1_1_1_1_14_1_1_28_1_68",
        "X_2_1_1_1_1_1_39_1_1_29_1_68",
        "X_2_1_1_1_1_1_15_1_1_30_1_68",
        "X_2_1_1_1_1_1_40_1_1_31_1_68",
        "X_2_1_1_1_1_1_16_1_1_32_1_68",
        "X_2_1_1_1_1_1_41_1_1_33_1_68",
        "X_2_1_1_1_1_1_17_1_1_34_1_68",
        "X_2_1_1_1_1_1_42_1_1_35_1_68",
        "X_2_1_1_1_1_1_18_1_1_36_1_68",
        "X_2_1_1_1_1_1_43_1_1_37_1_68",
        "X_2_1_1_1_1_1_19_1_1_38_1_68",
        "X_2_1_1_1_1_1_44_1_1_39_1_68",
        "X_2_1_1_1_1_1_20_1_1_40_1_68",
        "X_2_1_1_1_1_1_45_1_1_41_1_68",
        "X_2_1_1_1_1_1_21_1_1_42_1_68",
        "X_2_1_1_1_1_1_46_1_1_43_1_68",
        "X_2_1_1_1_1_1_22_1_1_44_1_68",
        "X_2_1_1_1_1_1_47_1_1_45_1_68",
        "X_2_1_1_1_1_1_23_1_1_46_1_68",
        "X_2_1_1_1_1_1_48_1_1_47_1_68",
        "X_2_1_1_1_1_1_24_1_1_48_1_68"
],
      "CsaImage.ProtocolSliceNumber": [0, 1, 2, 3, 4, 5, 6, 7, 8, 9, 10, 11, 12, 13, 14, 15, 16, 17, 18, 19, 20, 21, 22, 23, 24, 25, 26, 27, 28, 29, 30, 31, 32, 33, 34, 35, 36, 37, 38, 39, 40, 41, 42, 43, 44, 45, 46, 47],
      "CsaImage.SlicePosition_PCS": [
        [-117.24573399, -144.95361967, -95.49585724],
        [-117.24573399, -144.95361967, -92.49585724],
        [-117.24573399, -144.95361967, -89.49585724],
        [-117.24573399, -144.95361967, -86.49585724],
        [-117.24573399, -144.95361967, -83.49585724],
        [-117.24573399, -144.95361967, -80.49585724],
        [-117.24573399, -144.95361967, -77.49585724],
        [-117.24573399, -144.95361967, -74.49585724],
        [-117.24573399, -144.95361967, -71.49585724],
        [-117.24573399, -144.95361967, -68.49585724],
        [-117.24573399, -144.95361967, -65.49585724],
        [-117.24573399, -144.95361967, -62.49585724],
        [-117.24573399, -144.95361967, -59.49585724],
        [-117.24573399, -144.95361967, -56.49585724],
        [-117.24573399, -144.95361967, -53.49585724],
        [-117.24573399, -144.95361967, -50.49585724],
        [-117.24573399, -144.95361967, -47.49585724],
        [-117.24573399, -144.95361967, -44.49585724],
        [-117.24573399, -144.95361967, -41.49585724],
        [-117.24573399, -144.95361967, -38.49585724],
        [-117.24573399, -144.95361967, -35.49585724],
        [-117.24573399, -144.95361967, -32.49585724],
        [-117.24573399, -144.95361967, -29.49585915],
        [-117.24573399, -144.95361967, -26.49585915],
        [-117.24573399, -144.95361967, -23.49585915],
        [-117.24573399, -144.95361967, -20.49585915],
        [-117.24573399, -144.95361967, -17.49585915],
        [-117.24573399, -144.95361967, -14.49585819],
        [-117.24573399, -144.95361967, -11.49585819],
        [-117.24573399, -144.95361967, -8.49585819],
        [-117.24573399, -144.95361967, -5.49585819],
        [-117.24573399, -144.95361967, -2.49585819],
        [-117.24573399, -144.95361967, 0.50414175],
        [-117.24573399, -144.95361967, 3.50414181],
        [-117.24573399, -144.95361967, 6.50414181],
        [-117.24573399, -144.95361967, 9.50414181],
        [-117.24573399, -144.95361967, 12.50414181],
        [-117.24573399, -144.95361967, 15.50414181],
        [-117.24573399, -144.95361967, 18.50414085],
        [-117.24573399, -144.95361967, 21.50414085],
        [-117.24573399, -144.95361967, 24.50414085],
        [-117.24573399, -144.95361967, 27.50414085],
        [-117.24573399, -144.95361967, 30.50414085],
        [-117.24573399, -144.95361967, 33.50414276],
        [-117.24573399, -144.95361967, 36.50414276],
        [-117.24573399, -144.95361967, 39.50414276],
        [-117.24573399, -144.95361967, 42.50414276],
        [-117.24573399, -144.95361967, 45.50414276]
],
      "CsaImage.TimeAfterStart": [0.7825, 0.5225, 0.795, 0.535, 0.805, 0.545, 0.815, 0.555, 0.8275, 0.5675, 0.8375, 0.5775, 0.8475, 0.5875, 0.86, 0.6, 0.87, 0.61, 0.88, 0.62, 0.8925, 0.6325, 0.9025, 0.6425, 0.9125, 0.6525, 0.925, 0.665, 0.935, 0.675, 0.945, 0.685, 0.9575, 0.6975, 0.9675, 0.7075, 0.9775, 0.7175, 0.99, 0.73, 1.0, 0.74, 1.01, 0.75, 1.0225, 0.7625, 1.0325, 0.7725],
      "ImagePositionPatient": [
        [-117.24573398949, -144.95361966831, -95.49585723877],
        [-117.24573398949, -144.95361966831, -92.49585723877],
        [-117.24573398949, -144.95361966831, -89.49585723877],
        [-117.24573398949, -144.95361966831, -86.49585723877],
        [-117.24573398949, -144.95361966831, -83.49585723877],
        [-117.24573398949, -144.95361966831, -80.49585723877],
        [-117.24573398949, -144.95361966831, -77.49585723877],
        [-117.24573398949, -144.95361966831, -74.49585723877],
        [-117.24573398949, -144.95361966831, -71.49585723877],
        [-117.24573398949, -144.95361966831, -68.49585723877],
        [-117.24573398949, -144.95361966831, -65.49585723877],
        [-117.24573398949, -144.95361966831, -62.49585723877],
        [-117.24573398949, -144.95361966831, -59.49585723877],
        [-117.24573398949, -144.95361966831, -56.49585723877],
        [-117.24573398949, -144.95361966831, -53.49585723877],
        [-117.24573398949, -144.95361966831, -50.49585723877],
        [-117.24573398949, -144.95361966831, -47.49585723877],
        [-117.24573398949, -144.95361966831, -44.49585723877],
        [-117.24573398949, -144.95361966831, -41.49585723877],
        [-117.24573398949, -144.95361966831, -38.49585723877],
        [-117.24573398949, -144.95361966831, -35.49585723877],
        [-117.24573398949, -144.95361966831, -32.49585723877],
        [-117.24573398949, -144.95361966831, -29.495859146118],
        [-117.24573398949, -144.95361966831, -26.495859146118],
        [-117.24573398949, -144.95361966831, -23.495859146118],
        [-117.24573398949, -144.95361966831, -20.495859146118],
        [-117.24573398949, -144.95361966831, -17.495859146118],
        [-117.24573398949, -144.95361966831, -14.495858192444],
        [-117.24573398949, -144.95361966831, -11.495858192444],
        [-117.24573398949, -144.95361966831, -8.4958581924438],
        [-117.24573398949, -144.95361966831, -5.4958581924438],
        [-117.24573398949, -144.95361966831, -2.4958581924438],
        [-117.24573398949, -144.95361966831, 0.50414174795151],
        [-117.24573398949, -144.95361966831, 3.5041418075562],
        [-117.24573398949, -144.95361966831, 6.5041418075562],
        [-117.24573398949, -144.95361966831, 9.5041418075562],
        [-117.24573398949, -144.95361966831, 12.504141807556],
        [-117.24573398949, -144.95361966831, 15.504141807556],
        [-117.24573398949, -144.95361966831, 18.504140853882],
        [-117.24573398949, -144.95361966831, 21.504140853882],
        [-117.24573398949, -144.95361966831, 24.504140853882],
        [-117.24573398949, -144.95361966831, 27.504140853882],
        [-117.24573398949, -144.95361966831, 30.504140853882],
        [-117.24573398949, -144.95361966831, 33.50414276123],
        [-117.24573398949, -144.95361966831, 36.50414276123],
        [-117.24573398949, -144.95361966831, 39.50414276123],
        [-117.24573398949, -144.95361966831, 42.50414276123],
        [-117.24573398949, -144.95361966831, 45.50414276123]
],
      "InstanceCreationTime": ["112132.093000", "112132.024000", "112132.095000", "112132.028000", "112132.098000", "112132.031000", "112132.100000", "112132.035000", "112132.103000", "112132.039000", "112132.106000", "112132.042000", "112132.109000", "112132.044000", "112132.111000", "112132.046000", "112132.113000", "112132.049000", "112132.115000", "112132.052000", "112132.117000", "112132.054000", "112132.119000", "112132.056000", "112132.129000", "112132.058000", "112132.135000", "112132.061000", "112132.138000", "112132.063000", "112132.140000", "112132.066000", "112132.143000", "112132.070000", "112132.145000", "112132.074000", "112132.147000", "112132.078000", "112132.150000", "112132.081000", "112132.152000", "112132.084000", "112132.154000", "112132.086000", "112132.157000", "112132.089000", "112132.159000", "112132.091000"],
      "InstanceNumber": [1, 2, 3, 4, 5, 6, 7, 8, 9, 10, 11, 12, 13, 14, 15, 16, 17, 18, 19, 20, 21, 22, 23, 24, 25, 26, 27, 28, 29, 30, 31, 32, 33, 34, 35, 36, 37, 38, 39, 40, 41, 42, 43, 44, 45, 46, 47, 48],
      "LargestImagePixelValue": [4093, 4086, 4088, 4095, 4095, 4094, 4086, 4091, 4089, 4094, 4073, 4087, 4095, 4089, 4094, 4093, 4086, 4093, 4089, 4094, 4091, 4090, 4094, 4091, 4093, 4090, 4092, 4089, 4094, 4092, 4083, 4085, 4092, 4091, 4093, 4093, 4094, 4074, 4076, 4094, 4093, 4094, 4092, 4093, 4095, 4084, 4095, 4085],
      "SliceLocation": [-95.49585723877, -92.49585723877, -89.49585723877, -86.49585723877, -83.49585723877, -80.49585723877, -77.49585723877, -74.49585723877, -71.49585723877, -68.49585723877, -65.49585723877, -62.49585723877, -59.49585723877, -56.49585723877, -53.49585723877, -50.49585723877, -47.49585723877, -44.49585723877, -41.49585723877, -38.49585723877, -35.49585723877, -32.49585723877, -29.495859146118, -26.495859146118, -23.495859146118, -20.495859146118, -17.495859146118, -14.495858192444, -11.495858192444, -8.4958581924438, -5.4958581924438, -2.4958581924438, 0.50414174795151, 3.5041418075562, 6.5041418075562, 9.5041418075562, 12.504141807556, 15.504141807556, 18.504140853882, 21.504140853882, 24.504140853882, 27.504140853882, 30.504140853882, 33.50414276123, 36.50414276123, 39.50414276123, 42.50414276123, 45.50414276123],
      "SmallestImagePixelValue": [0, 4, 12, 1, 1, 5, 3, 2, 0, 1, 6, 1, 1, 4, 4, 2, 2, 4, 0, 7, 8, 0, 6, 0, 0, 6, 1, 6, 9, 0, 0, 0, 1, 6, 0, 3, 2, 5, 2, 4, 3, 0, 0, 0, 1, 0, 1, 0],
      "WindowCenter": [-186.0, -250.0, -264.0, -248.0, -250.0, -254.0, -226.0, -208.0, -158.0, -96.0, -98.0, -74.0, -106.0, -66.0, -74.0, -162.0, -148.0, -126.0, -114.0, -92.0, -106.0, -86.0, -62.0, -72.0, -58.0, -88.0, -96.0, -44.0, -24.0, -40.0, -74.0, -60.0, -46.0, -66.0, -80.0, -122.0, -140.0, -138.0, -176.0, -222.0, -194.0, -256.0, -266.0, -294.0, -286.0, -362.0, -398.0, -416.0],
      "WindowWidth": [6102.0, 6014.0, 6028.0, 6008.0, 5994.0, 5968.0, 5960.0, 5844.0, 5804.0, 5658.0, 5572.0, 5550.0, 5296.0, 5354.0, 5006.0, 4540.0, 4520.0, 4494.0, 4480.0, 4468.0, 4476.0, 4464.0, 4438.0, 4458.0, 4446.0, 4478.0, 4502.0, 5204.0, 5462.0, 5452.0, 5420.0, 5540.0, 5560.0, 5522.0, 5532.0, 5446.0, 5468.0, 5584.0, 5640.0, 5706.0, 5692.0, 5670.0, 5746.0, 5742.0, 5778.0, 5846.0, 5910.0, 5952.0]
    }
  }
}