{
  "AcquisitionMatrixPE": 122,
  "AcquisitionNumber": 1,
  "AcquisitionTime": "10:11:8.040000",
  "BandwidthPerPixelPhaseEncode": 28.76,
  "BaseResolution": 122,
  "BodyPartExamined": "BRAIN",
  "CoilCombinationMethod": "Adaptive Combine",
  "ConsistencyInfo": "N4_VE11C_LATEST_20160120",
  "ConversionSoftware": "dcm2niix",
  "ConversionSoftwareVersion": "v1.0.20220720",
  "DerivedVendorReportedEchoSpacing": 0.000570008,
  "DeviceSerialNumber": "66112",
  "DiffusionScheme": "Monopolar",
  "DwellTime": 2e-06,
  "EchoTime": 0.075,
  "EchoTrainLength": 61,
  "EffectiveEchoSpacing": 0.000285004,
  "FlipAngle": 90,
  "HeudiconvVersion": "0.13.1",
  "ImageOrientationPatientDICOM": [0.984538, 0.175, 0.00777585, -0.169351, 0.939537, 0.297643],
  "ImageOrientationText": "Tra>Cor(17.1)>Sag(-2.6)",
  "ImageType": [
    "ORIGINAL",
    "PRIMARY",
    "DIFFUSION",
    "NONE",
    "ND",
    "NORM"
],
  "ImagingFrequency": 123.252,
  "InPlanePhaseEncodingDirectionDICOM": "COL",
  "InstitutionAddress": "Maynard 3,Hanover,NH,US,03755",
  "InstitutionName": "Dartmouth College - PBS",
  "InstitutionalDepartmentName": "Department",
  "MRAcquisitionType": "2D",
  "MagneticFieldStrength": 3,
  "Manufacturer": "Siemens",
  "ManufacturersModelName": "Prisma",
  "MatrixCoilMode": "GRAPPA",
  "Modality": "MR",
  "NonlinearGradientCorrection": false,
  "ParallelReductionFactorInPlane": 2,
  "PartialFourier": 1,
  "PatientPosition": "HFS",
  "PercentPhaseFOV": 100,
  "PercentSampling": 100,
  "PhaseEncodingDirection": "j-",
  "PhaseEncodingSteps": 122,
  "PhaseResolution": 1,
  "PixelBandwidth": 2050,
  "ProcedureStepDescription": "dbic^QA",
  "ProtocolName": "dwi_acq-DTI-30-p2",
  "PulseSequenceDetails": "%SiemensSeq%\\ep2d_diff",
  "ReceiveCoilActiveElements": "HEA;HEP",
  "ReceiveCoilName": "Head_32",
  "ReconMatrixPE": 122,
  "RefLinesPE": 38,
  "RepetitionTime": 7.7,
  "SAR": 0.101602,
  "ScanOptions": "FS",
  "ScanningSequence": "EP",
  "SequenceName": "*ep_b0",
  "SequenceVariant": "SK\\SP",
  "SeriesDescription": "dwi_acq-DTI-30-p2",
  "SeriesNumber": 12,
  "ShimSetting": [4148, -7697, -7507, 272, -50, -109, -50, 67],
  "SliceThickness": 2,
  "SliceTiming": [3.83594, 0, 3.94531, 0.10938, 4.05469, 0.21875, 4.16406, 0.32812, 4.27344, 0.4375, 4.38281, 0.54688, 4.49219, 0.65625, 4.60156, 0.76562, 4.71094, 0.875, 4.82812, 0.98438, 4.9375, 1.09375, 5.04688, 1.20312, 5.14844, 1.3125, 5.26562, 1.42188, 5.375, 1.53125, 5.48438, 1.64062, 5.59375, 1.75, 5.70312, 1.85938, 5.8125, 1.96875, 5.92188, 2.07812, 6.03125, 2.19531, 6.14062, 2.29688, 6.25, 2.40625, 6.35938, 2.51562, 6.46875, 2.63281, 6.57812, 2.74219, 6.6875, 2.85156, 6.79688, 2.96094, 6.90625, 3.07031, 7.01562, 3.17969, 7.125, 3.28906, 7.23438, 3.39844, 7.34375, 3.50781, 7.45312, 3.61719, 7.57031, 3.72656],
  "SoftwareVersions": "syngo MR E11",
  "SpacingBetweenSlices": 2,
  "SpoilingState": true,
  "StationName": "AWP66112",
  "TotalReadoutTime": 0.0344855,
  "TxRefAmp": 237.507,
  "dcmmeta_affine": [
    [-1.936795711517334, -0.3331504762172699, -0.08956325054168701, 143.1974639892578],
    [-0.3442615270614624, 1.8482686281204224, 0.588714599609375, -109.80045318603516],
    [0.015296753495931625, -0.5855265855789185, 1.9092941284179688, -15.739235877990723],
    [0.0, 0.0, 0.0, 1.0]
],
  "dcmmeta_reorient_transform": [
    [0.0, -1.0, 0.0, 121.0],
    [1.0, 0.0, 0.0, 0.0],
    [0.0, 0.0, -1.0, 69.0],
    [0.0, 0.0, 0.0, 1.0]
],
  "dcmmeta_shape": [122, 122, 70, 31],
  "dcmmeta_slice_dim": 2,
  "dcmmeta_version": 0.6,
  "global": {
    "const": {
      "AccessionNumber": "qa",
      "AcquisitionMatrix": [122, 0, 0, 122],
      "AngioFlag": "N",
      "BitsAllocated": 16,
      "BitsStored": 12,
      "BodyPartExamined": "BRAIN",
      "Columns": 122,
      "EchoNumbers": 1,
      "EchoTime": 75.0,
      "EchoTrainLength": 61,
      "FlipAngle": 90.0,
      "HighBit": 11,
      "ImageOrientationPatient": [0.98453779804925, 0.17499960106983, 0.00777584964762, -0.1693514915721, 0.93953654149162, 0.29764267083918],
      "ImageType": [
        "ORIGINAL",
        "PRIMARY",
        "DIFFUSION",
        "NONE",
        "ND",
        "NORM"
],
      "ImagedNucleus": "1H",
      "ImagingFrequency": 123.252382,
      "InPlanePhaseEncodingDirection": "COL",
      "MRAcquisitionType": "2D",
      "MagneticFieldStrength": 3.0,
      "Manufacturer": "SIEMENS",
      "ManufacturerModelName": "Prisma",
      "Modality": "MR",
      "NumberOfAverages": 1.0,
      "NumberOfPhaseEncodingSteps": 122,
      "PercentPhaseFieldOfView": 100.0,
      "PercentSampling": 100.0,
      "PerformedProcedureStepStartTime": "093907.083000",
      "PhotometricInterpretation": "MONOCHROME2",
      "PixelBandwidth": 2050.0,
      "PixelRepresentation": 0,
      "PixelSpacing": [1.9672131538391, 1.9672131538391],
      "ProtocolName": "dwi_acq-DTI-30-p2",
      "RepetitionTime": 7700.0,
      "Rows": 122,
      "SAR": 0.10160178170808,
      "SamplesPerPixel": 1,
      "ScanOptions": "FS",
      "ScanningSequence": "EP",
      "SequenceVariant": [
        "SK",
        "SP"
],
      "SeriesDescription": "dwi_acq-DTI-30-p2",
      "SeriesNumber": 12,
      "SeriesTime": "101118.267000",
      "SliceThickness": 2.0,
      "SmallestImagePixelValue": 0,
      "SoftwareVersions": "syngo MR E11",
      "SpacingBetweenSlices": 2.0,
      "SpecificCharacterSet": "ISO_IR 100",
      "StudyID": "6",
      "StudyTime": "093907.032000",
      "TransmitCoilName": "Body",
      "VariableFlipAngleFlag": "N",
      "WindowCenterWidthExplanation": "Algo1",
      "dBdt": 0.0},
    "slices": {
      "AcquisitionTime": ["101108.040000", "101104.200000", "101108.150000", "101104.310000", "101108.260000", "101104.420000", "101108.367500", "101104.530000", "101108.477500", "101104.637500", "101108.587500", "101104.747500", "101108.697500", "101104.857500", "101108.807500", "101104.967500", "101108.917500", "101105.077500", "101109.027500", "101105.187500", "101109.137500", "101105.297500", "101109.247500", "101105.407500", "101109.355000", "101105.515000", "101109.465000", "101105.625000", "101109.575000", "101105.735000", "101109.685000", "101105.845000", "101109.795000", "101105.955000", "101109.905000", "101106.065000", "101110.015000", "101106.175000", "101110.125000", "101106.285000", "101110.235000", "101106.395000", "101110.342500", "101106.502500", "101110.452500", "101106.612500", "101110.562500", "101106.722500", "101110.672500", "101106.832500", "101110.782500", "101106.942500", "101110.892500", "101107.052500", "101111.002500", "101107.162500", "101111.112500", "101107.272500", "101111.220000", "101107.382500", "101111.330000", "101107.490000", "101111.440000", "101107.600000", "101111.550000", "101107.710000", "101111.660000", "101107.820000", "101111.770000", "101107.930000", "101115.740000", "101111.900000", "101115.850000", "101112.010000", "101115.960000", "101112.120000", "101116.067500", "101112.230000", "101116.177500", "101112.337500", "101116.287500", "101112.447500", "101116.397500", "101112.557500", "101116.507500", "101112.667500", "101116.617500", "101112.777500", "101116.727500", "101112.887500", "101116.837500", "101112.997500", "101116.947500", "101113.107500", "101117.055000", "101113.215000", "101117.165000", "101113.325000", "101117.275000", "101113.435000", "101117.385000", "101113.545000", "101117.495000", "101113.655000", "101117.605000", "101113.765000", "101117.715000", "101113.875000", "101117.825000", "101113.985000", "101117.935000", "101114.095000", "101118.042500", "101114.202500", "101118.152500", "101114.312500", "101118.262500", "101114.422500", "101118.372500", "101114.532500", "101118.482500", "101114.642500", "101118.592500", "101114.752500", "101118.702500", "101114.862500", "101118.812500", "101114.972500", "101118.920000", "101115.082500", "101119.030000", "101115.190000", "101119.140000", "101115.300000", "101119.250000", "101115.410000", "101119.360000", "101115.520000", "101119.470000", "101115.630000", "101123.440000", "101119.600000", "101123.550000", "101119.710000", "101123.660000", "101119.820000", "101123.767500", "101119.930000", "101123.877500", "101120.037500", "101123.987500", "101120.147500", "101124.097500", "101120.257500", "101124.207500", "101120.367500", "101124.317500", "101120.477500", "101124.427500", "101120.587500", "101124.537500", "101120.697500", "101124.647500", "101120.807500", "101124.755000", "101120.915000", "101124.865000", "101121.025000", "101124.975000", "101121.135000", "101125.085000", "101121.245000", "101125.195000", "101121.355000", "101125.305000", "101121.465000", "101125.415000", "101121.575000", "101125.525000", "101121.685000", "101125.635000", "101121.795000", "101125.742500", "101121.902500", "101125.852500", "101122.012500", "101125.962500", "101122.122500", "101126.072500", "101122.232500", "101126.182500", "101122.342500", "101126.292500", "101122.452500", "101126.402500", "101122.562500", "101126.512500", "101122.672500", "101126.620000", "101122.782500", "101126.730000", "101122.890000", "101126.840000", "101123.000000", "101126.950000", "101123.110000", "101127.060000", "101123.220000", "101127.170000", "101123.330000", "101131.140000", "101127.300000", "101131.250000", "101127.410000", "101131.360000", "101127.520000", "101131.467500", "101127.630000", "101131.577500", "101127.737500", "101131.687500", "101127.847500", "101131.797500", "101127.957500", "101131.907500", "101128.067500", "101132.017500", "101128.177500", "101132.127500", "101128.287500", "101132.237500", "101128.397500", "101132.347500", "101128.507500", "101132.455000", "101128.615000", "101132.565000", "101128.725000", "101132.675000", "101128.835000", "101132.785000", "101128.945000", "101132.895000", "101129.055000", "101133.005000", "101129.165000", "101133.115000", "101129.275000", "101133.225000", "101129.385000", "101133.335000", "101129.495000", "101133.442500", "101129.602500", "101133.552500", "101129.712500", "101133.662500", "101129.822500", "101133.772500", "101129.932500", "101133.882500", "101130.042500", "101133.992500", "101130.152500", "101134.102500", "101130.262500", "101134.212500", "101130.372500", "101134.320000", "101130.482500", "101134.430000", "101130.590000", "101134.540000", "101130.700000", "101134.650000", "101130.810000", "101134.760000", "101130.920000", "101134.870000", "101131.030000", "101138.840000", "101135.000000", "101138.950000", "101135.110000", "101139.060000", "101135.220000", "101139.167500", "101135.330000", "101139.277500", "101135.437500", "101139.387500", "101135.547500", "101139.497500", "101135.657500", "101139.607500", "101135.767500", "101139.717500", "101135.877500", "101139.827500", "101135.987500", "101139.937500", "101136.097500", "101140.047500", "101136.207500", "101140.155000", "101136.315000", "101140.265000", "101136.425000", "101140.375000", "101136.535000", "101140.485000", "101136.645000", "101140.595000", "101136.755000", "101140.705000", "101136.865000", "101140.815000", "101136.975000", "101140.925000", "101137.085000", "101141.035000", "101137.195000", "101141.142500", "101137.302500", "101141.252500", "101137.412500", "101141.362500", "101137.522500", "101141.472500", "101137.632500", "101141.582500", "101137.742500", "101141.692500", "101137.852500", "101141.802500", "101137.962500", "101141.912500", "101138.072500", "101142.020000", "101138.182500", "101142.130000", "101138.290000", "101142.240000", "101138.400000", "101142.350000", "101138.510000", "101142.460000", "101138.620000", "101142.570000", "101138.730000", "101146.540000", "101142.700000", "101146.650000", "101142.810000", "101146.760000", "101142.920000", "101146.867500", "101143.030000", "101146.977500", "101143.137500", "101147.087500", "101143.247500", "101147.197500", "101143.357500", "101147.307500", "101143.467500", "101147.417500", "101143.577500", "101147.527500", "101143.687500", "101147.637500", "101143.797500", "101147.747500", "101143.907500", "101147.855000", "101144.015000", "101147.965000", "101144.125000", "101148.075000", "101144.235000", "101148.185000", "101144.345000", "101148.295000", "101144.455000", "101148.405000", "101144.565000", "101148.515000", "101144.675000", "101148.625000", "101144.785000", "101148.735000", "101144.895000", "101148.842500", "101145.002500", "101148.952500", "101145.112500", "101149.062500", "101145.222500", "101149.172500", "101145.332500", "101149.282500", "101145.442500", "101149.392500", "101145.552500", "101149.502500", "101145.662500", "101149.612500", "101145.772500", "101149.720000", "101145.882500", "101149.830000", "101145.990000", "101149.940000", "101146.100000", "101150.050000", "101146.210000", "101150.160000", "101146.320000", "101150.270000", "101146.430000", "101154.240000", "101150.400000", "101154.350000", "101150.510000", "101154.460000", "101150.620000", "101154.567500", "101150.730000", "101154.677500", "101150.837500", "101154.787500", "101150.947500", "101154.897500", "101151.057500", "101155.007500", "101151.167500", "101155.117500", "101151.277500", "101155.227500", "101151.387500", "101155.337500", "101151.497500", "101155.447500", "101151.607500", "101155.555000", "101151.715000", "101155.665000", "101151.825000", "101155.775000", "101151.935000", "101155.885000", "101152.045000", "101155.995000", "101152.155000", "101156.105000", "101152.265000", "101156.215000", "101152.375000", "101156.325000", "101152.485000", "101156.435000", "101152.595000", "101156.542500", "101152.702500", "101156.652500", "101152.812500", "101156.762500", "101152.922500", "101156.872500", "101153.032500", "101156.982500", "101153.142500", "101157.092500", "101153.252500", "101157.202500", "101153.362500", "101157.312500", "101153.472500", "101157.420000", "101153.582500", "101157.530000", "101153.690000", "101157.640000", "101153.800000", "101157.750000", "101153.910000", "101157.860000", "101154.020000", "101157.970000", "101154.130000", "101201.940000", "101158.100000", "101202.050000", "101158.210000", "101202.160000", "101158.320000", "101202.267500", "101158.430000", "101202.377500", "101158.537500", "101202.487500", "101158.647500", "101202.597500", "101158.757500", "101202.707500", "101158.867500", "101202.817500", "101158.977500", "101202.927500", "101159.087500", "101203.037500", "101159.197500", "101203.147500", "101159.307500", "101203.255000", "101159.415000", "101203.365000", "101159.525000", "101203.475000", "101159.635000", "101203.585000", "101159.745000", "101203.695000", "101159.855000", "101203.805000", "101159.965000", "101203.915000", "101200.075000", "101204.025000", "101200.185000", "101204.135000", "101200.295000", "101204.242500", "101200.402500", "101204.352500", "101200.512500", "101204.462500", "101200.622500", "101204.572500", "101200.732500", "101204.682500", "101200.842500", "101204.792500", "101200.952500", "101204.902500", "101201.062500", "101205.012500", "101201.172500", "101205.120000", "101201.282500", "101205.230000", "101201.390000", "101205.340000", "101201.500000", "101205.450000", "101201.610000", "101205.560000", "101201.720000", "101205.670000", "101201.830000", "101209.640000", "101205.800000", "101209.750000", "101205.910000", "101209.860000", "101206.020000", "101209.967500", "101206.130000", "101210.077500", "101206.237500", "101210.187500", "101206.347500", "101210.297500", "101206.457500", "101210.407500", "101206.567500", "101210.517500", "101206.677500", "101210.627500", "101206.787500", "101210.737500", "101206.897500", "101210.847500", "101207.007500", "101210.955000", "101207.115000", "101211.065000", "101207.225000", "101211.175000", "101207.335000", "101211.285000", "101207.445000", "101211.395000", "101207.555000", "101211.505000", "101207.665000", "101211.615000", "101207.775000", "101211.725000", "101207.885000", "101211.835000", "101207.995000", "101211.942500", "101208.102500", "101212.052500", "101208.212500", "101212.162500", "101208.322500", "101212.272500", "101208.432500", "101212.382500", "101208.542500", "101212.492500", "101208.652500", "101212.602500", "101208.762500", "101212.712500", "101208.872500", "101212.820000", "101208.982500", "101212.930000", "101209.090000", "101213.040000", "101209.200000", "101213.150000", "101209.310000", "101213.260000", "101209.420000", "101213.370000", "101209.530000", "101217.340000", "101213.500000", "101217.450000", "101213.610000", "101217.560000", "101213.720000", "101217.667500", "101213.830000", "101217.777500", "101213.937500", "101217.887500", "101214.047500", "101217.997500", "101214.157500", "101218.107500", "101214.267500", "101218.217500", "101214.377500", "101218.327500", "101214.487500", "101218.437500", "101214.597500", "101218.547500", "101214.707500", "101218.655000", "101214.815000", "101218.765000", "101214.925000", "101218.875000", "101215.035000", "101218.985000", "101215.145000", "101219.095000", "101215.255000", "101219.205000", "101215.365000", "101219.315000", "101215.475000", "101219.425000", "101215.585000", "101219.535000", "101215.695000", "101219.642500", "101215.802500", "101219.752500", "101215.912500", "101219.862500", "101216.022500", "101219.972500", "101216.132500", "101220.082500", "101216.242500", "101220.192500", "101216.352500", "101220.302500", "101216.462500", "101220.412500", "101216.572500", "101220.520000", "101216.682500", "101220.630000", "101216.790000", "101220.740000", "101216.900000", "101220.850000", "101217.010000", "101220.960000", "101217.120000", "101221.070000", "101217.230000", "101225.040000", "101221.200000", "101225.150000", "101221.310000", "101225.260000", "101221.420000", "101225.367500", "101221.530000", "101225.477500", "101221.637500", "101225.587500", "101221.747500", "101225.697500", "101221.857500", "101225.807500", "101221.967500", "101225.917500", "101222.077500", "101226.027500", "101222.187500", "101226.137500", "101222.297500", "101226.247500", "101222.407500", "101226.355000", "101222.515000", "101226.465000", "101222.625000", "101226.575000", "101222.735000", "101226.685000", "101222.845000", "101226.795000", "101222.955000", "101226.905000", "101223.065000", "101227.015000", "101223.175000", "101227.125000", "101223.285000", "101227.235000", "101223.395000", "101227.342500", "101223.502500", "101227.452500", "101223.612500", "101227.562500", "101223.722500", "101227.672500", "101223.832500", "101227.782500", "101223.942500", "101227.892500", "101224.052500", "101228.002500", "101224.162500", "101228.112500", "101224.272500", "101228.220000", "101224.382500", "101228.330000", "101224.490000", "101228.440000", "101224.600000", "101228.550000", "101224.710000", "101228.660000", "101224.820000", "101228.770000", "101224.930000", "101232.740000", "101228.900000", "101232.850000", "101229.010000", "101232.960000", "101229.120000", "101233.067500", "101229.230000", "101233.177500", "101229.337500", "101233.287500", "101229.447500", "101233.397500", "101229.557500", "101233.507500", "101229.667500", "101233.617500", "101229.777500", "101233.727500", "101229.887500", "101233.837500", "101229.997500", "101233.947500", "101230.107500", "101234.055000", "101230.215000", "101234.165000", "101230.325000", "101234.275000", "101230.435000", "101234.385000", "101230.545000", "101234.495000", "101230.655000", "101234.605000", "101230.765000", "101234.715000", "101230.875000", "101234.825000", "101230.985000", "101234.935000", "101231.095000", "101235.042500", "101231.202500", "101235.152500", "101231.312500", "101235.262500", "101231.422500", "101235.372500", "101231.532500", "101235.482500", "101231.642500", "101235.592500", "101231.752500", "101235.702500", "101231.862500", "101235.812500", "101231.972500", "101235.920000", "101232.082500", "101236.030000", "101232.190000", "101236.140000", "101232.300000", "101236.250000", "101232.410000", "101236.360000", "101232.520000", "101236.470000", "101232.630000", "101240.440000", "101236.600000", "101240.550000", "101236.710000", "101240.660000", "101236.820000", "101240.767500", "101236.930000", "101240.877500", "101237.037500", "101240.987500", "101237.147500", "101241.097500", "101237.257500", "101241.207500", "101237.367500", "101241.317500", "101237.477500", "101241.427500", "101237.587500", "101241.537500", "101237.697500", "101241.647500", "101237.807500", "101241.755000", "101237.915000", "101241.865000", "101238.025000", "101241.975000", "101238.135000", "101242.085000", "101238.245000", "101242.195000", "101238.355000", "101242.305000", "101238.465000", "101242.415000", "101238.575000", "101242.525000", "101238.685000", "101242.635000", "101238.795000", "101242.742500", "101238.902500", "101242.852500", "101239.012500", "101242.962500", "101239.122500", "101243.072500", "101239.232500", "101243.182500", "101239.342500", "101243.292500", "101239.452500", "101243.402500", "101239.562500", "101243.512500", "101239.672500", "101243.620000", "101239.782500", "101243.730000", "101239.890000", "101243.840000", "101240.000000", "101243.950000", "101240.110000", "101244.060000", "101240.220000", "101244.170000", "101240.330000", "101248.140000", "101244.300000", "101248.250000", "101244.410000", "101248.360000", "101244.520000", "101248.467500", "101244.630000", "101248.577500", "101244.737500", "101248.687500", "101244.847500", "101248.797500", "101244.957500", "101248.907500", "101245.067500", "101249.017500", "101245.177500", "101249.127500", "101245.287500", "101249.237500", "101245.397500", "101249.347500", "101245.507500", "101249.455000", "101245.615000", "101249.565000", "101245.725000", "101249.675000", "101245.835000", "101249.785000", "101245.945000", "101249.895000", "101246.055000", "101250.005000", "101246.165000", "101250.115000", "101246.275000", "101250.225000", "101246.385000", "101250.335000", "101246.495000", "101250.442500", "101246.602500", "101250.552500", "101246.712500", "101250.662500", "101246.822500", "101250.772500", "101246.932500", "101250.882500", "101247.042500", "101250.992500", "101247.152500", "101251.102500", "101247.262500", "101251.212500", "101247.372500", "101251.320000", "101247.482500", "101251.430000", "101247.590000", "101251.540000", "101247.700000", "101251.650000", "101247.810000", "101251.760000", "101247.920000", "101251.870000", "101248.030000", "101255.840000", "101252.000000", "101255.950000", "101252.110000", "101256.060000", "101252.220000", "101256.167500", "101252.330000", "101256.277500", "101252.437500", "101256.387500", "101252.547500", "101256.497500", "101252.657500", "101256.607500", "101252.767500", "101256.717500", "101252.877500", "101256.827500", "101252.987500", "101256.937500", "101253.097500", "101257.047500", "101253.207500", "101257.155000", "101253.315000", "101257.265000", "101253.425000", "101257.375000", "101253.535000", "101257.485000", "101253.645000", "101257.595000", "101253.755000", "101257.705000", "101253.865000", "101257.815000", "101253.975000", "101257.925000", "101254.085000", "101258.035000", "101254.195000", "101258.142500", "101254.302500", "101258.252500", "101254.412500", "101258.362500", "101254.522500", "101258.472500", "101254.632500", "101258.582500", "101254.742500", "101258.692500", "101254.852500", "101258.802500", "101254.962500", "101258.912500", "101255.072500", "101259.020000", "101255.182500", "101259.130000", "101255.290000", "101259.240000", "101255.400000", "101259.350000", "101255.510000", "101259.460000", "101255.620000", "101259.570000", "101255.730000", "101303.540000", "101259.700000", "101303.650000", "101259.810000", "101303.760000", "101259.920000", "101303.867500", "101300.030000", "101303.977500", "101300.137500", "101304.087500", "101300.247500", "101304.197500", "101300.357500", "101304.307500", "101300.467500", "101304.417500", "101300.577500", "101304.527500", "101300.687500", "101304.637500", "101300.797500", "101304.747500", "101300.907500", "101304.855000", "101301.015000", "101304.965000", "101301.125000", "101305.075000", "101301.235000", "101305.185000", "101301.345000", "101305.295000", "101301.455000", "101305.405000", "101301.565000", "101305.515000", "101301.675000", "101305.625000", "101301.785000", "101305.735000", "101301.895000", "101305.842500", "101302.002500", "101305.952500", "101302.112500", "101306.062500", "101302.222500", "101306.172500", "101302.332500", "101306.282500", "101302.442500", "101306.392500", "101302.552500", "101306.502500", "101302.662500", "101306.612500", "101302.772500", "101306.720000", "101302.882500", "101306.830000", "101302.990000", "101306.940000", "101303.100000", "101307.050000", "101303.210000", "101307.160000", "101303.320000", "101307.270000", "101303.430000", "101311.240000", "101307.400000", "101311.350000", "101307.510000", "101311.460000", "101307.620000", "101311.567500", "101307.730000", "101311.677500", "101307.837500", "101311.787500", "101307.947500", "101311.897500", "101308.057500", "101312.007500", "101308.167500", "101312.117500", "101308.277500", "101312.227500", "101308.387500", "101312.337500", "101308.497500", "101312.447500", "101308.607500", "101312.555000", "101308.715000", "101312.665000", "101308.825000", "101312.775000", "101308.935000", "101312.885000", "101309.045000", "101312.995000", "101309.155000", "101313.105000", "101309.265000", "101313.215000", "101309.375000", "101313.325000", "101309.485000", "101313.435000", "101309.595000", "101313.542500", "101309.702500", "101313.652500", "101309.812500", "101313.762500", "101309.922500", "101313.872500", "101310.032500", "101313.982500", "101310.142500", "101314.092500", "101310.252500", "101314.202500", "101310.362500", "101314.312500", "101310.472500", "101314.420000", "101310.582500", "101314.530000", "101310.690000", "101314.640000", "101310.800000", "101314.750000", "101310.910000", "101314.860000", "101311.020000", "101314.970000", "101311.130000", "101318.940000", "101315.100000", "101319.050000", "101315.210000", "101319.160000", "101315.320000", "101319.267500", "101315.430000", "101319.377500", "101315.537500", "101319.487500", "101315.647500", "101319.597500", "101315.757500", "101319.707500", "101315.867500", "101319.817500", "101315.977500", "101319.927500", "101316.087500", "101320.037500", "101316.197500", "101320.147500", "101316.307500", "101320.255000", "101316.415000", "101320.365000", "101316.525000", "101320.475000", "101316.635000", "101320.585000", "101316.745000", "101320.695000", "101316.855000", "101320.805000", "101316.965000", "101320.915000", "101317.075000", "101321.025000", "101317.185000", "101321.135000", "101317.295000", "101321.242500", "101317.402500", "101321.352500", "101317.512500", "101321.462500", "101317.622500", "101321.572500", "101317.732500", "101321.682500", "101317.842500", "101321.792500", "101317.952500", "101321.902500", "101318.062500", "101322.012500", "101318.172500", "101322.120000", "101318.282500", "101322.230000", "101318.390000", "101322.340000", "101318.500000", "101322.450000", "101318.610000", "101322.560000", "101318.720000", "101322.670000", "101318.830000", "101326.640000", "101322.800000", "101326.750000", "101322.910000", "101326.860000", "101323.020000", "101326.967500", "101323.130000", "101327.077500", "101323.237500", "101327.187500", "101323.347500", "101327.297500", "101323.457500", "101327.407500", "101323.567500", "101327.517500", "101323.677500", "101327.627500", "101323.787500", "101327.737500", "101323.897500", "101327.847500", "101324.007500", "101327.955000", "101324.115000", "101328.065000", "101324.225000", "101328.175000", "101324.335000", "101328.285000", "101324.445000", "101328.395000", "101324.555000", "101328.505000", "101324.665000", "101328.615000", "101324.775000", "101328.725000", "101324.885000", "101328.835000", "101324.995000", "101328.942500", "101325.102500", "101329.052500", "101325.212500", "101329.162500", "101325.322500", "101329.272500", "101325.432500", "101329.382500", "101325.542500", "101329.492500", "101325.652500", "101329.602500", "101325.762500", "101329.712500", "101325.872500", "101329.820000", "101325.982500", "101329.930000", "101326.090000", "101330.040000", "101326.200000", "101330.150000", "101326.310000", "101330.260000", "101326.420000", "101330.370000", "101326.530000", "101334.340000", "101330.500000", "101334.450000", "101330.610000", "101334.560000", "101330.720000", "101334.667500", "101330.830000", "101334.777500", "101330.937500", "101334.887500", "101331.047500", "101334.997500", "101331.157500", "101335.107500", "101331.267500", "101335.217500", "101331.377500", "101335.327500", "101331.487500", "101335.437500", "101331.597500", "101335.547500", "101331.707500", "101335.655000", "101331.815000", "101335.765000", "101331.925000", "101335.875000", "101332.035000", "101335.985000", "101332.145000", "101336.095000", "101332.255000", "101336.205000", "101332.365000", "101336.315000", "101332.475000", "101336.425000", "101332.585000", "101336.535000", "101332.695000", "101336.642500", "101332.802500", "101336.752500", "101332.912500", "101336.862500", "101333.022500", "101336.972500", "101333.132500", "101337.082500", "101333.242500", "101337.192500", "101333.352500", "101337.302500", "101333.462500", "101337.412500", "101333.572500", "101337.520000", "101333.682500", "101337.630000", "101333.790000", "101337.740000", "101333.900000", "101337.850000", "101334.010000", "101337.960000", "101334.120000", "101338.070000", "101334.230000", "101342.040000", "101338.200000", "101342.150000", "101338.310000", "101342.260000", "101338.420000", "101342.367500", "101338.530000", "101342.477500", "101338.637500", "101342.587500", "101338.747500", "101342.697500", "101338.857500", "101342.807500", "101338.967500", "101342.917500", "101339.077500", "101343.027500", "101339.187500", "101343.137500", "101339.297500", "101343.247500", "101339.407500", "101343.355000", "101339.515000", "101343.465000", "101339.625000", "101343.575000", "101339.735000", "101343.685000", "101339.845000", "101343.795000", "101339.955000", "101343.905000", "10