{
  "AcquisitionMatrixPE": 122,
  "AcquisitionNumber": 1,
  "AcquisitionTime": "10:15:29.462500",
  "BandwidthPerPixelPhaseEncode": 27.785,
  "BaseResolution": 122,
  "BodyPartExamined": "BRAIN",
  "CoilCombinationMethod": "Adaptive Combine",
  "ConsistencyInfo": "N4_VE11C_LATEST_20160120",
  "ConversionSoftware": "dcm2niix",
  "ConversionSoftwareVersion": "v1.0.20220720",
  "DerivedVendorReportedEchoSpacing": 0.000590011,
  "DeviceSerialNumber": "66112",
  "DiffusionScheme": "Monopolar",
  "DwellTime": 2e-06,
  "EchoTime": 0.068,
  "EchoTrainLength": 61,
  "EffectiveEchoSpacing": 0.000295005,
  "FlipAngle": 90,
  "HeudiconvVersion": "0.13.1",
  "ImageOrientationPatientDICOM": [0.984538, 0.175, 0.00777585, -0.169351, 0.939537, 0.297643],
  "ImageOrientationText": "Tra>Cor(17.1)>Sag(-2.6)",
  "ImageType": [
    "ORIGINAL",
    "PRIMARY",
    "DIFFUSION",
    "NONE",
    "ND",
    "NORM"
],
  "ImagingFrequency": 123.252,
  "InPlanePhaseEncodingDirectionDICOM": "COL",
  "InstitutionAddress": "Maynard 3,Hanover,NH,US,03755",
  "InstitutionName": "Dartmouth College - PBS",
  "InstitutionalDepartmentName": "Department",
  "MRAcquisitionType": "2D",
  "MagneticFieldStrength": 3,
  "Manufacturer": "Siemens",
  "ManufacturersModelName": "Prisma",
  "Modality": "MR",
  "MultibandAccelerationFactor": 4,
  "NonlinearGradientCorrection": false,
  "ParallelReductionFactorInPlane": 2,
  "PartialFourier": 1,
  "PatientPosition": "HFS",
  "PercentPhaseFOV": 100,
  "PercentSampling": 100,
  "PhaseEncodingDirection": "j-",
  "PhaseEncodingSteps": 122,
  "PhaseResolution": 1,
  "PixelBandwidth": 2050,
  "ProcedureStepDescription": "dbic^QA",
  "ProtocolName": "dwi_acq-DTI-30-p2-s4",
  "PulseSequenceDetails": "%SiemensSeq%\\ep2d_diff",
  "ReceiveCoilActiveElements": "HEA;HEP",
  "ReceiveCoilName": "Head_32",
  "ReconMatrixPE": 122,
  "RefLinesPE": 38,
  "RepetitionTime": 3.6,
  "SAR": 0.158527,
  "ScanOptions": "FS",
  "ScanningSequence": "EP",
  "SequenceName": "*ep_b0",
  "SequenceVariant": "SK\\SP",
  "SeriesDescription": "dwi_acq-DTI-30-p2-s4",
  "SeriesNumber": 13,
  "ShimSetting": [4148, -7698, -7507, 274, -50, -110, -49, 67],
  "SliceThickness": 2,
  "SliceTiming": [2.58594, 0, 1.78906, 0.20312, 1.99219, 0.39844, 2.1875, 0.60156, 2.39062, 1, 2.78906, 1.19531, 2.98438, 1.39844, 3.1875, 1.59375, 3.38281, 0.79688, 2.58594, 0, 1.78906, 0.20312, 1.99219, 0.39844, 2.1875, 0.60156, 2.39062, 1, 2.78906, 1.19531, 2.98438, 1.39844, 3.1875, 1.59375, 3.38281, 0.79688, 2.58594, 0, 1.78906, 0.20312, 1.99219, 0.39844, 2.1875, 0.60156, 2.39062, 1, 2.78906, 1.19531, 2.98438, 1.39844, 3.1875, 1.59375, 3.38281, 0.79688, 2.58594, 0, 1.78906, 0.20312, 1.99219, 0.39844, 2.1875, 0.60156, 2.39062, 1, 2.78906, 1.19531, 2.98438, 1.39844, 3.1875, 1.59375, 3.38281, 0.79688],
  "SoftwareVersions": "syngo MR E11",
  "SpacingBetweenSlices": 2,
  "SpoilingState": true,
  "StationName": "AWP66112",
  "TotalReadoutTime": 0.0356956,
  "TxRefAmp": 237.507,
  "dcmmeta_affine": [
    [-1.936795711517334, -0.3331504762172699, -0.08956336975097656, 143.2870330810547],
    [-0.3442615270614624, 1.8482686281204224, 0.588714599609375, -110.38916778564453],
    [0.015296753495931625, -0.5855265855789185, 1.9092864990234375, -17.64799690246582],
    [0.0, 0.0, 0.0, 1.0]
],
  "dcmmeta_reorient_transform": [
    [0.0, -1.0, 0.0, 121.0],
    [1.0, 0.0, 0.0, 0.0],
    [0.0, 0.0, -1.0, 71.0],
    [0.0, 0.0, 0.0, 1.0]
],
  "dcmmeta_shape": [122, 122, 72, 31],
  "dcmmeta_slice_dim": 2,
  "dcmmeta_version": 0.6,
  "global": {
    "const": {
      "AccessionNumber": "qa",
      "AcquisitionMatrix": [122, 0, 0, 122],
      "AngioFlag": "N",
      "BitsAllocated": 16,
      "BitsStored": 12,
      "BodyPartExamined": "BRAIN",
      "Columns": 122,
      "EchoNumbers": 1,
      "EchoTime": 68.0,
      "EchoTrainLength": 61,
      "FlipAngle": 90.0,
      "HighBit": 11,
      "ImageOrientationPatient": [0.98453779804925, 0.17499960106983, 0.00777584964762, -0.1693514915721, 0.93953654149162, 0.29764267083918],
      "ImageType": [
        "ORIGINAL",
        "PRIMARY",
        "DIFFUSION",
        "NONE",
        "ND",
        "NORM"
],
      "ImagedNucleus": "1H",
      "ImagingFrequency": 123.252384,
      "InPlanePhaseEncodingDirection": "COL",
      "MRAcquisitionType": "2D",
      "MagneticFieldStrength": 3.0,
      "Manufacturer": "SIEMENS",
      "ManufacturerModelName": "Prisma",
      "Modality": "MR",
      "NumberOfAverages": 1.0,
      "NumberOfPhaseEncodingSteps": 122,
      "PercentPhaseFieldOfView": 100.0,
      "PercentSampling": 100.0,
      "PerformedProcedureStepStartTime": "093907.083000",
      "PhotometricInterpretation": "MONOCHROME2",
      "PixelBandwidth": 2050.0,
      "PixelRepresentation": 0,
      "PixelSpacing": [1.9672131538391, 1.9672131538391],
      "ProtocolName": "dwi_acq-DTI-30-p2-s4",
      "RepetitionTime": 3600.0,
      "Rows": 122,
      "SAR": 0.15852671381111,
      "SamplesPerPixel": 1,
      "ScanOptions": "FS",
      "ScanningSequence": "EP",
      "SequenceVariant": [
        "SK",
        "SP"
],
      "SeriesDescription": "dwi_acq-DTI-30-p2-s4",
      "SeriesNumber": 13,
      "SeriesTime": "101538.338000",
      "SliceThickness": 2.0,
      "SmallestImagePixelValue": 0,
      "SoftwareVersions": "syngo MR E11",
      "SpacingBetweenSlices": 2.0,
      "SpecificCharacterSet": "ISO_IR 100",
      "StudyID": "6",
      "StudyTime": "093907.032000",
      "TransmitCoilName": "Body",
      "VariableFlipAngleFlag": "N",
      "WindowCenterWidthExplanation": "Algo1",
      "dBdt": 0.0},
    "slices": {
      "AcquisitionTime": ["101529.462500", "101526.877500", "101528.667500", "101527.077500", "101528.867500", "101527.275000", "101529.065000", "101527.475000", "101529.265000", "101527.872500", "101529.662500", "101528.070000", "101529.860000", "101528.270000", "101530.060000", "101528.470000", "101530.257500", "101527.672500", "101529.462500", "101526.877500", "101528.667500", "101527.077500", "101528.867500", "101527.275000", "101529.065000", "101527.475000", "101529.265000", "101527.872500", "101529.662500", "101528.070000", "101529.860000", "101528.270000", "101530.060000", "101528.470000", "101530.257500", "101527.672500", "101529.462500", "101526.877500", "101528.667500", "101527.077500", "101528.867500", "101527.275000", "101529.065000", "101527.475000", "101529.265000", "101527.872500", "101529.662500", "101528.070000", "101529.860000", "101528.270000", "101530.060000", "101528.470000", "101530.257500", "101527.672500", "101529.462500", "101526.877500", "101528.667500", "101527.077500", "101528.867500", "101527.275000", "101529.065000", "101527.475000", "101529.265000", "101527.872500", "101529.662500", "101528.070000", "101529.860000", "101528.270000", "101530.060000", "101528.470000", "101530.257500", "101527.672500", "101533.062500", "101530.477500", "101532.267500", "101530.677500", "101532.467500", "101530.875000", "101532.665000", "101531.075000", "101532.865000", "101531.472500", "101533.262500", "101531.670000", "101533.460000", "101531.870000", "101533.660000", "101532.070000", "101533.857500", "101531.272500", "101533.062500", "101530.477500", "101532.267500", "101530.677500", "101532.467500", "101530.875000", "101532.665000", "101531.075000", "101532.865000", "101531.472500", "101533.262500", "101531.670000", "101533.460000", "101531.870000", "101533.660000", "101532.070000", "101533.857500", "101531.272500", "101533.062500", "101530.477500", "101532.267500", "101530.677500", "101532.467500", "101530.875000", "101532.665000", "101531.075000", "101532.865000", "101531.472500", "101533.262500", "101531.670000", "101533.460000", "101531.870000", "101533.660000", "101532.070000", "101533.857500", "101531.272500", "101533.062500", "101530.477500", "101532.267500", "101530.677500", "101532.467500", "101530.875000", "101532.665000", "101531.075000", "101532.865000", "101531.472500", "101533.262500", "101531.670000", "101533.460000", "101531.870000", "101533.660000", "101532.070000", "101533.857500", "101531.272500", "101536.662500", "101534.077500", "101535.867500", "101534.277500", "101536.067500", "101534.475000", "101536.265000", "101534.675000", "101536.465000", "101535.072500", "101536.862500", "101535.270000", "101537.060000", "101535.470000", "101537.260000", "101535.670000", "101537.457500", "101534.872500", "101536.662500", "101534.077500", "101535.867500", "101534.277500", "101536.067500", "101534.475000", "101536.265000", "101534.675000", "101536.465000", "101535.072500", "101536.862500", "101535.270000", "101537.060000", "101535.470000", "101537.260000", "101535.670000", "101537.457500", "101534.872500", "101536.662500", "101534.077500", "101535.867500", "101534.277500", "101536.067500", "101534.475000", "101536.265000", "101534.675000", "101536.465000", "101535.072500", "101536.862500", "101535.270000", "101537.060000", "101535.470000", "101537.260000", "101535.670000", "101537.457500", "101534.872500", "101536.662500", "101534.077500", "101535.867500", "101534.277500", "101536.067500", "101534.475000", "101536.265000", "101534.675000", "101536.465000", "101535.072500", "101536.862500", "101535.270000", "101537.060000", "101535.470000", "101537.260000", "101535.670000", "101537.457500", "101534.872500", "101540.262500", "101537.677500", "101539.467500", "101537.877500", "101539.667500", "101538.075000", "101539.865000", "101538.275000", "101540.065000", "101538.672500", "101540.462500", "101538.870000", "101540.660000", "101539.070000", "101540.860000", "101539.270000", "101541.057500", "101538.472500", "101540.262500", "101537.677500", "101539.467500", "101537.877500", "101539.667500", "101538.075000", "101539.865000", "101538.275000", "101540.065000", "101538.672500", "101540.462500", "101538.870000", "101540.660000", "101539.070000", "101540.860000", "101539.270000", "101541.057500", "101538.472500", "101540.262500", "101537.677500", "101539.467500", "101537.877500", "101539.667500", "101538.075000", "101539.865000", "101538.275000", "101540.065000", "101538.672500", "101540.462500", "101538.870000", "101540.660000", "101539.070000", "101540.860000", "101539.270000", "101541.057500", "101538.472500", "101540.262500", "101537.677500", "101539.467500", "101537.877500", "101539.667500", "101538.075000", "101539.865000", "101538.275000", "101540.065000", "101538.672500", "101540.462500", "101538.870000", "101540.660000", "101539.070000", "101540.860000", "101539.270000", "101541.057500", "101538.472500", "101543.862500", "101541.277500", "101543.067500", "101541.477500", "101543.267500", "101541.675000", "101543.465000", "101541.875000", "101543.665000", "101542.272500", "101544.062500", "101542.470000", "101544.260000", "101542.670000", "101544.460000", "101542.870000", "101544.657500", "101542.072500", "101543.862500", "101541.277500", "101543.067500", "101541.477500", "101543.267500", "101541.675000", "101543.465000", "101541.875000", "101543.665000", "101542.272500", "101544.062500", "101542.470000", "101544.260000", "101542.670000", "101544.460000", "101542.870000", "101544.657500", "101542.072500", "101543.862500", "101541.277500", "101543.067500", "101541.477500", "101543.267500", "101541.675000", "101543.465000", "101541.875000", "101543.665000", "101542.272500", "101544.062500", "101542.470000", "101544.260000", "101542.670000", "101544.460000", "101542.870000", "101544.657500", "101542.072500", "101543.862500", "101541.277500", "101543.067500", "101541.477500", "101543.267500", "101541.675000", "101543.465000", "101541.875000", "101543.665000", "101542.272500", "101544.062500", "101542.470000", "101544.260000", "101542.670000", "101544.460000", "101542.870000", "101544.657500", "101542.072500", "101547.462500", "101544.877500", "101546.667500", "101545.077500", "101546.867500", "101545.275000", "101547.065000", "101545.475000", "101547.265000", "101545.872500", "101547.662500", "101546.070000", "101547.860000", "101546.270000", "101548.060000", "101546.470000", "101548.257500", "101545.672500", "101547.462500", "101544.877500", "101546.667500", "101545.077500", "101546.867500", "101545.275000", "101547.065000", "101545.475000", "101547.265000", "101545.872500", "101547.662500", "101546.070000", "101547.860000", "101546.270000", "101548.060000", "101546.470000", "101548.257500", "101545.672500", "101547.462500", "101544.877500", "101546.667500", "101545.077500", "101546.867500", "101545.275000", "101547.065000", "101545.475000", "101547.265000", "101545.872500", "101547.662500", "101546.070000", "101547.860000", "101546.270000", "101548.060000", "101546.470000", "101548.257500", "101545.672500", "101547.462500", "101544.877500", "101546.667500", "101545.077500", "101546.867500", "101545.275000", "101547.065000", "101545.475000", "101547.265000", "101545.872500", "101547.662500", "101546.070000", "101547.860000", "101546.270000", "101548.060000", "101546.470000", "101548.257500", "101545.672500", "101551.062500", "101548.477500", "101550.267500", "101548.677500", "101550.467500", "101548.875000", "101550.665000", "101549.075000", "101550.865000", "101549.472500", "101551.262500", "101549.670000", "101551.460000", "101549.870000", "101551.660000", "101550.070000", "101551.857500", "101549.272500", "101551.062500", "101548.477500", "101550.267500", "101548.677500", "101550.467500", "101548.875000", "101550.665000", "101549.075000", "101550.865000", "101549.472500", "101551.262500", "101549.670000", "101551.460000", "101549.870000", "101551.660000", "101550.070000", "101551.857500", "101549.272500", "101551.062500", "101548.477500", "101550.267500", "101548.677500", "101550.467500", "101548.875000", "101550.665000", "101549.075000", "101550.865000", "101549.472500", "101551.262500", "101549.670000", "101551.460000", "101549.870000", "101551.660000", "101550.070000", "101551.857500", "101549.272500", "101551.062500", "101548.477500", "101550.267500", "101548.677500", "101550.467500", "101548.875000", "101550.665000", "101549.075000", "101550.865000", "101549.472500", "101551.262500", "101549.670000", "101551.460000", "101549.870000", "101551.660000", "101550.070000", "101551.857500", "101549.272500", "101554.662500", "101552.077500", "101553.867500", "101552.277500", "101554.067500", "101552.475000", "101554.265000", "101552.675000", "101554.465000", "101553.072500", "101554.862500", "101553.270000", "101555.060000", "101553.470000", "101555.260000", "101553.670000", "101555.457500", "101552.872500", "101554.662500", "101552.077500", "101553.867500", "101552.277500", "101554.067500", "101552.475000", "101554.265000", "101552.675000", "101554.465000", "101553.072500", "101554.862500", "101553.270000", "101555.060000", "101553.470000", "101555.260000", "101553.670000", "101555.457500", "101552.872500", "101554.662500", "101552.077500", "101553.867500", "101552.277500", "101554.067500", "101552.475000", "101554.265000", "101552.675000", "101554.465000", "101553.072500", "101554.862500", "101553.270000", "101555.060000", "101553.470000", "101555.260000", "101553.670000", "101555.457500", "101552.872500", "101554.662500", "101552.077500", "101553.867500", "101552.277500", "101554.067500", "101552.475000", "101554.265000", "101552.675000", "101554.465000", "101553.072500", "101554.862500", "101553.270000", "101555.060000", "101553.470000", "101555.260000", "101553.670000", "101555.457500", "101552.872500", "101558.262500", "101555.677500", "101557.467500", "101555.877500", "101557.667500", "101556.075000", "101557.865000", "101556.275000", "101558.065000", "101556.672500", "101558.462500", "101556.870000", "101558.660000", "101557.070000", "101558.860000", "101557.270000", "101559.057500", "101556.472500", "101558.262500", "101555.677500", "101557.467500", "101555.877500", "101557.667500", "101556.075000", "101557.865000", "101556.275000", "101558.065000", "101556.672500", "101558.462500", "101556.870000", "101558.660000", "101557.070000", "101558.860000", "101557.270000", "101559.057500", "101556.472500", "101558.262500", "101555.677500", "101557.467500", "101555.877500", "101557.667500", "101556.075000", "101557.865000", "101556.275000", "101558.065000", "101556.672500", "101558.462500", "101556.870000", "101558.660000", "101557.070000", "101558.860000", "101557.270000", "101559.057500", "101556.472500", "101558.262500", "101555.677500", "101557.467500", "101555.877500", "101557.667500", "101556.075000", "101557.865000", "101556.275000", "101558.065000", "101556.672500", "101558.462500", "101556.870000", "101558.660000", "101557.070000", "101558.860000", "101557.270000", "101559.057500", "101556.472500", "101601.862500", "101559.277500", "101601.067500", "101559.477500", "101601.267500", "101559.675000", "101601.465000", "101559.875000", "101601.665000", "101600.272500", "101602.062500", "101600.470000", "101602.260000", "101600.670000", "101602.460000", "101600.870000", "101602.657500", "101600.072500", "101601.862500", "101559.277500", "101601.067500", "101559.477500", "101601.267500", "101559.675000", "101601.465000", "101559.875000", "101601.665000", "101600.272500", "101602.062500", "101600.470000", "101602.260000", "101600.670000", "101602.460000", "101600.870000", "101602.657500", "101600.072500", "101601.862500", "101559.277500", "101601.067500", "101559.477500", "101601.267500", "101559.675000", "101601.465000", "101559.875000", "101601.665000", "101600.272500", "101602.062500", "101600.470000", "101602.260000", "101600.670000", "101602.460000", "101600.870000", "101602.657500", "101600.072500", "101601.862500", "101559.277500", "101601.067500", "101559.477500", "101601.267500", "101559.675000", "101601.465000", "101559.875000", "101601.665000", "101600.272500", "101602.062500", "101600.470000", "101602.260000", "101600.670000", "101602.460000", "101600.870000", "101602.657500", "101600.072500", "101605.462500", "101602.877500", "101604.667500", "101603.077500", "101604.867500", "101603.275000", "101605.065000", "101603.475000", "101605.265000", "101603.872500", "101605.662500", "101604.070000", "101605.860000", "101604.270000", "101606.060000", "101604.470000", "101606.257500", "101603.672500", "101605.462500", "101602.877500", "101604.667500", "101603.077500", "101604.867500", "101603.275000", "101605.065000", "101603.475000", "101605.265000", "101603.872500", "101605.662500", "101604.070000", "101605.860000", "101604.270000", "101606.060000", "101604.470000", "101606.257500", "101603.672500", "101605.462500", "101602.877500", "101604.667500", "101603.077500", "101604.867500", "101603.275000", "101605.065000", "101603.475000", "101605.265000", "101603.872500", "101605.662500", "101604.070000", "101605.860000", "101604.270000", "101606.060000", "101604.470000", "101606.257500", "101603.672500", "101605.462500", "101602.877500", "101604.667500", "101603.077500", "101604.867500", "101603.275000", "101605.065000", "101603.475000", "101605.265000", "101603.872500", "101605.662500", "101604.070000", "101605.860000", "101604.270000", "101606.060000", "101604.470000", "101606.257500", "101603.672500", "101609.062500", "101606.477500", "101608.267500", "101606.677500", "101608.467500", "101606.875000", "101608.665000", "101607.075000", "101608.865000", "101607.472500", "101609.262500", "101607.670000", "101609.460000", "101607.870000", "101609.660000", "101608.070000", "101609.857500", "101607.272500", "101609.062500", "101606.477500", "101608.267500", "101606.677500", "101608.467500", "101606.875000", "101608.665000", "101607.075000", "101608.865000", "101607.472500", "101609.262500", "101607.670000", "101609.460000", "101607.870000", "101609.660000", "101608.070000", "101609.857500", "101607.272500", "101609.062500", "101606.477500", "101608.267500", "101606.677500", "101608.467500", "101606.875000", "101608.665000", "101607.075000", "101608.865000", "101607.472500", "101609.262500", "101607.670000", "101609.460000", "101607.870000", "101609.660000", "101608.070000", "101609.857500", "101607.272500", "101609.062500", "101606.477500", "101608.267500", "101606.677500", "101608.467500", "101606.875000", "101608.665000", "101607.075000", "101608.865000", "101607.472500", "101609.262500", "101607.670000", "101609.460000", "101607.870000", "101609.660000", "101608.070000", "101609.857500", "101607.272500", "101612.662500", "101610.077500", "101611.867500", "101610.277500", "101612.067500", "101610.475000", "101612.265000", "101610.675000", "101612.465000", "101611.072500", "101612.862500", "101611.270000", "101613.060000", "101611.470000", "101613.260000", "101611.670000", "101613.457500", "101610.872500", "101612.662500", "101610.077500", "101611.867500", "101610.277500", "101612.067500", "101610.475000", "101612.265000", "101610.675000", "101612.465000", "101611.072500", "101612.862500", "101611.270000", "101613.060000", "101611.470000", "101613.260000", "101611.670000", "101613.457500", "101610.872500", "101612.662500", "101610.077500", "101611.867500", "101610.277500", "101612.067500", "101610.475000", "101612.265000", "101610.675000", "101612.465000", "101611.072500", "101612.862500", "101611.270000", "101613.060000", "101611.470000", "101613.260000", "101611.670000", "101613.457500", "101610.872500", "101612.662500", "101610.077500", "101611.867500", "101610.277500", "101612.067500", "101610.475000", "101612.265000", "101610.675000", "101612.465000", "101611.072500", "101612.862500", "101611.270000", "101613.060000", "101611.470000", "101613.260000", "101611.670000", "101613.457500", "101610.872500", "101616.262500", "101613.677500", "101615.467500", "101613.877500", "101615.667500", "101614.075000", "101615.865000", "101614.275000", "101616.065000", "101614.672500", "101616.462500", "101614.870000", "101616.660000", "101615.070000", "101616.860000", "101615.270000", "101617.057500", "101614.472500", "101616.262500", "101613.677500", "101615.467500", "101613.877500", "101615.667500", "101614.075000", "101615.865000", "101614.275000", "101616.065000", "101614.672500", "101616.462500", "101614.870000", "101616.660000", "101615.070000", "101616.860000", "101615.270000", "101617.057500", "101614.472500", "101616.262500", "101613.677500", "101615.467500", "101613.877500", "101615.667500", "101614.075000", "101615.865000", "101614.275000", "101616.065000", "101614.672500", "101616.462500", "101614.870000", "101616.660000", "101615.070000", "101616.860000", "101615.270000", "101617.057500", "101614.472500", "101616.262500", "101613.677500", "101615.467500", "101613.877500", "101615.667500", "101614.075000", "101615.865000", "101614.275000", "101616.065000", "101614.672500", "101616.462500", "101614.870000", "101616.660000", "101615.070000", "101616.860000", "101615.270000", "101617.057500", "101614.472500", "101619.862500", "101617.277500", "101619.067500", "101617.477500", "101619.267500", "101617.675000", "101619.465000", "101617.875000", "101619.665000", "101618.272500", "101620.062500", "101618.470000", "101620.260000", "101618.670000", "101620.460000", "101618.870000", "101620.657500", "101618.072500", "101619.862500", "101617.277500", "101619.067500", "101617.477500", "101619.267500", "101617.675000", "101619.465000", "101617.875000", "101619.665000", "101618.272500", "101620.062500", "101618.470000", "101620.260000", "101618.670000", "101620.460000", "101618.870000", "101620.657500", "101618.072500", "101619.862500", "101617.277500", "101619.067500", "101617.477500", "101619.267500", "101617.675000", "101619.465000", "101617.875000", "101619.665000", "101618.272500", "101620.062500", "101618.470000", "101620.260000", "101618.670000", "101620.460000", "101618.870000", "101620.657500", "101618.072500", "101619.862500", "101617.277500", "101619.067500", "101617.477500", "101619.267500", "101617.675000", "101619.465000", "101617.875000", "101619.665000", "101618.272500", "101620.062500", "101618.470000", "101620.260000", "101618.670000", "101620.460000", "101618.870000", "101620.657500", "101618.072500", "101623.462500", "101620.877500", "101622.667500", "101621.077500", "101622.867500", "101621.275000", "101623.065000", "101621.475000", "101623.265000", "101621.872500", "101623.662500", "101622.070000", "101623.860000", "101622.270000", "101624.060000", "101622.470000", "101624.257500", "101621.672500", "101623.462500", "101620.877500", "101622.667500", "101621.077500", "101622.867500", "101621.275000", "101623.065000", "101621.475000", "101623.265000", "101621.872500", "101623.662500", "101622.070000", "101623.860000", "101622.270000", "101624.060000", "101622.470000", "101624.257500", "101621.672500", "101623.462500", "101620.877500", "101622.667500", "101621.077500", "101622.867500", "101621.275000", "101623.065000", "101621.475000", "101623.265000", "101621.872500", "101623.662500", "101622.070000", "101623.860000", "101622.270000", "101624.060000", "101622.470000", "101624.257500", "101621.672500", "101623.462500", "101620.877500", "101622.667500", "101621.077500", "101622.867500", "101621.275000", "101623.065000", "101621.475000", "101623.265000", "101621.872500", "101623.662500", "101622.070000", "101623.860000", "101622.270000", "101624.060000", "101622.470000", "101624.257500", "101621.672500", "101627.062500", "101624.477500", "101626.267500", "101624.677500", "101626.467500", "101624.875000", "101626.665000", "101625.075000", "101626.865000", "101625.472500", "101627.262500", "101625.670000", "101627.460000", "101625.870000", "101627.660000", "101626.070000", "101627.857500", "101625.272500", "101627.062500", "101624.477500", "101626.267500", "101624.677500", "101626.467500", "101624.875000", "101626.665000", "101625.075000", "101626.865000", "101625.472500", "101627.262500", "101625.670000", "101627.460000", "101625.870000", "101627.660000", "101626.070000", "101627.857500", "101625.272500", "101627.062500", "101624.477500", "101626.267500", "101624.677500", "101626.467500", "101624.875000", "101626.665000", "101625.075000", "101626.865000", "101625.472500", "101627.262500", "101625.670000", "101627.460000", "101625.870000", "101627.660000", "101626.070000", "101627.857500", "101625.272500", "101627.062500", "101624.477500", "101626.267500", "101624.677500", "101626.467500", "101624.875000", "101626.665000", "101625.075000", "101626.865000", "101625.472500", "101627.262500", "101625.670000", "101627.460000", "101625.870000", "101627.660000", "101626.070000", "101627.857500", "101625.272500", "101630.662500", "101628.077500", "101629.867500", "101628.277500", "101630.067500", "101628.475000", "101630.265000", "101628.675000", "101630.465000", "101629.072500", "101630.862500", "101629.270000", "101631.060000", "101629.470000", "101631.260000", "101629.670000", "101631.457500", "101628.872500", "101630.662500", "101628.077500", "101629.867500", "101628.277500", "101630.067500", "101628.475000", "101630.265000", "101628.675000", "101630.465000", "101629.072500", "101630.862500", "101629.270000", "101631.060000", "101629.470000", "101631.260000", "101629.670000", "101631.457500", "101628.872500", "101630.662500", "101628.077500", "101629.867500", "101628.277500", "101630.067500", "101628.475000", "101630.265000", "101628.675000", "101630.465000", "101629.072500", "101630.862500", "101629.270000", "101631.060000", "101629.470000", "101631.260000", "101629.670000", "101631.457500", "101628.872500", "101630.662500", "101628.077500", "101629.867500", "101628.277500", "101630.067500", "101628.475000", "101630.265000", "101628.675000", "101630.465000", "101629.072500", "101630.862500", "101629.270000", "101631.060000", "101629.470000", "101631.260000", "101629.670000", "101631.457500", "101628.872500", "101634.262500", "101631.677500", "101633.467500", "101631.877500", "101633.667500", "101632.075000", "101633.865000", "101632.275000", "101634.065000", "101632.672500", "101634.462500", "101632.870000", "101634.660000", "101633.070000", "101634.860000", "101633.270000", "101635.057500", "101632.472500", "101634.262500", "101631.677500", "101633.467500", "101631.877500", "101633.667500", "101632.075000", "101633.865000", "101632.275000", "101634.065000", "101632.672500", "101634.462500", "101632.870000", "101634.660000", "101633.070000", "101634.860000", "101633.270000", "101635.057500", "101632.472500", "101634.262500", "101631.677500", "101633.467500", "101631.877500", "101633.667500", "101632.075000", "101633.865000", "101632.275000", "101634.065000", "101632.672500", "101634.462500", "101632.870000", "101634.660000", "101633.070000", "101634.860000", "101633.270000", "101635.057500", "101632.472500", "101634.262500", "101631.677500", "101633.467500", "101631.877500", "101633.667500", "101632.075000", "101633.865000", "101632.275000", "101634.065000", "101632.672500", "101634.462500", "101632.870000", "101634.660000", "101633.070000", "101634.860000", "101633.270000", "101635.057500", "101632.472500", "101637.862500", "101635.277500", "101637.067500", "101635.477500", "101637.267500", "101635.675000", "101637.465000", "101635.875000", "101637.665000", "101636.272500", "101638.062500", "101636.470000", "101638.260000", "101636.670000", "101638.460000", "101636.870000", "101638.657500", "101636.072500", "101637.862500", "101635.277500", "101637.067500", "101635.477500", "101637.267500", "101635.675000", "101637.465000", "101635.875000", "101637.665000", "101636.272500", "101638.062500", "101636.470000", "101638.260000", "101636.670000", "101638.460000", "101636.870000", "101638.657500", "101636.072500", "101637.862500", "101635.277500", "101637.067500", "101635.477500", "101637.267500", "101635.675000", "101637.465000", "101635.875000", "101637.665000", "101636.272500", "101638.062500", "101636.470000", "101638.260000", "101636.670000", "101638.460000", "101636.870000", "101638.657500", "101636.072500", "101637.862500", "101635.277500", "101637.067500", "101635.477500", "101637.267500", "101635.675000", "101637.465000", "101635.875000", "101637.665000", "101636.272500", "101638.062500", "101636.470000", "101638.260000",