{
  "AcquisitionMatrixPE": 122,
  "AcquisitionNumber": 1,
  "AcquisitionTime": "10:24:33.470000",
  "BandwidthPerPixelPhaseEncode": 27.785,
  "BaseResolution": 122,
  "BodyPartExamined": "BRAIN",
  "CoilCombinationMethod": "Adaptive Combine",
  "ConsistencyInfo": "N4_VE11C_LATEST_20160120",
  "ConversionSoftware": "dcm2niix",
  "ConversionSoftwareVersion": "v1.0.20220720",
  "DerivedVendorReportedEchoSpacing": 0.000590011,
  "DeviceSerialNumber": "66112",
  "DiffusionScheme": "Monopolar",
  "DwellTime": 2e-06,
  "EchoTime": 0.068,
  "EchoTrainLength": 61,
  "EffectiveEchoSpacing": 0.000295005,
  "FlipAngle": 90,
  "HeudiconvVersion": "0.13.1",
  "ImageOrientationPatientDICOM": [0.984741, 0.173734, 0.0100456, -0.168148, 0.93503, 0.312162],
  "ImageOrientationText": "Tra>Cor(18.0)>Sag(-2.6)",
  "ImageType": [
    "ORIGINAL",
    "PRIMARY",
    "DIFFUSION",
    "NONE",
    "ND",
    "NORM"
],
  "ImagingFrequency": 123.252,
  "InPlanePhaseEncodingDirectionDICOM": "COL",
  "InstitutionAddress": "Maynard 3,Hanover,NH,US,03755",
  "InstitutionName": "Dartmouth College - PBS",
  "InstitutionalDepartmentName": "Department",
  "MRAcquisitionType": "2D",
  "MagneticFieldStrength": 3,
  "Manufacturer": "Siemens",
  "ManufacturersModelName": "Prisma",
  "Modality": "MR",
  "MultibandAccelerationFactor": 4,
  "NonlinearGradientCorrection": false,
  "ParallelReductionFactorInPlane": 2,
  "PartialFourier": 1,
  "PatientPosition": "HFS",
  "PercentPhaseFOV": 100,
  "PercentSampling": 100,
  "PhaseEncodingDirection": "j-",
  "PhaseEncodingSteps": 122,
  "PhaseResolution": 1,
  "PixelBandwidth": 2050,
  "ProcedureStepDescription": "dbic^QA",
  "ProtocolName": "dwi_acq-DTI-30-p2-s4",
  "PulseSequenceDetails": "%SiemensSeq%\\ep2d_diff",
  "ReceiveCoilActiveElements": "HEA;HEP",
  "ReceiveCoilName": "Head_32",
  "ReconMatrixPE": 122,
  "RefLinesPE": 38,
  "RepetitionTime": 3.6,
  "SAR": 0.18892,
  "ScanOptions": "FS",
  "ScanningSequence": "EP",
  "SequenceName": "*ep_b0",
  "SequenceVariant": "SK\\SP",
  "SeriesDescription": "dwi_acq-DTI-30-p2-s4",
  "SeriesNumber": 9,
  "ShimSetting": [4143, -7686, -7500, 282, -79, -98, -56, 54],
  "SliceThickness": 2,
  "SliceTiming": [2.58594, 0, 1.78906, 0.20312, 1.99219, 0.39844, 2.1875, 0.60156, 2.39062, 1, 2.78906, 1.19531, 2.98438, 1.39844, 3.1875, 1.59375, 3.38281, 0.79688, 2.58594, 0, 1.78906, 0.20312, 1.99219, 0.39844, 2.1875, 0.60156, 2.39062, 1, 2.78906, 1.19531, 2.98438, 1.39844, 3.1875, 1.59375, 3.38281, 0.79688, 2.58594, 0, 1.78906, 0.20312, 1.99219, 0.39844, 2.1875, 0.60156, 2.39062, 1, 2.78906, 1.19531, 2.98438, 1.39844, 3.1875, 1.59375, 3.38281, 0.79688, 2.58594, 0, 1.78906, 0.20312, 1.99219, 0.39844, 2.1875, 0.60156, 2.39062, 1, 2.78906, 1.19531, 2.98438, 1.39844, 3.1875, 1.59375, 3.38281, 0.79688],
  "SoftwareVersions": "syngo MR E11",
  "SpacingBetweenSlices": 2,
  "SpoilingState": true,
  "StationName": "AWP66112",
  "TotalReadoutTime": 0.0356956,
  "TxRefAmp": 233.962,
  "dcmmeta_affine": [
    [-1.9371962547302246, -0.330782949924469, -0.08968043327331543, 141.179443359375],
    [-0.3417717218399048, 1.8394031524658203, 0.6181755065917969, -95.9007797241211],
    [0.01976177841424942, -0.6140897870063782, 1.8999557495117188, -29.860218048095703],
    [0.0, 0.0, 0.0, 1.0]
],
  "dcmmeta_reorient_transform": [
    [0.0, -1.0, 0.0, 121.0],
    [1.0, 0.0, 0.0, 0.0],
    [0.0, 0.0, -1.0, 71.0],
    [0.0, 0.0, 0.0, 1.0]
],
  "dcmmeta_shape": [122, 122, 72, 31],
  "dcmmeta_slice_dim": 2,
  "dcmmeta_version": 0.6,
  "global": {
    "const": {
      "AccessionNumber": "qa",
      "AcquisitionMatrix": [122, 0, 0, 122],
      "AngioFlag": "N",
      "BitsAllocated": 16,
      "BitsStored": 12,
      "BodyPartExamined": "BRAIN",
      "Columns": 122,
      "EchoNumbers": 1,
      "EchoTime": 68.0,
      "EchoTrainLength": 61,
      "FlipAngle": 90.0,
      "HighBit": 11,
      "ImageOrientationPatient": [0.98474138657853, 0.17373395776454, 0.0100455701111, -0.168148001445, 0.93502991474205, 0.31216231058142],
      "ImageType": [
        "ORIGINAL",
        "PRIMARY",
        "DIFFUSION",
        "NONE",
        "ND",
        "NORM"
],
      "ImagedNucleus": "1H",
      "ImagingFrequency": 123.252423,
      "InPlanePhaseEncodingDirection": "COL",
      "MRAcquisitionType": "2D",
      "MagneticFieldStrength": 3.0,
      "Manufacturer": "SIEMENS",
      "ManufacturerModelName": "Prisma",
      "Modality": "MR",
      "NumberOfAverages": 1.0,
      "NumberOfPhaseEncodingSteps": 122,
      "PercentPhaseFieldOfView": 100.0,
      "PercentSampling": 100.0,
      "PerformedProcedureStepStartTime": "100240.305000",
      "PhotometricInterpretation": "MONOCHROME2",
      "PixelBandwidth": 2050.0,
      "PixelRepresentation": 0,
      "PixelSpacing": [1.9672131538391, 1.9672131538391],
      "ProtocolName": "dwi_acq-DTI-30-p2-s4",
      "RepetitionTime": 3600.0,
      "Rows": 122,
      "SAR": 0.18891953030994,
      "SamplesPerPixel": 1,
      "ScanOptions": "FS",
      "ScanningSequence": "EP",
      "SequenceVariant": [
        "SK",
        "SP"
],
      "SeriesDescription": "dwi_acq-DTI-30-p2-s4",
      "SeriesNumber": 9,
      "SeriesTime": "102443.146000",
      "SliceThickness": 2.0,
      "SmallestImagePixelValue": 0,
      "SoftwareVersions": "syngo MR E11",
      "SpacingBetweenSlices": 2.0,
      "SpecificCharacterSet": "ISO_IR 100",
      "StudyID": "103",
      "StudyTime": "100240.203000",
      "TransmitCoilName": "Body",
      "VariableFlipAngleFlag": "N",
      "WindowCenterWidthExplanation": "Algo1",
      "dBdt": 0.0},
    "slices": {
      "AcquisitionTime": ["102433.470000", "102430.885000", "102432.675000", "102431.085000", "102432.872500", "102431.282500", "102433.072500", "102431.482500", "102433.272500", "102431.880000", "102433.670000", "102432.077500", "102433.867500", "102432.277500", "102434.067500", "102432.475000", "102434.265000", "102431.680000", "102433.470000", "102430.885000", "102432.675000", "102431.085000", "102432.872500", "102431.282500", "102433.072500", "102431.482500", "102433.272500", "102431.880000", "102433.670000", "102432.077500", "102433.867500", "102432.277500", "102434.067500", "102432.475000", "102434.265000", "102431.680000", "102433.470000", "102430.885000", "102432.675000", "102431.085000", "102432.872500", "102431.282500", "102433.072500", "102431.482500", "102433.272500", "102431.880000", "102433.670000", "102432.077500", "102433.867500", "102432.277500", "102434.067500", "102432.475000", "102434.265000", "102431.680000", "102433.470000", "102430.885000", "102432.675000", "102431.085000", "102432.872500", "102431.282500", "102433.072500", "102431.482500", "102433.272500", "102431.880000", "102433.670000", "102432.077500", "102433.867500", "102432.277500", "102434.067500", "102432.475000", "102434.265000", "102431.680000", "102437.070000", "102434.485000", "102436.275000", "102434.685000", "102436.472500", "102434.882500", "102436.672500", "102435.082500", "102436.872500", "102435.480000", "102437.270000", "102435.677500", "102437.467500", "102435.877500", "102437.667500", "102436.075000", "102437.865000", "102435.280000", "102437.070000", "102434.485000", "102436.275000", "102434.685000", "102436.472500", "102434.882500", "102436.672500", "102435.082500", "102436.872500", "102435.480000", "102437.270000", "102435.677500", "102437.467500", "102435.877500", "102437.667500", "102436.075000", "102437.865000", "102435.280000", "102437.070000", "102434.485000", "102436.275000", "102434.685000", "102436.472500", "102434.882500", "102436.672500", "102435.082500", "102436.872500", "102435.480000", "102437.270000", "102435.677500", "102437.467500", "102435.877500", "102437.667500", "102436.075000", "102437.865000", "102435.280000", "102437.070000", "102434.485000", "102436.275000", "102434.685000", "102436.472500", "102434.882500", "102436.672500", "102435.082500", "102436.872500", "102435.480000", "102437.270000", "102435.677500", "102437.467500", "102435.877500", "102437.667500", "102436.075000", "102437.865000", "102435.280000", "102440.670000", "102438.085000", "102439.875000", "102438.285000", "102440.072500", "102438.482500", "102440.272500", "102438.682500", "102440.472500", "102439.080000", "102440.870000", "102439.277500", "102441.067500", "102439.477500", "102441.267500", "102439.675000", "102441.465000", "102438.880000", "102440.670000", "102438.085000", "102439.875000", "102438.285000", "102440.072500", "102438.482500", "102440.272500", "102438.682500", "102440.472500", "102439.080000", "102440.870000", "102439.277500", "102441.067500", "102439.477500", "102441.267500", "102439.675000", "102441.465000", "102438.880000", "102440.670000", "102438.085000", "102439.875000", "102438.285000", "102440.072500", "102438.482500", "102440.272500", "102438.682500", "102440.472500", "102439.080000", "102440.870000", "102439.277500", "102441.067500", "102439.477500", "102441.267500", "102439.675000", "102441.465000", "102438.880000", "102440.670000", "102438.085000", "102439.875000", "102438.285000", "102440.072500", "102438.482500", "102440.272500", "102438.682500", "102440.472500", "102439.080000", "102440.870000", "102439.277500", "102441.067500", "102439.477500", "102441.267500", "102439.675000", "102441.465000", "102438.880000", "102444.270000", "102441.685000", "102443.475000", "102441.885000", "102443.672500", "102442.082500", "102443.872500", "102442.282500", "102444.072500", "102442.680000", "102444.470000", "102442.877500", "102444.667500", "102443.077500", "102444.867500", "102443.275000", "102445.065000", "102442.480000", "102444.270000", "102441.685000", "102443.475000", "102441.885000", "102443.672500", "102442.082500", "102443.872500", "102442.282500", "102444.072500", "102442.680000", "102444.470000", "102442.877500", "102444.667500", "102443.077500", "102444.867500", "102443.275000", "102445.065000", "102442.480000", "102444.270000", "102441.685000", "102443.475000", "102441.885000", "102443.672500", "102442.082500", "102443.872500", "102442.282500", "102444.072500", "102442.680000", "102444.470000", "102442.877500", "102444.667500", "102443.077500", "102444.867500", "102443.275000", "102445.065000", "102442.480000", "102444.270000", "102441.685000", "102443.475000", "102441.885000", "102443.672500", "102442.082500", "102443.872500", "102442.282500", "102444.072500", "102442.680000", "102444.470000", "102442.877500", "102444.667500", "102443.077500", "102444.867500", "102443.275000", "102445.065000", "102442.480000", "102447.870000", "102445.285000", "102447.075000", "102445.485000", "102447.272500", "102445.682500", "102447.472500", "102445.882500", "102447.672500", "102446.280000", "102448.070000", "102446.477500", "102448.267500", "102446.677500", "102448.467500", "102446.875000", "102448.665000", "102446.080000", "102447.870000", "102445.285000", "102447.075000", "102445.485000", "102447.272500", "102445.682500", "102447.472500", "102445.882500", "102447.672500", "102446.280000", "102448.070000", "102446.477500", "102448.267500", "102446.677500", "102448.467500", "102446.875000", "102448.665000", "102446.080000", "102447.870000", "102445.285000", "102447.075000", "102445.485000", "102447.272500", "102445.682500", "102447.472500", "102445.882500", "102447.672500", "102446.280000", "102448.070000", "102446.477500", "102448.267500", "102446.677500", "102448.467500", "102446.875000", "102448.665000", "102446.080000", "102447.870000", "102445.285000", "102447.075000", "102445.485000", "102447.272500", "102445.682500", "102447.472500", "102445.882500", "102447.672500", "102446.280000", "102448.070000", "102446.477500", "102448.267500", "102446.677500", "102448.467500", "102446.875000", "102448.665000", "102446.080000", "102451.470000", "102448.885000", "102450.675000", "102449.085000", "102450.872500", "102449.282500", "102451.072500", "102449.482500", "102451.272500", "102449.880000", "102451.670000", "102450.077500", "102451.867500", "102450.277500", "102452.067500", "102450.475000", "102452.265000", "102449.680000", "102451.470000", "102448.885000", "102450.675000", "102449.085000", "102450.872500", "102449.282500", "102451.072500", "102449.482500", "102451.272500", "102449.880000", "102451.670000", "102450.077500", "102451.867500", "102450.277500", "102452.067500", "102450.475000", "102452.265000", "102449.680000", "102451.470000", "102448.885000", "102450.675000", "102449.085000", "102450.872500", "102449.282500", "102451.072500", "102449.482500", "102451.272500", "102449.880000", "102451.670000", "102450.077500", "102451.867500", "102450.277500", "102452.067500", "102450.475000", "102452.265000", "102449.680000", "102451.470000", "102448.885000", "102450.675000", "102449.085000", "102450.872500", "102449.282500", "102451.072500", "102449.482500", "102451.272500", "102449.880000", "102451.670000", "102450.077500", "102451.867500", "102450.277500", "102452.067500", "102450.475000", "102452.265000", "102449.680000", "102455.070000", "102452.485000", "102454.275000", "102452.685000", "102454.472500", "102452.882500", "102454.672500", "102453.082500", "102454.872500", "102453.480000", "102455.270000", "102453.677500", "102455.467500", "102453.877500", "102455.667500", "102454.075000", "102455.865000", "102453.280000", "102455.070000", "102452.485000", "102454.275000", "102452.685000", "102454.472500", "102452.882500", "102454.672500", "102453.082500", "102454.872500", "102453.480000", "102455.270000", "102453.677500", "102455.467500", "102453.877500", "102455.667500", "102454.075000", "102455.865000", "102453.280000", "102455.070000", "102452.485000", "102454.275000", "102452.685000", "102454.472500", "102452.882500", "102454.672500", "102453.082500", "102454.872500", "102453.480000", "102455.270000", "102453.677500", "102455.467500", "102453.877500", "102455.667500", "102454.075000", "102455.865000", "102453.280000", "102455.070000", "102452.485000", "102454.275000", "102452.685000", "102454.472500", "102452.882500", "102454.672500", "102453.082500", "102454.872500", "102453.480000", "102455.270000", "102453.677500", "102455.467500", "102453.877500", "102455.667500", "102454.075000", "102455.865000", "102453.280000", "102458.670000", "102456.085000", "102457.875000", "102456.285000", "102458.072500", "102456.482500", "102458.272500", "102456.682500", "102458.472500", "102457.080000", "102458.870000", "102457.277500", "102459.067500", "102457.477500", "102459.267500", "102457.675000", "102459.465000", "102456.880000", "102458.670000", "102456.085000", "102457.875000", "102456.285000", "102458.072500", "102456.482500", "102458.272500", "102456.682500", "102458.472500", "102457.080000", "102458.870000", "102457.277500", "102459.067500", "102457.477500", "102459.267500", "102457.675000", "102459.465000", "102456.880000", "102458.670000", "102456.085000", "102457.875000", "102456.285000", "102458.072500", "102456.482500", "102458.272500", "102456.682500", "102458.472500", "102457.080000", "102458.870000", "102457.277500", "102459.067500", "102457.477500", "102459.267500", "102457.675000", "102459.465000", "102456.880000", "102458.670000", "102456.085000", "102457.875000", "102456.285000", "102458.072500", "102456.482500", "102458.272500", "102456.682500", "102458.472500", "102457.080000", "102458.870000", "102457.277500", "102459.067500", "102457.477500", "102459.267500", "102457.675000", "102459.465000", "102456.880000", "102502.270000", "102459.685000", "102501.475000", "102459.885000", "102501.672500", "102500.082500", "102501.872500", "102500.282500", "102502.072500", "102500.680000", "102502.470000", "102500.877500", "102502.667500", "102501.077500", "102502.867500", "102501.275000", "102503.065000", "102500.480000", "102502.270000", "102459.685000", "102501.475000", "102459.885000", "102501.672500", "102500.082500", "102501.872500", "102500.282500", "102502.072500", "102500.680000", "102502.470000", "102500.877500", "102502.667500", "102501.077500", "102502.867500", "102501.275000", "102503.065000", "102500.480000", "102502.270000", "102459.685000", "102501.475000", "102459.885000", "102501.672500", "102500.082500", "102501.872500", "102500.282500", "102502.072500", "102500.680000", "102502.470000", "102500.877500", "102502.667500", "102501.077500", "102502.867500", "102501.275000", "102503.065000", "102500.480000", "102502.270000", "102459.685000", "102501.475000", "102459.885000", "102501.672500", "102500.082500", "102501.872500", "102500.282500", "102502.072500", "102500.680000", "102502.470000", "102500.877500", "102502.667500", "102501.077500", "102502.867500", "102501.275000", "102503.065000", "102500.480000", "102505.870000", "102503.285000", "102505.075000", "102503.485000", "102505.272500", "102503.682500", "102505.472500", "102503.882500", "102505.672500", "102504.280000", "102506.070000", "102504.477500", "102506.267500", "102504.677500", "102506.467500", "102504.875000", "102506.665000", "102504.080000", "102505.870000", "102503.285000", "102505.075000", "102503.485000", "102505.272500", "102503.682500", "102505.472500", "102503.882500", "102505.672500", "102504.280000", "102506.070000", "102504.477500", "102506.267500", "102504.677500", "102506.467500", "102504.875000", "102506.665000", "102504.080000", "102505.870000", "102503.285000", "102505.075000", "102503.485000", "102505.272500", "102503.682500", "102505.472500", "102503.882500", "102505.672500", "102504.280000", "102506.070000", "102504.477500", "102506.267500", "102504.677500", "102506.467500", "102504.875000", "102506.665000", "102504.080000", "102505.870000", "102503.285000", "102505.075000", "102503.485000", "102505.272500", "102503.682500", "102505.472500", "102503.882500", "102505.672500", "102504.280000", "102506.070000", "102504.477500", "102506.267500", "102504.677500", "102506.467500", "102504.875000", "102506.665000", "102504.080000", "102509.470000", "102506.885000", "102508.675000", "102507.085000", "102508.872500", "102507.282500", "102509.072500", "102507.482500", "102509.272500", "102507.880000", "102509.670000", "102508.077500", "102509.867500", "102508.277500", "102510.067500", "102508.475000", "102510.265000", "102507.680000", "102509.470000", "102506.885000", "102508.675000", "102507.085000", "102508.872500", "102507.282500", "102509.072500", "102507.482500", "102509.272500", "102507.880000", "102509.670000", "102508.077500", "102509.867500", "102508.277500", "102510.067500", "102508.475000", "102510.265000", "102507.680000", "102509.470000", "102506.885000", "102508.675000", "102507.085000", "102508.872500", "102507.282500", "102509.072500", "102507.482500", "102509.272500", "102507.880000", "102509.670000", "102508.077500", "102509.867500", "102508.277500", "102510.067500", "102508.475000", "102510.265000", "102507.680000", "102509.470000", "102506.885000", "102508.675000", "102507.085000", "102508.872500", "102507.282500", "102509.072500", "102507.482500", "102509.272500", "102507.880000", "102509.670000", "102508.077500", "102509.867500", "102508.277500", "102510.067500", "102508.475000", "102510.265000", "102507.680000", "102513.070000", "102510.485000", "102512.275000", "102510.685000", "102512.472500", "102510.882500", "102512.672500", "102511.082500", "102512.872500", "102511.480000", "102513.270000", "102511.677500", "102513.467500", "102511.877500", "102513.667500", "102512.075000", "102513.865000", "102511.280000", "102513.070000", "102510.485000", "102512.275000", "102510.685000", "102512.472500", "102510.882500", "102512.672500", "102511.082500", "102512.872500", "102511.480000", "102513.270000", "102511.677500", "102513.467500", "102511.877500", "102513.667500", "102512.075000", "102513.865000", "102511.280000", "102513.070000", "102510.485000", "102512.275000", "102510.685000", "102512.472500", "102510.882500", "102512.672500", "102511.082500", "102512.872500", "102511.480000", "102513.270000", "102511.677500", "102513.467500", "102511.877500", "102513.667500", "102512.075000", "102513.865000", "102511.280000", "102513.070000", "102510.485000", "102512.275000", "102510.685000", "102512.472500", "102510.882500", "102512.672500", "102511.082500", "102512.872500", "102511.480000", "102513.270000", "102511.677500", "102513.467500", "102511.877500", "102513.667500", "102512.075000", "102513.865000", "102511.280000", "102516.670000", "102514.085000", "102515.875000", "102514.285000", "102516.072500", "102514.482500", "102516.272500", "102514.682500", "102516.472500", "102515.080000", "102516.870000", "102515.277500", "102517.067500", "102515.477500", "102517.267500", "102515.675000", "102517.465000", "102514.880000", "102516.670000", "102514.085000", "102515.875000", "102514.285000", "102516.072500", "102514.482500", "102516.272500", "102514.682500", "102516.472500", "102515.080000", "102516.870000", "102515.277500", "102517.067500", "102515.477500", "102517.267500", "102515.675000", "102517.465000", "102514.880000", "102516.670000", "102514.085000", "102515.875000", "102514.285000", "102516.072500", "102514.482500", "102516.272500", "102514.682500", "102516.472500", "102515.080000", "102516.870000", "102515.277500", "102517.067500", "102515.477500", "102517.267500", "102515.675000", "102517.465000", "102514.880000", "102516.670000", "102514.085000", "102515.875000", "102514.285000", "102516.072500", "102514.482500", "102516.272500", "102514.682500", "102516.472500", "102515.080000", "102516.870000", "102515.277500", "102517.067500", "102515.477500", "102517.267500", "102515.675000", "102517.465000", "102514.880000", "102520.270000", "102517.685000", "102519.475000", "102517.885000", "102519.672500", "102518.082500", "102519.872500", "102518.282500", "102520.072500", "102518.680000", "102520.470000", "102518.877500", "102520.667500", "102519.077500", "102520.867500", "102519.275000", "102521.065000", "102518.480000", "102520.270000", "102517.685000", "102519.475000", "102517.885000", "102519.672500", "102518.082500", "102519.872500", "102518.282500", "102520.072500", "102518.680000", "102520.470000", "102518.877500", "102520.667500", "102519.077500", "102520.867500", "102519.275000", "102521.065000", "102518.480000", "102520.270000", "102517.685000", "102519.475000", "102517.885000", "102519.672500", "102518.082500", "102519.872500", "102518.282500", "102520.072500", "102518.680000", "102520.470000", "102518.877500", "102520.667500", "102519.077500", "102520.867500", "102519.275000", "102521.065000", "102518.480000", "102520.270000", "102517.685000", "102519.475000", "102517.885000", "102519.672500", "102518.082500", "102519.872500", "102518.282500", "102520.072500", "102518.680000", "102520.470000", "102518.877500", "102520.667500", "102519.077500", "102520.867500", "102519.275000", "102521.065000", "102518.480000", "102523.870000", "102521.285000", "102523.075000", "102521.485000", "102523.272500", "102521.682500", "102523.472500", "102521.882500", "102523.672500", "102522.280000", "102524.070000", "102522.477500", "102524.267500", "102522.677500", "102524.467500", "102522.875000", "102524.665000", "102522.080000", "102523.870000", "102521.285000", "102523.075000", "102521.485000", "102523.272500", "102521.682500", "102523.472500", "102521.882500", "102523.672500", "102522.280000", "102524.070000", "102522.477500", "102524.267500", "102522.677500", "102524.467500", "102522.875000", "102524.665000", "102522.080000", "102523.870000", "102521.285000", "102523.075000", "102521.485000", "102523.272500", "102521.682500", "102523.472500", "102521.882500", "102523.672500", "102522.280000", "102524.070000", "102522.477500", "102524.267500", "102522.677500", "102524.467500", "102522.875000", "102524.665000", "102522.080000", "102523.870000", "102521.285000", "102523.075000", "102521.485000", "102523.272500", "102521.682500", "102523.472500", "102521.882500", "102523.672500", "102522.280000", "102524.070000", "102522.477500", "102524.267500", "102522.677500", "102524.467500", "102522.875000", "102524.665000", "102522.080000", "102527.470000", "102524.885000", "102526.675000", "102525.085000", "102526.872500", "102525.282500", "102527.072500", "102525.482500", "102527.272500", "102525.880000", "102527.670000", "102526.077500", "102527.867500", "102526.277500", "102528.067500", "102526.475000", "102528.265000", "102525.680000", "102527.470000", "102524.885000", "102526.675000", "102525.085000", "102526.872500", "102525.282500", "102527.072500", "102525.482500", "102527.272500", "102525.880000", "102527.670000", "102526.077500", "102527.867500", "102526.277500", "102528.067500", "102526.475000", "102528.265000", "102525.680000", "102527.470000", "102524.885000", "102526.675000", "102525.085000", "102526.872500", "102525.282500", "102527.072500", "102525.482500", "102527.272500", "102525.880000", "102527.670000", "102526.077500", "102527.867500", "102526.277500", "102528.067500", "102526.475000", "102528.265000", "102525.680000", "102527.470000", "102524.885000", "102526.675000", "102525.085000", "102526.872500", "102525.282500", "102527.072500", "102525.482500", "102527.272500", "102525.880000", "102527.670000", "102526.077500", "102527.867500", "102526.277500", "102528.067500", "102526.475000", "102528.265000", "102525.680000", "102531.070000", "102528.485000", "102530.275000", "102528.685000", "102530.472500", "102528.882500", "102530.672500", "102529.082500", "102530.872500", "102529.480000", "102531.270000", "102529.677500", "102531.467500", "102529.877500", "102531.667500", "102530.075000", "102531.865000", "102529.280000", "102531.070000", "102528.485000", "102530.275000", "102528.685000", "102530.472500", "102528.882500", "102530.672500", "102529.082500", "102530.872500", "102529.480000", "102531.270000", "102529.677500", "102531.467500", "102529.877500", "102531.667500", "102530.075000", "102531.865000", "102529.280000", "102531.070000", "102528.485000", "102530.275000", "102528.685000", "102530.472500", "102528.882500", "102530.672500", "102529.082500", "102530.872500", "102529.480000", "102531.270000", "102529.677500", "102531.467500", "102529.877500", "102531.667500", "102530.075000", "102531.865000", "102529.280000", "102531.070000", "102528.485000", "102530.275000", "102528.685000", "102530.472500", "102528.882500", "102530.672500", "102529.082500", "102530.872500", "102529.480000", "102531.270000", "102529.677500", "102531.467500", "102529.877500", "102531.667500", "102530.075000", "102531.865000", "102529.280000", "102534.670000", "102532.085000", "102533.875000", "102532.285000", "102534.072500", "102532.482500", "102534.272500", "102532.682500", "102534.472500", "102533.080000", "102534.870000", "102533.277500", "102535.067500", "102533.477500", "102535.267500", "102533.675000", "102535.465000", "102532.880000", "102534.670000", "102532.085000", "102533.875000", "102532.285000", "102534.072500", "102532.482500", "102534.272500", "102532.682500", "102534.472500", "102533.080000", "102534.870000", "102533.277500", "102535.067500", "102533.477500", "102535.267500", "102533.675000", "102535.465000", "102532.880000", "102534.670000", "102532.085000", "102533.875000", "102532.285000", "102534.072500", "102532.482500", "102534.272500", "102532.682500", "102534.472500", "102533.080000", "102534.870000", "102533.277500", "102535.067500", "102533.477500", "102535.267500", "102533.675000", "102535.465000", "102532.880000", "102534.670000", "102532.085000", "102533.875000", "102532.285000", "102534.072500", "102532.482500", "102534.272500", "102532.682500", "102534.472500", "102533.080000", "102534.870000", "102533.277500", "102535.067500", "102533.477500", "102535.267500", "102533.675000", "102535.465000", "102532.880000", "102538.270000", "102535.685000", "102537.475000", "102535.885000", "102537.672500", "102536.082500", "102537.872500", "102536.282500", "102538.072500", "102536.680000", "102538.470000", "102536.877500", "102538.667500", "102537.077500", "102538.867500", "102537.275000", "102539.065000", "102536.480000", "102538.270000", "102535.685000", "102537.475000", "102535.885000", "102537.672500", "102536.082500", "102537.872500", "102536.282500", "102538.072500", "102536.680000", "102538.470000", "102536.877500", "102538.667500", "102537.077500", "102538.867500", "102537.275000", "102539.065000", "102536.480000", "102538.270000", "102535.685000", "102537.475000", "102535.885000", "102537.672500", "102536.082500", "102537.872500", "102536.282500", "102538.072500", "102536.680000", "102538.470000", "102536.877500", "102538.667500", "102537.077500", "102538.867500", "102537.275000", "102539.065000", "102536.480000", "102538.270000", "102535.685000", "102537.475000", "102535.885000", "102537.672500", "102536.082500", "102537.872500", "102536.282500", "102538.072500", "102536.680000", "102538.470000", "102536.877500", "102538.667500", "102537.077500", "102538.867500", "102537.275000", "102539.065000", "102536.480000", "102541.870000", "102539.285000", "102541.075000", "102539.485000", "102541.272500", "102539.682500", "102541.472500", "102539.882500", "102541.672500", "102540.280000", "102542.070000", "102540.477500", "102542.267500", "102540.677500", "102542.467500", "102540.875000", "102542.665000", "102540.080000", "102541.870000", "102539.285000", "102541.075000", "102539.485000", "102541.272500", "102539.682500", "102541.472500", "102539.882500", "102541.672500", "102540.280000", "102542.070000", "102540.477500", "102542.267500", "102540.677500", "102542.467500", "102540.875000", "102542.665000", "102540.080000", "102541.870000", "102539.285000", "102541.075000", "102539.485000", "102541.272500", "102539.682500", "102541.472500", "102539.882500", "102541.672500", "102540.280000", "102542.070000", "102540.477500", "102542.267500", "102540.677500", "102542.467500", "102540.875000", "102542.665000", "102540.080000", "102541.870000", "102539.285000", "102541.075000", "102539.485000", "102541.272500", "102539.682500", "102541.472500", "102539.882500", "102541.672500", "102540.280000", "102542.070000", "102540.477500", "102542.267500", "102