{
  "AcquisitionMatrixPE": 80,
  "AcquisitionNumber": 1,
  "AcquisitionTime": "08:50:42.797500",
  "BandwidthPerPixelPhaseEncode": 48.077,
  "BaseResolution": 80,
  "BodyPartExamined": "BRAIN",
  "CoilCombinationMethod": "Sum of Squares",
  "ConsistencyInfo": "N4_VE11C_LATEST_20160120",
  "ConversionSoftware": "dcm2niix",
  "ConversionSoftwareVersion": "v1.0.20220720",
  "DerivedVendorReportedEchoSpacing": 0.000519999,
  "DeviceSerialNumber": "66112",
  "DwellTime": 2.7e-06,
  "EchoTime": 0.035,
  "EchoTrainLength": 39,
  "EffectiveEchoSpacing": 0.00026,
  "FlipAngle": 90,
  "HeudiconvVersion": "0.13.1",
  "ImageOrientationPatientDICOM": [0.988097, -0.15371, 0.00605951, 0.138165, 0.904105, 0.404357],
  "ImageOrientationText": "Tra>Cor(23.6)>Sag(3.9)",
  "ImageType": [
    "ORIGINAL",
    "PRIMARY",
    "M",
    "ND",
    "NORM",
    "MOSAIC"
],
  "ImagingFrequency": 123.253,
  "InPlanePhaseEncodingDirectionDICOM": "COL",
  "InstitutionAddress": "Maynard 3,Hanover,NH,US,03755",
  "InstitutionName": "Dartmouth College - PBS",
  "InstitutionalDepartmentName": "Department",
  "MRAcquisitionType": "2D",
  "MagneticFieldStrength": 3,
  "Manufacturer": "Siemens",
  "ManufacturersModelName": "Prisma",
  "MatrixCoilMode": "GRAPPA",
  "Modality": "MR",
  "NonlinearGradientCorrection": false,
  "ParallelReductionFactorInPlane": 2,
  "PartialFourier": 1,
  "PatientPosition": "HFS",
  "PercentPhaseFOV": 100,
  "PercentSampling": 100,
  "PhaseEncodingDirection": "j-",
  "PhaseEncodingSteps": 79,
  "PhaseResolution": 1,
  "PixelBandwidth": 2315,
  "ProcedureStepDescription": "dbic^QA",
  "ProtocolName": "func-bold_task-rest_acq-p2",
  "PulseSequenceDetails": "%SiemensSeq%\\ep2d_bold",
  "ReceiveCoilActiveElements": "HEA;HEP",
  "ReceiveCoilName": "Head_32",
  "ReconMatrixPE": 80,
  "RefLinesPE": 24,
  "RepetitionTime": 2,
  "SAR": 0.0555365,
  "ScanOptions": "FS",
  "ScanningSequence": "EP",
  "SequenceName": "*epfid2d1_80",
  "SequenceVariant": "SK",
  "SeriesDescription": "func-bold_task-rest_acq-p2",
  "SeriesNumber": 5,
  "ShimSetting": [4152, -7699, -7509, 267, -75, -193, -49, 116],
  "SliceThickness": 3.5,
  "SliceTiming": [0.99, 0, 1.055, 0.065, 1.1225, 0.1325, 1.1875, 0.1975, 1.2525, 0.265, 1.32, 0.33, 1.385, 0.395, 1.4525, 0.4625, 1.5175, 0.5275, 1.5825, 0.5925, 1.65, 0.66, 1.715, 0.725, 1.7825, 0.7925, 1.8475, 0.8575, 1.9125, 0.9225],
  "SoftwareVersions": "syngo MR E11",
  "SpacingBetweenSlices": 3.99,
  "StationName": "AWP66112",
  "TaskName": "rest",
  "TotalReadoutTime": 0.02054,
  "TxRefAmp": 229.967,
  "dcmmeta_affine": [
    [-2.964292049407959, 0.4144939184188843, 0.26985296607017517, 98.57430267333984],
    [0.46113112568855286, 2.712315082550049, 1.5908410549163818, -133.27276611328125],
    [0.01817851886153221, -1.2130714654922485, 3.6491785049438477, -11.191303253173828],
    [0.0, 0.0, 0.0, 1.0]
],
  "dcmmeta_reorient_transform": [
    [0.0, -1.0, 0.0, 79.0],
    [1.0, 0.0, 0.0, 0.0],
    [0.0, 0.0, 1.0, 0.0],
    [0.0, 0.0, 0.0, 1.0]
],
  "dcmmeta_shape": [80, 80, 30, 200],
  "dcmmeta_slice_dim": 2,
  "dcmmeta_version": 0.6,
  "global": {
    "const": {
      "AccessionNumber": "qa",
      "AcquisitionMatrix": [80, 0, 0, 80],
      "AngioFlag": "N",
      "BitsAllocated": 16,
      "BitsStored": 12,
      "BodyPartExamined": "BRAIN",
      "Columns": 480,
      "EchoNumbers": 1,
      "EchoTime": 35.0,
      "EchoTrainLength": 39,
      "FlipAngle": 90.0,
      "HighBit": 11,
      "ImageOrientationPatient": [0.98809736472997, -0.153710377657, 0.00605950610611, 0.13816463801058, 0.90410498907605, 0.40435714601228],
      "ImagePositionPatient": [-807.07652083939, -531.23687710345, -353.27393819468],
      "ImageType": [
        "ORIGINAL",
        "PRIMARY",
        "M",
        "ND",
        "NORM",
        "MOSAIC"
],
      "ImagedNucleus": "1H",
      "ImagingFrequency": 123.252556,
      "InPlanePhaseEncodingDirection": "COL",
      "MRAcquisitionType": "2D",
      "MagneticFieldStrength": 3.0,
      "Manufacturer": "SIEMENS",
      "ManufacturerModelName": "Prisma",
      "Modality": "MR",
      "NumberOfAverages": 1.0,
      "NumberOfPhaseEncodingSteps": 79,
      "PercentPhaseFieldOfView": 100.0,
      "PercentSampling": 100.0,
      "PerformedProcedureStepStartTime": "084908.123000",
      "PhotometricInterpretation": "MONOCHROME2",
      "PixelBandwidth": 2315.0,
      "PixelRepresentation": 0,
      "PixelSpacing": [3.0, 3.0],
      "ProtocolName": "func-bold_task-rest_acq-p2",
      "RepetitionTime": 2000.0,
      "Rows": 480,
      "SAR": 0.05553645944055,
      "SamplesPerPixel": 1,
      "ScanOptions": "FS",
      "ScanningSequence": "EP",
      "SequenceName": "*epfid2d1_80",
      "SequenceVariant": "SK",
      "SeriesDescription": "func-bold_task-rest_acq-p2",
      "SeriesNumber": 5,
      "SeriesTime": "085127.236000",
      "SliceLocation": -56.705335876084,
      "SliceThickness": 3.5,
      "SmallestImagePixelValue": 0,
      "SoftwareVersions": "syngo MR E11",
      "SpacingBetweenSlices": 3.990000037247,
      "SpecificCharacterSet": "ISO_IR 100",
      "StudyID": "2",
      "StudyTime": "084908.049000",
      "TransmitCoilName": "Body",
      "VariableFlipAngleFlag": "N",
      "WindowCenterWidthExplanation": "Algo1",
      "dBdt": 0.0},
    "slices": {}
  },
  "time": {
    "samples": {
      "AcquisitionNumber": [1, 2, 3, 4, 5, 6, 7, 8, 9, 10, 11, 12, 13, 14, 15, 16, 17, 18, 19, 20, 21, 22, 23, 24, 25, 26, 27, 28, 29, 30, 31, 32, 33, 34, 35, 36, 37, 38, 39, 40, 41, 42, 43, 44, 45, 46, 47, 48, 49, 50, 51, 52, 53, 54, 55, 56, 57, 58, 59, 60, 61, 62, 63, 64, 65, 66, 67, 68, 69, 70, 71, 72, 73, 74, 75, 76, 77, 78, 79, 80, 81, 82, 83, 84, 85, 86, 87, 88, 89, 90, 91, 92, 93, 94, 95, 96, 97, 98, 99, 100, 101, 102, 103, 104, 105, 106, 107, 108, 109, 110, 111, 112, 113, 114, 115, 116, 117, 118, 119, 120, 121, 122, 123, 124, 125, 126, 127, 128, 129, 130, 131, 132, 133, 134, 135, 136, 137, 138, 139, 140, 141, 142, 143, 144, 145, 146, 147, 148, 149, 150, 151, 152, 153, 154, 155, 156, 157, 158, 159, 160, 161, 162, 163, 164, 165, 166, 167, 168, 169, 170, 171, 172, 173, 174, 175, 176, 177, 178, 179, 180, 181, 182, 183, 184, 185, 186, 187, 188, 189, 190, 191, 192, 193, 194, 195, 196, 197, 198, 199, 200],
      "AcquisitionTime": ["085042.797500", "085044.797500", "085046.797500", "085048.797500", "085050.797500", "085052.797500", "085054.797500", "085056.797500", "085058.797500", "085100.797500", "085102.797500", "085104.797500", "085106.797500", "085108.797500", "085110.797500", "085112.797500", "085114.797500", "085116.797500", "085118.797500", "085120.797500", "085122.797500", "085124.797500", "085126.797500", "085128.797500", "085130.797500", "085132.797500", "085134.797500", "085136.797500", "085138.797500", "085140.797500", "085142.797500", "085144.797500", "085146.797500", "085148.797500", "085150.797500", "085152.797500", "085154.797500", "085156.797500", "085158.797500", "085200.797500", "085202.797500", "085204.797500", "085206.797500", "085208.797500", "085210.797500", "085212.797500", "085214.797500", "085216.797500", "085218.797500", "085220.797500", "085222.797500", "085224.797500", "085226.797500", "085228.797500", "085230.797500", "085232.797500", "085234.797500", "085236.797500", "085238.797500", "085240.797500", "085242.797500", "085244.797500", "085246.797500", "085248.797500", "085250.797500", "085252.797500", "085254.797500", "085256.797500", "085258.797500", "085300.797500", "085302.797500", "085304.797500", "085306.797500", "085308.797500", "085310.797500", "085312.797500", "085314.797500", "085316.797500", "085318.797500", "085320.797500", "085322.797500", "085324.797500", "085326.797500", "085328.797500", "085330.797500", "085332.797500", "085334.797500", "085336.797500", "085338.797500", "085340.797500", "085342.797500", "085344.797500", "085346.797500", "085348.797500", "085350.797500", "085352.797500", "085354.797500", "085356.797500", "085358.797500", "085400.797500", "085402.797500", "085404.797500", "085406.797500", "085408.797500", "085410.797500", "085412.797500", "085414.797500", "085416.797500", "085418.797500", "085420.797500", "085422.797500", "085424.797500", "085426.797500", "085428.797500", "085430.797500", "085432.797500", "085434.797500", "085436.797500", "085438.797500", "085440.797500", "085442.797500", "085444.797500", "085446.797500", "085448.797500", "085450.797500", "085452.797500", "085454.797500", "085456.797500", "085458.797500", "085500.797500", "085502.797500", "085504.797500", "085506.797500", "085508.797500", "085510.797500", "085512.797500", "085514.797500", "085516.797500", "085518.797500", "085520.797500", "085522.797500", "085524.797500", "085526.797500", "085528.797500", "085530.797500", "085532.797500", "085534.797500", "085536.797500", "085538.797500", "085540.797500", "085542.797500", "085544.797500", "085546.797500", "085548.797500", "085550.797500", "085552.797500", "085554.797500", "085556.797500", "085558.797500", "085600.797500", "085602.797500", "085604.797500", "085606.797500", "085608.797500", "085610.797500", "085612.797500", "085614.797500", "085616.797500", "085618.797500", "085620.797500", "085622.797500", "085624.797500", "085626.797500", "085628.797500", "085630.797500", "085632.797500", "085634.797500", "085636.797500", "085638.797500", "085640.797500", "085642.797500", "085644.797500", "085646.797500", "085648.797500", "085650.797500", "085652.797500", "085654.797500", "085656.797500", "085658.797500", "085700.797500", "085702.797500", "085704.797500", "085706.797500", "085708.797500", "085710.797500", "085712.797500", "085714.797500", "085716.797500", "085718.797500", "085720.797500"],
      "ContentTime": ["085127.241000", "085127.245000", "085127.247000", "085127.250000", "085127.253000", "085127.255000", "085127.258000", "085127.261000", "085127.263000", "085127.266000", "085127.269000", "085127.271000", "085127.274000", "085127.276000", "085127.279000", "085127.282000", "085127.284000", "085127.287000", "085127.289000", "085127.292000", "085127.294000", "085127.297000", "085207.234000", "085207.237000", "085207.240000", "085207.250000", "085207.253000", "085207.256000", "085207.258000", "085207.261000", "085207.263000", "085207.266000", "085207.269000", "085207.271000", "085207.274000", "085207.277000", "085207.279000", "085207.289000", "085207.291000", "085207.294000", "085207.296000", "085207.299000", "085247.235000", "085247.237000", "085247.240000", "085247.243000", "085247.245000", "085247.248000", "085247.251000", "085247.253000", "085247.256000", "085247.259000", "085247.261000", "085247.264000", "085247.267000", "085247.269000", "085247.272000", "085247.274000", "085247.277000", "085247.280000", "085247.282000", "085247.285000", "085327.235000", "085327.238000", "085327.241000", "085327.244000", "085327.246000", "085327.249000", "085327.252000", "085327.254000", "085327.257000", "085327.260000", "085327.262000", "085327.265000", "085327.267000", "085327.270000", "085327.273000", "085327.275000", "085327.278000", "085327.280000", "085327.283000", "085327.286000", "085407.234000", "085407.237000", "085407.240000", "085407.243000", "085407.245000", "085407.248000", "085407.251000", "085407.253000", "085407.256000", "085407.259000", "085407.261000", "085407.264000", "085407.266000", "085407.269000", "085407.272000", "085407.274000", "085407.277000", "085407.280000", "085407.282000", "085407.285000", "085447.235000", "085447.237000", "085447.240000", "085447.243000", "085447.245000", "085447.248000", "085447.250000", "085447.253000", "085447.256000", "085447.259000", "085447.261000", "085447.264000", "085447.267000", "085447.269000", "085447.272000", "085447.275000", "085447.277000", "085447.280000", "085447.282000", "085447.285000", "085527.235000", "085527.238000", "085527.240000", "085527.243000", "085527.246000", "085527.248000", "085527.251000", "085527.254000", "085527.256000", "085527.259000", "085527.261000", "085527.264000", "085527.267000", "085527.269000", "085527.272000", "085527.275000", "085527.277000", "085527.280000", "085527.282000", "085527.285000", "085607.234000", "085607.237000", "085607.240000", "085607.243000", "085607.245000", "085607.248000", "085607.250000", "085607.253000", "085607.256000", "085607.258000", "085607.261000", "085607.264000", "085607.267000", "085607.269000", "085607.272000", "085607.275000", "085607.277000", "085607.280000", "085607.282000", "085607.285000", "085647.235000", "085647.237000", "085647.240000", "085647.243000", "085647.246000", "085647.248000", "085647.251000", "085647.253000", "085647.256000", "085647.259000", "085647.261000", "085647.264000", "085647.267000", "085647.269000", "085647.272000", "085647.275000", "085647.285000", "085647.288000", "085647.290000", "085647.293000", "085722.563000", "085722.566000", "085722.568000", "085722.571000", "085722.574000", "085722.577000", "085722.579000", "085722.582000", "085722.585000", "085722.587000", "085722.590000", "085722.597000", "085722.603000", "085722.609000", "085722.613000", "085722.617000", "085722.620000", "085722.623000"],
      "InstanceCreationTime": ["085127.241000", "085127.245000", "085127.247000", "085127.250000", "085127.253000", "085127.255000", "085127.258000", "085127.261000", "085127.263000", "085127.266000", "085127.269000", "085127.271000", "085127.274000", "085127.276000", "085127.279000", "085127.282000", "085127.284000", "085127.287000", "085127.289000", "085127.292000", "085127.294000", "085127.297000", "085207.234000", "085207.237000", "085207.240000", "085207.250000", "085207.253000", "085207.256000", "085207.258000", "085207.261000", "085207.263000", "085207.266000", "085207.269000", "085207.271000", "085207.274000", "085207.277000", "085207.279000", "085207.289000", "085207.291000", "085207.294000", "085207.296000", "085207.299000", "085247.235000", "085247.237000", "085247.240000", "085247.243000", "085247.245000", "085247.248000", "085247.251000", "085247.253000", "085247.256000", "085247.259000", "085247.261000", "085247.264000", "085247.267000", "085247.269000", "085247.272000", "085247.274000", "085247.277000", "085247.280000", "085247.282000", "085247.285000", "085327.235000", "085327.238000", "085327.241000", "085327.244000", "085327.246000", "085327.249000", "085327.252000", "085327.254000", "085327.257000", "085327.260000", "085327.262000", "085327.265000", "085327.267000", "085327.270000", "085327.273000", "085327.275000", "085327.278000", "085327.280000", "085327.283000", "085327.286000", "085407.234000", "085407.237000", "085407.240000", "085407.243000", "085407.245000", "085407.248000", "085407.251000", "085407.253000", "085407.256000", "085407.259000", "085407.261000", "085407.264000", "085407.266000", "085407.269000", "085407.272000", "085407.274000", "085407.277000", "085407.280000", "085407.282000", "085407.285000", "085447.235000", "085447.237000", "085447.240000", "085447.243000", "085447.245000", "085447.248000", "085447.250000", "085447.253000", "085447.256000", "085447.259000", "085447.261000", "085447.264000", "085447.267000", "085447.269000", "085447.272000", "085447.275000", "085447.277000", "085447.280000", "085447.282000", "085447.285000", "085527.235000", "085527.238000", "085527.240000", "085527.243000", "085527.246000", "085527.248000", "085527.251000", "085527.254000", "085527.256000", "085527.259000", "085527.261000", "085527.264000", "085527.267000", "085527.269000", "085527.272000", "085527.275000", "085527.277000", "085527.280000", "085527.282000", "085527.285000", "085607.234000", "085607.237000", "085607.240000", "085607.243000", "085607.245000", "085607.248000", "085607.250000", "085607.253000", "085607.256000", "085607.258000", "085607.261000", "085607.264000", "085607.267000", "085607.269000", "085607.272000", "085607.275000", "085607.277000", "085607.280000", "085607.282000", "085607.285000", "085647.235000", "085647.237000", "085647.240000", "085647.243000", "085647.246000", "085647.248000", "085647.251000", "085647.253000", "085647.256000", "085647.259000", "085647.261000", "085647.264000", "085647.267000", "085647.269000", "085647.272000", "085647.275000", "085647.285000", "085647.288000", "085647.290000", "085647.293000", "085722.563000", "085722.566000", "085722.568000", "085722.571000", "085722.574000", "085722.577000", "085722.579000", "085722.582000", "085722.585000", "085722.587000", "085722.590000", "085722.597000", "085722.603000", "085722.609000", "085722.613000", "085722.617000", "085722.620000", "085722.623000"],
      "InstanceNumber": [1, 2, 3, 4, 5, 6, 7, 8, 9, 10, 11, 12, 13, 14, 15, 16, 17, 18, 19, 20, 21, 22, 23, 24, 25, 26, 27, 28, 29, 30, 31, 32, 33, 34, 35, 36, 37, 38, 39, 40, 41, 42, 43, 44, 45, 46, 47, 48, 49, 50, 51, 52, 53, 54, 55, 56, 57, 58, 59, 60, 61, 62, 63, 64, 65, 66, 67, 68, 69, 70, 71, 72, 73, 74, 75, 76, 77, 78, 79, 80, 81, 82, 83, 84, 85, 86, 87, 88, 89, 90, 91, 92, 93, 94, 95, 96, 97, 98, 99, 100, 101, 102, 103, 104, 105, 106, 107, 108, 109, 110, 111, 112, 113, 114, 115, 116, 117, 118, 119, 120, 121, 122, 123, 124, 125, 126, 127, 128, 129, 130, 131, 132, 133, 134, 135, 136, 137, 138, 139, 140, 141, 142, 143, 144, 145, 146, 147, 148, 149, 150, 151, 152, 153, 154, 155, 156, 157, 158, 159, 160, 161, 162, 163, 164, 165, 166, 167, 168, 169, 170, 171, 172, 173, 174, 175, 176, 177, 178, 179, 180, 181, 182, 183, 184, 185, 186, 187, 188, 189, 190, 191, 192, 193, 194, 195, 196, 197, 198, 199, 200],
      "LargestImagePixelValue": [1983, 1987, 2011, 1993, 1988, 1993, 1999, 2000, 2010, 2023, 2017, 2013, 2017, 2021, 1995, 2003, 2006, 1994, 2006, 1988, 1991, 2001, 2011, 2003, 1999, 1983, 1977, 1974, 1979, 1988, 1987, 1979, 1974, 1976, 1978, 1989, 1993, 2003, 2004, 2013, 2007, 1999, 1990, 1988, 1994, 1992, 2001, 2010, 2016, 2016, 2023, 2015, 2021, 2015, 2017, 2010, 2017, 2016, 2018, 2025, 2037, 2042, 2039, 2033, 2041, 2050, 2048, 2046, 2044, 2048, 2041, 2043, 2046, 2050, 2058, 2056, 2057, 2052, 2058, 2054, 2050, 2061, 2067, 2055, 2066, 2064, 2070, 2065, 2069, 2070, 2069, 2081, 2074, 2083, 2084, 2087, 2087, 2091, 2081, 2085, 2095, 2100, 2106, 2098, 2103, 2105, 2095, 2103, 2105, 2094, 2083, 2099, 2092, 2092, 2091, 2090, 2088, 2086, 2087, 2084, 2079, 2087, 2081, 2089, 2092, 2111, 2110, 2098, 2094, 2098, 2095, 2095, 2091, 2101, 2099, 2102, 2096, 2097, 2099, 2100, 2091, 2095, 2098, 2102, 2108, 2105, 2097, 2089, 2087, 2101, 2093, 2108, 2102, 2102, 2106, 2105, 2107, 2097, 2083, 2089, 2095, 2098, 2096, 2081, 2083, 2080, 2089, 2092, 2082, 2068, 2068, 2075, 2069, 2064, 2072, 2079, 2072, 2073, 2060, 2073, 2076, 2073, 2067, 2069, 2070, 2061, 2061, 2063, 2060, 2062, 2074, 2062, 2060, 2065, 2072, 2073, 2071, 2067, 2075, 2086],
      "WindowCenter": [983.0, 983.0, 983.0, 983.0, 983.0, 983.0, 983.0, 983.0, 983.0, 983.0, 983.0, 984.0, 983.0, 983.0, 983.0, 983.0, 983.0, 983.0, 983.0, 983.0, 983.0, 983.0, 983.0, 983.0, 983.0, 983.0, 984.0, 984.0, 983.0, 983.0, 983.0, 984.0, 984.0, 983.0, 983.0, 983.0, 983.0, 983.0, 983.0, 983.0, 983.0, 983.0, 983.0, 983.0, 983.0, 983.0, 983.0, 983.0, 983.0, 983.0, 983.0, 984.0, 983.0, 983.0, 983.0, 983.0, 983.0, 983.0, 983.0, 983.0, 984.0, 983.0, 984.0, 983.0, 983.0, 983.0, 983.0, 983.0, 983.0, 984.0, 983.0, 983.0, 983.0, 982.0, 982.0, 982.0, 982.0, 983.0, 983.0, 983.0, 983.0, 983.0, 983.0, 983.0, 983.0, 983.0, 982.0, 982.0, 982.0, 983.0, 983.0, 982.0, 983.0, 982.0, 983.0, 983.0, 983.0, 983.0, 983.0, 982.0, 982.0, 982.0, 982.0, 982.0, 982.0, 982.0, 982.0, 982.0, 982.0, 982.0, 982.0, 982.0, 982.0, 982.0, 982.0, 983.0, 982.0, 982.0, 982.0, 982.0, 982.0, 982.0, 982.0, 982.0, 982.0, 983.0, 982.0, 982.0, 982.0, 982.0, 982.0, 982.0, 982.0, 982.0, 982.0, 983.0, 982.0, 983.0, 982.0, 982.0, 983.0, 982.0, 982.0, 982.0, 983.0, 982.0, 982.0, 982.0, 982.0, 983.0, 982.0, 982.0, 982.0, 982.0, 982.0, 982.0, 982.0, 982.0, 982.0, 982.0, 983.0, 982.0, 982.0, 982.0, 982.0, 982.0, 982.0, 982.0, 982.0, 982.0, 982.0, 982.0, 982.0, 982.0, 982.0, 982.0, 983.0, 982.0, 982.0, 982.0, 982.0, 982.0, 982.0, 982.0, 982.0, 982.0, 982.0, 982.0, 982.0, 983.0, 982.0, 982.0, 982.0, 982.0, 981.0, 982.0, 982.0, 982.0, 982.0, 982.0],
      "WindowWidth": [2149.0, 2149.0, 2149.0, 2149.0, 2149.0, 2149.0, 2149.0, 2149.0, 2149.0, 2148.0, 2149.0, 2149.0, 2149.0, 2149.0, 2149.0, 2148.0, 2148.0, 2148.0, 2149.0, 2148.0, 2148.0, 2148.0, 2148.0, 2148.0, 2148.0, 2148.0, 2149.0, 2149.0, 2148.0, 2148.0, 2149.0, 2149.0, 2149.0, 2148.0, 2148.0, 2148.0, 2148.0, 2148.0, 2148.0, 2149.0, 2148.0, 2149.0, 2149.0, 2149.0, 2149.0, 2149.0, 2148.0, 2149.0, 2148.0, 2148.0, 2149.0, 2149.0, 2149.0, 2148.0, 2148.0, 2148.0, 2149.0, 2148.0, 2148.0, 2148.0, 2149.0, 2149.0, 2149.0, 2148.0, 2148.0, 2148.0, 2148.0, 2148.0, 2148.0, 2149.0, 2148.0, 2148.0, 2148.0, 2148.0, 2148.0, 2148.0, 2148.0, 2148.0, 2148.0, 2148.0, 2148.0, 2149.0, 2148.0, 2148.0, 2148.0, 2148.0, 2148.0, 2148.0, 2148.0, 2148.0, 2148.0, 2148.0, 2148.0, 2148.0, 2149.0, 2148.0, 2148.0, 2148.0, 2149.0, 2148.0, 2148.0, 2148.0, 2148.0, 2148.0, 2148.0, 2148.0, 2148.0, 2148.0, 2148.0, 2148.0, 2148.0, 2148.0, 2148.0, 2148.0, 2148.0, 2149.0, 2148.0, 2148.0, 2148.0, 2148.0, 2148.0, 2148.0, 2148.0, 2148.0, 2148.0, 2148.0, 2148.0, 2148.0, 2148.0, 2148.0, 2148.0, 2148.0, 2148.0, 2148.0, 2148.0, 2148.0, 2148.0, 2148.0, 2148.0, 2148.0, 2148.0, 2148.0, 2148.0, 2148.0, 2148.0, 2148.0, 2148.0, 2148.0, 2148.0, 2148.0, 2148.0, 2148.0, 2148.0, 2148.0, 2148.0, 2148.0, 2148.0, 2148.0, 2148.0, 2148.0, 2148.0, 2147.0, 2148.0, 2148.0, 2147.0, 2148.0, 2148.0, 2148.0, 2148.0, 2148.0, 2148.0, 2147.0, 2147.0, 2147.0, 2147.0, 2147.0, 2148.0, 2147.0, 2147.0, 2147.0, 2147.0, 2147.0, 2147.0, 2147.0, 2147.0, 2147.0, 2148.0, 2147.0, 2147.0, 2148.0, 2147.0, 2147.0, 2147.0, 2147.0, 2146.0, 2147.0, 2147.0, 2146.0, 2146.0, 2146.0]
    },
    "slices": {}
  }
}