{
  "AcquisitionMatrixPE": 80,
  "AcquisitionNumber": 1,
  "AcquisitionTime": "08:57:37.147500",
  "BandwidthPerPixelPhaseEncode": 44.643,
  "BaseResolution": 80,
  "BodyPartExamined": "BRAIN",
  "CoilCombinationMethod": "Sum of Squares",
  "ConsistencyInfo": "N4_VE11C_LATEST_20160120",
  "ConversionSoftware": "dcm2niix",
  "ConversionSoftwareVersion": "v1.0.20220720",
  "DerivedVendorReportedEchoSpacing": 0.000559998,
  "DeviceSerialNumber": "66112",
  "DwellTime": 2.7e-06,
  "EchoTime": 0.035,
  "EchoTrainLength": 39,
  "EffectiveEchoSpacing": 0.000279999,
  "FlipAngle": 90,
  "HeudiconvVersion": "0.13.1",
  "ImageOrientationPatientDICOM": [0.988097, -0.15371, 0.00605951, 0.138165, 0.904105, 0.404357],
  "ImageOrientationText": "Tra>Cor(23.6)>Sag(3.9)",
  "ImageType": [
    "ORIGINAL",
    "PRIMARY",
    "M",
    "ND",
    "NORM",
    "MOSAIC"
],
  "ImagingFrequency": 123.253,
  "InPlanePhaseEncodingDirectionDICOM": "COL",
  "InstitutionAddress": "Maynard 3,Hanover,NH,US,03755",
  "InstitutionName": "Dartmouth College - PBS",
  "InstitutionalDepartmentName": "Department",
  "MRAcquisitionType": "2D",
  "MagneticFieldStrength": 3,
  "Manufacturer": "Siemens",
  "ManufacturersModelName": "Prisma",
  "Modality": "MR",
  "MultibandAccelerationFactor": 4,
  "NonlinearGradientCorrection": false,
  "ParallelReductionFactorInPlane": 2,
  "PartialFourier": 1,
  "PatientPosition": "HFS",
  "PercentPhaseFOV": 100,
  "PercentSampling": 100,
  "PhaseEncodingDirection": "j-",
  "PhaseEncodingSteps": 79,
  "PhaseResolution": 1,
  "PixelBandwidth": 2315,
  "ProcedureStepDescription": "dbic^QA",
  "ProtocolName": "func-bold_task-rest_acq-p2-s4-3.5mm",
  "PulseSequenceDetails": "%SiemensSeq%\\ep2d_bold",
  "ReceiveCoilActiveElements": "HEA;HEP",
  "ReceiveCoilName": "Head_32",
  "ReconMatrixPE": 80,
  "RefLinesPE": 24,
  "RepetitionTime": 2,
  "SAR": 0.0208833,
  "ScanOptions": "FS",
  "ScanningSequence": "EP",
  "SequenceName": "*epfid2d1_80",
  "SequenceVariant": "SK",
  "SeriesDescription": "func-bold_task-rest_acq-p2-s4-3.5mm",
  "SeriesNumber": 7,
  "ShimSetting": [4152, -7700, -7509, 270, -68, -193, -48, 112],
  "SliceThickness": 3.5,
  "SliceTiming": [1.485, 0, 0.99, 0.2475, 1.2375, 0.7425, 1.7325, 0.495, 1.485, 0, 0.99, 0.2475, 1.2375, 0.7425, 1.7325, 0.495, 1.485, 0, 0.99, 0.2475, 1.2375, 0.7425, 1.7325, 0.495, 1.485, 0, 0.99, 0.2475, 1.2375, 0.7425, 1.7325, 0.495],
  "SoftwareVersions": "syngo MR E11",
  "SpacingBetweenSlices": 3.99,
  "StationName": "AWP66112",
  "TaskName": "rest",
  "TotalReadoutTime": 0.0221199,
  "TxRefAmp": 229.967,
  "dcmmeta_affine": [
    [-2.964292049407959, 0.4144939184188843, 0.26985296607017517, 98.304443359375],
    [0.46113112568855286, 2.712315082550049, 1.5908410549163818, -134.86361694335938],
    [0.01817851886153221, -1.2130714654922485, 3.6491785049438477, -14.84048080444336],
    [0.0, 0.0, 0.0, 1.0]
],
  "dcmmeta_reorient_transform": [
    [0.0, -1.0, 0.0, 79.0],
    [1.0, 0.0, 0.0, 0.0],
    [0.0, 0.0, 1.0, 0.0],
    [0.0, 0.0, 0.0, 1.0]
],
  "dcmmeta_shape": [80, 80, 32, 200],
  "dcmmeta_slice_dim": 2,
  "dcmmeta_version": 0.6,
  "global": {
    "const": {
      "AccessionNumber": "qa",
      "AcquisitionMatrix": [80, 0, 0, 80],
      "AngioFlag": "N",
      "BitsAllocated": 16,
      "BitsStored": 12,
      "BodyPartExamined": "BRAIN",
      "Columns": 480,
      "EchoNumbers": 1,
      "EchoTime": 35.0,
      "EchoTrainLength": 39,
      "FlipAngle": 90.0,
      "HighBit": 11,
      "ImageOrientationPatient": [0.98809736472997, -0.153710377657, 0.00605950610611, 0.13816463801058, 0.90410498907605, 0.40435714601228],
      "ImagePositionPatient": [-806.80666796273, -529.64603581012, -356.92311574595],
      "ImageType": [
        "ORIGINAL",
        "PRIMARY",
        "M",
        "ND",
        "NORM",
        "MOSAIC"
],
      "ImagedNucleus": "1H",
      "ImagingFrequency": 123.252552,
      "InPlanePhaseEncodingDirection": "COL",
      "MRAcquisitionType": "2D",
      "MagneticFieldStrength": 3.0,
      "Manufacturer": "SIEMENS",
      "ManufacturerModelName": "Prisma",
      "Modality": "MR",
      "NumberOfAverages": 1.0,
      "NumberOfPhaseEncodingSteps": 79,
      "PercentPhaseFieldOfView": 100.0,
      "PercentSampling": 100.0,
      "PerformedProcedureStepStartTime": "084908.123000",
      "PhotometricInterpretation": "MONOCHROME2",
      "PixelBandwidth": 2315.0,
      "PixelRepresentation": 0,
      "PixelSpacing": [3.0, 3.0],
      "ProtocolName": "func-bold_task-rest_acq-p2-s4-3.5mm",
      "RepetitionTime": 2000.0,
      "Rows": 480,
      "SAR": 0.02088332575038,
      "SamplesPerPixel": 1,
      "ScanOptions": "FS",
      "ScanningSequence": "EP",
      "SequenceName": "*epfid2d1_80",
      "SequenceVariant": "SK",
      "SeriesDescription": "func-bold_task-rest_acq-p2-s4-3.5mm",
      "SeriesNumber": 7,
      "SeriesTime": "085827.307000",
      "SliceLocation": -60.695335048554,
      "SliceThickness": 3.5,
      "SmallestImagePixelValue": 0,
      "SoftwareVersions": "syngo MR E11",
      "SpacingBetweenSlices": 3.9899999569235,
      "SpecificCharacterSet": "ISO_IR 100",
      "StudyID": "2",
      "StudyTime": "084908.049000",
      "TransmitCoilName": "Body",
      "VariableFlipAngleFlag": "N",
      "WindowCenterWidthExplanation": "Algo1",
      "dBdt": 0.0},
    "slices": {}
  },
  "time": {
    "samples": {
      "AcquisitionNumber": [1, 2, 3, 4, 5, 6, 7, 8, 9, 10, 11, 12, 13, 14, 15, 16, 17, 18, 19, 20, 21, 22, 23, 24, 25, 26, 27, 28, 29, 30, 31, 32, 33, 34, 35, 36, 37, 38, 39, 40, 41, 42, 43, 44, 45, 46, 47, 48, 49, 50, 51, 52, 53, 54, 55, 56, 57, 58, 59, 60, 61, 62, 63, 64, 65, 66, 67, 68, 69, 70, 71, 72, 73, 74, 75, 76, 77, 78, 79, 80, 81, 82, 83, 84, 85, 86, 87, 88, 89, 90, 91, 92, 93, 94, 95, 96, 97, 98, 99, 100, 101, 102, 103, 104, 105, 106, 107, 108, 109, 110, 111, 112, 113, 114, 115, 116, 117, 118, 119, 120, 121, 122, 123, 124, 125, 126, 127, 128, 129, 130, 131, 132, 133, 134, 135, 136, 137, 138, 139, 140, 141, 142, 143, 144, 145, 146, 147, 148, 149, 150, 151, 152, 153, 154, 155, 156, 157, 158, 159, 160, 161, 162, 163, 164, 165, 166, 167, 168, 169, 170, 171, 172, 173, 174, 175, 176, 177, 178, 179, 180, 181, 182, 183, 184, 185, 186, 187, 188, 189, 190, 191, 192, 193, 194, 195, 196, 197, 198, 199, 200],
      "AcquisitionTime": ["085737.147500", "085739.147500", "085741.147500", "085743.147500", "085745.147500", "085747.147500", "085749.147500", "085751.147500", "085753.147500", "085755.147500", "085757.147500", "085759.147500", "085801.147500", "085803.147500", "085805.147500", "085807.147500", "085809.147500", "085811.147500", "085813.147500", "085815.147500", "085817.147500", "085819.147500", "085821.147500", "085823.147500", "085825.147500", "085827.147500", "085829.147500", "085831.147500", "085833.147500", "085835.147500", "085837.147500", "085839.147500", "085841.147500", "085843.147500", "085845.147500", "085847.147500", "085849.147500", "085851.147500", "085853.147500", "085855.147500", "085857.147500", "085859.147500", "085901.147500", "085903.147500", "085905.147500", "085907.147500", "085909.147500", "085911.147500", "085913.147500", "085915.147500", "085917.147500", "085919.147500", "085921.147500", "085923.147500", "085925.147500", "085927.147500", "085929.147500", "085931.147500", "085933.147500", "085935.147500", "085937.147500", "085939.147500", "085941.147500", "085943.147500", "085945.147500", "085947.147500", "085949.147500", "085951.147500", "085953.147500", "085955.147500", "085957.147500", "085959.147500", "090001.147500", "090003.147500", "090005.147500", "090007.147500", "090009.147500", "090011.147500", "090013.147500", "090015.147500", "090017.147500", "090019.147500", "090021.147500", "090023.147500", "090025.147500", "090027.147500", "090029.147500", "090031.147500", "090033.147500", "090035.147500", "090037.147500", "090039.147500", "090041.147500", "090043.147500", "090045.147500", "090047.147500", "090049.147500", "090051.147500", "090053.147500", "090055.147500", "090057.147500", "090059.147500", "090101.147500", "090103.147500", "090105.147500", "090107.147500", "090109.147500", "090111.147500", "090113.147500", "090115.147500", "090117.147500", "090119.147500", "090121.147500", "090123.147500", "090125.147500", "090127.147500", "090129.147500", "090131.147500", "090133.147500", "090135.147500", "090137.147500", "090139.147500", "090141.147500", "090143.147500", "090145.147500", "090147.147500", "090149.147500", "090151.147500", "090153.147500", "090155.147500", "090157.147500", "090159.147500", "090201.147500", "090203.147500", "090205.147500", "090207.147500", "090209.147500", "090211.147500", "090213.147500", "090215.147500", "090217.147500", "090219.147500", "090221.147500", "090223.147500", "090225.147500", "090227.147500", "090229.147500", "090231.147500", "090233.147500", "090235.147500", "090237.147500", "090239.147500", "090241.147500", "090243.147500", "090245.147500", "090247.147500", "090249.147500", "090251.147500", "090253.147500", "090255.147500", "090257.147500", "090259.147500", "090301.147500", "090303.147500", "090305.147500", "090307.147500", "090309.147500", "090311.147500", "090313.147500", "090315.147500", "090317.147500", "090319.147500", "090321.147500", "090323.147500", "090325.147500", "090327.147500", "090329.147500", "090331.147500", "090333.147500", "090335.147500", "090337.147500", "090339.147500", "090341.147500", "090343.147500", "090345.147500", "090347.147500", "090349.147500", "090351.147500", "090353.147500", "090355.147500", "090357.147500", "090359.147500", "090401.147500", "090403.147500", "090405.147500", "090407.147500", "090409.147500", "090411.147500", "090413.147500", "090415.147500"],
      "ContentTime": ["085827.310000", "085827.314000", "085827.316000", "085827.319000", "085827.322000", "085827.324000", "085827.327000", "085827.337000", "085827.340000", "085827.342000", "085827.345000", "085827.350000", "085827.353000", "085827.355000", "085827.367000", "085827.370000", "085827.373000", "085827.375000", "085827.378000", "085827.380000", "085827.383000", "085827.386000", "085827.389000", "085827.391000", "085827.394000", "085907.306000", "085907.308000", "085907.315000", "085907.318000", "085907.320000", "085907.323000", "085907.326000", "085907.328000", "085907.331000", "085907.333000", "085907.336000", "085907.339000", "085907.341000", "085907.344000", "085907.347000", "085907.349000", "085907.361000", "085907.363000", "085907.366000", "085907.369000", "085947.306000", "085947.309000", "085947.311000", "085947.314000", "085947.317000", "085947.319000", "085947.322000", "085947.325000", "085947.328000", "085947.330000", "085947.333000", "085947.336000", "085947.346000", "085947.349000", "085947.351000", "085947.354000", "085947.357000", "085947.359000", "085947.362000", "085947.365000", "090027.307000", "090027.309000", "090027.312000", "090027.315000", "090027.318000", "090027.320000", "090027.323000", "090027.326000", "090027.328000", "090027.331000", "090027.333000", "090027.336000", "090027.339000", "090027.341000", "090027.344000", "090027.347000", "090027.349000", "090027.352000", "090027.355000", "090027.357000", "090107.306000", "090107.309000", "090107.311000", "090107.314000", "090107.317000", "090107.319000", "090107.322000", "090107.325000", "090107.327000", "090107.330000", "090107.333000", "090107.335000", "090107.338000", "090107.340000", "090107.343000", "090107.346000", "090107.348000", "090107.351000", "090107.354000", "090107.356000", "090147.306000", "090147.308000", "090147.311000", "090147.314000", "090147.317000", "090147.319000", "090147.322000", "090147.325000", "090147.327000", "090147.330000", "090147.332000", "090147.335000", "090147.338000", "090147.340000", "090147.343000", "090147.346000", "090147.348000", "090147.351000", "090147.353000", "090147.356000", "090227.305000", "090227.308000", "090227.311000", "090227.314000", "090227.316000", "090227.319000", "090227.322000", "090227.324000", "090227.327000", "090227.330000", "090227.332000", "090227.335000", "090227.338000", "090227.340000", "090227.343000", "090227.346000", "090227.348000", "090227.351000", "090227.353000", "090227.356000", "090307.306000", "090307.309000", "090307.311000", "090307.330000", "090307.333000", "090307.335000", "090307.338000", "090307.341000", "090307.343000", "090307.346000", "090307.349000", "090307.351000", "090307.354000", "090307.356000", "090307.359000", "090307.362000", "090307.364000", "090307.367000", "090307.370000", "090307.372000", "090347.306000", "090347.309000", "090347.311000", "090347.314000", "090347.317000", "090347.319000", "090347.322000", "090347.325000", "090347.327000", "090347.330000", "090347.333000", "090347.335000", "090347.338000", "090347.340000", "090347.343000", "090347.346000", "090347.348000", "090347.351000", "090347.354000", "090347.356000", "090416.612000", "090416.615000", "090416.618000", "090416.620000", "090416.623000", "090416.626000", "090416.629000", "090416.631000", "090416.634000", "090416.637000", "090416.639000", "090416.643000", "090416.650000", "090416.653000", "090416.656000"],
      "InstanceCreationTime": ["085827.310000", "085827.314000", "085827.316000", "085827.319000", "085827.322000", "085827.324000", "085827.327000", "085827.337000", "085827.340000", "085827.342000", "085827.345000", "085827.350000", "085827.353000", "085827.355000", "085827.367000", "085827.370000", "085827.373000", "085827.375000", "085827.378000", "085827.380000", "085827.383000", "085827.386000", "085827.389000", "085827.391000", "085827.394000", "085907.306000", "085907.308000", "085907.315000", "085907.318000", "085907.320000", "085907.323000", "085907.326000", "085907.328000", "085907.331000", "085907.333000", "085907.336000", "085907.339000", "085907.341000", "085907.344000", "085907.347000", "085907.349000", "085907.361000", "085907.363000", "085907.366000", "085907.369000", "085947.306000", "085947.309000", "085947.311000", "085947.314000", "085947.317000", "085947.319000", "085947.322000", "085947.325000", "085947.328000", "085947.330000", "085947.333000", "085947.336000", "085947.346000", "085947.349000", "085947.351000", "085947.354000", "085947.357000", "085947.359000", "085947.362000", "085947.365000", "090027.307000", "090027.309000", "090027.312000", "090027.315000", "090027.318000", "090027.320000", "090027.323000", "090027.326000", "090027.328000", "090027.331000", "090027.333000", "090027.336000", "090027.339000", "090027.341000", "090027.344000", "090027.347000", "090027.349000", "090027.352000", "090027.355000", "090027.357000", "090107.306000", "090107.309000", "090107.311000", "090107.314000", "090107.317000", "090107.319000", "090107.322000", "090107.325000", "090107.327000", "090107.330000", "090107.333000", "090107.335000", "090107.338000", "090107.340000", "090107.343000", "090107.346000", "090107.348000", "090107.351000", "090107.354000", "090107.356000", "090147.306000", "090147.308000", "090147.311000", "090147.314000", "090147.317000", "090147.319000", "090147.322000", "090147.325000", "090147.327000", "090147.330000", "090147.332000", "090147.335000", "090147.338000", "090147.340000", "090147.343000", "090147.346000", "090147.348000", "090147.351000", "090147.353000", "090147.356000", "090227.305000", "090227.308000", "090227.311000", "090227.314000", "090227.316000", "090227.319000", "090227.322000", "090227.324000", "090227.327000", "090227.330000", "090227.332000", "090227.335000", "090227.338000", "090227.340000", "090227.343000", "090227.346000", "090227.348000", "090227.351000", "090227.353000", "090227.356000", "090307.306000", "090307.309000", "090307.311000", "090307.330000", "090307.333000", "090307.335000", "090307.338000", "090307.341000", "090307.343000", "090307.346000", "090307.349000", "090307.351000", "090307.354000", "090307.356000", "090307.359000", "090307.362000", "090307.364000", "090307.367000", "090307.370000", "090307.372000", "090347.306000", "090347.309000", "090347.311000", "090347.314000", "090347.317000", "090347.319000", "090347.322000", "090347.325000", "090347.327000", "090347.330000", "090347.333000", "090347.335000", "090347.338000", "090347.340000", "090347.343000", "090347.346000", "090347.348000", "090347.351000", "090347.354000", "090347.356000", "090416.612000", "090416.615000", "090416.618000", "090416.620000", "090416.623000", "090416.626000", "090416.629000", "090416.631000", "090416.634000", "090416.637000", "090416.639000", "090416.643000", "090416.650000", "090416.653000", "090416.656000"],
      "InstanceNumber": [1, 2, 3, 4, 5, 6, 7, 8, 9, 10, 11, 12, 13, 14, 15, 16, 17, 18, 19, 20, 21, 22, 23, 24, 25, 26, 27, 28, 29, 30, 31, 32, 33, 34, 35, 36, 37, 38, 39, 40, 41, 42, 43, 44, 45, 46, 47, 48, 49, 50, 51, 52, 53, 54, 55, 56, 57, 58, 59, 60, 61, 62, 63, 64, 65, 66, 67, 68, 69, 70, 71, 72, 73, 74, 75, 76, 77, 78, 79, 80, 81, 82, 83, 84, 85, 86, 87, 88, 89, 90, 91, 92, 93, 94, 95, 96, 97, 98, 99, 100, 101, 102, 103, 104, 105, 106, 107, 108, 109, 110, 111, 112, 113, 114, 115, 116, 117, 118, 119, 120, 121, 122, 123, 124, 125, 126, 127, 128, 129, 130, 131, 132, 133, 134, 135, 136, 137, 138, 139, 140, 141, 142, 143, 144, 145, 146, 147, 148, 149, 150, 151, 152, 153, 154, 155, 156, 157, 158, 159, 160, 161, 162, 163, 164, 165, 166, 167, 168, 169, 170, 171, 172, 173, 174, 175, 176, 177, 178, 179, 180, 181, 182, 183, 184, 185, 186, 187, 188, 189, 190, 191, 192, 193, 194, 195, 196, 197, 198, 199, 200],
      "LargestImagePixelValue": [2071, 2077, 2080, 2083, 2076, 2077, 2079, 2090, 2091, 2087, 2080, 2084, 2081, 2083, 2083, 2074, 2077, 2078, 2072, 2070, 2067, 2069, 2069, 2070, 2072, 2063, 2070, 2062, 2067, 2076, 2082, 2077, 2082, 2080, 2086, 2089, 2087, 2090, 2089, 2075, 2078, 2080, 2084, 2074, 2084, 2078, 2075, 2077, 2078, 2070, 2076, 2071, 2072, 2074, 2068, 2080, 2076, 2075, 2077, 2079, 2080, 2079, 2080, 2081, 2082, 2082, 2077, 2066, 2073, 2068, 2071, 2064, 2053, 2047, 2047, 2039, 2034, 2038, 2034, 2041, 2036, 2035, 2041, 2036, 2035, 2029, 2024, 2021, 2028, 2029, 2022, 2020, 2018, 2016, 2021, 2031, 2047, 2059, 2052, 2051, 2059, 2049, 2053, 2053, 2052, 2057, 2058, 2062, 2059, 2062, 2066, 2069, 2071, 2065, 2070, 2071, 2072, 2068, 2074, 2077, 2076, 2076, 2069, 2064, 2071, 2070, 2067, 2074, 2072, 2067, 2067, 2070, 2063, 2067, 2058, 2066, 2066, 2072, 2071, 2072, 2069, 2073, 2068, 2076, 2069, 2075, 2074, 2077, 2074, 2077, 2074, 2078, 2076, 2067, 2068, 2066, 2070, 2073, 2071, 2075, 2074, 2067, 2071, 2069, 2070, 2064, 2071, 2068, 2080, 2079, 2073, 2073, 2064, 2060, 2058, 2059, 2056, 2060, 2058, 2059, 2053, 2058, 2069, 2068, 2065, 2068, 2073, 2078, 2076, 2072, 2070, 2072, 2069, 2076, 2072, 2071, 2068, 2065, 2074, 2076],
      "WindowCenter": [917.0, 917.0, 917.0, 917.0, 918.0, 917.0, 917.0, 917.0, 917.0, 917.0, 917.0, 917.0, 917.0, 917.0, 917.0, 917.0, 917.0, 918.0, 917.0, 917.0, 918.0, 918.0, 917.0, 918.0, 917.0, 917.0, 918.0, 918.0, 918.0, 917.0, 918.0, 917.0, 918.0, 918.0, 918.0, 918.0, 918.0, 918.0, 918.0, 918.0, 918.0, 918.0, 918.0, 918.0, 918.0, 918.0, 918.0, 918.0, 918.0, 918.0, 918.0, 918.0, 918.0, 918.0, 918.0, 918.0, 918.0, 918.0, 918.0, 918.0, 918.0, 918.0, 918.0, 918.0, 918.0, 918.0, 918.0, 918.0, 918.0, 918.0, 918.0, 918.0, 918.0, 918.0, 918.0, 918.0, 918.0, 918.0, 918.0, 918.0, 918.0, 918.0, 918.0, 918.0, 918.0, 918.0, 918.0, 918.0, 918.0, 918.0, 918.0, 918.0, 918.0, 918.0, 918.0, 918.0, 918.0, 918.0, 918.0, 918.0, 918.0, 918.0, 918.0, 918.0, 918.0, 918.0, 918.0, 918.0, 918.0, 918.0, 918.0, 918.0, 918.0, 918.0, 918.0, 918.0, 918.0, 918.0, 918.0, 918.0, 918.0, 918.0, 918.0, 918.0, 918.0, 918.0, 918.0, 918.0, 918.0, 918.0, 918.0, 918.0, 918.0, 918.0, 918.0, 918.0, 918.0, 918.0, 918.0, 918.0, 918.0, 918.0, 918.0, 918.0, 918.0, 918.0, 918.0, 918.0, 918.0, 918.0, 918.0, 918.0, 918.0, 918.0, 918.0, 918.0, 918.0, 918.0, 918.0, 918.0, 918.0, 918.0, 918.0, 918.0, 918.0, 918.0, 918.0, 918.0, 918.0, 918.0, 918.0, 918.0, 918.0, 918.0, 918.0, 918.0, 918.0, 918.0, 918.0, 918.0, 918.0, 918.0, 918.0, 918.0, 918.0, 918.0, 918.0, 918.0, 918.0, 918.0, 918.0, 918.0, 918.0, 918.0, 918.0, 918.0, 918.0, 918.0, 918.0, 918.0],
      "WindowWidth": [2082.0, 2082.0, 2082.0, 2082.0, 2082.0, 2082.0, 2082.0, 2082.0, 2082.0, 2082.0, 2082.0, 2082.0, 2083.0, 2082.0, 2082.0, 2082.0, 2082.0, 2082.0, 2083.0, 2082.0, 2082.0, 2082.0, 2082.0, 2082.0, 2082.0, 2082.0, 2082.0, 2082.0, 2082.0, 2083.0, 2083.0, 2083.0, 2083.0, 2082.0, 2082.0, 2082.0, 2083.0, 2082.0, 2082.0, 2082.0, 2082.0, 2082.0, 2083.0, 2082.0, 2082.0, 2082.0, 2082.0, 2083.0, 2082.0, 2082.0, 2082.0, 2082.0, 2082.0, 2082.0, 2083.0, 2083.0, 2082.0, 2082.0, 2082.0, 2082.0, 2082.0, 2082.0, 2082.0, 2082.0, 2082.0, 2082.0, 2082.0, 2082.0, 2082.0, 2082.0, 2082.0, 2082.0, 2082.0, 2082.0, 2082.0, 2082.0, 2082.0, 2082.0, 2082.0, 2082.0, 2082.0, 2082.0, 2082.0, 2082.0, 2082.0, 2082.0, 2082.0, 2082.0, 2082.0, 2083.0, 2083.0, 2082.0, 2083.0, 2083.0, 2082.0, 2083.0, 2083.0, 2083.0, 2083.0, 2083.0, 2083.0, 2083.0, 2083.0, 2083.0, 2083.0, 2083.0, 2083.0, 2083.0, 2083.0, 2083.0, 2082.0, 2082.0, 2082.0, 2082.0, 2082.0, 2082.0, 2082.0, 2082.0, 2082.0, 2082.0, 2082.0, 2082.0, 2082.0, 2082.0, 2082.0, 2082.0, 2082.0, 2082.0, 2082.0, 2082.0, 2082.0, 2082.0, 2082.0, 2082.0, 2082.0, 2082.0, 2082.0, 2082.0, 2082.0, 2082.0, 2082.0, 2082.0, 2082.0, 2082.0, 2082.0, 2082.0, 2082.0, 2082.0, 2082.0, 2082.0, 2082.0, 2082.0, 2082.0, 2082.0, 2082.0, 2082.0, 2082.0, 2082.0, 2082.0, 2082.0, 2082.0, 2082.0, 2082.0, 2082.0, 2082.0, 2082.0, 2082.0, 2082.0, 2082.0, 2082.0, 2082.0, 2082.0, 2082.0, 2082.0, 2082.0, 2082.0, 2081.0, 2082.0, 2081.0, 2082.0, 2081.0, 2081.0, 2082.0, 2082.0, 2082.0, 2082.0, 2082.0, 2081.0, 2082.0, 2081.0, 2081.0, 2082.0, 2081.0, 2082.0, 2082.0, 2082.0, 2082.0, 2081.0, 2081.0, 2081.0]
    },
    "slices": {}
  }
}