{
  "AcquisitionMatrixPE": 80,
  "AcquisitionNumber": 1,
  "AcquisitionTime": "09:11:13.482500",
  "BandwidthPerPixelPhaseEncode": 25,
  "BaseResolution": 80,
  "BodyPartExamined": "BRAIN",
  "CoilCombinationMethod": "Sum of Squares",
  "ConsistencyInfo": "N4_VE11C_LATEST_20160120",
  "ConversionSoftware": "dcm2niix",
  "ConversionSoftwareVersion": "v1.0.20220720",
  "DerivedVendorReportedEchoSpacing": 0.0005,
  "DeviceSerialNumber": "66112",
  "DwellTime": 2.7e-06,
  "EchoTime": 0.03,
  "EchoTrainLength": 80,
  "EffectiveEchoSpacing": 0.0005,
  "FlipAngle": 10,
  "HeudiconvVersion": "0.13.1",
  "ImageOrientationPatientDICOM": [0.988097, -0.15371, 0.00605951, 0.138165, 0.904105, 0.404357],
  "ImageOrientationText": "Tra>Cor(23.6)>Sag(3.9)",
  "ImageType": [
    "ORIGINAL",
    "PRIMARY",
    "M",
    "ND",
    "NORM",
    "MOSAIC"
],
  "ImagingFrequency": 123.253,
  "InPlanePhaseEncodingDirectionDICOM": "COL",
  "InstitutionAddress": "Maynard 3,Hanover,NH,US,03755",
  "InstitutionName": "Dartmouth College - PBS",
  "InstitutionalDepartmentName": "Department",
  "MRAcquisitionType": "2D",
  "MagneticFieldStrength": 3,
  "Manufacturer": "Siemens",
  "ManufacturersModelName": "Prisma",
  "MatrixCoilMode": "SENSE",
  "Modality": "MR",
  "NonlinearGradientCorrection": false,
  "PartialFourier": 1,
  "PatientPosition": "HFS",
  "PercentPhaseFOV": 100,
  "PercentSampling": 100,
  "PhaseEncodingDirection": "j-",
  "PhaseEncodingSteps": 80,
  "PhaseResolution": 1,
  "PixelBandwidth": 2315,
  "ProcedureStepDescription": "dbic^QA",
  "ProtocolName": "func-bold_acq-32ch-10flip",
  "PulseSequenceDetails": "%SiemensSeq%\\ep2d_bold",
  "ReceiveCoilActiveElements": "HEA;HEP",
  "ReceiveCoilName": "Head_32",
  "ReconMatrixPE": 80,
  "RepetitionTime": 2,
  "SAR": 0.0117073,
  "ScanOptions": "FS",
  "ScanningSequence": "EP",
  "SequenceName": "*epfid2d1_80",
  "SequenceVariant": "SK",
  "SeriesDescription": "func-bold_acq-32ch-10flip",
  "SeriesNumber": 10,
  "ShimSetting": [4152, -7699, -7509, 266, -70, -191, -48, 113],
  "SliceThickness": 3.5,
  "SliceTiming": [0.99, 0, 1.055, 0.065, 1.1225, 0.1325, 1.1875, 0.1975, 1.2525, 0.2625, 1.32, 0.33, 1.385, 0.395, 1.4525, 0.4625, 1.5175, 0.5275, 1.5825, 0.5925, 1.65, 0.66, 1.715, 0.725, 1.7825, 0.7925, 1.8475, 0.8575, 1.9125, 0.9225],
  "SoftwareVersions": "syngo MR E11",
  "SpacingBetweenSlices": 3.99,
  "StationName": "AWP66112",
  "TotalReadoutTime": 0.0395,
  "TxRefAmp": 229.967,
  "dcmmeta_affine": [
    [-2.964292049407959, 0.4144939184188843, 0.2698529362678528, 98.08493041992188],
    [0.46113112568855286, 2.712315082550049, 1.5908409357070923, -136.5576171875],
    [0.01817851886153221, -1.2130714654922485, 3.6491785049438477, -7.6199798583984375],
    [0.0, 0.0, 0.0, 1.0]
],
  "dcmmeta_reorient_transform": [
    [0.0, -1.0, 0.0, 79.0],
    [1.0, 0.0, 0.0, 0.0],
    [0.0, 0.0, 1.0, 0.0],
    [0.0, 0.0, 0.0, 1.0]
],
  "dcmmeta_shape": [80, 80, 30, 200],
  "dcmmeta_slice_dim": 2,
  "dcmmeta_version": 0.6,
  "global": {
    "const": {
      "AccessionNumber": "qa",
      "AcquisitionMatrix": [80, 0, 0, 80],
      "AngioFlag": "N",
      "BitsAllocated": 16,
      "BitsStored": 12,
      "BodyPartExamined": "BRAIN",
      "Columns": 480,
      "EchoNumbers": 1,
      "EchoTime": 30.0,
      "EchoTrainLength": 80,
      "FlipAngle": 10.0,
      "HighBit": 11,
      "ImageOrientationPatient": [0.98809736472997, -0.153710377657, 0.00605950610611, 0.13816463801058, 0.90410498907605, 0.40435714601228],
      "ImagePositionPatient": [-806.58715311593, -527.9520346123, -349.7026147999],
      "ImageType": [
        "ORIGINAL",
        "PRIMARY",
        "M",
        "ND",
        "NORM",
        "MOSAIC"
],
      "ImagedNucleus": "1H",
      "ImagingFrequency": 123.252547,
      "InPlanePhaseEncodingDirection": "COL",
      "MRAcquisitionType": "2D",
      "MagneticFieldStrength": 3.0,
      "Manufacturer": "SIEMENS",
      "ManufacturerModelName": "Prisma",
      "Modality": "MR",
      "NumberOfAverages": 1.0,
      "NumberOfPhaseEncodingSteps": 80,
      "PercentPhaseFieldOfView": 100.0,
      "PercentSampling": 100.0,
      "PerformedProcedureStepStartTime": "084908.123000",
      "PhotometricInterpretation": "MONOCHROME2",
      "PixelBandwidth": 2315.0,
      "PixelRepresentation": 0,
      "PixelSpacing": [3.0, 3.0],
      "ProtocolName": "func-bold_acq-32ch-10flip",
      "RepetitionTime": 2000.0,
      "Rows": 480,
      "SAR": 0.01170728092513,
      "SamplesPerPixel": 1,
      "ScanOptions": "FS",
      "ScanningSequence": "EP",
      "SequenceName": "*epfid2d1_80",
      "SequenceVariant": "SK",
      "SeriesDescription": "func-bold_acq-32ch-10flip",
      "SeriesNumber": 10,
      "SeriesTime": "091207.237000",
      "SliceLocation": -54.781857850084,
      "SliceThickness": 3.5,
      "SmallestImagePixelValue": 0,
      "SoftwareVersions": "syngo MR E11",
      "SpacingBetweenSlices": 3.9899999038302,
      "SpecificCharacterSet": "ISO_IR 100",
      "StudyID": "2",
      "StudyTime": "084908.049000",
      "TransmitCoilName": "Body",
      "VariableFlipAngleFlag": "N",
      "WindowCenterWidthExplanation": "Algo1",
      "dBdt": 0.0},
    "slices": {}
  },
  "time": {
    "samples": {
      "AcquisitionNumber": [1, 2, 3, 4, 5, 6, 7, 8, 9, 10, 11, 12, 13, 14, 15, 16, 17, 18, 19, 20, 21, 22, 23, 24, 25, 26, 27, 28, 29, 30, 31, 32, 33, 34, 35, 36, 37, 38, 39, 40, 41, 42, 43, 44, 45, 46, 47, 48, 49, 50, 51, 52, 53, 54, 55, 56, 57, 58, 59, 60, 61, 62, 63, 64, 65, 66, 67, 68, 69, 70, 71, 72, 73, 74, 75, 76, 77, 78, 79, 80, 81, 82, 83, 84, 85, 86, 87, 88, 89, 90, 91, 92, 93, 94, 95, 96, 97, 98, 99, 100, 101, 102, 103, 104, 105, 106, 107, 108, 109, 110, 111, 112, 113, 114, 115, 116, 117, 118, 119, 120, 121, 122, 123, 124, 125, 126, 127, 128, 129, 130, 131, 132, 133, 134, 135, 136, 137, 138, 139, 140, 141, 142, 143, 144, 145, 146, 147, 148, 149, 150, 151, 152, 153, 154, 155, 156, 157, 158, 159, 160, 161, 162, 163, 164, 165, 166, 167, 168, 169, 170, 171, 172, 173, 174, 175, 176, 177, 178, 179, 180, 181, 182, 183, 184, 185, 186, 187, 188, 189, 190, 191, 192, 193, 194, 195, 196, 197, 198, 199, 200],
      "AcquisitionTime": ["091113.482500", "091115.482500", "091117.482500", "091119.482500", "091121.482500", "091123.482500", "091125.482500", "091127.482500", "091129.482500", "091131.482500", "091133.482500", "091135.482500", "091137.482500", "091139.482500", "091141.482500", "091143.482500", "091145.482500", "091147.482500", "091149.482500", "091151.482500", "091153.482500", "091155.482500", "091157.482500", "091159.482500", "091201.482500", "091203.482500", "091205.482500", "091207.482500", "091209.482500", "091211.482500", "091213.482500", "091215.482500", "091217.482500", "091219.482500", "091221.482500", "091223.482500", "091225.482500", "091227.482500", "091229.482500", "091231.482500", "091233.482500", "091235.482500", "091237.482500", "091239.482500", "091241.482500", "091243.482500", "091245.482500", "091247.482500", "091249.482500", "091251.482500", "091253.482500", "091255.482500", "091257.482500", "091259.482500", "091301.482500", "091303.482500", "091305.482500", "091307.482500", "091309.482500", "091311.482500", "091313.482500", "091315.482500", "091317.482500", "091319.482500", "091321.482500", "091323.482500", "091325.482500", "091327.482500", "091329.482500", "091331.482500", "091333.482500", "091335.482500", "091337.482500", "091339.482500", "091341.482500", "091343.482500", "091345.482500", "091347.482500", "091349.482500", "091351.482500", "091353.482500", "091355.482500", "091357.482500", "091359.482500", "091401.482500", "091403.482500", "091405.482500", "091407.482500", "091409.482500", "091411.482500", "091413.482500", "091415.482500", "091417.482500", "091419.482500", "091421.482500", "091423.482500", "091425.482500", "091427.482500", "091429.482500", "091431.482500", "091433.482500", "091435.482500", "091437.482500", "091439.482500", "091441.482500", "091443.482500", "091445.482500", "091447.482500", "091449.482500", "091451.482500", "091453.482500", "091455.482500", "091457.482500", "091459.482500", "091501.482500", "091503.482500", "091505.482500", "091507.482500", "091509.482500", "091511.482500", "091513.482500", "091515.482500", "091517.482500", "091519.482500", "091521.482500", "091523.482500", "091525.482500", "091527.482500", "091529.482500", "091531.482500", "091533.482500", "091535.482500", "091537.482500", "091539.482500", "091541.482500", "091543.482500", "091545.482500", "091547.482500", "091549.482500", "091551.482500", "091553.482500", "091555.482500", "091557.482500", "091559.482500", "091601.482500", "091603.482500", "091605.482500", "091607.482500", "091609.482500", "091611.482500", "091613.482500", "091615.482500", "091617.482500", "091619.482500", "091621.482500", "091623.482500", "091625.482500", "091627.482500", "091629.482500", "091631.482500", "091633.482500", "091635.482500", "091637.482500", "091639.482500", "091641.482500", "091643.482500", "091645.482500", "091647.482500", "091649.482500", "091651.482500", "091653.482500", "091655.482500", "091657.482500", "091659.482500", "091701.482500", "091703.482500", "091705.482500", "091707.482500", "091709.482500", "091711.482500", "091713.482500", "091715.482500", "091717.482500", "091719.482500", "091721.482500", "091723.482500", "091725.482500", "091727.482500", "091729.482500", "091731.482500", "091733.482500", "091735.482500", "091737.482500", "091739.482500", "091741.482500", "091743.482500", "091745.482500", "091747.482500", "091749.482500", "091751.482500"],
      "ContentTime": ["091207.240000", "091207.249000", "091207.251000", "091207.254000", "091207.256000", "091207.259000", "091207.262000", "091207.264000", "091207.267000", "091207.269000", "091207.272000", "091207.274000", "091207.277000", "091207.280000", "091207.282000", "091207.285000", "091207.287000", "091207.290000", "091207.293000", "091207.295000", "091207.298000", "091207.300000", "091207.303000", "091207.305000", "091207.308000", "091207.311000", "091207.313000", "091247.234000", "091247.237000", "091247.240000", "091247.242000", "091247.245000", "091247.248000", "091247.250000", "091247.253000", "091247.255000", "091247.258000", "091247.261000", "091247.263000", "091247.266000", "091247.269000", "091247.271000", "091247.274000", "091247.276000", "091247.279000", "091247.281000", "091247.284000", "091327.234000", "091327.237000", "091327.240000", "091327.243000", "091327.245000", "091327.248000", "091327.250000", "091327.253000", "091327.255000", "091327.258000", "091327.261000", "091327.263000", "091327.266000", "091327.268000", "091327.271000", "091327.274000", "091327.276000", "091327.279000", "091327.281000", "091327.284000", "091407.234000", "091407.237000", "091407.240000", "091407.242000", "091407.245000", "091407.248000", "091407.250000", "091407.253000", "091407.255000", "091407.258000", "091407.261000", "091407.263000", "091407.266000", "091407.269000", "091407.271000", "091407.274000", "091407.276000", "091407.279000", "091407.282000", "091407.284000", "091447.234000", "091447.237000", "091447.240000", "091447.242000", "091447.245000", "091447.248000", "091447.250000", "091447.253000", "091447.255000", "091447.258000", "091447.261000", "091447.263000", "091447.266000", "091447.269000", "091447.271000", "091447.274000", "091447.276000", "091447.279000", "091447.281000", "091447.284000", "091527.234000", "091527.237000", "091527.240000", "091527.243000", "091527.245000", "091527.248000", "091527.250000", "091527.253000", "091527.256000", "091527.258000", "091527.261000", "091527.263000", "091527.266000", "091527.269000", "091527.271000", "091527.274000", "091527.276000", "091527.279000", "091527.281000", "091527.284000", "091607.235000", "091607.237000", "091607.240000", "091607.242000", "091607.245000", "091607.247000", "091607.250000", "091607.253000", "091607.255000", "091607.258000", "091607.260000", "091607.263000", "091607.277000", "091607.279000", "091607.282000", "091607.284000", "091607.287000", "091607.289000", "091607.292000", "091607.295000", "091647.234000", "091647.237000", "091647.240000", "091647.242000", "091647.245000", "091647.248000", "091647.250000", "091647.253000", "091647.256000", "091647.258000", "091647.261000", "091647.263000", "091647.266000", "091647.269000", "091647.271000", "091647.274000", "091647.276000", "091647.279000", "091647.281000", "091647.284000", "091727.234000", "091727.237000", "091727.240000", "091727.242000", "091727.245000", "091727.247000", "091727.250000", "091727.252000", "091727.255000", "091727.265000", "091727.267000", "091727.270000", "091727.272000", "091727.275000", "091727.277000", "091727.280000", "091727.282000", "091727.285000", "091727.288000", "091727.290000", "091752.803000", "091752.806000", "091752.809000", "091752.811000", "091752.814000", "091752.816000", "091752.819000", "091752.821000", "091752.824000", "091752.826000", "091752.829000", "091752.832000", "091752.837000"],
      "InstanceCreationTime": ["091207.240000", "091207.249000", "091207.251000", "091207.254000", "091207.256000", "091207.259000", "091207.262000", "091207.264000", "091207.267000", "091207.269000", "091207.272000", "091207.274000", "091207.277000", "091207.280000", "091207.282000", "091207.285000", "091207.287000", "091207.290000", "091207.293000", "091207.295000", "091207.298000", "091207.300000", "091207.303000", "091207.305000", "091207.308000", "091207.311000", "091207.313000", "091247.234000", "091247.237000", "091247.240000", "091247.242000", "091247.245000", "091247.248000", "091247.250000", "091247.253000", "091247.255000", "091247.258000", "091247.261000", "091247.263000", "091247.266000", "091247.269000", "091247.271000", "091247.274000", "091247.276000", "091247.279000", "091247.281000", "091247.284000", "091327.234000", "091327.237000", "091327.240000", "091327.243000", "091327.245000", "091327.248000", "091327.250000", "091327.253000", "091327.255000", "091327.258000", "091327.261000", "091327.263000", "091327.266000", "091327.268000", "091327.271000", "091327.274000", "091327.276000", "091327.279000", "091327.281000", "091327.284000", "091407.234000", "091407.237000", "091407.240000", "091407.242000", "091407.245000", "091407.248000", "091407.250000", "091407.253000", "091407.255000", "091407.258000", "091407.261000", "091407.263000", "091407.266000", "091407.269000", "091407.271000", "091407.274000", "091407.276000", "091407.279000", "091407.282000", "091407.284000", "091447.234000", "091447.237000", "091447.240000", "091447.242000", "091447.245000", "091447.248000", "091447.250000", "091447.253000", "091447.255000", "091447.258000", "091447.261000", "091447.263000", "091447.266000", "091447.269000", "091447.271000", "091447.274000", "091447.276000", "091447.279000", "091447.281000", "091447.284000", "091527.234000", "091527.237000", "091527.240000", "091527.243000", "091527.245000", "091527.248000", "091527.250000", "091527.253000", "091527.256000", "091527.258000", "091527.261000", "091527.263000", "091527.266000", "091527.269000", "091527.271000", "091527.274000", "091527.276000", "091527.279000", "091527.281000", "091527.284000", "091607.235000", "091607.237000", "091607.240000", "091607.242000", "091607.245000", "091607.247000", "091607.250000", "091607.253000", "091607.255000", "091607.258000", "091607.260000", "091607.263000", "091607.277000", "091607.279000", "091607.282000", "091607.284000", "091607.287000", "091607.289000", "091607.292000", "091607.295000", "091647.234000", "091647.237000", "091647.240000", "091647.242000", "091647.245000", "091647.248000", "091647.250000", "091647.253000", "091647.256000", "091647.258000", "091647.261000", "091647.263000", "091647.266000", "091647.269000", "091647.271000", "091647.274000", "091647.276000", "091647.279000", "091647.281000", "091647.284000", "091727.234000", "091727.237000", "091727.240000", "091727.242000", "091727.245000", "091727.247000", "091727.250000", "091727.252000", "091727.255000", "091727.265000", "091727.267000", "091727.270000", "091727.272000", "091727.275000", "091727.277000", "091727.280000", "091727.282000", "091727.285000", "091727.288000", "091727.290000", "091752.803000", "091752.806000", "091752.809000", "091752.811000", "091752.814000", "091752.816000", "091752.819000", "091752.821000", "091752.824000", "091752.826000", "091752.829000", "091752.832000", "091752.837000"],
      "InstanceNumber": [1, 2, 3, 4, 5, 6, 7, 8, 9, 10, 11, 12, 13, 14, 15, 16, 17, 18, 19, 20, 21, 22, 23, 24, 25, 26, 27, 28, 29, 30, 31, 32, 33, 34, 35, 36, 37, 38, 39, 40, 41, 42, 43, 44, 45, 46, 47, 48, 49, 50, 51, 52, 53, 54, 55, 56, 57, 58, 59, 60, 61, 62, 63, 64, 65, 66, 67, 68, 69, 70, 71, 72, 73, 74, 75, 76, 77, 78, 79, 80, 81, 82, 83, 84, 85, 86, 87, 88, 89, 90, 91, 92, 93, 94, 95, 96, 97, 98, 99, 100, 101, 102, 103, 104, 105, 106, 107, 108, 109, 110, 111, 112, 113, 114, 115, 116, 117, 118, 119, 120, 121, 122, 123, 124, 125, 126, 127, 128, 129, 130, 131, 132, 133, 134, 135, 136, 137, 138, 139, 140, 141, 142, 143, 144, 145, 146, 147, 148, 149, 150, 151, 152, 153, 154, 155, 156, 157, 158, 159, 160, 161, 162, 163, 164, 165, 166, 167, 168, 169, 170, 171, 172, 173, 174, 175, 176, 177, 178, 179, 180, 181, 182, 183, 184, 185, 186, 187, 188, 189, 190, 191, 192, 193, 194, 195, 196, 197, 198, 199, 200],
      "LargestImagePixelValue": [342, 343, 344, 342, 344, 344, 346, 346, 343, 345, 347, 344, 344, 343, 343, 345, 344, 345, 343, 344, 345, 345, 345, 345, 346, 344, 343, 345, 346, 344, 343, 345, 342, 345, 346, 346, 345, 346, 344, 342, 345, 345, 345, 346, 345, 346, 346, 349, 346, 344, 343, 344, 345, 346, 345, 344, 345, 346, 347, 345, 345, 343, 345, 343, 344, 345, 347, 346, 345, 345, 343, 345, 347, 343, 343, 347, 345, 343, 346, 344, 346, 343, 345, 345, 345, 344, 345, 345, 344, 343, 343, 344, 343, 347, 346, 346, 346, 345, 344, 344, 345, 343, 344, 348, 346, 345, 343, 344, 347, 346, 345, 344, 344, 344, 345, 345, 343, 344, 344, 346, 346, 346, 345, 345, 344, 346, 345, 344, 345, 344, 345, 344, 344, 343, 342, 344, 345, 346, 345, 347, 344, 346, 344, 345, 344, 343, 346, 345, 346, 346, 342, 344, 343, 345, 347, 346, 345, 346, 346, 345, 346, 346, 348, 347, 347, 344, 346, 345, 346, 344, 345, 343, 343, 344, 346, 345, 345, 344, 345, 346, 343, 344, 345, 346, 345, 345, 345, 343, 344, 342, 347, 345, 346, 345, 344, 345, 345, 342, 342, 342],
      "WindowCenter": [276.0, 276.0, 276.0, 276.0, 276.0, 276.0, 276.0, 276.0, 276.0, 276.0, 276.0, 276.0, 276.0, 276.0, 276.0, 276.0, 276.0, 276.0, 276.0, 276.0, 276.0, 276.0, 276.0, 276.0, 276.0, 276.0, 276.0, 276.0, 276.0, 276.0, 276.0, 276.0, 276.0, 276.0, 276.0, 276.0, 276.0, 276.0, 276.0, 276.0, 276.0, 276.0, 276.0, 276.0, 276.0, 276.0, 276.0, 276.0, 276.0, 276.0, 276.0, 276.0, 276.0, 276.0, 276.0, 276.0, 276.0, 276.0, 276.0, 276.0, 276.0, 275.0, 276.0, 276.0, 275.0, 276.0, 275.0, 276.0, 276.0, 276.0, 276.0, 276.0, 276.0, 276.0, 276.0, 276.0, 276.0, 276.0, 276.0, 276.0, 276.0, 275.0, 276.0, 275.0, 276.0, 276.0, 276.0, 275.0, 276.0, 276.0, 276.0, 276.0, 276.0, 276.0, 276.0, 276.0, 276.0, 276.0, 276.0, 276.0, 275.0, 276.0, 276.0, 276.0, 276.0, 276.0, 276.0, 276.0, 276.0, 276.0, 276.0, 276.0, 276.0, 276.0, 275.0, 276.0, 276.0, 276.0, 275.0, 276.0, 276.0, 276.0, 276.0, 276.0, 276.0, 275.0, 276.0, 276.0, 276.0, 276.0, 276.0, 276.0, 275.0, 275.0, 276.0, 276.0, 275.0, 276.0, 276.0, 276.0, 276.0, 276.0, 276.0, 275.0, 276.0, 276.0, 275.0, 276.0, 276.0, 276.0, 276.0, 276.0, 276.0, 276.0, 276.0, 276.0, 276.0, 276.0, 276.0, 276.0, 276.0, 276.0, 275.0, 276.0, 276.0, 276.0, 276.0, 275.0, 276.0, 275.0, 276.0, 276.0, 276.0, 276.0, 276.0, 276.0, 276.0, 275.0, 275.0, 275.0, 275.0, 275.0, 275.0, 275.0, 276.0, 276.0, 276.0, 275.0, 275.0, 276.0, 275.0, 275.0, 275.0, 275.0, 275.0, 276.0, 276.0, 276.0, 275.0, 275.0],
      "WindowWidth": [604.0, 604.0, 604.0, 604.0, 604.0, 604.0, 604.0, 604.0, 604.0, 604.0, 604.0, 604.0, 604.0, 604.0, 604.0, 604.0, 604.0, 604.0, 604.0, 604.0, 604.0, 604.0, 604.0, 604.0, 604.0, 604.0, 604.0, 604.0, 604.0, 604.0, 604.0, 604.0, 604.0, 604.0, 604.0, 604.0, 604.0, 604.0, 604.0, 604.0, 604.0, 604.0, 604.0, 604.0, 604.0, 604.0, 604.0, 604.0, 604.0, 604.0, 604.0, 604.0, 604.0, 604.0, 604.0, 604.0, 604.0, 604.0, 604.0, 604.0, 604.0, 603.0, 604.0, 604.0, 604.0, 604.0, 603.0, 604.0, 604.0, 604.0, 604.0, 604.0, 604.0, 604.0, 604.0, 604.0, 604.0, 604.0, 604.0, 604.0, 604.0, 604.0, 604.0, 604.0, 604.0, 604.0, 604.0, 604.0, 604.0, 604.0, 604.0, 604.0, 604.0, 604.0, 604.0, 604.0, 604.0, 604.0, 604.0, 604.0, 603.0, 604.0, 604.0, 604.0, 604.0, 604.0, 604.0, 604.0, 604.0, 604.0, 604.0, 604.0, 604.0, 604.0, 604.0, 604.0, 604.0, 604.0, 603.0, 604.0, 604.0, 604.0, 604.0, 604.0, 604.0, 603.0, 604.0, 604.0, 604.0, 604.0, 604.0, 604.0, 603.0, 603.0, 604.0, 604.0, 603.0, 604.0, 604.0, 604.0, 604.0, 604.0, 604.0, 603.0, 604.0, 604.0, 603.0, 604.0, 604.0, 604.0, 604.0, 604.0, 604.0, 604.0, 604.0, 604.0, 604.0, 604.0, 604.0, 604.0, 603.0, 604.0, 603.0, 603.0, 603.0, 603.0, 604.0, 603.0, 604.0, 603.0, 603.0, 603.0, 603.0, 604.0, 604.0, 604.0, 603.0, 603.0, 603.0, 603.0, 603.0, 603.0, 603.0, 603.0, 603.0, 604.0, 604.0, 603.0, 603.0, 603.0, 603.0, 603.0, 603.0, 603.0, 603.0, 604.0, 604.0, 604.0, 603.0, 603.0]
    },
    "slices": {}
  }
}