{
  "AcquisitionMatrixPE": 80,
  "AcquisitionNumber": 1,
  "AcquisitionTime": "09:53:33.782500",
  "BandwidthPerPixelPhaseEncode": 48.077,
  "BaseResolution": 80,
  "BodyPartExamined": "BRAIN",
  "CoilCombinationMethod": "Sum of Squares",
  "ConsistencyInfo": "N4_VE11E_LATEST_20181129",
  "ConversionSoftware": "dcm2niix",
  "ConversionSoftwareVersion": "v1.0.20220720",
  "DerivedVendorReportedEchoSpacing": 0.000519999,
  "DeviceSerialNumber": "66112",
  "DwellTime": 2.7e-06,
  "EchoTime": 0.035,
  "EchoTrainLength": 39,
  "EffectiveEchoSpacing": 0.00026,
  "FlipAngle": 90,
  "HeudiconvVersion": "0.13.1",
  "ImageOrientationPatientDICOM": [0.982953, 0.183633, 0.00908116, -0.177392, 0.934251, 0.309364],
  "ImageOrientationText": "Tra>Cor(17.8)>Sag(-2.8)",
  "ImageType": [
    "ORIGINAL",
    "PRIMARY",
    "M",
    "ND",
    "NORM",
    "MOSAIC"
],
  "ImagingFrequency": 123.252,
  "InPlanePhaseEncodingDirectionDICOM": "COL",
  "InstitutionAddress": "Maynard 3,Hanover,NH,US,03755",
  "InstitutionName": "Dartmouth College - PBS",
  "InstitutionalDepartmentName": "Department",
  "MRAcquisitionType": "2D",
  "MagneticFieldStrength": 3,
  "Manufacturer": "Siemens",
  "ManufacturersModelName": "Prisma",
  "MatrixCoilMode": "GRAPPA",
  "Modality": "MR",
  "NonlinearGradientCorrection": false,
  "ParallelReductionFactorInPlane": 2,
  "PartialFourier": 1,
  "PatientPosition": "HFS",
  "PercentPhaseFOV": 100,
  "PercentSampling": 100,
  "PhaseEncodingDirection": "j-",
  "PhaseEncodingSteps": 79,
  "PhaseResolution": 1,
  "PixelBandwidth": 2315,
  "ProcedureStepDescription": "dbic^QA",
  "ProtocolName": "func-bold_task-rest_acq-p2",
  "PulseSequenceDetails": "%SiemensSeq%\\ep2d_bold",
  "ReceiveCoilActiveElements": "HEA;HEP",
  "ReceiveCoilName": "Head_32",
  "ReconMatrixPE": 80,
  "RefLinesPE": 24,
  "RepetitionTime": 2,
  "SAR": 0.0549014,
  "ScanOptions": "FS",
  "ScanningSequence": "EP",
  "SequenceName": "*epfid2d1_80",
  "SequenceVariant": "SK",
  "SeriesDescription": "func-bold_task-rest_acq-p2",
  "SeriesNumber": 5,
  "ShimSetting": [4146, -7697, -7507, 285, -64, -93, -64, 48],
  "SliceThickness": 3.5,
  "SliceTiming": [0.9875, 0, 1.055, 0.065, 1.12, 0.13, 1.1875, 0.1975, 1.2525, 0.2625, 1.3175, 0.3275, 1.385, 0.395, 1.45, 0.46, 1.5175, 0.5275, 1.5825, 0.5925, 1.6475, 0.6575, 1.715, 0.725, 1.78, 0.79, 1.8475, 0.8575, 1.9125, 0.9225],
  "SoftwareVersions": "syngo MR E11",
  "SpacingBetweenSlices": 3.99,
  "StationName": "AWP66112",
  "TaskName": "rest",
  "TotalReadoutTime": 0.02054,
  "TxRefAmp": 224.361,
  "dcmmeta_affine": [
    [-2.9488589763641357, -0.5321775078773499, -0.19281768798828125, 143.40797424316406],
    [-0.550898015499115, 2.8027544021606445, 1.2197474241256714, -97.40968322753906],
    [0.0272434763610363, -0.9280917644500732, 3.7940924167633057, -23.472885131835938],
    [0.0, 0.0, 0.0, 1.0]
],
  "dcmmeta_reorient_transform": [
    [0.0, -1.0, 0.0, 79.0],
    [1.0, 0.0, 0.0, 0.0],
    [0.0, 0.0, 1.0, 0.0],
    [0.0, 0.0, 0.0, 1.0]
],
  "dcmmeta_shape": [80, 80, 30, 200],
  "dcmmeta_slice_dim": 2,
  "dcmmeta_version": 0.6,
  "global": {
    "const": {
      "AccessionNumber": "qa",
      "AcquisitionMatrix": [80, 0, 0, 80],
      "AngioFlag": "N",
      "BitsAllocated": 16,
      "BitsStored": 12,
      "BodyPartExamined": "BRAIN",
      "Columns": 480,
      "EchoNumbers": 1,
      "EchoTime": 35.0,
      "EchoTrainLength": 39,
      "FlipAngle": 90.0,
      "HighBit": 11,
      "ImageOrientationPatient": [0.98295298603338, 0.18363267629368, 0.00908115880755, -0.1773924991087, 0.93425150333381, 0.30936391156448],
      "ImagePositionPatient": [-584.70224529173, -794.73842764539, -287.85917457533],
      "ImageType": [
        "ORIGINAL",
        "PRIMARY",
        "M",
        "ND",
        "NORM",
        "MOSAIC"
],
      "ImagedNucleus": "1H",
      "ImagingFrequency": 123.252354,
      "InPlanePhaseEncodingDirection": "COL",
      "MRAcquisitionType": "2D",
      "MagneticFieldStrength": 3.0,
      "Manufacturer": "SIEMENS",
      "ManufacturerModelName": "Prisma",
      "Modality": "MR",
      "NumberOfAverages": 1.0,
      "NumberOfPhaseEncodingSteps": 79,
      "PercentPhaseFieldOfView": 100.0,
      "PercentSampling": 100.0,
      "PerformedProcedureStepStartTime": "093647.159000",
      "PhotometricInterpretation": "MONOCHROME2",
      "PixelBandwidth": 2315.0,
      "PixelRepresentation": 0,
      "PixelSpacing": [3.0, 3.0],
      "ProtocolName": "func-bold_task-rest_acq-p2",
      "RepetitionTime": 2000.0,
      "Rows": 480,
      "SAR": 0.05490137294982,
      "SamplesPerPixel": 1,
      "ScanOptions": "FS",
      "ScanningSequence": "EP",
      "SequenceName": "*epfid2d1_80",
      "SequenceVariant": "SK",
      "SeriesDescription": "func-bold_task-rest_acq-p2",
      "SeriesNumber": 5,
      "SeriesTime": "095417.826000",
      "SliceLocation": -59.028848832367,
      "SliceThickness": 3.5,
      "SmallestImagePixelValue": 0,
      "SoftwareVersions": "syngo MR E11",
      "SpacingBetweenSlices": 3.9899999416482,
      "SpecificCharacterSet": "ISO_IR 100",
      "StudyID": "5",
      "StudyTime": "093647.085000",
      "TransmitCoilName": "Body",
      "VariableFlipAngleFlag": "N",
      "WindowCenterWidthExplanation": "Algo1"
    },
    "slices": {}
  },
  "time": {
    "samples": {
      "AcquisitionNumber": [1, 2, 3, 4, 5, 6, 7, 8, 9, 10, 11, 12, 13, 14, 15, 16, 17, 18, 19, 20, 21, 22, 23, 24, 25, 26, 27, 28, 29, 30, 31, 32, 33, 34, 35, 36, 37, 38, 39, 40, 41, 42, 43, 44, 45, 46, 47, 48, 49, 50, 51, 52, 53, 54, 55, 56, 57, 58, 59, 60, 61, 62, 63, 64, 65, 66, 67, 68, 69, 70, 71, 72, 73, 74, 75, 76, 77, 78, 79, 80, 81, 82, 83, 84, 85, 86, 87, 88, 89, 90, 91, 92, 93, 94, 95, 96, 97, 98, 99, 100, 101, 102, 103, 104, 105, 106, 107, 108, 109, 110, 111, 112, 113, 114, 115, 116, 117, 118, 119, 120, 121, 122, 123, 124, 125, 126, 127, 128, 129, 130, 131, 132, 133, 134, 135, 136, 137, 138, 139, 140, 141, 142, 143, 144, 145, 146, 147, 148, 149, 150, 151, 152, 153, 154, 155, 156, 157, 158, 159, 160, 161, 162, 163, 164, 165, 166, 167, 168, 169, 170, 171, 172, 173, 174, 175, 176, 177, 178, 179, 180, 181, 182, 183, 184, 185, 186, 187, 188, 189, 190, 191, 192, 193, 194, 195, 196, 197, 198, 199, 200],
      "AcquisitionTime": ["095333.782500", "095335.782500", "095337.782500", "095339.782500", "095341.782500", "095343.782500", "095345.782500", "095347.782500", "095349.782500", "095351.782500", "095353.782500", "095355.782500", "095357.782500", "095359.782500", "095401.782500", "095403.782500", "095405.782500", "095407.782500", "095409.782500", "095411.782500", "095413.782500", "095415.782500", "095417.782500", "095419.782500", "095421.782500", "095423.782500", "095425.782500", "095427.782500", "095429.782500", "095431.782500", "095433.782500", "095435.782500", "095437.782500", "095439.782500", "095441.782500", "095443.782500", "095445.782500", "095447.782500", "095449.782500", "095451.782500", "095453.782500", "095455.782500", "095457.782500", "095459.782500", "095501.782500", "095503.782500", "095505.782500", "095507.782500", "095509.782500", "095511.782500", "095513.782500", "095515.782500", "095517.782500", "095519.782500", "095521.782500", "095523.782500", "095525.782500", "095527.782500", "095529.782500", "095531.782500", "095533.782500", "095535.782500", "095537.782500", "095539.782500", "095541.782500", "095543.782500", "095545.782500", "095547.782500", "095549.782500", "095551.782500", "095553.782500", "095555.782500", "095557.782500", "095559.782500", "095601.782500", "095603.782500", "095605.782500", "095607.782500", "095609.782500", "095611.782500", "095613.782500", "095615.782500", "095617.782500", "095619.782500", "095621.782500", "095623.782500", "095625.782500", "095627.782500", "095629.782500", "095631.782500", "095633.782500", "095635.782500", "095637.782500", "095639.782500", "095641.782500", "095643.782500", "095645.782500", "095647.782500", "095649.782500", "095651.782500", "095653.782500", "095655.782500", "095657.782500", "095659.782500", "095701.782500", "095703.782500", "095705.782500", "095707.782500", "095709.782500", "095711.782500", "095713.782500", "095715.782500", "095717.782500", "095719.782500", "095721.782500", "095723.782500", "095725.782500", "095727.782500", "095729.782500", "095731.782500", "095733.782500", "095735.782500", "095737.782500", "095739.782500", "095741.782500", "095743.782500", "095745.782500", "095747.782500", "095749.782500", "095751.782500", "095753.782500", "095755.782500", "095757.782500", "095759.782500", "095801.782500", "095803.782500", "095805.782500", "095807.782500", "095809.782500", "095811.782500", "095813.782500", "095815.782500", "095817.782500", "095819.782500", "095821.782500", "095823.782500", "095825.782500", "095827.782500", "095829.782500", "095831.782500", "095833.782500", "095835.782500", "095837.782500", "095839.782500", "095841.782500", "095843.782500", "095845.782500", "095847.782500", "095849.782500", "095851.782500", "095853.782500", "095855.782500", "095857.782500", "095859.782500", "095901.782500", "095903.782500", "095905.782500", "095907.782500", "095909.782500", "095911.782500", "095913.782500", "095915.782500", "095917.782500", "095919.782500", "095921.782500", "095923.782500", "095925.782500", "095927.782500", "095929.782500", "095931.782500", "095933.782500", "095935.782500", "095937.782500", "095939.782500", "095941.782500", "095943.782500", "095945.782500", "095947.782500", "095949.782500", "095951.782500", "095953.782500", "095955.782500", "095957.782500", "095959.782500", "100001.782500", "100003.782500", "100005.782500", "100007.782500", "100009.782500", "100011.782500"],
      "ContentTime": ["095417.829000", "095417.832000", "095417.835000", "095417.837000", "095417.839000", "095417.842000", "095417.844000", "095417.846000", "095417.848000", "095417.851000", "095417.853000", "095417.855000", "095417.858000", "095417.860000", "095417.862000", "095417.865000", "095417.867000", "095417.869000", "095417.882000", "095417.885000", "095417.887000", "095417.889000", "095457.824000", "095457.827000", "095457.829000", "095457.832000", "095457.834000", "095457.836000", "095457.838000", "095457.841000", "095457.843000", "095457.845000", "095457.848000", "095457.850000", "095457.852000", "095457.855000", "095457.857000", "095457.859000", "095457.862000", "095457.864000", "095457.866000", "095457.869000", "095537.824000", "095537.827000", "095537.829000", "095537.831000", "095537.834000", "095537.836000", "095537.838000", "095537.850000", "095537.852000", "095537.855000", "095537.857000", "095537.859000", "095537.862000", "095537.864000", "095537.866000", "095537.869000", "095537.871000", "095537.873000", "095537.875000", "095537.878000", "095617.823000", "095617.826000", "095617.828000", "095617.830000", "095617.833000", "095617.835000", "095617.837000", "095617.840000", "095617.842000", "095617.844000", "095617.847000", "095617.849000", "095617.851000", "095617.854000", "095617.856000", "095617.858000", "095617.860000", "095617.863000", "095617.865000", "095617.867000", "095657.825000", "095657.827000", "095657.829000", "095657.832000", "095657.835000", "095657.837000", "095657.839000", "095657.842000", "095657.844000", "095657.847000", "095657.849000", "095657.851000", "095657.853000", "095657.856000", "095657.858000", "095657.860000", "095657.863000", "095657.865000", "095657.867000", "095657.870000", "095737.824000", "095737.827000", "095737.829000", "095737.832000", "095737.834000", "095737.836000", "095737.839000", "095737.841000", "095737.843000", "095737.846000", "095737.848000", "095737.851000", "095737.853000", "095737.855000", "095737.857000", "095737.860000", "095737.862000", "095737.865000", "095737.867000", "095737.869000", "095817.823000", "095817.826000", "095817.828000", "095817.830000", "095817.833000", "095817.835000", "095817.837000", "095817.840000", "095817.842000", "095817.844000", "095817.847000", "095817.849000", "095817.851000", "095817.854000", "095817.856000", "095817.858000", "095817.861000", "095817.863000", "095817.865000", "095817.868000", "095857.824000", "095857.827000", "095857.829000", "095857.832000", "095857.834000", "095857.836000", "095857.839000", "095857.841000", "095857.843000", "095857.846000", "095857.848000", "095857.850000", "095857.853000", "095857.855000", "095857.857000", "095857.860000", "095857.862000", "095857.864000", "095857.867000", "095857.869000", "095937.824000", "095937.827000", "095937.829000", "095937.832000", "095937.834000", "095937.836000", "095937.839000", "095937.841000", "095937.843000", "095937.846000", "095937.848000", "095937.850000", "095937.853000", "095937.855000", "095937.857000", "095937.860000", "095937.862000", "095937.864000", "095937.867000", "095937.869000", "100013.129000", "100013.137000", "100013.140000", "100013.143000", "100013.146000", "100013.148000", "100013.151000", "100013.153000", "100013.156000", "100013.158000", "100013.161000", "100013.163000", "100013.166000", "100013.169000", "100013.172000", "100013.175000", "100013.177000", "100013.180000"],
      "InstanceCreationTime": ["095417.829000", "095417.832000", "095417.835000", "095417.837000", "095417.839000", "095417.842000", "095417.844000", "095417.846000", "095417.848000", "095417.851000", "095417.853000", "095417.855000", "095417.858000", "095417.860000", "095417.862000", "095417.865000", "095417.867000", "095417.869000", "095417.882000", "095417.885000", "095417.887000", "095417.889000", "095457.824000", "095457.827000", "095457.829000", "095457.832000", "095457.834000", "095457.836000", "095457.838000", "095457.841000", "095457.843000", "095457.845000", "095457.848000", "095457.850000", "095457.852000", "095457.855000", "095457.857000", "095457.859000", "095457.862000", "095457.864000", "095457.866000", "095457.869000", "095537.824000", "095537.827000", "095537.829000", "095537.831000", "095537.834000", "095537.836000", "095537.838000", "095537.850000", "095537.852000", "095537.855000", "095537.857000", "095537.859000", "095537.862000", "095537.864000", "095537.866000", "095537.869000", "095537.871000", "095537.873000", "095537.875000", "095537.878000", "095617.823000", "095617.826000", "095617.828000", "095617.830000", "095617.833000", "095617.835000", "095617.837000", "095617.840000", "095617.842000", "095617.844000", "095617.847000", "095617.849000", "095617.851000", "095617.854000", "095617.856000", "095617.858000", "095617.860000", "095617.863000", "095617.865000", "095617.867000", "095657.825000", "095657.827000", "095657.829000", "095657.832000", "095657.835000", "095657.837000", "095657.839000", "095657.842000", "095657.844000", "095657.847000", "095657.849000", "095657.851000", "095657.853000", "095657.856000", "095657.858000", "095657.860000", "095657.863000", "095657.865000", "095657.867000", "095657.870000", "095737.824000", "095737.827000", "095737.829000", "095737.832000", "095737.834000", "095737.836000", "095737.839000", "095737.841000", "095737.843000", "095737.846000", "095737.848000", "095737.851000", "095737.853000", "095737.855000", "095737.857000", "095737.860000", "095737.862000", "095737.865000", "095737.867000", "095737.869000", "095817.823000", "095817.826000", "095817.828000", "095817.830000", "095817.833000", "095817.835000", "095817.837000", "095817.840000", "095817.842000", "095817.844000", "095817.847000", "095817.849000", "095817.851000", "095817.854000", "095817.856000", "095817.858000", "095817.861000", "095817.863000", "095817.865000", "095817.868000", "095857.824000", "095857.827000", "095857.829000", "095857.832000", "095857.834000", "095857.836000", "095857.839000", "095857.841000", "095857.843000", "095857.846000", "095857.848000", "095857.850000", "095857.853000", "095857.855000", "095857.857000", "095857.860000", "095857.862000", "095857.864000", "095857.867000", "095857.869000", "095937.824000", "095937.827000", "095937.829000", "095937.832000", "095937.834000", "095937.836000", "095937.839000", "095937.841000", "095937.843000", "095937.846000", "095937.848000", "095937.850000", "095937.853000", "095937.855000", "095937.857000", "095937.860000", "095937.862000", "095937.864000", "095937.867000", "095937.869000", "100013.129000", "100013.137000", "100013.140000", "100013.143000", "100013.146000", "100013.148000", "100013.151000", "100013.153000", "100013.156000", "100013.158000", "100013.161000", "100013.163000", "100013.166000", "100013.169000", "100013.172000", "100013.175000", "100013.177000", "100013.180000"],
      "InstanceNumber": [1, 2, 3, 4, 5, 6, 7, 8, 9, 10, 11, 12, 13, 14, 15, 16, 17, 18, 19, 20, 21, 22, 23, 24, 25, 26, 27, 28, 29, 30, 31, 32, 33, 34, 35, 36, 37, 38, 39, 40, 41, 42, 43, 44, 45, 46, 47, 48, 49, 50, 51, 52, 53, 54, 55, 56, 57, 58, 59, 60, 61, 62, 63, 64, 65, 66, 67, 68, 69, 70, 71, 72, 73, 74, 75, 76, 77, 78, 79, 80, 81, 82, 83, 84, 85, 86, 87, 88, 89, 90, 91, 92, 93, 94, 95, 96, 97, 98, 99, 100, 101, 102, 103, 104, 105, 106, 107, 108, 109, 110, 111, 112, 113, 114, 115, 116, 117, 118, 119, 120, 121, 122, 123, 124, 125, 126, 127, 128, 129, 130, 131, 132, 133, 134, 135, 136, 137, 138, 139, 140, 141, 142, 143, 144, 145, 146, 147, 148, 149, 150, 151, 152, 153, 154, 155, 156, 157, 158, 159, 160, 161, 162, 163, 164, 165, 166, 167, 168, 169, 170, 171, 172, 173, 174, 175, 176, 177, 178, 179, 180, 181, 182, 183, 184, 185, 186, 187, 188, 189, 190, 191, 192, 193, 194, 195, 196, 197, 198, 199, 200],
      "LargestImagePixelValue": [1875, 1872, 1873, 1869, 1870, 1863, 1869, 1871, 1868, 1877, 1875, 1868, 1872, 1868, 1868, 1868, 1871, 1868, 1871, 1868, 1875, 1864, 1867, 1875, 1875, 1867, 1867, 1868, 1867, 1867, 1869, 1866, 1873, 1873, 1874, 1872, 1871, 1868, 1868, 1875, 1868, 1869, 1872, 1864, 1866, 1870, 1874, 1867, 1871, 1870, 1867, 1868, 1874, 1869, 1873, 1877, 1875, 1864, 1866, 1872, 1873, 1878, 1868, 1870, 1875, 1872, 1869, 1866, 1871, 1873, 1865, 1873, 1867, 1871, 1868, 1867, 1873, 1871, 1871, 1873, 1863, 1870, 1875, 1870, 1867, 1868, 1872, 1876, 1868, 1862, 1874, 1870, 1869, 1869, 1871, 1873, 1878, 1875, 1866, 1862, 1866, 1867, 1872, 1868, 1867, 1874, 1867, 1864, 1867, 1871, 1870, 1866, 1869, 1873, 1878, 1872, 1866, 1861, 1873, 1869, 1870, 1871, 1870, 1868, 1866, 1869, 1872, 1872, 1865, 1867, 1872, 1875, 1869, 1871, 1873, 1868, 1875, 1866, 1864, 1866, 1870, 1873, 1872, 1869, 1874, 1866, 1867, 1867, 1871, 1872, 1866, 1867, 1873, 1865, 1867, 1871, 1875, 1865, 1867, 1876, 1865, 1870, 1868, 1870, 1863, 1864, 1868, 1869, 1869, 1871, 1875, 1876, 1874, 1865, 1872, 1866, 1865, 1874, 1874, 1870, 1866, 1867, 1869, 1873, 1869, 1875, 1867, 1873, 1868, 1863, 1868, 1863, 1863, 1867, 1868, 1867, 1866, 1871, 1865, 1866],
      "WindowCenter": [955.0, 954.0, 954.0, 954.0, 954.0, 954.0, 954.0, 954.0, 954.0, 954.0, 954.0, 954.0, 954.0, 954.0, 954.0, 954.0, 954.0, 954.0, 953.0, 954.0, 953.0, 953.0, 954.0, 953.0, 954.0, 954.0, 953.0, 954.0, 954.0, 954.0, 954.0, 954.0, 954.0, 954.0, 954.0, 954.0, 953.0, 953.0, 954.0, 954.0, 953.0, 954.0, 954.0, 953.0, 954.0, 953.0, 954.0, 954.0, 954.0, 954.0, 954.0, 954.0, 953.0, 953.0, 954.0, 954.0, 953.0, 953.0, 953.0, 954.0, 953.0, 953.0, 954.0, 953.0, 953.0, 953.0, 954.0, 953.0, 954.0, 954.0, 953.0, 954.0, 954.0, 953.0, 954.0, 953.0, 953.0, 954.0, 954.0, 954.0, 955.0, 953.0, 954.0, 954.0, 953.0, 953.0, 954.0, 954.0, 954.0, 954.0, 955.0, 953.0, 953.0, 954.0, 954.0, 953.0, 953.0, 954.0, 953.0, 953.0, 953.0, 954.0, 954.0, 954.0, 954.0, 953.0, 954.0, 954.0, 953.0, 954.0, 954.0, 953.0, 953.0, 954.0, 953.0, 954.0, 953.0, 954.0, 953.0, 953.0, 954.0, 954.0, 954.0, 953.0, 953.0, 954.0, 953.0, 954.0, 954.0, 954.0, 954.0, 954.0, 953.0, 953.0, 953.0, 954.0, 953.0, 954.0, 954.0, 954.0, 954.0, 953.0, 954.0, 954.0, 954.0, 954.0, 953.0, 953.0, 953.0, 953.0, 953.0, 953.0, 953.0, 954.0, 953.0, 953.0, 953.0, 953.0, 953.0, 953.0, 953.0, 953.0, 953.0, 953.0, 953.0, 953.0, 954.0, 953.0, 953.0, 953.0, 953.0, 953.0, 953.0, 953.0, 953.0, 953.0, 953.0, 953.0, 953.0, 953.0, 954.0, 953.0, 953.0, 953.0, 953.0, 953.0, 953.0, 954.0, 953.0, 954.0, 953.0, 953.0, 953.0, 953.0, 953.0, 953.0, 953.0, 954.0, 954.0, 953.0],
      "WindowWidth": [2071.0, 2070.0, 2070.0, 2070.0, 2070.0, 2070.0, 2069.0, 2070.0, 2069.0, 2070.0, 2069.0, 2070.0, 2070.0, 2070.0, 2070.0, 2069.0, 2070.0, 2070.0, 2069.0, 2070.0, 2070.0, 2069.0, 2070.0, 2069.0, 2069.0, 2070.0, 2069.0, 2070.0, 2070.0, 2069.0, 2070.0, 2070.0, 2069.0, 2070.0, 2069.0, 2070.0, 2069.0, 2069.0, 2069.0, 2070.0, 2069.0, 2069.0, 2069.0, 2069.0, 2069.0, 2069.0, 2069.0, 2069.0, 2069.0, 2069.0, 2069.0, 2069.0, 2069.0, 2068.0, 2069.0, 2069.0, 2069.0, 2069.0, 2068.0, 2069.0, 2069.0, 2069.0, 2069.0, 2068.0, 2068.0, 2068.0, 2069.0, 2068.0, 2069.0, 2069.0, 2069.0, 2069.0, 2069.0, 2068.0, 2069.0, 2068.0, 2068.0, 2069.0, 2068.0, 2068.0, 2069.0, 2068.0, 2069.0, 2069.0, 2068.0, 2068.0, 2068.0, 2068.0, 2068.0, 2068.0, 2070.0, 2068.0, 2068.0, 2068.0, 2069.0, 2068.0, 2068.0, 2068.0, 2068.0, 2068.0, 2068.0, 2068.0, 2068.0, 2068.0, 2068.0, 2068.0, 2068.0, 2068.0, 2068.0, 2068.0, 2068.0, 2068.0, 2068.0, 2068.0, 2068.0, 2068.0, 2068.0, 2068.0, 2068.0, 2068.0, 2069.0, 2068.0, 2069.0, 2068.0, 2068.0, 2068.0, 2068.0, 2068.0, 2068.0, 2068.0, 2068.0, 2068.0, 2068.0, 2068.0, 2068.0, 2068.0, 2067.0, 2068.0, 2069.0, 2068.0, 2069.0, 2068.0, 2068.0, 2068.0, 2068.0, 2068.0, 2068.0, 2068.0, 2067.0, 2068.0, 2068.0, 2068.0, 2068.0, 2068.0, 2067.0, 2067.0, 2067.0, 2067.0, 2067.0, 2068.0, 2068.0, 2067.0, 2068.0, 2067.0, 2067.0, 2067.0, 2069.0, 2068.0, 2067.0, 2068.0, 2068.0, 2067.0, 2068.0, 2067.0, 2067.0, 2067.0, 2067.0, 2067.0, 2067.0, 2068.0, 2068.0, 2068.0, 2068.0, 2068.0, 2067.0, 2067.0, 2067.0, 2068.0, 2067.0, 2068.0, 2067.0, 2067.0, 2067.0, 2068.0, 2067.0, 2067.0, 2067.0, 2068.0, 2068.0, 2067.0]
    },
    "slices": {}
  }
}