{
  "AcquisitionMatrixPE": 80,
  "AcquisitionNumber": 1,
  "AcquisitionTime": "10:07:13.470000",
  "BandwidthPerPixelPhaseEncode": 25,
  "BaseResolution": 80,
  "BodyPartExamined": "BRAIN",
  "CoilCombinationMethod": "Sum of Squares",
  "ConsistencyInfo": "N4_VE11E_LATEST_20181129",
  "ConversionSoftware": "dcm2niix",
  "ConversionSoftwareVersion": "v1.0.20220720",
  "DerivedVendorReportedEchoSpacing": 0.0005,
  "DeviceSerialNumber": "66112",
  "DwellTime": 2.7e-06,
  "EchoTime": 0.03,
  "EchoTrainLength": 80,
  "EffectiveEchoSpacing": 0.0005,
  "FlipAngle": 77,
  "HeudiconvVersion": "0.13.1",
  "ImageOrientationPatientDICOM": [0.982953, 0.183633, 0.00908116, -0.177392, 0.934251, 0.309364],
  "ImageOrientationText": "Tra>Cor(17.8)>Sag(-2.8)",
  "ImageType": [
    "ORIGINAL",
    "PRIMARY",
    "M",
    "ND",
    "NORM",
    "MOSAIC"
],
  "ImagingFrequency": 123.252,
  "InPlanePhaseEncodingDirectionDICOM": "COL",
  "InstitutionAddress": "Maynard 3,Hanover,NH,US,03755",
  "InstitutionName": "Dartmouth College - PBS",
  "InstitutionalDepartmentName": "Department",
  "MRAcquisitionType": "2D",
  "MagneticFieldStrength": 3,
  "Manufacturer": "Siemens",
  "ManufacturersModelName": "Prisma",
  "MatrixCoilMode": "SENSE",
  "Modality": "MR",
  "NonlinearGradientCorrection": false,
  "PartialFourier": 1,
  "PatientPosition": "HFS",
  "PercentPhaseFOV": 100,
  "PercentSampling": 100,
  "PhaseEncodingDirection": "j-",
  "PhaseEncodingSteps": 80,
  "PhaseResolution": 1,
  "PixelBandwidth": 2315,
  "ProcedureStepDescription": "dbic^QA",
  "ProtocolName": "func-bold_fa-77",
  "PulseSequenceDetails": "%SiemensSeq%\\ep2d_bold",
  "ReceiveCoilActiveElements": "HEA;HEP",
  "ReceiveCoilName": "Head_32",
  "ReconMatrixPE": 80,
  "RepetitionTime": 2,
  "SAR": 0.0431442,
  "ScanOptions": "FS",
  "ScanningSequence": "EP",
  "SequenceName": "*epfid2d1_80",
  "SequenceVariant": "SK",
  "SeriesDescription": "func-bold_fa-77",
  "SeriesNumber": 8,
  "ShimSetting": [4146, -7697, -7507, 285, -64, -93, -64, 48],
  "SliceThickness": 3.5,
  "SliceTiming": [0.99, 0, 1.0575, 0.0675, 1.1225, 0.1325, 1.1875, 0.1975, 1.255, 0.265, 1.32, 0.33, 1.3875, 0.3975, 1.4525, 0.4625, 1.5175, 0.5275, 1.585, 0.595, 1.65, 0.66, 1.7175, 0.7275, 1.7825, 0.7925, 1.8475, 0.8575, 1.915, 0.925],
  "SoftwareVersions": "syngo MR E11",
  "SpacingBetweenSlices": 3.99,
  "StationName": "AWP66112",
  "TotalReadoutTime": 0.0395,
  "TxRefAmp": 224.361,
  "dcmmeta_affine": [
    [-2.9488589763641357, -0.5321775078773499, -0.19281768798828125, 142.75779724121094],
    [-0.550898015499115, 2.8027544021606445, 1.2197474241256714, -94.01780700683594],
    [0.0272434763610363, -0.9280917644500732, 3.7940924167633057, -25.26931381225586],
    [0.0, 0.0, 0.0, 1.0]
],
  "dcmmeta_reorient_transform": [
    [0.0, -1.0, 0.0, 79.0],
    [1.0, 0.0, 0.0, 0.0],
    [0.0, 0.0, 1.0, 0.0],
    [0.0, 0.0, 0.0, 1.0]
],
  "dcmmeta_shape": [80, 80, 30, 200],
  "dcmmeta_slice_dim": 2,
  "dcmmeta_version": 0.6,
  "global": {
    "const": {
      "AccessionNumber": "qa",
      "AcquisitionMatrix": [80, 0, 0, 80],
      "AngioFlag": "N",
      "BitsAllocated": 16,
      "BitsStored": 12,
      "BodyPartExamined": "BRAIN",
      "Columns": 480,
      "EchoNumbers": 1,
      "EchoTime": 30.0,
      "EchoTrainLength": 80,
      "FlipAngle": 77.0,
      "HighBit": 11,
      "ImageOrientationPatient": [0.98295298603338, 0.18363267629368, 0.00908115880755, -0.1773924991087, 0.93425150333381, 0.30936391156448],
      "ImagePositionPatient": [-584.05206256773, -798.13030815763, -289.65560325575],
      "ImageType": [
        "ORIGINAL",
        "PRIMARY",
        "M",
        "ND",
        "NORM",
        "MOSAIC"
],
      "ImagedNucleus": "1H",
      "ImagingFrequency": 123.252353,
      "InPlanePhaseEncodingDirection": "COL",
      "MRAcquisitionType": "2D",
      "MagneticFieldStrength": 3.0,
      "Manufacturer": "SIEMENS",
      "ManufacturerModelName": "Prisma",
      "Modality": "MR",
      "NumberOfAverages": 1.0,
      "NumberOfPhaseEncodingSteps": 80,
      "PercentPhaseFieldOfView": 100.0,
      "PercentSampling": 100.0,
      "PerformedProcedureStepStartTime": "093647.159000",
      "PhotometricInterpretation": "MONOCHROME2",
      "PixelBandwidth": 2315.0,
      "PixelRepresentation": 0,
      "PixelSpacing": [3.0, 3.0],
      "ProtocolName": "func-bold_fa-77",
      "RepetitionTime": 2000.0,
      "Rows": 480,
      "SAR": 0.04314424057729,
      "SamplesPerPixel": 1,
      "ScanOptions": "FS",
      "ScanningSequence": "EP",
      "SequenceName": "*epfid2d1_80",
      "SequenceVariant": "SK",
      "SeriesDescription": "func-bold_fa-77",
      "SeriesNumber": 8,
      "SeriesTime": "100758.005000",
      "SliceLocation": -59.668751646981,
      "SliceThickness": 3.5,
      "SmallestImagePixelValue": 0,
      "SoftwareVersions": "syngo MR E11",
      "SpacingBetweenSlices": 3.989999936423,
      "SpecificCharacterSet": "ISO_IR 100",
      "StudyID": "5",
      "StudyTime": "093647.085000",
      "TransmitCoilName": "Body",
      "VariableFlipAngleFlag": "N",
      "WindowCenterWidthExplanation": "Algo1"
    },
    "slices": {}
  },
  "time": {
    "samples": {
      "AcquisitionNumber": [1, 2, 3, 4, 5, 6, 7, 8, 9, 10, 11, 12, 13, 14, 15, 16, 17, 18, 19, 20, 21, 22, 23, 24, 25, 26, 27, 28, 29, 30, 31, 32, 33, 34, 35, 36, 37, 38, 39, 40, 41, 42, 43, 44, 45, 46, 47, 48, 49, 50, 51, 52, 53, 54, 55, 56, 57, 58, 59, 60, 61, 62, 63, 64, 65, 66, 67, 68, 69, 70, 71, 72, 73, 74, 75, 76, 77, 78, 79, 80, 81, 82, 83, 84, 85, 86, 87, 88, 89, 90, 91, 92, 93, 94, 95, 96, 97, 98, 99, 100, 101, 102, 103, 104, 105, 106, 107, 108, 109, 110, 111, 112, 113, 114, 115, 116, 117, 118, 119, 120, 121, 122, 123, 124, 125, 126, 127, 128, 129, 130, 131, 132, 133, 134, 135, 136, 137, 138, 139, 140, 141, 142, 143, 144, 145, 146, 147, 148, 149, 150, 151, 152, 153, 154, 155, 156, 157, 158, 159, 160, 161, 162, 163, 164, 165, 166, 167, 168, 169, 170, 171, 172, 173, 174, 175, 176, 177, 178, 179, 180, 181, 182, 183, 184, 185, 186, 187, 188, 189, 190, 191, 192, 193, 194, 195, 196, 197, 198, 199, 200],
      "AcquisitionTime": ["100713.470000", "100715.470000", "100717.470000", "100719.470000", "100721.470000", "100723.470000", "100725.470000", "100727.470000", "100729.470000", "100731.470000", "100733.470000", "100735.470000", "100737.470000", "100739.470000", "100741.470000", "100743.470000", "100745.470000", "100747.470000", "100749.470000", "100751.470000", "100753.470000", "100755.470000", "100757.470000", "100759.470000", "100801.470000", "100803.470000", "100805.470000", "100807.470000", "100809.470000", "100811.470000", "100813.470000", "100815.470000", "100817.470000", "100819.470000", "100821.470000", "100823.470000", "100825.470000", "100827.470000", "100829.470000", "100831.470000", "100833.470000", "100835.470000", "100837.470000", "100839.470000", "100841.470000", "100843.470000", "100845.470000", "100847.470000", "100849.470000", "100851.470000", "100853.470000", "100855.470000", "100857.470000", "100859.470000", "100901.470000", "100903.470000", "100905.470000", "100907.470000", "100909.470000", "100911.470000", "100913.470000", "100915.470000", "100917.470000", "100919.470000", "100921.470000", "100923.470000", "100925.470000", "100927.470000", "100929.470000", "100931.470000", "100933.470000", "100935.470000", "100937.470000", "100939.470000", "100941.470000", "100943.470000", "100945.470000", "100947.470000", "100949.470000", "100951.470000", "100953.470000", "100955.470000", "100957.470000", "100959.470000", "101001.470000", "101003.470000", "101005.470000", "101007.470000", "101009.470000", "101011.470000", "101013.470000", "101015.470000", "101017.470000", "101019.470000", "101021.470000", "101023.470000", "101025.470000", "101027.470000", "101029.470000", "101031.470000", "101033.470000", "101035.470000", "101037.470000", "101039.470000", "101041.470000", "101043.470000", "101045.470000", "101047.470000", "101049.470000", "101051.470000", "101053.470000", "101055.470000", "101057.470000", "101059.470000", "101101.470000", "101103.470000", "101105.470000", "101107.470000", "101109.470000", "101111.470000", "101113.470000", "101115.470000", "101117.470000", "101119.470000", "101121.470000", "101123.470000", "101125.470000", "101127.470000", "101129.470000", "101131.470000", "101133.470000", "101135.470000", "101137.470000", "101139.470000", "101141.470000", "101143.470000", "101145.470000", "101147.470000", "101149.470000", "101151.470000", "101153.470000", "101155.470000", "101157.470000", "101159.470000", "101201.470000", "101203.470000", "101205.470000", "101207.470000", "101209.470000", "101211.470000", "101213.470000", "101215.470000", "101217.470000", "101219.470000", "101221.470000", "101223.470000", "101225.470000", "101227.470000", "101229.470000", "101231.470000", "101233.470000", "101235.470000", "101237.470000", "101239.470000", "101241.470000", "101243.470000", "101245.470000", "101247.470000", "101249.470000", "101251.470000", "101253.470000", "101255.470000", "101257.470000", "101259.470000", "101301.470000", "101303.470000", "101305.470000", "101307.470000", "101309.470000", "101311.470000", "101313.470000", "101315.470000", "101317.470000", "101319.470000", "101321.470000", "101323.470000", "101325.470000", "101327.470000", "101329.470000", "101331.470000", "101333.470000", "101335.470000", "101337.470000", "101339.470000", "101341.470000", "101343.470000", "101345.470000", "101347.470000", "101349.470000", "101351.470000"],
      "ContentTime": ["100758.008000", "100758.011000", "100758.013000", "100758.015000", "100758.018000", "100758.020000", "100758.022000", "100758.024000", "100758.034000", "100758.036000", "100758.038000", "100758.040000", "100758.043000", "100758.045000", "100758.047000", "100758.050000", "100758.052000", "100758.054000", "100758.056000", "100758.059000", "100758.061000", "100758.063000", "100838.004000", "100838.007000", "100838.009000", "100838.011000", "100838.014000", "100838.016000", "100838.018000", "100838.021000", "100838.023000", "100838.025000", "100838.027000", "100838.030000", "100838.032000", "100838.034000", "100838.037000", "100838.039000", "100838.041000", "100838.043000", "100838.046000", "100838.048000", "100918.004000", "100918.007000", "100918.009000", "100918.011000", "100918.013000", "100918.016000", "100918.018000", "100918.020000", "100918.023000", "100918.025000", "100918.027000", "100918.029000", "100918.032000", "100918.034000", "100918.036000", "100918.039000", "100918.041000", "100918.043000", "100918.045000", "100918.048000", "100958.003000", "100958.006000", "100958.008000", "100958.011000", "100958.013000", "100958.015000", "100958.018000", "100958.020000", "100958.022000", "100958.024000", "100958.027000", "100958.029000", "100958.032000", "100958.034000", "100958.036000", "100958.038000", "100958.041000", "100958.043000", "100958.045000", "100958.048000", "101038.004000", "101038.007000", "101038.009000", "101038.011000", "101038.014000", "101038.016000", "101038.018000", "101038.021000", "101038.023000", "101038.025000", "101038.027000", "101038.030000", "101038.032000", "101038.034000", "101038.037000", "101038.039000", "101038.041000", "101038.044000", "101038.046000", "101038.048000", "101118.004000", "101118.007000", "101118.009000", "101118.020000", "101118.022000", "101118.024000", "101118.026000", "101118.029000", "101118.031000", "101118.033000", "101118.036000", "101118.038000", "101118.040000", "101118.043000", "101118.045000", "101118.047000", "101118.049000", "101118.052000", "101118.054000", "101118.056000", "101158.004000", "101158.007000", "101158.009000", "101158.011000", "101158.014000", "101158.016000", "101158.018000", "101158.020000", "101158.023000", "101158.025000", "101158.027000", "101158.030000", "101158.032000", "101158.034000", "101158.037000", "101158.039000", "101158.041000", "101158.043000", "101158.046000", "101158.048000", "101238.003000", "101238.006000", "101238.008000", "101238.010000", "101238.013000", "101238.015000", "101238.017000", "101238.020000", "101238.022000", "101238.024000", "101238.026000", "101238.029000", "101238.031000", "101238.033000", "101238.036000", "101238.038000", "101238.040000", "101238.043000", "101238.045000", "101238.047000", "101258.004000", "101258.007000", "101258.009000", "101258.011000", "101258.014000", "101258.016000", "101258.018000", "101258.021000", "101258.023000", "101258.025000", "101338.004000", "101338.007000", "101338.009000", "101338.011000", "101338.014000", "101338.016000", "101338.018000", "101338.021000", "101338.023000", "101338.025000", "101338.028000", "101338.030000", "101338.032000", "101338.034000", "101338.037000", "101338.039000", "101338.041000", "101338.063000", "101338.066000", "101338.068000", "101353.378000", "101353.381000", "101353.383000", "101353.386000", "101353.388000", "101353.391000", "101353.393000", "101353.395000"],
      "InstanceCreationTime": ["100758.008000", "100758.011000", "100758.013000", "100758.015000", "100758.018000", "100758.020000", "100758.022000", "100758.024000", "100758.034000", "100758.036000", "100758.038000", "100758.040000", "100758.043000", "100758.045000", "100758.047000", "100758.050000", "100758.052000", "100758.054000", "100758.056000", "100758.059000", "100758.061000", "100758.063000", "100838.004000", "100838.007000", "100838.009000", "100838.011000", "100838.014000", "100838.016000", "100838.018000", "100838.021000", "100838.023000", "100838.025000", "100838.027000", "100838.030000", "100838.032000", "100838.034000", "100838.037000", "100838.039000", "100838.041000", "100838.043000", "100838.046000", "100838.048000", "100918.004000", "100918.007000", "100918.009000", "100918.011000", "100918.013000", "100918.016000", "100918.018000", "100918.020000", "100918.023000", "100918.025000", "100918.027000", "100918.029000", "100918.032000", "100918.034000", "100918.036000", "100918.039000", "100918.041000", "100918.043000", "100918.045000", "100918.048000", "100958.003000", "100958.006000", "100958.008000", "100958.011000", "100958.013000", "100958.015000", "100958.018000", "100958.020000", "100958.022000", "100958.024000", "100958.027000", "100958.029000", "100958.032000", "100958.034000", "100958.036000", "100958.038000", "100958.041000", "100958.043000", "100958.045000", "100958.048000", "101038.004000", "101038.007000", "101038.009000", "101038.011000", "101038.014000", "101038.016000", "101038.018000", "101038.021000", "101038.023000", "101038.025000", "101038.027000", "101038.030000", "101038.032000", "101038.034000", "101038.037000", "101038.039000", "101038.041000", "101038.044000", "101038.046000", "101038.048000", "101118.004000", "101118.007000", "101118.009000", "101118.020000", "101118.022000", "101118.024000", "101118.026000", "101118.029000", "101118.031000", "101118.033000", "101118.036000", "101118.038000", "101118.040000", "101118.043000", "101118.045000", "101118.047000", "101118.049000", "101118.052000", "101118.054000", "101118.056000", "101158.004000", "101158.007000", "101158.009000", "101158.011000", "101158.014000", "101158.016000", "101158.018000", "101158.020000", "101158.023000", "101158.025000", "101158.027000", "101158.030000", "101158.032000", "101158.034000", "101158.037000", "101158.039000", "101158.041000", "101158.043000", "101158.046000", "101158.048000", "101238.003000", "101238.006000", "101238.008000", "101238.010000", "101238.013000", "101238.015000", "101238.017000", "101238.020000", "101238.022000", "101238.024000", "101238.026000", "101238.029000", "101238.031000", "101238.033000", "101238.036000", "101238.038000", "101238.040000", "101238.043000", "101238.045000", "101238.047000", "101258.004000", "101258.007000", "101258.009000", "101258.011000", "101258.014000", "101258.016000", "101258.018000", "101258.021000", "101258.023000", "101258.025000", "101338.004000", "101338.007000", "101338.009000", "101338.011000", "101338.014000", "101338.016000", "101338.018000", "101338.021000", "101338.023000", "101338.025000", "101338.028000", "101338.030000", "101338.032000", "101338.034000", "101338.037000", "101338.039000", "101338.041000", "101338.063000", "101338.066000", "101338.068000", "101353.378000", "101353.381000", "101353.383000", "101353.386000", "101353.388000", "101353.391000", "101353.393000", "101353.395000"],
      "InstanceNumber": [1, 2, 3, 4, 5, 6, 7, 8, 9, 10, 11, 12, 13, 14, 15, 16, 17, 18, 19, 20, 21, 22, 23, 24, 25, 26, 27, 28, 29, 30, 31, 32, 33, 34, 35, 36, 37, 38, 39, 40, 41, 42, 43, 44, 45, 46, 47, 48, 49, 50, 51, 52, 53, 54, 55, 56, 57, 58, 59, 60, 61, 62, 63, 64, 65, 66, 67, 68, 69, 70, 71, 72, 73, 74, 75, 76, 77, 78, 79, 80, 81, 82, 83, 84, 85, 86, 87, 88, 89, 90, 91, 92, 93, 94, 95, 96, 97, 98, 99, 100, 101, 102, 103, 104, 105, 106, 107, 108, 109, 110, 111, 112, 113, 114, 115, 116, 117, 118, 119, 120, 121, 122, 123, 124, 125, 126, 127, 128, 129, 130, 131, 132, 133, 134, 135, 136, 137, 138, 139, 140, 141, 142, 143, 144, 145, 146, 147, 148, 149, 150, 151, 152, 153, 154, 155, 156, 157, 158, 159, 160, 161, 162, 163, 164, 165, 166, 167, 168, 169, 170, 171, 172, 173, 174, 175, 176, 177, 178, 179, 180, 181, 182, 183, 184, 185, 186, 187, 188, 189, 190, 191, 192, 193, 194, 195, 196, 197, 198, 199, 200],
      "LargestImagePixelValue": [1795, 1794, 1796, 1796, 1795, 1794, 1795, 1795, 1795, 1797, 1794, 1796, 1797, 1795, 1794, 1795, 1799, 1797, 1795, 1795, 1795, 1795, 1798, 1796, 1797, 1795, 1795, 1797, 1796, 1797, 1796, 1796, 1795, 1796, 1796, 1795, 1798, 1796, 1794, 1796, 1795, 1794, 1794, 1795, 1795, 1797, 1796, 1797, 1795, 1796, 1796, 1795, 1794, 1795, 1797, 1795, 1794, 1795, 1796, 1796, 1796, 1795, 1795, 1796, 1795, 1794, 1796, 1794, 1795, 1796, 1797, 1795, 1796, 1797, 1794, 1795, 1795, 1795, 1795, 1794, 1796, 1795, 1795, 1794, 1794, 1795, 1795, 1795, 1795, 1795, 1795, 1795, 1796, 1795, 1794, 1794, 1796, 1795, 1795, 1795, 1795, 1794, 1796, 1793, 1795, 1795, 1795, 1797, 1796, 1795, 1794, 1794, 1794, 1795, 1794, 1796, 1794, 1795, 1795, 1794, 1794, 1794, 1795, 1795, 1794, 1793, 1794, 1795, 1793, 1795, 1794, 1794, 1795, 1793, 1793, 1793, 1794, 1794, 1793, 1793, 1793, 1796, 1795, 1795, 1795, 1794, 1793, 1793, 1795, 1793, 1792, 1794, 1794, 1793, 1793, 1794, 1794, 1793, 1792, 1794, 1794, 1795, 1796, 1796, 1794, 1795, 1795, 1794, 1794, 1795, 1794, 1796, 1796, 1795, 1795, 1796, 1794, 1796, 1795, 1794, 1796, 1794, 1794, 1794, 1794, 1794, 1795, 1795, 1794, 1794, 1795, 1793, 1794, 1794, 1793, 1797, 1795, 1794, 1795, 1795],
      "WindowCenter": [942.0, 944.0, 943.0, 944.0, 944.0, 944.0, 944.0, 944.0, 944.0, 944.0, 944.0, 944.0, 944.0, 944.0, 944.0, 944.0, 944.0, 944.0, 944.0, 944.0, 943.0, 943.0, 943.0, 944.0, 943.0, 943.0, 943.0, 943.0, 943.0, 943.0, 943.0, 943.0, 943.0, 943.0, 944.0, 943.0, 943.0, 944.0, 944.0, 943.0, 943.0, 943.0, 943.0, 943.0, 943.0, 943.0, 943.0, 943.0, 943.0, 943.0, 942.0, 943.0, 944.0, 943.0, 943.0, 943.0, 943.0, 943.0, 943.0, 943.0, 942.0, 942.0, 942.0, 943.0, 943.0, 943.0, 943.0, 943.0, 943.0, 943.0, 942.0, 942.0, 943.0, 943.0, 942.0, 943.0, 941.0, 943.0, 943.0, 943.0, 943.0, 942.0, 944.0, 943.0, 943.0, 943.0, 943.0, 943.0, 943.0, 943.0, 942.0, 943.0, 943.0, 943.0, 943.0, 944.0, 943.0, 944.0, 943.0, 943.0, 943.0, 943.0, 943.0, 943.0, 943.0, 941.0, 943.0, 941.0, 943.0, 943.0, 943.0, 943.0, 943.0, 943.0, 943.0, 943.0, 943.0, 941.0, 941.0, 942.0, 943.0, 942.0, 942.0, 942.0, 943.0, 943.0, 942.0, 942.0, 941.0, 943.0, 942.0, 941.0, 942.0, 942.0, 942.0, 942.0, 943.0, 941.0, 942.0, 942.0, 942.0, 942.0, 942.0, 943.0, 942.0, 941.0, 942.0, 942.0, 942.0, 944.0, 942.0, 942.0, 941.0, 942.0, 941.0, 942.0, 943.0, 943.0, 942.0, 942.0, 943.0, 942.0, 941.0, 942.0, 942.0, 942.0, 941.0, 942.0, 942.0, 942.0, 942.0, 942.0, 942.0, 942.0, 943.0, 942.0, 941.0, 942.0, 943.0, 942.0, 942.0, 943.0, 942.0, 942.0, 942.0, 941.0, 942.0, 942.0, 942.0, 941.0, 942.0, 941.0, 942.0, 942.0, 943.0, 942.0, 942.0, 942.0, 942.0, 941.0],
      "WindowWidth": [2041.0, 2043.0, 2041.0, 2042.0, 2043.0, 2043.0, 2043.0, 2042.0, 2042.0, 2042.0, 2042.0, 2042.0, 2042.0, 2042.0, 2042.0, 2042.0, 2043.0, 2043.0, 2042.0, 2042.0, 2042.0, 2042.0, 2042.0, 2043.0, 2042.0, 2042.0, 2042.0, 2042.0, 2042.0, 2042.0, 2042.0, 2042.0, 2042.0, 2042.0, 2042.0, 2042.0, 2042.0, 2042.0, 2042.0, 2042.0, 2042.0, 2042.0, 2042.0, 2042.0, 2042.0, 2042.0, 2042.0, 2042.0, 2041.0, 2041.0, 2041.0, 2041.0, 2042.0, 2041.0, 2041.0, 2041.0, 2041.0, 2041.0, 2041.0, 2041.0, 2041.0, 2040.0, 2041.0, 2041.0, 2041.0, 2041.0, 2041.0, 2041.0, 2041.0, 2041.0, 2040.0, 2040.0, 2041.0, 2041.0, 2040.0, 2041.0, 2040.0, 2041.0, 2041.0, 2041.0, 2041.0, 2041.0, 2042.0, 2041.0, 2041.0, 2041.0, 2041.0, 2041.0, 2041.0, 2041.0, 2040.0, 2041.0, 2041.0, 2041.0, 2040.0, 2041.0, 2041.0, 2041.0, 2041.0, 2041.0, 2041.0, 2041.0, 2040.0, 2041.0, 2041.0, 2039.0, 2041.0, 2039.0, 2040.0, 2041.0, 2040.0, 2040.0, 2040.0, 2041.0, 2040.0, 2041.0, 2040.0, 2039.0, 2039.0, 2040.0, 2040.0, 2040.0, 2040.0, 2040.0, 2041.0, 2041.0, 2039.0, 2040.0, 2039.0, 2041.0, 2039.0, 2039.0, 2040.0, 2040.0, 2039.0, 2040.0, 2041.0, 2039.0, 2040.0, 2040.0, 2040.0, 2040.0, 2040.0, 2041.0, 2040.0, 2039.0, 2040.0, 2040.0, 2040.0, 2041.0, 2040.0, 2040.0, 2039.0, 2040.0, 2039.0, 2040.0, 2040.0, 2041.0, 2040.0, 2040.0, 2040.0, 2040.0, 2039.0, 2040.0, 2040.0, 2040.0, 2038.0, 2040.0, 2039.0, 2040.0, 2040.0, 2040.0, 2040.0, 2040.0, 2041.0, 2040.0, 2038.0, 2039.0, 2040.0, 2040.0, 2040.0, 2040.0, 2040.0, 2040.0, 2040.0, 2039.0, 2040.0, 2040.0, 2040.0, 2038.0, 2039.0, 2038.0, 2039.0, 2039.0, 2040.0, 2040.0, 2040.0, 2039.0, 2039.0, 2038.0]
    },
    "slices": {}
  }
}