{
  "AcquisitionMatrixPE": 80,
  "AcquisitionNumber": 1,
  "AcquisitionTime": "09:05:21.445000",
  "BandwidthPerPixelPhaseEncode": 25,
  "BaseResolution": 80,
  "BodyPartExamined": "BRAIN",
  "CoilCombinationMethod": "Sum of Squares",
  "ConsistencyInfo": "N4_VE11E_LATEST_20181129",
  "ConversionSoftware": "dcm2niix",
  "ConversionSoftwareVersion": "v1.0.20220720",
  "DerivedVendorReportedEchoSpacing": 0.0005,
  "DeviceSerialNumber": "66112",
  "DwellTime": 2.7e-06,
  "EchoTime": 0.03,
  "EchoTrainLength": 80,
  "EffectiveEchoSpacing": 0.0005,
  "FlipAngle": 77,
  "HeudiconvVersion": "0.13.1",
  "ImageOrientationPatientDICOM": [0.999945, 0.0104555, -0.000299683, -0.00977366, 0.944172, 0.329308],
  "ImageOrientationText": "Tra>Cor(19.2)>Sag(-0.2)",
  "ImageType": [
    "ORIGINAL",
    "PRIMARY",
    "M",
    "ND",
    "NORM",
    "MOSAIC"
],
  "ImagingFrequency": 123.259,
  "InPlanePhaseEncodingDirectionDICOM": "COL",
  "InstitutionAddress": "Maynard 3,Hanover,NH,US,03755",
  "InstitutionName": "Dartmouth College - PBS",
  "InstitutionalDepartmentName": "Department",
  "MRAcquisitionType": "2D",
  "MagneticFieldStrength": 3,
  "Manufacturer": "Siemens",
  "ManufacturersModelName": "Prisma",
  "MatrixCoilMode": "SENSE",
  "Modality": "MR",
  "NonlinearGradientCorrection": false,
  "PartialFourier": 1,
  "PatientPosition": "HFS",
  "PercentPhaseFOV": 100,
  "PercentSampling": 100,
  "PhaseEncodingDirection": "j-",
  "PhaseEncodingSteps": 80,
  "PhaseResolution": 1,
  "PixelBandwidth": 2315,
  "ProcedureStepDescription": "dbic^QA",
  "ProtocolName": "func-bold_fa-77",
  "PulseSequenceDetails": "%SiemensSeq%\\ep2d_bold",
  "ReceiveCoilActiveElements": "HC1-7;NC1,2",
  "ReceiveCoilName": "HeadNeck_64",
  "ReconMatrixPE": 80,
  "RepetitionTime": 2,
  "SAR": 0.028331,
  "ScanOptions": "FS",
  "ScanningSequence": "EP",
  "SequenceName": "*epfid2d1_80",
  "SequenceVariant": "SK",
  "SeriesDescription": "func-bold_fa-77",
  "SeriesNumber": 7,
  "ShimSetting": [4214, -7732, -7482, -114, -164, -204, -71, 97],
  "SliceThickness": 3.5,
  "SliceTiming": [0.99, 0, 1.055, 0.065, 1.12, 0.1325, 1.1875, 0.1975, 1.2525, 0.2625, 1.32, 0.33, 1.385, 0.395, 1.45, 0.46, 1.5175, 0.5275, 1.5825, 0.5925, 1.65, 0.66, 1.715, 0.725, 1.78, 0.79, 1.8475, 0.8575, 1.9125, 0.9225],
  "SoftwareVersions": "syngo MR E11",
  "SpacingBetweenSlices": 3.99,
  "StationName": "AWP66112",
  "TotalReadoutTime": 0.0395,
  "TxRefAmp": 215.372,
  "dcmmeta_affine": [
    [-2.999835968017578, -0.029320983216166496, -0.014866923913359642, 120.44586944580078],
    [-0.031366582959890366, 2.8325154781341553, 1.313857078552246, -114.67074584960938],
    [-0.0008990505011752248, -0.9879252910614014, 3.7674472332000732, -18.355792999267578],
    [0.0, 0.0, 0.0, 1.0]
],
  "dcmmeta_reorient_transform": [
    [0.0, -1.0, 0.0, 79.0],
    [1.0, 0.0, 0.0, 0.0],
    [0.0, 0.0, 1.0, 0.0],
    [0.0, 0.0, 0.0, 1.0]
],
  "dcmmeta_shape": [80, 80, 30, 200],
  "dcmmeta_slice_dim": 2,
  "dcmmeta_version": 0.6,
  "global": {
    "const": {
      "AccessionNumber": "qa64",
      "AcquisitionMatrix": [80, 0, 0, 80],
      "AngioFlag": "N",
      "BitsAllocated": 16,
      "BitsStored": 12,
      "BodyPartExamined": "BRAIN",
      "Columns": 480,
      "EchoNumbers": 1,
      "EchoTime": 30.0,
      "EchoTrainLength": 80,
      "FlipAngle": 77.0,
      "HighBit": 11,
      "ImageOrientationPatient": [0.99994529456544, 0.01045552802261, -0.0002996834945, -0.0097736613491, 0.94417182522586, 0.32930842684859],
      "ImagePositionPatient": [-712.2324921269, -681.87438890753, -293.80713643201],
      "ImageType": [
        "ORIGINAL",
        "PRIMARY",
        "M",
        "ND",
        "NORM",
        "MOSAIC"
],
      "ImagedNucleus": "1H",
      "ImagingFrequency": 123.259263,
      "InPlanePhaseEncodingDirection": "COL",
      "LargestImagePixelValue": 4095,
      "MRAcquisitionType": "2D",
      "MagneticFieldStrength": 3.0,
      "Manufacturer": "SIEMENS",
      "ManufacturerModelName": "Prisma",
      "Modality": "MR",
      "NumberOfAverages": 1.0,
      "NumberOfPhaseEncodingSteps": 80,
      "PercentPhaseFieldOfView": 100.0,
      "PercentSampling": 100.0,
      "PerformedProcedureStepStartTime": "085144.015000",
      "PhotometricInterpretation": "MONOCHROME2",
      "PixelBandwidth": 2315.0,
      "PixelRepresentation": 0,
      "PixelSpacing": [3.0, 3.0],
      "ProtocolName": "func-bold_fa-77",
      "RepetitionTime": 2000.0,
      "Rows": 480,
      "SAR": 0.02833104305637,
      "SamplesPerPixel": 1,
      "ScanOptions": "FS",
      "ScanningSequence": "EP",
      "SequenceName": "*epfid2d1_80",
      "SequenceVariant": "SK",
      "SeriesDescription": "func-bold_fa-77",
      "SeriesNumber": 7,
      "SeriesTime": "090612.455000",
      "SliceLocation": -55.540378538723,
      "SliceThickness": 3.5,
      "SmallestImagePixelValue": 0,
      "SoftwareVersions": "syngo MR E11",
      "SpacingBetweenSlices": 3.9899999827054,
      "SpecificCharacterSet": "ISO_IR 100",
      "StudyID": "27",
      "StudyTime": "085143.888000",
      "TransmitCoilName": "Body",
      "VariableFlipAngleFlag": "N",
      "WindowCenterWidthExplanation": "Algo1"
    },
    "slices": {}
  },
  "time": {
    "samples": {
      "AcquisitionNumber": [1, 2, 3, 4, 5, 6, 7, 8, 9, 10, 11, 12, 13, 14, 15, 16, 17, 18, 19, 20, 21, 22, 23, 24, 25, 26, 27, 28, 29, 30, 31, 32, 33, 34, 35, 36, 37, 38, 39, 40, 41, 42, 43, 44, 45, 46, 47, 48, 49, 50, 51, 52, 53, 54, 55, 56, 57, 58, 59, 60, 61, 62, 63, 64, 65, 66, 67, 68, 69, 70, 71, 72, 73, 74, 75, 76, 77, 78, 79, 80, 81, 82, 83, 84, 85, 86, 87, 88, 89, 90, 91, 92, 93, 94, 95, 96, 97, 98, 99, 100, 101, 102, 103, 104, 105, 106, 107, 108, 109, 110, 111, 112, 113, 114, 115, 116, 117, 118, 119, 120, 121, 122, 123, 124, 125, 126, 127, 128, 129, 130, 131, 132, 133, 134, 135, 136, 137, 138, 139, 140, 141, 142, 143, 144, 145, 146, 147, 148, 149, 150, 151, 152, 153, 154, 155, 156, 157, 158, 159, 160, 161, 162, 163, 164, 165, 166, 167, 168, 169, 170, 171, 172, 173, 174, 175, 176, 177, 178, 179, 180, 181, 182, 183, 184, 185, 186, 187, 188, 189, 190, 191, 192, 193, 194, 195, 196, 197, 198, 199, 200],
      "AcquisitionTime": ["090521.445000", "090523.445000", "090525.445000", "090527.445000", "090529.445000", "090531.445000", "090533.445000", "090535.445000", "090537.445000", "090539.445000", "090541.445000", "090543.445000", "090545.445000", "090547.445000", "090549.445000", "090551.445000", "090553.445000", "090555.445000", "090557.445000", "090559.445000", "090601.445000", "090603.445000", "090605.445000", "090607.445000", "090609.445000", "090611.445000", "090613.445000", "090615.445000", "090617.445000", "090619.445000", "090621.445000", "090623.445000", "090625.445000", "090627.445000", "090629.445000", "090631.445000", "090633.445000", "090635.445000", "090637.445000", "090639.445000", "090641.445000", "090643.445000", "090645.445000", "090647.445000", "090649.445000", "090651.445000", "090653.445000", "090655.445000", "090657.445000", "090659.445000", "090701.445000", "090703.445000", "090705.445000", "090707.445000", "090709.445000", "090711.445000", "090713.445000", "090715.445000", "090717.445000", "090719.445000", "090721.445000", "090723.445000", "090725.445000", "090727.445000", "090729.445000", "090731.445000", "090733.445000", "090735.445000", "090737.445000", "090739.445000", "090741.445000", "090743.445000", "090745.445000", "090747.445000", "090749.445000", "090751.445000", "090753.445000", "090755.445000", "090757.445000", "090759.445000", "090801.445000", "090803.445000", "090805.445000", "090807.445000", "090809.445000", "090811.445000", "090813.445000", "090815.445000", "090817.445000", "090819.445000", "090821.445000", "090823.445000", "090825.445000", "090827.445000", "090829.445000", "090831.445000", "090833.445000", "090835.445000", "090837.445000", "090839.445000", "090841.445000", "090843.445000", "090845.445000", "090847.445000", "090849.445000", "090851.445000", "090853.445000", "090855.445000", "090857.445000", "090859.445000", "090901.445000", "090903.445000", "090905.445000", "090907.445000", "090909.445000", "090911.445000", "090913.445000", "090915.445000", "090917.445000", "090919.445000", "090921.445000", "090923.445000", "090925.445000", "090927.445000", "090929.445000", "090931.445000", "090933.445000", "090935.445000", "090937.445000", "090939.445000", "090941.445000", "090943.445000", "090945.445000", "090947.445000", "090949.445000", "090951.445000", "090953.445000", "090955.445000", "090957.445000", "090959.445000", "091001.445000", "091003.445000", "091005.445000", "091007.445000", "091009.445000", "091011.445000", "091013.445000", "091015.445000", "091017.445000", "091019.445000", "091021.445000", "091023.445000", "091025.445000", "091027.445000", "091029.445000", "091031.445000", "091033.445000", "091035.445000", "091037.445000", "091039.445000", "091041.445000", "091043.445000", "091045.445000", "091047.445000", "091049.445000", "091051.445000", "091053.445000", "091055.445000", "091057.445000", "091059.445000", "091101.445000", "091103.445000", "091105.445000", "091107.445000", "091109.445000", "091111.445000", "091113.445000", "091115.445000", "091117.445000", "091119.445000", "091121.445000", "091123.445000", "091125.445000", "091127.445000", "091129.445000", "091131.445000", "091133.445000", "091135.445000", "091137.445000", "091139.445000", "091141.445000", "091143.445000", "091145.445000", "091147.445000", "091149.445000", "091151.445000", "091153.445000", "091155.445000", "091157.445000", "091159.445000"],
      "ContentTime": ["090612.458000", "090612.462000", "090612.464000", "090612.474000", "090612.476000", "090612.479000", "090612.481000", "090612.484000", "090612.486000", "090612.488000", "090612.491000", "090612.493000", "090612.495000", "090612.498000", "090612.500000", "090612.503000", "090612.505000", "090612.508000", "090612.510000", "090612.512000", "090612.515000", "090612.517000", "090612.519000", "090612.522000", "090612.524000", "090652.454000", "090652.457000", "090652.459000", "090652.461000", "090652.464000", "090652.466000", "090652.469000", "090652.471000", "090652.473000", "090652.476000", "090652.478000", "090652.480000", "090652.483000", "090652.485000", "090652.487000", "090652.490000", "090652.492000", "090652.494000", "090652.497000", "090652.499000", "090732.453000", "090732.456000", "090732.458000", "090732.461000", "090732.463000", "090732.466000", "090732.468000", "090732.470000", "090732.473000", "090732.475000", "090732.478000", "090732.480000", "090732.482000", "090732.485000", "090732.488000", "090732.490000", "090732.492000", "090732.495000", "090732.497000", "090732.499000", "090812.453000", "090812.456000", "090812.458000", "090812.461000", "090812.463000", "090812.465000", "090812.468000", "090812.480000", "090812.482000", "090812.485000", "090812.487000", "090812.489000", "090812.492000", "090812.494000", "090812.496000", "090812.499000", "090812.501000", "090812.504000", "090812.506000", "090812.508000", "090852.453000", "090852.456000", "090852.459000", "090852.461000", "090852.463000", "090852.466000", "090852.468000", "090852.470000", "090852.473000", "090852.475000", "090852.477000", "090852.480000", "090852.482000", "090852.484000", "090852.487000", "090852.489000", "090852.491000", "090852.494000", "090852.496000", "090852.499000", "090932.453000", "090932.456000", "090932.459000", "090932.461000", "090932.463000", "090932.466000", "090932.468000", "090932.470000", "090932.473000", "090932.475000", "090932.477000", "090932.480000", "090932.482000", "090932.484000", "090932.487000", "090932.489000", "090932.491000", "090932.494000", "090932.496000", "090932.498000", "091012.453000", "091012.456000", "091012.459000", "091012.461000", "091012.464000", "091012.466000", "091012.469000", "091012.471000", "091012.473000", "091012.476000", "091012.478000", "091012.480000", "091012.483000", "091012.485000", "091012.487000", "091012.490000", "091012.492000", "091012.494000", "091012.497000", "091012.499000", "091052.453000", "091052.456000", "091052.459000", "091052.461000", "091052.463000", "091052.466000", "091052.468000", "091052.471000", "091052.473000", "091052.475000", "091052.478000", "091052.480000", "091052.482000", "091052.485000", "091052.487000", "091052.489000", "091052.492000", "091052.494000", "091052.497000", "091052.499000", "091132.453000", "091132.456000", "091132.458000", "091132.461000", "091132.463000", "091132.465000", "091132.468000", "091132.470000", "091132.472000", "091132.475000", "091132.490000", "091132.492000", "091132.494000", "091132.497000", "091132.500000", "091132.502000", "091132.505000", "091132.507000", "091132.510000", "091132.512000", "091201.672000", "091201.675000", "091201.677000", "091201.679000", "091201.682000", "091201.684000", "091201.687000", "091201.689000", "091201.691000", "091201.694000", "091201.696000", "091201.699000", "091201.702000", "091201.704000", "091201.707000"],
      "InstanceCreationTime": ["090612.458000", "090612.462000", "090612.464000", "090612.474000", "090612.476000", "090612.479000", "090612.481000", "090612.484000", "090612.486000", "090612.488000", "090612.491000", "090612.493000", "090612.495000", "090612.498000", "090612.500000", "090612.503000", "090612.505000", "090612.508000", "090612.510000", "090612.512000", "090612.515000", "090612.517000", "090612.519000", "090612.522000", "090612.524000", "090652.454000", "090652.457000", "090652.459000", "090652.461000", "090652.464000", "090652.466000", "090652.469000", "090652.471000", "090652.473000", "090652.476000", "090652.478000", "090652.480000", "090652.483000", "090652.485000", "090652.487000", "090652.490000", "090652.492000", "090652.494000", "090652.497000", "090652.499000", "090732.453000", "090732.456000", "090732.458000", "090732.461000", "090732.463000", "090732.466000", "090732.468000", "090732.470000", "090732.473000", "090732.475000", "090732.478000", "090732.480000", "090732.482000", "090732.485000", "090732.488000", "090732.490000", "090732.492000", "090732.495000", "090732.497000", "090732.499000", "090812.453000", "090812.456000", "090812.458000", "090812.461000", "090812.463000", "090812.465000", "090812.468000", "090812.480000", "090812.482000", "090812.485000", "090812.487000", "090812.489000", "090812.492000", "090812.494000", "090812.496000", "090812.499000", "090812.501000", "090812.504000", "090812.506000", "090812.508000", "090852.453000", "090852.456000", "090852.459000", "090852.461000", "090852.463000", "090852.466000", "090852.468000", "090852.470000", "090852.473000", "090852.475000", "090852.477000", "090852.480000", "090852.482000", "090852.484000", "090852.487000", "090852.489000", "090852.491000", "090852.494000", "090852.496000", "090852.499000", "090932.453000", "090932.456000", "090932.459000", "090932.461000", "090932.463000", "090932.466000", "090932.468000", "090932.470000", "090932.473000", "090932.475000", "090932.477000", "090932.480000", "090932.482000", "090932.484000", "090932.487000", "090932.489000", "090932.491000", "090932.494000", "090932.496000", "090932.498000", "091012.453000", "091012.456000", "091012.459000", "091012.461000", "091012.464000", "091012.466000", "091012.469000", "091012.471000", "091012.473000", "091012.476000", "091012.478000", "091012.480000", "091012.483000", "091012.485000", "091012.487000", "091012.490000", "091012.492000", "091012.494000", "091012.497000", "091012.499000", "091052.453000", "091052.456000", "091052.459000", "091052.461000", "091052.463000", "091052.466000", "091052.468000", "091052.471000", "091052.473000", "091052.475000", "091052.478000", "091052.480000", "091052.482000", "091052.485000", "091052.487000", "091052.489000", "091052.492000", "091052.494000", "091052.497000", "091052.499000", "091132.453000", "091132.456000", "091132.458000", "091132.461000", "091132.463000", "091132.465000", "091132.468000", "091132.470000", "091132.472000", "091132.475000", "091132.490000", "091132.492000", "091132.494000", "091132.497000", "091132.500000", "091132.502000", "091132.505000", "091132.507000", "091132.510000", "091132.512000", "091201.672000", "091201.675000", "091201.677000", "091201.679000", "091201.682000", "091201.684000", "091201.687000", "091201.689000", "091201.691000", "091201.694000", "091201.696000", "091201.699000", "091201.702000", "091201.704000", "091201.707000"],
      "InstanceNumber": [1, 2, 3, 4, 5, 6, 7, 8, 9, 10, 11, 12, 13, 14, 15, 16, 17, 18, 19, 20, 21, 22, 23, 24, 25, 26, 27, 28, 29, 30, 31, 32, 33, 34, 35, 36, 37, 38, 39, 40, 41, 42, 43, 44, 45, 46, 47, 48, 49, 50, 51, 52, 53, 54, 55, 56, 57, 58, 59, 60, 61, 62, 63, 64, 65, 66, 67, 68, 69, 70, 71, 72, 73, 74, 75, 76, 77, 78, 79, 80, 81, 82, 83, 84, 85, 86, 87, 88, 89, 90, 91, 92, 93, 94, 95, 96, 97, 98, 99, 100, 101, 102, 103, 104, 105, 106, 107, 108, 109, 110, 111, 112, 113, 114, 115, 116, 117, 118, 119, 120, 121, 122, 123, 124, 125, 126, 127, 128, 129, 130, 131, 132, 133, 134, 135, 136, 137, 138, 139, 140, 141, 142, 143, 144, 145, 146, 147, 148, 149, 150, 151, 152, 153, 154, 155, 156, 157, 158, 159, 160, 161, 162, 163, 164, 165, 166, 167, 168, 169, 170, 171, 172, 173, 174, 175, 176, 177, 178, 179, 180, 181, 182, 183, 184, 185, 186, 187, 188, 189, 190, 191, 192, 193, 194, 195, 196, 197, 198, 199, 200],
      "WindowCenter": [1492.0, 1492.0, 1492.0, 1493.0, 1492.0, 1492.0, 1492.0, 1492.0, 1493.0, 1492.0, 1492.0, 1491.0, 1492.0, 1493.0, 1492.0, 1492.0, 1492.0, 1491.0, 1491.0, 1491.0, 1490.0, 1490.0, 1491.0, 1491.0, 1491.0, 1491.0, 1490.0, 1490.0, 1490.0, 1490.0, 1490.0, 1490.0, 1491.0, 1489.0, 1490.0, 1491.0, 1490.0, 1490.0, 1490.0, 1490.0, 1489.0, 1490.0, 1489.0, 1490.0, 1490.0, 1489.0, 1490.0, 1489.0, 1490.0, 1490.0, 1489.0, 1489.0, 1489.0, 1489.0, 1489.0, 1489.0, 1490.0, 1490.0, 1489.0, 1489.0, 1490.0, 1489.0, 1489.0, 1490.0, 1489.0, 1489.0, 1489.0, 1489.0, 1488.0, 1489.0, 1489.0, 1489.0, 1489.0, 1489.0, 1489.0, 1488.0, 1489.0, 1488.0, 1488.0, 1488.0, 1488.0, 1488.0, 1488.0, 1488.0, 1488.0, 1488.0, 1488.0, 1488.0, 1488.0, 1488.0, 1487.0, 1488.0, 1488.0, 1487.0, 1487.0, 1487.0, 1488.0, 1488.0, 1487.0, 1487.0, 1487.0, 1487.0, 1488.0, 1487.0, 1487.0, 1487.0, 1487.0, 1487.0, 1487.0, 1487.0, 1488.0, 1486.0, 1487.0, 1487.0, 1487.0, 1487.0, 1486.0, 1487.0, 1487.0, 1486.0, 1487.0, 1487.0, 1486.0, 1486.0, 1487.0, 1486.0, 1486.0, 1486.0, 1486.0, 1486.0, 1486.0, 1486.0, 1487.0, 1486.0, 1486.0, 1486.0, 1486.0, 1485.0, 1486.0, 1486.0, 1486.0, 1486.0, 1486.0, 1486.0, 1486.0, 1486.0, 1486.0, 1486.0, 1486.0, 1486.0, 1485.0, 1486.0, 1485.0, 1485.0, 1485.0, 1485.0, 1485.0, 1485.0, 1486.0, 1485.0, 1485.0, 1485.0, 1486.0, 1485.0, 1486.0, 1485.0, 1485.0, 1486.0, 1485.0, 1486.0, 1485.0, 1484.0, 1485.0, 1485.0, 1485.0, 1485.0, 1484.0, 1485.0, 1485.0, 1485.0, 1484.0, 1484.0, 1484.0, 1484.0, 1484.0, 1485.0, 1484.0, 1485.0, 1485.0, 1485.0, 1483.0, 1485.0, 1483.0, 1484.0, 1483.0, 1484.0, 1484.0, 1484.0, 1484.0, 1484.0],
      "WindowWidth": [3445.0, 3445.0, 3445.0, 3445.0, 3444.0, 3444.0, 3445.0, 3445.0, 3445.0, 3445.0, 3445.0, 3445.0, 3445.0, 3444.0, 3444.0, 3444.0, 3445.0, 3444.0, 3444.0, 3444.0, 3444.0, 3444.0, 3444.0, 3444.0, 3444.0, 3444.0, 3443.0, 3443.0, 3443.0, 3443.0, 3443.0, 3443.0, 3443.0, 3443.0, 3443.0, 3443.0, 3443.0, 3443.0, 3443.0, 3443.0, 3443.0, 3443.0, 3443.0, 3443.0, 3443.0, 3443.0, 3443.0, 3443.0, 3443.0, 3443.0, 3443.0, 3443.0, 3442.0, 3443.0, 3443.0, 3443.0, 3442.0, 3442.0, 3443.0, 3443.0, 3442.0, 3442.0, 3442.0, 3442.0, 3442.0, 3442.0, 3442.0, 3442.0, 3442.0, 3442.0, 3442.0, 3442.0, 3442.0, 3442.0, 3442.0, 3442.0, 3442.0, 3442.0, 3442.0, 3442.0, 3442.0, 3442.0, 3442.0, 3442.0, 3442.0, 3442.0, 3442.0, 3442.0, 3442.0, 3442.0, 3441.0, 3442.0, 3442.0, 3441.0, 3442.0, 3441.0, 3441.0, 3441.0, 3441.0, 3441.0, 3441.0, 3441.0, 3441.0, 3441.0, 3441.0, 3441.0, 3441.0, 3441.0, 3441.0, 3441.0, 3440.0, 3441.0, 3440.0, 3440.0, 3440.0, 3440.0, 3441.0, 3440.0, 3440.0, 3440.0, 3440.0, 3440.0, 3440.0, 3440.0, 3440.0, 3440.0, 3440.0, 3440.0, 3440.0, 3440.0, 3440.0, 3440.0, 3439.0, 3440.0, 3440.0, 3440.0, 3440.0, 3440.0, 3439.0, 3439.0, 3439.0, 3439.0, 3439.0, 3439.0, 3439.0, 3439.0, 3439.0, 3439.0, 3439.0, 3439.0, 3439.0, 3439.0, 3439.0, 3439.0, 3439.0, 3439.0, 3439.0, 3439.0, 3439.0, 3439.0, 3439.0, 3439.0, 3439.0, 3439.0, 3439.0, 3439.0, 3439.0, 3439.0, 3439.0, 3439.0, 3439.0, 3439.0, 3438.0, 3438.0, 3438.0, 3438.0, 3439.0, 3438.0, 3438.0, 3438.0, 3438.0, 3438.0, 3438.0, 3438.0, 3438.0, 3438.0, 3438.0, 3438.0, 3438.0, 3438.0, 3438.0, 3438.0, 3438.0, 3438.0, 3438.0, 3437.0, 3437.0, 3437.0, 3437.0, 3437.0]
    },
    "slices": {}
  }
}