{
  "AcquisitionMatrixPE": 80,
  "AcquisitionNumber": 1,
  "AcquisitionTime": "08:58:30.755000",
  "BandwidthPerPixelPhaseEncode": 48.077,
  "BaseResolution": 80,
  "BodyPartExamined": "BRAIN",
  "CoilCombinationMethod": "Sum of Squares",
  "ConsistencyInfo": "N4_VE11E_LATEST_20181129",
  "ConversionSoftware": "dcm2niix",
  "ConversionSoftwareVersion": "v1.0.20220720",
  "DerivedVendorReportedEchoSpacing": 0.000519999,
  "DeviceSerialNumber": "66112",
  "DwellTime": 2.7e-06,
  "EchoTime": 0.035,
  "EchoTrainLength": 39,
  "EffectiveEchoSpacing": 0.00026,
  "FlipAngle": 90,
  "HeudiconvVersion": "0.13.1",
  "ImageOrientationPatientDICOM": [0.999947, 0.0102907, -0.000357165, -0.00959909, 0.944174, 0.329308],
  "ImageOrientationText": "Tra>Cor(19.2)>Sag(-0.2)",
  "ImageType": [
    "ORIGINAL",
    "PRIMARY",
    "M",
    "ND",
    "NORM",
    "MOSAIC"
],
  "ImagingFrequency": 123.259,
  "InPlanePhaseEncodingDirectionDICOM": "COL",
  "InstitutionAddress": "Maynard 3,Hanover,NH,US,03755",
  "InstitutionName": "Dartmouth College - PBS",
  "InstitutionalDepartmentName": "Department",
  "MRAcquisitionType": "2D",
  "MagneticFieldStrength": 3,
  "Manufacturer": "Siemens",
  "ManufacturersModelName": "Prisma",
  "MatrixCoilMode": "GRAPPA",
  "Modality": "MR",
  "NonlinearGradientCorrection": false,
  "ParallelReductionFactorInPlane": 2,
  "PartialFourier": 1,
  "PatientPosition": "HFS",
  "PercentPhaseFOV": 100,
  "PercentSampling": 100,
  "PhaseEncodingDirection": "j-",
  "PhaseEncodingSteps": 79,
  "PhaseResolution": 1,
  "PixelBandwidth": 2315,
  "ProcedureStepDescription": "dbic^QA",
  "ProtocolName": "func-bold_task-rest_acq-p2",
  "PulseSequenceDetails": "%SiemensSeq%\\ep2d_bold",
  "ReceiveCoilActiveElements": "HC1-7;NC1,2",
  "ReceiveCoilName": "HeadNeck_64",
  "ReconMatrixPE": 80,
  "RefLinesPE": 24,
  "RepetitionTime": 2,
  "SAR": 0.0360515,
  "ScanOptions": "FS",
  "ScanningSequence": "EP",
  "SequenceName": "*epfid2d1_80",
  "SequenceVariant": "SK",
  "SeriesDescription": "func-bold_task-rest_acq-p2",
  "SeriesNumber": 5,
  "ShimSetting": [4215, -7732, -7482, -116, -162, -202, -71, 96],
  "SliceThickness": 3.5,
  "SliceTiming": [0.99, 0, 1.055, 0.065, 1.1225, 0.1325, 1.1875, 0.1975, 1.255, 0.265, 1.32, 0.33, 1.385, 0.395, 1.4525, 0.4625, 1.5175, 0.5275, 1.585, 0.595, 1.65, 0.66, 1.715, 0.725, 1.7825, 0.7925, 1.8475, 0.8575, 1.915, 0.925],
  "SoftwareVersions": "syngo MR E11",
  "SpacingBetweenSlices": 3.99,
  "StationName": "AWP66112",
  "TaskName": "rest",
  "TotalReadoutTime": 0.02054,
  "TxRefAmp": 215.372,
  "dcmmeta_affine": [
    [-2.9998409748077393, -0.028797272592782974, -0.014866885729134083, 122.36885833740234],
    [-0.030872074887156487, 2.8325209617614746, 1.313857078552246, -116.9057846069336],
    [-0.001071494771167636, -0.987925112247467, 3.7674472332000732, -18.92271614074707],
    [0.0, 0.0, 0.0, 1.0]
],
  "dcmmeta_reorient_transform": [
    [0.0, -1.0, 0.0, 79.0],
    [1.0, 0.0, 0.0, 0.0],
    [0.0, 0.0, 1.0, 0.0],
    [0.0, 0.0, 0.0, 1.0]
],
  "dcmmeta_shape": [80, 80, 30, 200],
  "dcmmeta_slice_dim": 2,
  "dcmmeta_version": 0.6,
  "global": {
    "const": {
      "AccessionNumber": "qa64",
      "AcquisitionMatrix": [80, 0, 0, 80],
      "AngioFlag": "N",
      "BitsAllocated": 16,
      "BitsStored": 12,
      "BodyPartExamined": "BRAIN",
      "Columns": 480,
      "EchoNumbers": 1,
      "EchoTime": 35.0,
      "EchoTrainLength": 39,
      "FlipAngle": 90.0,
      "HighBit": 11,
      "ImageOrientationPatient": [0.99994698564721, 0.01029069134118, -0.0003571649211, -0.0095990909636, 0.94417363700542, 0.32930836709176],
      "ImagePositionPatient": [-714.30260705126, -679.5419607577, -294.33952117202],
      "ImageType": [
        "ORIGINAL",
        "PRIMARY",
        "M",
        "ND",
        "NORM",
        "MOSAIC"
],
      "ImagedNucleus": "1H",
      "ImagingFrequency": 123.259263,
      "InPlanePhaseEncodingDirection": "COL",
      "LargestImagePixelValue": 4095,
      "MRAcquisitionType": "2D",
      "MagneticFieldStrength": 3.0,
      "Manufacturer": "SIEMENS",
      "ManufacturerModelName": "Prisma",
      "Modality": "MR",
      "NumberOfAverages": 1.0,
      "NumberOfPhaseEncodingSteps": 79,
      "PercentPhaseFieldOfView": 100.0,
      "PercentSampling": 100.0,
      "PerformedProcedureStepStartTime": "085144.015000",
      "PhotometricInterpretation": "MONOCHROME2",
      "PixelBandwidth": 2315.0,
      "PixelRepresentation": 0,
      "PixelSpacing": [3.0, 3.0],
      "ProtocolName": "func-bold_task-rest_acq-p2",
      "RepetitionTime": 2000.0,
      "Rows": 480,
      "SAR": 0.03605147142091,
      "SamplesPerPixel": 1,
      "ScanOptions": "FS",
      "ScanningSequence": "EP",
      "SequenceName": "*epfid2d1_80",
      "SequenceVariant": "SK",
      "SeriesDescription": "func-bold_task-rest_acq-p2",
      "SeriesNumber": 5,
      "SeriesTime": "085912.369000",
      "SliceLocation": -56.818815727882,
      "SliceThickness": 3.5,
      "SmallestImagePixelValue": 0,
      "SoftwareVersions": "syngo MR E11",
      "SpacingBetweenSlices": 3.9899999881274,
      "SpecificCharacterSet": "ISO_IR 100",
      "StudyID": "27",
      "StudyTime": "085143.888000",
      "TransmitCoilName": "Body",
      "VariableFlipAngleFlag": "N",
      "WindowCenterWidthExplanation": "Algo1"
    },
    "slices": {}
  },
  "time": {
    "samples": {
      "AcquisitionNumber": [1, 2, 3, 4, 5, 6, 7, 8, 9, 10, 11, 12, 13, 14, 15, 16, 17, 18, 19, 20, 21, 22, 23, 24, 25, 26, 27, 28, 29, 30, 31, 32, 33, 34, 35, 36, 37, 38, 39, 40, 41, 42, 43, 44, 45, 46, 47, 48, 49, 50, 51, 52, 53, 54, 55, 56, 57, 58, 59, 60, 61, 62, 63, 64, 65, 66, 67, 68, 69, 70, 71, 72, 73, 74, 75, 76, 77, 78, 79, 80, 81, 82, 83, 84, 85, 86, 87, 88, 89, 90, 91, 92, 93, 94, 95, 96, 97, 98, 99, 100, 101, 102, 103, 104, 105, 106, 107, 108, 109, 110, 111, 112, 113, 114, 115, 116, 117, 118, 119, 120, 121, 122, 123, 124, 125, 126, 127, 128, 129, 130, 131, 132, 133, 134, 135, 136, 137, 138, 139, 140, 141, 142, 143, 144, 145, 146, 147, 148, 149, 150, 151, 152, 153, 154, 155, 156, 157, 158, 159, 160, 161, 162, 163, 164, 165, 166, 167, 168, 169, 170, 171, 172, 173, 174, 175, 176, 177, 178, 179, 180, 181, 182, 183, 184, 185, 186, 187, 188, 189, 190, 191, 192, 193, 194, 195, 196, 197, 198, 199, 200],
      "AcquisitionTime": ["085830.755000", "085832.755000", "085834.755000", "085836.755000", "085838.755000", "085840.755000", "085842.755000", "085844.755000", "085846.755000", "085848.755000", "085850.755000", "085852.755000", "085854.755000", "085856.755000", "085858.755000", "085900.755000", "085902.755000", "085904.755000", "085906.755000", "085908.755000", "085910.755000", "085912.755000", "085914.755000", "085916.755000", "085918.755000", "085920.755000", "085922.755000", "085924.755000", "085926.755000", "085928.755000", "085930.755000", "085932.755000", "085934.755000", "085936.755000", "085938.755000", "085940.755000", "085942.755000", "085944.755000", "085946.755000", "085948.755000", "085950.755000", "085952.755000", "085954.755000", "085956.755000", "085958.755000", "090000.755000", "090002.755000", "090004.755000", "090006.755000", "090008.755000", "090010.755000", "090012.755000", "090014.755000", "090016.755000", "090018.755000", "090020.755000", "090022.755000", "090024.755000", "090026.755000", "090028.755000", "090030.755000", "090032.755000", "090034.755000", "090036.755000", "090038.755000", "090040.755000", "090042.755000", "090044.755000", "090046.755000", "090048.755000", "090050.755000", "090052.755000", "090054.755000", "090056.755000", "090058.755000", "090100.755000", "090102.755000", "090104.755000", "090106.755000", "090108.755000", "090110.755000", "090112.755000", "090114.755000", "090116.755000", "090118.755000", "090120.755000", "090122.755000", "090124.755000", "090126.755000", "090128.755000", "090130.755000", "090132.755000", "090134.755000", "090136.755000", "090138.755000", "090140.755000", "090142.755000", "090144.755000", "090146.755000", "090148.755000", "090150.755000", "090152.755000", "090154.755000", "090156.755000", "090158.755000", "090200.755000", "090202.755000", "090204.755000", "090206.755000", "090208.755000", "090210.755000", "090212.755000", "090214.755000", "090216.755000", "090218.755000", "090220.755000", "090222.755000", "090224.755000", "090226.755000", "090228.755000", "090230.755000", "090232.755000", "090234.755000", "090236.755000", "090238.755000", "090240.755000", "090242.755000", "090244.755000", "090246.755000", "090248.755000", "090250.755000", "090252.755000", "090254.755000", "090256.755000", "090258.755000", "090300.755000", "090302.755000", "090304.755000", "090306.755000", "090308.755000", "090310.755000", "090312.755000", "090314.755000", "090316.755000", "090318.755000", "090320.755000", "090322.755000", "090324.755000", "090326.755000", "090328.755000", "090330.755000", "090332.755000", "090334.755000", "090336.755000", "090338.755000", "090340.755000", "090342.755000", "090344.755000", "090346.755000", "090348.755000", "090350.755000", "090352.755000", "090354.755000", "090356.755000", "090358.755000", "090400.755000", "090402.755000", "090404.755000", "090406.755000", "090408.755000", "090410.755000", "090412.755000", "090414.755000", "090416.755000", "090418.755000", "090420.755000", "090422.755000", "090424.755000", "090426.755000", "090428.755000", "090430.755000", "090432.755000", "090434.755000", "090436.755000", "090438.755000", "090440.755000", "090442.755000", "090444.755000", "090446.755000", "090448.755000", "090450.755000", "090452.755000", "090454.755000", "090456.755000", "090458.755000", "090500.755000", "090502.755000", "090504.755000", "090506.755000", "090508.755000"],
      "ContentTime": ["085912.373000", "085912.376000", "085912.389000", "085912.391000", "085912.393000", "085912.396000", "085912.398000", "085912.400000", "085912.403000", "085912.405000", "085912.407000", "085912.412000", "085912.414000", "085912.417000", "085912.419000", "085912.424000", "085912.426000", "085912.428000", "085912.431000", "085912.433000", "085952.368000", "085952.371000", "085952.373000", "085952.376000", "085952.378000", "085952.380000", "085952.383000", "085952.385000", "085952.387000", "085952.390000", "085952.392000", "085952.394000", "085952.397000", "085952.399000", "085952.401000", "085952.404000", "085952.406000", "085952.408000", "085952.411000", "085952.413000", "090032.367000", "090032.370000", "090032.372000", "090032.375000", "090032.377000", "090032.379000", "090032.382000", "090032.384000", "090032.387000", "090032.389000", "090032.392000", "090032.394000", "090032.397000", "090032.399000", "090032.402000", "090032.405000", "090032.407000", "090032.410000", "090032.412000", "090032.415000", "090112.367000", "090112.370000", "090112.372000", "090112.374000", "090112.377000", "090112.379000", "090112.382000", "090112.384000", "090112.386000", "090112.389000", "090112.391000", "090112.393000", "090112.396000", "090112.398000", "090112.400000", "090112.403000", "090112.405000", "090112.407000", "090112.410000", "090112.412000", "090152.367000", "090152.370000", "090152.372000", "090152.375000", "090152.377000", "090152.379000", "090152.382000", "090152.384000", "090152.386000", "090152.389000", "090152.391000", "090152.394000", "090152.396000", "090152.398000", "090152.401000", "090152.403000", "090152.405000", "090152.408000", "090152.410000", "090152.412000", "090232.367000", "090232.370000", "090232.373000", "090232.375000", "090232.378000", "090232.380000", "090232.382000", "090232.385000", "090232.387000", "090232.389000", "090232.392000", "090232.394000", "090232.397000", "090232.399000", "090232.401000", "090232.404000", "090232.406000", "090232.408000", "090232.411000", "090232.413000", "090312.367000", "090312.370000", "090312.372000", "090312.375000", "090312.377000", "090312.379000", "090312.382000", "090312.384000", "090312.386000", "090312.389000", "090312.391000", "090312.393000", "090312.396000", "090312.398000", "090312.400000", "090312.403000", "090312.405000", "090312.407000", "090312.410000", "090312.412000", "090352.367000", "090352.370000", "090352.372000", "090352.375000", "090352.377000", "090352.379000", "090352.382000", "090352.384000", "090352.386000", "090352.389000", "090352.391000", "090352.393000", "090352.396000", "090352.398000", "090352.400000", "090352.403000", "090352.405000", "090352.407000", "090352.410000", "090352.412000", "090432.368000", "090432.371000", "090432.373000", "090432.376000", "090432.378000", "090432.380000", "090432.383000", "090432.385000", "090432.387000", "090432.390000", "090432.392000", "090432.394000", "090432.397000", "090432.399000", "090432.402000", "090432.404000", "090432.406000", "090432.409000", "090432.411000", "090432.413000", "090510.544000", "090510.548000", "090510.551000", "090510.553000", "090510.556000", "090510.558000", "090510.560000", "090510.563000", "090510.565000", "090510.567000", "090510.570000", "090510.572000", "090510.575000", "090510.577000", "090510.580000", "090510.585000", "090510.590000", "090510.592000", "090510.601000", "090510.604000"],
      "InstanceCreationTime": ["085912.373000", "085912.376000", "085912.389000", "085912.391000", "085912.393000", "085912.396000", "085912.398000", "085912.400000", "085912.403000", "085912.405000", "085912.407000", "085912.412000", "085912.414000", "085912.417000", "085912.419000", "085912.424000", "085912.426000", "085912.428000", "085912.431000", "085912.433000", "085952.368000", "085952.371000", "085952.373000", "085952.376000", "085952.378000", "085952.380000", "085952.383000", "085952.385000", "085952.387000", "085952.390000", "085952.392000", "085952.394000", "085952.397000", "085952.399000", "085952.401000", "085952.404000", "085952.406000", "085952.408000", "085952.411000", "085952.413000", "090032.367000", "090032.370000", "090032.372000", "090032.375000", "090032.377000", "090032.379000", "090032.382000", "090032.384000", "090032.387000", "090032.389000", "090032.392000", "090032.394000", "090032.397000", "090032.399000", "090032.402000", "090032.405000", "090032.407000", "090032.410000", "090032.412000", "090032.415000", "090112.367000", "090112.370000", "090112.372000", "090112.374000", "090112.377000", "090112.379000", "090112.382000", "090112.384000", "090112.386000", "090112.389000", "090112.391000", "090112.393000", "090112.396000", "090112.398000", "090112.400000", "090112.403000", "090112.405000", "090112.407000", "090112.410000", "090112.412000", "090152.367000", "090152.370000", "090152.372000", "090152.375000", "090152.377000", "090152.379000", "090152.382000", "090152.384000", "090152.386000", "090152.389000", "090152.391000", "090152.394000", "090152.396000", "090152.398000", "090152.401000", "090152.403000", "090152.405000", "090152.408000", "090152.410000", "090152.412000", "090232.367000", "090232.370000", "090232.373000", "090232.375000", "090232.378000", "090232.380000", "090232.382000", "090232.385000", "090232.387000", "090232.389000", "090232.392000", "090232.394000", "090232.397000", "090232.399000", "090232.401000", "090232.404000", "090232.406000", "090232.408000", "090232.411000", "090232.413000", "090312.367000", "090312.370000", "090312.372000", "090312.375000", "090312.377000", "090312.379000", "090312.382000", "090312.384000", "090312.386000", "090312.389000", "090312.391000", "090312.393000", "090312.396000", "090312.398000", "090312.400000", "090312.403000", "090312.405000", "090312.407000", "090312.410000", "090312.412000", "090352.367000", "090352.370000", "090352.372000", "090352.375000", "090352.377000", "090352.379000", "090352.382000", "090352.384000", "090352.386000", "090352.389000", "090352.391000", "090352.393000", "090352.396000", "090352.398000", "090352.400000", "090352.403000", "090352.405000", "090352.407000", "090352.410000", "090352.412000", "090432.368000", "090432.371000", "090432.373000", "090432.376000", "090432.378000", "090432.380000", "090432.383000", "090432.385000", "090432.387000", "090432.390000", "090432.392000", "090432.394000", "090432.397000", "090432.399000", "090432.402000", "090432.404000", "090432.406000", "090432.409000", "090432.411000", "090432.413000", "090510.544000", "090510.548000", "090510.551000", "090510.553000", "090510.556000", "090510.558000", "090510.560000", "090510.563000", "090510.565000", "090510.567000", "090510.570000", "090510.572000", "090510.575000", "090510.577000", "090510.580000", "090510.585000", "090510.590000", "090510.592000", "090510.601000", "090510.604000"],
      "InstanceNumber": [1, 2, 3, 4, 5, 6, 7, 8, 9, 10, 11, 12, 13, 14, 15, 16, 17, 18, 19, 20, 21, 22, 23, 24, 25, 26, 27, 28, 29, 30, 31, 32, 33, 34, 35, 36, 37, 38, 39, 40, 41, 42, 43, 44, 45, 46, 47, 48, 49, 50, 51, 52, 53, 54, 55, 56, 57, 58, 59, 60, 61, 62, 63, 64, 65, 66, 67, 68, 69, 70, 71, 72, 73, 74, 75, 76, 77, 78, 79, 80, 81, 82, 83, 84, 85, 86, 87, 88, 89, 90, 91, 92, 93, 94, 95, 96, 97, 98, 99, 100, 101, 102, 103, 104, 105, 106, 107, 108, 109, 110, 111, 112, 113, 114, 115, 116, 117, 118, 119, 120, 121, 122, 123, 124, 125, 126, 127, 128, 129, 130, 131, 132, 133, 134, 135, 136, 137, 138, 139, 140, 141, 142, 143, 144, 145, 146, 147, 148, 149, 150, 151, 152, 153, 154, 155, 156, 157, 158, 159, 160, 161, 162, 163, 164, 165, 166, 167, 168, 169, 170, 171, 172, 173, 174, 175, 176, 177, 178, 179, 180, 181, 182, 183, 184, 185, 186, 187, 188, 189, 190, 191, 192, 193, 194, 195, 196, 197, 198, 199, 200],
      "WindowCenter": [1598.0, 1597.0, 1597.0, 1596.0, 1597.0, 1597.0, 1596.0, 1597.0, 1596.0, 1596.0, 1596.0, 1596.0, 1596.0, 1596.0, 1596.0, 1596.0, 1596.0, 1596.0, 1596.0, 1596.0, 1596.0, 1596.0, 1595.0, 1596.0, 1595.0, 1596.0, 1595.0, 1596.0, 1595.0, 1595.0, 1595.0, 1594.0, 1594.0, 1595.0, 1594.0, 1594.0, 1595.0, 1595.0, 1595.0, 1595.0, 1595.0, 1594.0, 1595.0, 1594.0, 1595.0, 1594.0, 1595.0, 1594.0, 1594.0, 1595.0, 1594.0, 1594.0, 1593.0, 1594.0, 1594.0, 1594.0, 1594.0, 1595.0, 1594.0, 1594.0, 1593.0, 1593.0, 1594.0, 1594.0, 1593.0, 1594.0, 1594.0, 1594.0, 1593.0, 1593.0, 1593.0, 1593.0, 1593.0, 1594.0, 1593.0, 1593.0, 1593.0, 1593.0, 1593.0, 1593.0, 1593.0, 1593.0, 1592.0, 1593.0, 1593.0, 1592.0, 1593.0, 1593.0, 1593.0, 1593.0, 1592.0, 1592.0, 1592.0, 1592.0, 1592.0, 1592.0, 1592.0, 1592.0, 1592.0, 1592.0, 1593.0, 1591.0, 1592.0, 1592.0, 1592.0, 1592.0, 1592.0, 1592.0, 1592.0, 1592.0, 1592.0, 1592.0, 1592.0, 1592.0, 1590.0, 1591.0, 1591.0, 1591.0, 1590.0, 1591.0, 1591.0, 1591.0, 1591.0, 1590.0, 1592.0, 1591.0, 1591.0, 1591.0, 1590.0, 1591.0, 1591.0, 1591.0, 1591.0, 1590.0, 1590.0, 1590.0, 1590.0, 1591.0, 1591.0, 1592.0, 1591.0, 1590.0, 1591.0, 1591.0, 1591.0, 1590.0, 1590.0, 1590.0, 1591.0, 1589.0, 1590.0, 1590.0, 1590.0, 1590.0, 1590.0, 1590.0, 1590.0, 1590.0, 1591.0, 1590.0, 1590.0, 1589.0, 1590.0, 1589.0, 1590.0, 1589.0, 1589.0, 1590.0, 1590.0, 1589.0, 1591.0, 1590.0, 1589.0, 1589.0, 1589.0, 1589.0, 1589.0, 1589.0, 1589.0, 1589.0, 1589.0, 1590.0, 1588.0, 1589.0, 1589.0, 1589.0, 1589.0, 1589.0, 1589.0, 1589.0, 1588.0, 1589.0, 1589.0, 1589.0, 1588.0, 1589.0, 1588.0, 1589.0, 1589.0, 1588.0],
      "WindowWidth": [3493.0, 3491.0, 3491.0, 3491.0, 3491.0, 3491.0, 3491.0, 3491.0, 3490.0, 3490.0, 3490.0, 3490.0, 3490.0, 3490.0, 3490.0, 3490.0, 3490.0, 3490.0, 3490.0, 3490.0, 3490.0, 3490.0, 3490.0, 3490.0, 3490.0, 3490.0, 3490.0, 3490.0, 3491.0, 3490.0, 3490.0, 3491.0, 3491.0, 3490.0, 3491.0, 3491.0, 3490.0, 3490.0, 3491.0, 3490.0, 3490.0, 3490.0, 3490.0, 3490.0, 3490.0, 3490.0, 3490.0, 3490.0, 3490.0, 3490.0, 3490.0, 3490.0, 3490.0, 3490.0, 3490.0, 3490.0, 3490.0, 3490.0, 3490.0, 3490.0, 3490.0, 3490.0, 3490.0, 3490.0, 3490.0, 3490.0, 3490.0, 3490.0, 3490.0, 3490.0, 3490.0, 3490.0, 3490.0, 3489.0, 3490.0, 3490.0, 3490.0, 3490.0, 3490.0, 3490.0, 3489.0, 3490.0, 3489.0, 3489.0, 3489.0, 3489.0, 3489.0, 3489.0, 3489.0, 3489.0, 3489.0, 3489.0, 3489.0, 3489.0, 3489.0, 3489.0, 3489.0, 3489.0, 3489.0, 3489.0, 3488.0, 3489.0, 3489.0, 3489.0, 3488.0, 3488.0, 3488.0, 3488.0, 3488.0, 3488.0, 3488.0, 3488.0, 3488.0, 3488.0, 3488.0, 3488.0, 3488.0, 3488.0, 3488.0, 3488.0, 3488.0, 3488.0, 3488.0, 3488.0, 3488.0, 3488.0, 3488.0, 3488.0, 3488.0, 3488.0, 3488.0, 3487.0, 3488.0, 3488.0, 3488.0, 3488.0, 3488.0, 3487.0, 3487.0, 3487.0, 3487.0, 3488.0, 3487.0, 3487.0, 3487.0, 3487.0, 3487.0, 3487.0, 3487.0, 3488.0, 3487.0, 3487.0, 3487.0, 3487.0, 3487.0, 3487.0, 3487.0, 3487.0, 3487.0, 3487.0, 3487.0, 3487.0, 3486.0, 3487.0, 3487.0, 3487.0, 3487.0, 3487.0, 3487.0, 3487.0, 3487.0, 3487.0, 3487.0, 3487.0, 3487.0, 3487.0, 3487.0, 3487.0, 3487.0, 3486.0, 3487.0, 3486.0, 3487.0, 3486.0, 3487.0, 3486.0, 3486.0, 3487.0, 3487.0, 3486.0, 3487.0, 3486.0, 3486.0, 3486.0, 3487.0, 3486.0, 3486.0, 3486.0, 3486.0, 3486.0]
    },
    "slices": {}
  }
}