{
  "AcquisitionMatrixPE": 80,
  "AcquisitionNumber": 1,
  "AcquisitionTime": "09:20:9.205000",
  "BandwidthPerPixelPhaseEncode": 48.077,
  "BaseResolution": 80,
  "BodyPartExamined": "BRAIN",
  "CoilCombinationMethod": "Sum of Squares",
  "ConsistencyInfo": "N4_VE11C_LATEST_20160120",
  "ConversionSoftware": "dcm2niix",
  "ConversionSoftwareVersion": "v1.0.20220720",
  "DerivedVendorReportedEchoSpacing": 0.000519999,
  "DeviceSerialNumber": "66112",
  "DwellTime": 2.7e-06,
  "EchoTime": 0.035,
  "EchoTrainLength": 39,
  "EffectiveEchoSpacing": 0.00026,
  "FlipAngle": 90,
  "HeudiconvVersion": "0.13.1",
  "ImageOrientationPatientDICOM": [0.988385, 0.151877, 0.00534717, -0.146481, 0.942713, 0.299725],
  "ImageOrientationText": "Tra>Cor(17.3)>Sag(-2.3)",
  "ImageType": [
    "ORIGINAL",
    "PRIMARY",
    "M",
    "ND",
    "NORM",
    "MOSAIC"
],
  "ImagingFrequency": 123.252,
  "InPlanePhaseEncodingDirectionDICOM": "COL",
  "InstitutionAddress": "Maynard 3,Hanover,NH,US,03755",
  "InstitutionName": "Dartmouth College - PBS",
  "InstitutionalDepartmentName": "Department",
  "MRAcquisitionType": "2D",
  "MagneticFieldStrength": 3,
  "Manufacturer": "Siemens",
  "ManufacturersModelName": "Prisma",
  "MatrixCoilMode": "GRAPPA",
  "Modality": "MR",
  "NonlinearGradientCorrection": false,
  "ParallelReductionFactorInPlane": 2,
  "PartialFourier": 1,
  "PatientPosition": "HFS",
  "PercentPhaseFOV": 100,
  "PercentSampling": 100,
  "PhaseEncodingDirection": "j-",
  "PhaseEncodingSteps": 79,
  "PhaseResolution": 1,
  "PixelBandwidth": 2315,
  "ProcedureStepDescription": "dbic^QA",
  "ProtocolName": "func-bold_task-rest_acq-p2",
  "PulseSequenceDetails": "%SiemensSeq%\\ep2d_bold",
  "ReceiveCoilActiveElements": "HEA;HEP",
  "ReceiveCoilName": "Head_32",
  "ReconMatrixPE": 80,
  "RefLinesPE": 24,
  "RepetitionTime": 2,
  "SAR": 0.0476664,
  "ScanOptions": "FS",
  "ScanningSequence": "EP",
  "SequenceName": "*epfid2d1_80",
  "SequenceVariant": "SK",
  "SeriesDescription": "func-bold_task-rest_acq-p2",
  "SeriesNumber": 5,
  "ShimSetting": [4144, -7682, -7529, 281, -62, -234, -11, 64],
  "SliceThickness": 3.5,
  "SliceTiming": [0.99, 0, 1.0575, 0.0675, 1.1225, 0.1325, 1.1875, 0.2, 1.255, 0.265, 1.32, 0.33, 1.3875, 0.3975, 1.4525, 0.4625, 1.5175, 0.5275, 1.585, 0.595, 1.65, 0.66, 1.7175, 0.7275, 1.7825, 0.7925, 1.8475, 0.8575, 1.915, 0.925],
  "SoftwareVersions": "syngo MR E11",
  "SpacingBetweenSlices": 3.99,
  "StationName": "AWP66112",
  "TaskName": "rest",
  "TotalReadoutTime": 0.02054,
  "TxRefAmp": 231.071,
  "dcmmeta_affine": [
    [-2.9651546478271484, -0.43944254517555237, -0.1615176796913147, 139.83697509765625],
    [-0.4556320309638977, 2.828139543533325, 1.18513822555542, -113.43623352050781],
    [0.016041511669754982, -0.8991756439208984, 3.806502342224121, -18.779293060302734],
    [0.0, 0.0, 0.0, 1.0]
],
  "dcmmeta_reorient_transform": [
    [0.0, -1.0, 0.0, 79.0],
    [1.0, 0.0, 0.0, 0.0],
    [0.0, 0.0, 1.0, 0.0],
    [0.0, 0.0, 0.0, 1.0]
],
  "dcmmeta_shape": [80, 80, 30, 200],
  "dcmmeta_slice_dim": 2,
  "dcmmeta_version": 0.6,
  "global": {
    "const": {
      "AccessionNumber": "qa",
      "AcquisitionMatrix": [80, 0, 0, 80],
      "AngioFlag": "N",
      "BitsAllocated": 16,
      "BitsStored": 12,
      "BodyPartExamined": "BRAIN",
      "Columns": 480,
      "EchoNumbers": 1,
      "EchoTime": 35.0,
      "EchoTrainLength": 39,
      "FlipAngle": 90.0,
      "HighBit": 11,
      "ImageOrientationPatient": [0.9883848849955, 0.15187734156016, 0.00534717056455, -0.1464808466998, 0.94271318878075, 0.29972521623803],
      "ImagePositionPatient": [-610.26344211497, -766.74110713842, -272.85760098077],
      "ImageType": [
        "ORIGINAL",
        "PRIMARY",
        "M",
        "ND",
        "NORM",
        "MOSAIC"
],
      "ImagedNucleus": "1H",
      "ImagingFrequency": 123.252451,
      "InPlanePhaseEncodingDirection": "COL",
      "MRAcquisitionType": "2D",
      "MagneticFieldStrength": 3.0,
      "Manufacturer": "SIEMENS",
      "ManufacturerModelName": "Prisma",
      "Modality": "MR",
      "NumberOfAverages": 1.0,
      "NumberOfPhaseEncodingSteps": 79,
      "PercentPhaseFieldOfView": 100.0,
      "PercentSampling": 100.0,
      "PerformedProcedureStepStartTime": "091209.210000",
      "PhotometricInterpretation": "MONOCHROME2",
      "PixelBandwidth": 2315.0,
      "PixelRepresentation": 0,
      "PixelSpacing": [3.0, 3.0],
      "ProtocolName": "func-bold_task-rest_acq-p2",
      "RepetitionTime": 2000.0,
      "Rows": 480,
      "SAR": 0.04766640886647,
      "SamplesPerPixel": 1,
      "ScanOptions": "FS",
      "ScanningSequence": "EP",
      "SequenceName": "*epfid2d1_80",
      "SequenceVariant": "SK",
      "SeriesDescription": "func-bold_task-rest_acq-p2",
      "SeriesNumber": 5,
      "SeriesTime": "092052.111000",
      "SliceLocation": -57.269971807746,
      "SliceThickness": 3.5,
      "SmallestImagePixelValue": 0,
      "SoftwareVersions": "syngo MR E11",
      "SpacingBetweenSlices": 3.9899999828553,
      "SpecificCharacterSet": "ISO_IR 100",
      "StudyID": "23",
      "StudyTime": "091209.147000",
      "TransmitCoilName": "Body",
      "VariableFlipAngleFlag": "N",
      "WindowCenterWidthExplanation": "Algo1",
      "dBdt": 0.0},
    "slices": {}
  },
  "time": {
    "samples": {
      "AcquisitionNumber": [1, 2, 3, 4, 5, 6, 7, 8, 9, 10, 11, 12, 13, 14, 15, 16, 17, 18, 19, 20, 21, 22, 23, 24, 25, 26, 27, 28, 29, 30, 31, 32, 33, 34, 35, 36, 37, 38, 39, 40, 41, 42, 43, 44, 45, 46, 47, 48, 49, 50, 51, 52, 53, 54, 55, 56, 57, 58, 59, 60, 61, 62, 63, 64, 65, 66, 67, 68, 69, 70, 71, 72, 73, 74, 75, 76, 77, 78, 79, 80, 81, 82, 83, 84, 85, 86, 87, 88, 89, 90, 91, 92, 93, 94, 95, 96, 97, 98, 99, 100, 101, 102, 103, 104, 105, 106, 107, 108, 109, 110, 111, 112, 113, 114, 115, 116, 117, 118, 119, 120, 121, 122, 123, 124, 125, 126, 127, 128, 129, 130, 131, 132, 133, 134, 135, 136, 137, 138, 139, 140, 141, 142, 143, 144, 145, 146, 147, 148, 149, 150, 151, 152, 153, 154, 155, 156, 157, 158, 159, 160, 161, 162, 163, 164, 165, 166, 167, 168, 169, 170, 171, 172, 173, 174, 175, 176, 177, 178, 179, 180, 181, 182, 183, 184, 185, 186, 187, 188, 189, 190, 191, 192, 193, 194, 195, 196, 197, 198, 199, 200],
      "AcquisitionTime": ["092009.205000", "092011.205000", "092013.205000", "092015.205000", "092017.205000", "092019.205000", "092021.205000", "092023.205000", "092025.205000", "092027.205000", "092029.205000", "092031.205000", "092033.205000", "092035.205000", "092037.205000", "092039.205000", "092041.205000", "092043.205000", "092045.205000", "092047.205000", "092049.205000", "092051.205000", "092053.205000", "092055.205000", "092057.205000", "092059.205000", "092101.205000", "092103.205000", "092105.205000", "092107.205000", "092109.205000", "092111.205000", "092113.205000", "092115.205000", "092117.205000", "092119.205000", "092121.205000", "092123.205000", "092125.205000", "092127.205000", "092129.205000", "092131.205000", "092133.205000", "092135.205000", "092137.205000", "092139.205000", "092141.205000", "092143.205000", "092145.205000", "092147.205000", "092149.205000", "092151.205000", "092153.205000", "092155.205000", "092157.205000", "092159.205000", "092201.205000", "092203.205000", "092205.205000", "092207.205000", "092209.205000", "092211.205000", "092213.205000", "092215.205000", "092217.205000", "092219.205000", "092221.205000", "092223.205000", "092225.205000", "092227.205000", "092229.205000", "092231.205000", "092233.205000", "092235.205000", "092237.205000", "092239.205000", "092241.205000", "092243.205000", "092245.205000", "092247.205000", "092249.205000", "092251.205000", "092253.205000", "092255.205000", "092257.205000", "092259.205000", "092301.205000", "092303.205000", "092305.205000", "092307.205000", "092309.205000", "092311.205000", "092313.205000", "092315.205000", "092317.205000", "092319.205000", "092321.205000", "092323.205000", "092325.205000", "092327.205000", "092329.205000", "092331.205000", "092333.205000", "092335.205000", "092337.205000", "092339.205000", "092341.205000", "092343.205000", "092345.205000", "092347.205000", "092349.205000", "092351.205000", "092353.205000", "092355.205000", "092357.205000", "092359.205000", "092401.205000", "092403.205000", "092405.205000", "092407.205000", "092409.205000", "092411.205000", "092413.205000", "092415.205000", "092417.205000", "092419.205000", "092421.205000", "092423.205000", "092425.205000", "092427.205000", "092429.205000", "092431.205000", "092433.205000", "092435.205000", "092437.205000", "092439.205000", "092441.205000", "092443.205000", "092445.205000", "092447.205000", "092449.205000", "092451.205000", "092453.205000", "092455.205000", "092457.205000", "092459.205000", "092501.205000", "092503.205000", "092505.205000", "092507.205000", "092509.205000", "092511.205000", "092513.205000", "092515.205000", "092517.205000", "092519.205000", "092521.205000", "092523.205000", "092525.205000", "092527.205000", "092529.205000", "092531.205000", "092533.205000", "092535.205000", "092537.205000", "092539.205000", "092541.205000", "092543.205000", "092545.205000", "092547.205000", "092549.205000", "092551.205000", "092553.205000", "092555.205000", "092557.205000", "092559.205000", "092601.205000", "092603.205000", "092605.205000", "092607.205000", "092609.205000", "092611.205000", "092613.205000", "092615.205000", "092617.205000", "092619.205000", "092621.205000", "092623.205000", "092625.205000", "092627.205000", "092629.205000", "092631.205000", "092633.205000", "092635.205000", "092637.205000", "092639.205000", "092641.205000", "092643.205000", "092645.205000", "092647.205000"],
      "ContentTime": ["092052.114000", "092052.118000", "092052.120000", "092052.123000", "092052.125000", "092052.128000", "092052.130000", "092052.132000", "092052.135000", "092052.137000", "092052.140000", "092052.142000", "092052.145000", "092052.147000", "092052.150000", "092052.152000", "092052.155000", "092052.157000", "092052.160000", "092052.170000", "092052.172000", "092132.109000", "092132.112000", "092132.115000", "092132.117000", "092132.120000", "092132.122000", "092132.125000", "092132.127000", "092132.130000", "092132.132000", "092132.135000", "092132.137000", "092132.140000", "092132.142000", "092132.145000", "092132.147000", "092132.150000", "092132.152000", "092132.155000", "092132.157000", "092212.108000", "092212.111000", "092212.114000", "092212.116000", "092212.119000", "092212.121000", "092212.124000", "092212.126000", "092212.129000", "092212.131000", "092212.134000", "092212.136000", "092212.139000", "092212.141000", "092212.143000", "092212.146000", "092212.148000", "092212.151000", "092212.153000", "092212.156000", "092232.109000", "092232.112000", "092232.115000", "092232.117000", "092232.120000", "092232.122000", "092232.125000", "092232.127000", "092232.130000", "092232.132000", "092312.109000", "092312.112000", "092312.114000", "092312.117000", "092312.119000", "092312.122000", "092312.140000", "092312.142000", "092312.145000", "092312.147000", "092312.150000", "092312.152000", "092312.154000", "092312.157000", "092312.159000", "092312.162000", "092312.164000", "092312.167000", "092312.169000", "092312.172000", "092352.109000", "092352.116000", "092352.118000", "092352.121000", "092352.123000", "092352.126000", "092352.128000", "092352.131000", "092352.133000", "092352.136000", "092352.138000", "092352.141000", "092352.143000", "092352.145000", "092352.148000", "092352.150000", "092352.153000", "092352.155000", "092352.158000", "092352.160000", "092432.108000", "092432.111000", "092432.114000", "092432.116000", "092432.119000", "092432.121000", "092432.124000", "092432.126000", "092432.129000", "092432.131000", "092432.134000", "092432.136000", "092432.139000", "092432.141000", "092432.144000", "092432.146000", "092432.149000", "092432.151000", "092432.154000", "092432.156000", "092512.109000", "092512.112000", "092512.115000", "092512.117000", "092512.119000", "092512.122000", "092512.124000", "092512.127000", "092512.129000", "092512.132000", "092512.134000", "092512.137000", "092512.139000", "092512.142000", "092512.144000", "092512.147000", "092512.149000", "092512.152000", "092512.154000", "092512.157000", "092552.109000", "092552.112000", "092552.115000", "092552.117000", "092552.120000", "092552.122000", "092552.125000", "092552.127000", "092552.130000", "092552.132000", "092552.135000", "092552.137000", "092552.140000", "092552.142000", "092552.144000", "092552.147000", "092552.149000", "092552.152000", "092552.155000", "092552.157000", "092632.110000", "092632.112000", "092632.115000", "092632.117000", "092632.120000", "092632.122000", "092632.125000", "092632.127000", "092632.130000", "092632.132000", "092632.135000", "092632.137000", "092632.140000", "092632.142000", "092632.145000", "092632.147000", "092632.150000", "092632.152000", "092632.155000", "092632.157000", "092648.365000", "092648.368000", "092648.370000", "092648.373000", "092648.376000", "092648.378000", "092648.380000", "092648.383000", "092648.385000"],
      "InstanceCreationTime": ["092052.114000", "092052.118000", "092052.120000", "092052.123000", "092052.125000", "092052.128000", "092052.130000", "092052.132000", "092052.135000", "092052.137000", "092052.140000", "092052.142000", "092052.145000", "092052.147000", "092052.150000", "092052.152000", "092052.155000", "092052.157000", "092052.160000", "092052.170000", "092052.172000", "092132.109000", "092132.112000", "092132.115000", "092132.117000", "092132.120000", "092132.122000", "092132.125000", "092132.127000", "092132.130000", "092132.132000", "092132.135000", "092132.137000", "092132.140000", "092132.142000", "092132.145000", "092132.147000", "092132.150000", "092132.152000", "092132.155000", "092132.157000", "092212.108000", "092212.111000", "092212.114000", "092212.116000", "092212.119000", "092212.121000", "092212.124000", "092212.126000", "092212.129000", "092212.131000", "092212.134000", "092212.136000", "092212.139000", "092212.141000", "092212.143000", "092212.146000", "092212.148000", "092212.151000", "092212.153000", "092212.156000", "092232.109000", "092232.112000", "092232.115000", "092232.117000", "092232.120000", "092232.122000", "092232.125000", "092232.127000", "092232.130000", "092232.132000", "092312.109000", "092312.112000", "092312.114000", "092312.117000", "092312.119000", "092312.122000", "092312.140000", "092312.142000", "092312.145000", "092312.147000", "092312.150000", "092312.152000", "092312.154000", "092312.157000", "092312.159000", "092312.162000", "092312.164000", "092312.167000", "092312.169000", "092312.172000", "092352.109000", "092352.116000", "092352.118000", "092352.121000", "092352.123000", "092352.126000", "092352.128000", "092352.131000", "092352.133000", "092352.136000", "092352.138000", "092352.141000", "092352.143000", "092352.145000", "092352.148000", "092352.150000", "092352.153000", "092352.155000", "092352.158000", "092352.160000", "092432.108000", "092432.111000", "092432.114000", "092432.116000", "092432.119000", "092432.121000", "092432.124000", "092432.126000", "092432.129000", "092432.131000", "092432.134000", "092432.136000", "092432.139000", "092432.141000", "092432.144000", "092432.146000", "092432.149000", "092432.151000", "092432.154000", "092432.156000", "092512.109000", "092512.112000", "092512.115000", "092512.117000", "092512.119000", "092512.122000", "092512.124000", "092512.127000", "092512.129000", "092512.132000", "092512.134000", "092512.137000", "092512.139000", "092512.142000", "092512.144000", "092512.147000", "092512.149000", "092512.152000", "092512.154000", "092512.157000", "092552.109000", "092552.112000", "092552.115000", "092552.117000", "092552.120000", "092552.122000", "092552.125000", "092552.127000", "092552.130000", "092552.132000", "092552.135000", "092552.137000", "092552.140000", "092552.142000", "092552.144000", "092552.147000", "092552.149000", "092552.152000", "092552.155000", "092552.157000", "092632.110000", "092632.112000", "092632.115000", "092632.117000", "092632.120000", "092632.122000", "092632.125000", "092632.127000", "092632.130000", "092632.132000", "092632.135000", "092632.137000", "092632.140000", "092632.142000", "092632.145000", "092632.147000", "092632.150000", "092632.152000", "092632.155000", "092632.157000", "092648.365000", "092648.368000", "092648.370000", "092648.373000", "092648.376000", "092648.378000", "092648.380000", "092648.383000", "092648.385000"],
      "InstanceNumber": [1, 2, 3, 4, 5, 6, 7, 8, 9, 10, 11, 12, 13, 14, 15, 16, 17, 18, 19, 20, 21, 22, 23, 24, 25, 26, 27, 28, 29, 30, 31, 32, 33, 34, 35, 36, 37, 38, 39, 40, 41, 42, 43, 44, 45, 46, 47, 48, 49, 50, 51, 52, 53, 54, 55, 56, 57, 58, 59, 60, 61, 62, 63, 64, 65, 66, 67, 68, 69, 70, 71, 72, 73, 74, 75, 76, 77, 78, 79, 80, 81, 82, 83, 84, 85, 86, 87, 88, 89, 90, 91, 92, 93, 94, 95, 96, 97, 98, 99, 100, 101, 102, 103, 104, 105, 106, 107, 108, 109, 110, 111, 112, 113, 114, 115, 116, 117, 118, 119, 120, 121, 122, 123, 124, 125, 126, 127, 128, 129, 130, 131, 132, 133, 134, 135, 136, 137, 138, 139, 140, 141, 142, 143, 144, 145, 146, 147, 148, 149, 150, 151, 152, 153, 154, 155, 156, 157, 158, 159, 160, 161, 162, 163, 164, 165, 166, 167, 168, 169, 170, 171, 172, 173, 174, 175, 176, 177, 178, 179, 180, 181, 182, 183, 184, 185, 186, 187, 188, 189, 190, 191, 192, 193, 194, 195, 196, 197, 198, 199, 200],
      "LargestImagePixelValue": [2271, 2267, 2273, 2284, 2268, 2276, 2273, 2274, 2274, 2279, 2274, 2277, 2267, 2273, 2278, 2274, 2263, 2265, 2269, 2270, 2280, 2270, 2269, 2267, 2268, 2268, 2271, 2268, 2274, 2273, 2269, 2271, 2266, 2271, 2263, 2277, 2277, 2265, 2275, 2265, 2276, 2273, 2265, 2268, 2265, 2270, 2283, 2273, 2279, 2265, 2271, 2264, 2270, 2275, 2269, 2266, 2273, 2263, 2281, 2264, 2271, 2268, 2273, 2263, 2263, 2268, 2267, 2263, 2274, 2268, 2272, 2271, 2279, 2273, 2272, 2266, 2266, 2269, 2275, 2270, 2265, 2263, 2272, 2272, 2269, 2267, 2267, 2268, 2272, 2275, 2269, 2274, 2272, 2270, 2268, 2265, 2264, 2269, 2268, 2273, 2278, 2272, 2271, 2272, 2270, 2277, 2275, 2268, 2261, 2270, 2262, 2264, 2265, 2269, 2271, 2268, 2259, 2267, 2269, 2270, 2263, 2259, 2263, 2267, 2262, 2265, 2273, 2258, 2268, 2266, 2267, 2270, 2260, 2273, 2268, 2267, 2268, 2266, 2270, 2267, 2267, 2268, 2268, 2273, 2268, 2266, 2270, 2261, 2260, 2265, 2270, 2273, 2266, 2277, 2268, 2261, 2264, 2268, 2259, 2265, 2262, 2264, 2264, 2269, 2271, 2275, 2265, 2268, 2276, 2273, 2263, 2270, 2264, 2269, 2265, 2266, 2261, 2272, 2266, 2271, 2263, 2268, 2264, 2267, 2268, 2269, 2263, 2268, 2260, 2270, 2265, 2269, 2274, 2265, 2272, 2267, 2266, 2261, 2269, 2263],
      "WindowCenter": [1039.0, 1039.0, 1039.0, 1039.0, 1039.0, 1039.0, 1039.0, 1039.0, 1039.0, 1039.0, 1039.0, 1039.0, 1039.0, 1039.0, 1039.0, 1039.0, 1039.0, 1039.0, 1039.0, 1039.0, 1039.0, 1039.0, 1039.0, 1039.0, 1039.0, 1039.0, 1039.0, 1039.0, 1039.0, 1039.0, 1039.0, 1039.0, 1039.0, 1039.0, 1039.0, 1039.0, 1039.0, 1039.0, 1039.0, 1039.0, 1039.0, 1039.0, 1039.0, 1039.0, 1039.0, 1039.0, 1039.0, 1039.0, 1039.0, 1039.0, 1039.0, 1038.0, 1039.0, 1039.0, 1039.0, 1039.0, 1039.0, 1038.0, 1039.0, 1038.0, 1039.0, 1039.0, 1039.0, 1038.0, 1039.0, 1039.0, 1039.0, 1039.0, 1039.0, 1039.0, 1039.0, 1039.0, 1039.0, 1039.0, 1038.0, 1039.0, 1038.0, 1039.0, 1039.0, 1039.0, 1039.0, 1039.0, 1039.0, 1039.0, 1039.0, 1039.0, 1039.0, 1039.0, 1039.0, 1039.0, 1039.0, 1039.0, 1039.0, 1039.0, 1039.0, 1039.0, 1039.0, 1039.0, 1039.0, 1039.0, 1039.0, 1039.0, 1039.0, 1039.0, 1039.0, 1039.0, 1039.0, 1039.0, 1039.0, 1039.0, 1039.0, 1039.0, 1039.0, 1039.0, 1039.0, 1039.0, 1039.0, 1039.0, 1039.0, 1039.0, 1039.0, 1039.0, 1039.0, 1039.0, 1039.0, 1039.0, 1039.0, 1039.0, 1039.0, 1039.0, 1039.0, 1039.0, 1039.0, 1039.0, 1039.0, 1039.0, 1039.0, 1039.0, 1038.0, 1039.0, 1038.0, 1039.0, 1038.0, 1039.0, 1038.0, 1038.0, 1039.0, 1038.0, 1038.0, 1038.0, 1038.0, 1039.0, 1039.0, 1038.0, 1039.0, 1039.0, 1039.0, 1038.0, 1038.0, 1038.0, 1038.0, 1038.0, 1039.0, 1038.0, 1038.0, 1038.0, 1038.0, 1038.0, 1038.0, 1038.0, 1038.0, 1038.0, 1038.0, 1038.0, 1038.0, 1038.0, 1038.0, 1038.0, 1038.0, 1038.0, 1038.0, 1038.0, 1038.0, 1038.0, 1038.0, 1038.0, 1038.0, 1038.0, 1038.0, 1038.0, 1038.0, 1038.0, 1038.0, 1038.0, 1038.0, 1038.0, 1038.0, 1038.0, 1038.0, 1038.0],
      "WindowWidth": [2315.0, 2314.0, 2315.0, 2314.0, 2314.0, 2314.0, 2314.0, 2314.0, 2314.0, 2314.0, 2315.0, 2314.0, 2314.0, 2314.0, 2314.0, 2314.0, 2314.0, 2314.0, 2314.0, 2314.0, 2314.0, 2314.0, 2314.0, 2314.0, 2314.0, 2314.0, 2314.0, 2314.0, 2314.0, 2314.0, 2314.0, 2314.0, 2314.0, 2314.0, 2314.0, 2314.0, 2314.0, 2314.0, 2314.0, 2314.0, 2314.0, 2314.0, 2314.0, 2314.0, 2314.0, 2314.0, 2314.0, 2314.0, 2313.0, 2314.0, 2313.0, 2313.0, 2314.0, 2313.0, 2314.0, 2313.0, 2313.0, 2313.0, 2313.0, 2313.0, 2313.0, 2313.0, 2313.0, 2313.0, 2313.0, 2313.0, 2313.0, 2313.0, 2313.0, 2313.0, 2313.0, 2313.0, 2313.0, 2313.0, 2313.0, 2313.0, 2313.0, 2313.0, 2313.0, 2313.0, 2313.0, 2313.0, 2313.0, 2312.0, 2312.0, 2313.0, 2313.0, 2313.0, 2313.0, 2313.0, 2313.0, 2312.0, 2312.0, 2313.0, 2312.0, 2312.0, 2312.0, 2312.0, 2312.0, 2312.0, 2312.0, 2312.0, 2312.0, 2312.0, 2312.0, 2312.0, 2312.0, 2312.0, 2312.0, 2312.0, 2312.0, 2312.0, 2312.0, 2312.0, 2312.0, 2312.0, 2312.0, 2312.0, 2312.0, 2312.0, 2312.0, 2312.0, 2312.0, 2312.0, 2312.0, 2312.0, 2312.0, 2312.0, 2312.0, 2312.0, 2312.0, 2312.0, 2312.0, 2312.0, 2312.0, 2312.0, 2312.0, 2312.0, 2312.0, 2312.0, 2312.0, 2312.0, 2312.0, 2312.0, 2312.0, 2312.0, 2312.0, 2312.0, 2312.0, 2313.0, 2312.0, 2312.0, 2312.0, 2312.0, 2312.0, 2312.0, 2312.0, 2313.0, 2312.0, 2312.0, 2313.0, 2313.0, 2312.0, 2312.0, 2313.0, 2312.0, 2313.0, 2312.0, 2312.0, 2312.0, 2312.0, 2312.0, 2312.0, 2312.0, 2312.0, 2312.0, 2312.0, 2312.0, 2312.0, 2313.0, 2312.0, 2313.0, 2313.0, 2313.0, 2313.0, 2312.0, 2313.0, 2313.0, 2313.0, 2312.0, 2313.0, 2313.0, 2312.0, 2312.0, 2313.0, 2312.0, 2312.0, 2313.0, 2312.0, 2313.0]
    },
    "slices": {}
  }
}