{
  "AcquisitionMatrixPE": 80,
  "AcquisitionNumber": 1,
  "AcquisitionTime": "09:27:3.147500",
  "BandwidthPerPixelPhaseEncode": 44.643,
  "BaseResolution": 80,
  "BodyPartExamined": "BRAIN",
  "CoilCombinationMethod": "Sum of Squares",
  "ConsistencyInfo": "N4_VE11C_LATEST_20160120",
  "ConversionSoftware": "dcm2niix",
  "ConversionSoftwareVersion": "v1.0.20220720",
  "DerivedVendorReportedEchoSpacing": 0.000559998,
  "DeviceSerialNumber": "66112",
  "DwellTime": 2.7e-06,
  "EchoTime": 0.035,
  "EchoTrainLength": 39,
  "EffectiveEchoSpacing": 0.000279999,
  "FlipAngle": 90,
  "HeudiconvVersion": "0.13.1",
  "ImageOrientationPatientDICOM": [0.988385, 0.151877, 0.00534717, -0.146481, 0.942713, 0.299725],
  "ImageOrientationText": "Tra>Cor(17.3)>Sag(-2.3)",
  "ImageType": [
    "ORIGINAL",
    "PRIMARY",
    "M",
    "ND",
    "NORM",
    "MOSAIC"
],
  "ImagingFrequency": 123.252,
  "InPlanePhaseEncodingDirectionDICOM": "COL",
  "InstitutionAddress": "Maynard 3,Hanover,NH,US,03755",
  "InstitutionName": "Dartmouth College - PBS",
  "InstitutionalDepartmentName": "Department",
  "MRAcquisitionType": "2D",
  "MagneticFieldStrength": 3,
  "Manufacturer": "Siemens",
  "ManufacturersModelName": "Prisma",
  "Modality": "MR",
  "MultibandAccelerationFactor": 4,
  "NonlinearGradientCorrection": false,
  "ParallelReductionFactorInPlane": 2,
  "PartialFourier": 1,
  "PatientPosition": "HFS",
  "PercentPhaseFOV": 100,
  "PercentSampling": 100,
  "PhaseEncodingDirection": "j-",
  "PhaseEncodingSteps": 79,
  "PhaseResolution": 1,
  "PixelBandwidth": 2315,
  "ProcedureStepDescription": "dbic^QA",
  "ProtocolName": "func-bold_task-rest_acq-p2-s4-3.5mm",
  "PulseSequenceDetails": "%SiemensSeq%\\ep2d_bold",
  "ReceiveCoilActiveElements": "HEA;HEP",
  "ReceiveCoilName": "Head_32",
  "ReconMatrixPE": 80,
  "RefLinesPE": 24,
  "RepetitionTime": 2,
  "SAR": 0.017924,
  "ScanOptions": "FS",
  "ScanningSequence": "EP",
  "SequenceName": "*epfid2d1_80",
  "SequenceVariant": "SK",
  "SeriesDescription": "func-bold_task-rest_acq-p2-s4-3.5mm",
  "SeriesNumber": 7,
  "ShimSetting": [4144, -7683, -7529, 283, -63, -236, -11, 65],
  "SliceThickness": 3.5,
  "SliceTiming": [1.485, 0, 0.99, 0.2475, 1.2375, 0.7425, 1.7325, 0.495, 1.485, 0, 0.99, 0.2475, 1.2375, 0.7425, 1.7325, 0.495, 1.485, 0, 0.99, 0.2475, 1.2375, 0.7425, 1.7325, 0.495, 1.485, 0, 0.99, 0.2475, 1.2375, 0.7425, 1.7325, 0.495],
  "SoftwareVersions": "syngo MR E11",
  "SpacingBetweenSlices": 3.99,
  "StationName": "AWP66112",
  "TaskName": "rest",
  "TotalReadoutTime": 0.0221199,
  "TxRefAmp": 231.071,
  "dcmmeta_affine": [
    [-2.9651546478271484, -0.43944254517555237, -0.1615176796913147, 139.99850463867188],
    [-0.4556320309638977, 2.828139543533325, 1.18513822555542, -114.62137603759766],
    [0.016041511669754982, -0.8991756439208984, 3.806502342224121, -22.585796356201172],
    [0.0, 0.0, 0.0, 1.0]
],
  "dcmmeta_reorient_transform": [
    [0.0, -1.0, 0.0, 79.0],
    [1.0, 0.0, 0.0, 0.0],
    [0.0, 0.0, 1.0, 0.0],
    [0.0, 0.0, 0.0, 1.0]
],
  "dcmmeta_shape": [80, 80, 32, 200],
  "dcmmeta_slice_dim": 2,
  "dcmmeta_version": 0.6,
  "global": {
    "const": {
      "AccessionNumber": "qa",
      "AcquisitionMatrix": [80, 0, 0, 80],
      "AngioFlag": "N",
      "BitsAllocated": 16,
      "BitsStored": 12,
      "BodyPartExamined": "BRAIN",
      "Columns": 480,
      "EchoNumbers": 1,
      "EchoTime": 35.0,
      "EchoTrainLength": 39,
      "FlipAngle": 90.0,
      "HighBit": 11,
      "ImageOrientationPatient": [0.9883848849955, 0.15187734156016, 0.00534717056455, -0.1464808466998, 0.94271318878075, 0.29972521623803],
      "ImagePositionPatient": [-610.42495973506, -765.55596843603, -276.66410427667],
      "ImageType": [
        "ORIGINAL",
        "PRIMARY",
        "M",
        "ND",
        "NORM",
        "MOSAIC"
],
      "ImagedNucleus": "1H",
      "ImagingFrequency": 123.252451,
      "InPlanePhaseEncodingDirection": "COL",
      "MRAcquisitionType": "2D",
      "MagneticFieldStrength": 3.0,
      "Manufacturer": "SIEMENS",
      "ManufacturerModelName": "Prisma",
      "Modality": "MR",
      "NumberOfAverages": 1.0,
      "NumberOfPhaseEncodingSteps": 79,
      "PercentPhaseFieldOfView": 100.0,
      "PercentSampling": 100.0,
      "PerformedProcedureStepStartTime": "091209.210000",
      "PhotometricInterpretation": "MONOCHROME2",
      "PixelBandwidth": 2315.0,
      "PixelRepresentation": 0,
      "PixelSpacing": [3.0, 3.0],
      "ProtocolName": "func-bold_task-rest_acq-p2-s4-3.5mm",
      "RepetitionTime": 2000.0,
      "Rows": 480,
      "SAR": 0.01792396043725,
      "SamplesPerPixel": 1,
      "ScanOptions": "FS",
      "ScanningSequence": "EP",
      "SequenceName": "*epfid2d1_80",
      "SequenceVariant": "SK",
      "SeriesDescription": "func-bold_task-rest_acq-p2-s4-3.5mm",
      "SeriesNumber": 7,
      "SeriesTime": "092752.180000",
      "SliceLocation": -61.259972938973,
      "SliceThickness": 3.5,
      "SmallestImagePixelValue": 0,
      "SoftwareVersions": "syngo MR E11",
      "SpacingBetweenSlices": 3.9900000569438,
      "SpecificCharacterSet": "ISO_IR 100",
      "StudyID": "23",
      "StudyTime": "091209.147000",
      "TransmitCoilName": "Body",
      "VariableFlipAngleFlag": "N",
      "WindowCenterWidthExplanation": "Algo1",
      "dBdt": 0.0},
    "slices": {}
  },
  "time": {
    "samples": {
      "AcquisitionNumber": [1, 2, 3, 4, 5, 6, 7, 8, 9, 10, 11, 12, 13, 14, 15, 16, 17, 18, 19, 20, 21, 22, 23, 24, 25, 26, 27, 28, 29, 30, 31, 32, 33, 34, 35, 36, 37, 38, 39, 40, 41, 42, 43, 44, 45, 46, 47, 48, 49, 50, 51, 52, 53, 54, 55, 56, 57, 58, 59, 60, 61, 62, 63, 64, 65, 66, 67, 68, 69, 70, 71, 72, 73, 74, 75, 76, 77, 78, 79, 80, 81, 82, 83, 84, 85, 86, 87, 88, 89, 90, 91, 92, 93, 94, 95, 96, 97, 98, 99, 100, 101, 102, 103, 104, 105, 106, 107, 108, 109, 110, 111, 112, 113, 114, 115, 116, 117, 118, 119, 120, 121, 122, 123, 124, 125, 126, 127, 128, 129, 130, 131, 132, 133, 134, 135, 136, 137, 138, 139, 140, 141, 142, 143, 144, 145, 146, 147, 148, 149, 150, 151, 152, 153, 154, 155, 156, 157, 158, 159, 160, 161, 162, 163, 164, 165, 166, 167, 168, 169, 170, 171, 172, 173, 174, 175, 176, 177, 178, 179, 180, 181, 182, 183, 184, 185, 186, 187, 188, 189, 190, 191, 192, 193, 194, 195, 196, 197, 198, 199, 200],
      "AcquisitionTime": ["092703.147500", "092705.147500", "092707.147500", "092709.147500", "092711.147500", "092713.147500", "092715.147500", "092717.147500", "092719.147500", "092721.147500", "092723.147500", "092725.147500", "092727.147500", "092729.147500", "092731.147500", "092733.147500", "092735.147500", "092737.147500", "092739.147500", "092741.147500", "092743.147500", "092745.147500", "092747.147500", "092749.147500", "092751.147500", "092753.147500", "092755.147500", "092757.147500", "092759.147500", "092801.147500", "092803.147500", "092805.147500", "092807.147500", "092809.147500", "092811.147500", "092813.147500", "092815.147500", "092817.147500", "092819.147500", "092821.147500", "092823.147500", "092825.147500", "092827.147500", "092829.147500", "092831.147500", "092833.147500", "092835.147500", "092837.147500", "092839.147500", "092841.147500", "092843.147500", "092845.147500", "092847.147500", "092849.147500", "092851.147500", "092853.147500", "092855.147500", "092857.147500", "092859.147500", "092901.147500", "092903.147500", "092905.147500", "092907.147500", "092909.147500", "092911.147500", "092913.147500", "092915.147500", "092917.147500", "092919.147500", "092921.147500", "092923.147500", "092925.147500", "092927.147500", "092929.147500", "092931.147500", "092933.147500", "092935.147500", "092937.147500", "092939.147500", "092941.147500", "092943.147500", "092945.147500", "092947.147500", "092949.147500", "092951.147500", "092953.147500", "092955.147500", "092957.147500", "092959.147500", "093001.147500", "093003.147500", "093005.147500", "093007.147500", "093009.147500", "093011.147500", "093013.147500", "093015.147500", "093017.147500", "093019.147500", "093021.147500", "093023.147500", "093025.147500", "093027.147500", "093029.147500", "093031.147500", "093033.147500", "093035.147500", "093037.147500", "093039.147500", "093041.147500", "093043.147500", "093045.147500", "093047.147500", "093049.147500", "093051.147500", "093053.147500", "093055.147500", "093057.147500", "093059.147500", "093101.147500", "093103.147500", "093105.147500", "093107.147500", "093109.147500", "093111.147500", "093113.147500", "093115.147500", "093117.147500", "093119.147500", "093121.147500", "093123.147500", "093125.147500", "093127.147500", "093129.147500", "093131.147500", "093133.147500", "093135.147500", "093137.147500", "093139.147500", "093141.147500", "093143.147500", "093145.147500", "093147.147500", "093149.147500", "093151.147500", "093153.147500", "093155.147500", "093157.147500", "093159.147500", "093201.147500", "093203.147500", "093205.147500", "093207.147500", "093209.147500", "093211.147500", "093213.147500", "093215.147500", "093217.147500", "093219.147500", "093221.147500", "093223.147500", "093225.147500", "093227.147500", "093229.147500", "093231.147500", "093233.147500", "093235.147500", "093237.147500", "093239.147500", "093241.147500", "093243.147500", "093245.147500", "093247.147500", "093249.147500", "093251.147500", "093253.147500", "093255.147500", "093257.147500", "093259.147500", "093301.147500", "093303.147500", "093305.147500", "093307.147500", "093309.147500", "093311.147500", "093313.147500", "093315.147500", "093317.147500", "093319.147500", "093321.147500", "093323.147500", "093325.147500", "093327.147500", "093329.147500", "093331.147500", "093333.147500", "093335.147500", "093337.147500", "093339.147500", "093341.147500"],
      "ContentTime": ["092752.183000", "092752.187000", "092752.189000", "092752.192000", "092752.194000", "092752.197000", "092752.199000", "092752.202000", "092752.204000", "092752.207000", "092752.209000", "092752.212000", "092752.214000", "092752.217000", "092752.219000", "092752.222000", "092752.224000", "092752.227000", "092752.229000", "092752.231000", "092752.234000", "092752.237000", "092752.239000", "092752.242000", "092832.178000", "092832.181000", "092832.184000", "092832.186000", "092832.189000", "092832.191000", "092832.194000", "092832.196000", "092832.199000", "092832.201000", "092832.204000", "092832.206000", "092832.209000", "092832.211000", "092832.214000", "092832.216000", "092832.219000", "092832.221000", "092832.223000", "092832.226000", "092832.228000", "092912.177000", "092912.180000", "092912.183000", "092912.185000", "092912.187000", "092912.190000", "092912.192000", "092912.195000", "092912.197000", "092912.200000", "092912.202000", "092912.205000", "092912.207000", "092912.210000", "092912.212000", "092912.215000", "092912.217000", "092912.220000", "092912.222000", "092912.226000", "092952.178000", "092952.181000", "092952.184000", "092952.186000", "092952.189000", "092952.191000", "092952.194000", "092952.196000", "092952.199000", "092952.201000", "092952.204000", "092952.206000", "092952.209000", "092952.211000", "092952.214000", "092952.216000", "092952.219000", "092952.221000", "092952.224000", "092952.226000", "093052.178000", "093052.181000", "093052.184000", "093052.186000", "093052.189000", "093052.191000", "093052.194000", "093052.196000", "093052.198000", "093052.201000", "093052.203000", "093052.206000", "093052.208000", "093052.211000", "093052.213000", "093052.216000", "093052.218000", "093052.221000", "093052.223000", "093052.226000", "093052.228000", "093052.231000", "093052.233000", "093052.244000", "093052.247000", "093052.249000", "093052.252000", "093052.254000", "093052.258000", "093052.261000", "093132.178000", "093132.181000", "093132.184000", "093132.186000", "093132.189000", "093132.191000", "093132.194000", "093132.196000", "093132.198000", "093132.201000", "093132.203000", "093132.206000", "093132.209000", "093132.211000", "093132.213000", "093132.216000", "093132.219000", "093132.221000", "093132.223000", "093132.226000", "093212.178000", "093212.181000", "093212.184000", "093212.186000", "093212.189000", "093212.191000", "093212.193000", "093212.196000", "093212.198000", "093212.201000", "093212.203000", "093212.206000", "093212.208000", "093212.211000", "093212.213000", "093212.216000", "093212.218000", "093212.221000", "093212.223000", "093212.226000", "093252.179000", "093252.181000", "093252.184000", "093252.186000", "093252.189000", "093252.191000", "093252.194000", "093252.196000", "093252.199000", "093252.201000", "093252.204000", "093252.206000", "093252.209000", "093252.211000", "093252.214000", "093252.216000", "093252.219000", "093252.221000", "093252.224000", "093252.226000", "093332.178000", "093332.181000", "093332.184000", "093332.186000", "093332.189000", "093332.191000", "093332.194000", "093332.196000", "093332.199000", "093332.201000", "093332.204000", "093332.206000", "093332.208000", "093332.211000", "093332.213000", "093332.216000", "093332.219000", "093332.221000", "093332.224000", "093332.226000", "093342.296000", "093342.299000", "093342.301000", "093342.304000", "093342.307000"],
      "InstanceCreationTime": ["092752.183000", "092752.187000", "092752.189000", "092752.192000", "092752.194000", "092752.197000", "092752.199000", "092752.202000", "092752.204000", "092752.207000", "092752.209000", "092752.212000", "092752.214000", "092752.217000", "092752.219000", "092752.222000", "092752.224000", "092752.227000", "092752.229000", "092752.231000", "092752.234000", "092752.237000", "092752.239000", "092752.242000", "092832.178000", "092832.181000", "092832.184000", "092832.186000", "092832.189000", "092832.191000", "092832.194000", "092832.196000", "092832.199000", "092832.201000", "092832.204000", "092832.206000", "092832.209000", "092832.211000", "092832.214000", "092832.216000", "092832.219000", "092832.221000", "092832.223000", "092832.226000", "092832.228000", "092912.177000", "092912.180000", "092912.183000", "092912.185000", "092912.187000", "092912.190000", "092912.192000", "092912.195000", "092912.197000", "092912.200000", "092912.202000", "092912.205000", "092912.207000", "092912.210000", "092912.212000", "092912.215000", "092912.217000", "092912.220000", "092912.222000", "092912.226000", "092952.178000", "092952.181000", "092952.184000", "092952.186000", "092952.189000", "092952.191000", "092952.194000", "092952.196000", "092952.199000", "092952.201000", "092952.204000", "092952.206000", "092952.209000", "092952.211000", "092952.214000", "092952.216000", "092952.219000", "092952.221000", "092952.224000", "092952.226000", "093052.178000", "093052.181000", "093052.184000", "093052.186000", "093052.189000", "093052.191000", "093052.194000", "093052.196000", "093052.198000", "093052.201000", "093052.203000", "093052.206000", "093052.208000", "093052.211000", "093052.213000", "093052.216000", "093052.218000", "093052.221000", "093052.223000", "093052.226000", "093052.228000", "093052.231000", "093052.233000", "093052.244000", "093052.247000", "093052.249000", "093052.252000", "093052.254000", "093052.258000", "093052.261000", "093132.178000", "093132.181000", "093132.184000", "093132.186000", "093132.189000", "093132.191000", "093132.194000", "093132.196000", "093132.198000", "093132.201000", "093132.203000", "093132.206000", "093132.209000", "093132.211000", "093132.213000", "093132.216000", "093132.219000", "093132.221000", "093132.223000", "093132.226000", "093212.178000", "093212.181000", "093212.184000", "093212.186000", "093212.189000", "093212.191000", "093212.193000", "093212.196000", "093212.198000", "093212.201000", "093212.203000", "093212.206000", "093212.208000", "093212.211000", "093212.213000", "093212.216000", "093212.218000", "093212.221000", "093212.223000", "093212.226000", "093252.179000", "093252.181000", "093252.184000", "093252.186000", "093252.189000", "093252.191000", "093252.194000", "093252.196000", "093252.199000", "093252.201000", "093252.204000", "093252.206000", "093252.209000", "093252.211000", "093252.214000", "093252.216000", "093252.219000", "093252.221000", "093252.224000", "093252.226000", "093332.178000", "093332.181000", "093332.184000", "093332.186000", "093332.189000", "093332.191000", "093332.194000", "093332.196000", "093332.199000", "093332.201000", "093332.204000", "093332.206000", "093332.208000", "093332.211000", "093332.213000", "093332.216000", "093332.219000", "093332.221000", "093332.224000", "093332.226000", "093342.296000", "093342.299000", "093342.301000", "093342.304000", "093342.307000"],
      "InstanceNumber": [1, 2, 3, 4, 5, 6, 7, 8, 9, 10, 11, 12, 13, 14, 15, 16, 17, 18, 19, 20, 21, 22, 23, 24, 25, 26, 27, 28, 29, 30, 31, 32, 33, 34, 35, 36, 37, 38, 39, 40, 41, 42, 43, 44, 45, 46, 47, 48, 49, 50, 51, 52, 53, 54, 55, 56, 57, 58, 59, 60, 61, 62, 63, 64, 65, 66, 67, 68, 69, 70, 71, 72, 73, 74, 75, 76, 77, 78, 79, 80, 81, 82, 83, 84, 85, 86, 87, 88, 89, 90, 91, 92, 93, 94, 95, 96, 97, 98, 99, 100, 101, 102, 103, 104, 105, 106, 107, 108, 109, 110, 111, 112, 113, 114, 115, 116, 117, 118, 119, 120, 121, 122, 123, 124, 125, 126, 127, 128, 129, 130, 131, 132, 133, 134, 135, 136, 137, 138, 139, 140, 141, 142, 143, 144, 145, 146, 147, 148, 149, 150, 151, 152, 153, 154, 155, 156, 157, 158, 159, 160, 161, 162, 163, 164, 165, 166, 167, 168, 169, 170, 171, 172, 173, 174, 175, 176, 177, 178, 179, 180, 181, 182, 183, 184, 185, 186, 187, 188, 189, 190, 191, 192, 193, 194, 195, 196, 197, 198, 199, 200],
      "LargestImagePixelValue": [2244, 2244, 2240, 2244, 2246, 2238, 2244, 2246, 2241, 2246, 2246, 2243, 2239, 2242, 2246, 2245, 2245, 2246, 2246, 2245, 2247, 2244, 2243, 2243, 2244, 2249, 2242, 2251, 2243, 2248, 2243, 2245, 2243, 2242, 2247, 2244, 2248, 2247, 2251, 2242, 2244, 2241, 2253, 2245, 2245, 2249, 2245, 2243, 2243, 2246, 2239, 2248, 2245, 2253, 2246, 2248, 2245, 2248, 2244, 2244, 2245, 2245, 2246, 2246, 2250, 2247, 2248, 2243, 2247, 2252, 2251, 2245, 2252, 2244, 2246, 2251, 2246, 2244, 2247, 2250, 2252, 2254, 2244, 2250, 2243, 2249, 2249, 2251, 2252, 2251, 2243, 2247, 2251, 2245, 2251, 2245, 2250, 2248, 2247, 2244, 2248, 2250, 2247, 2247, 2249, 2246, 2247, 2245, 2248, 2246, 2247, 2245, 2249, 2249, 2248, 2253, 2248, 2247, 2251, 2250, 2247, 2250, 2247, 2246, 2243, 2249, 2249, 2247, 2245, 2251, 2247, 2251, 2246, 2249, 2249, 2248, 2253, 2248, 2249, 2243, 2246, 2246, 2246, 2247, 2252, 2247, 2247, 2247, 2242, 2244, 2249, 2247, 2247, 2252, 2251, 2252, 2246, 2246, 2252, 2254, 2252, 2245, 2247, 2251, 2250, 2249, 2252, 2250, 2249, 2245, 2249, 2254, 2249, 2251, 2251, 2250, 2249, 2251, 2246, 2248, 2246, 2246, 2248, 2244, 2248, 2248, 2250, 2246, 2248, 2249, 2253, 2254, 2249, 2247, 2258, 2251, 2251, 2249, 2249, 2249],
      "WindowCenter": [963.0, 962.0, 963.0, 963.0, 963.0, 962.0, 963.0, 963.0, 963.0, 963.0, 962.0, 962.0, 963.0, 962.0, 963.0, 963.0, 963.0, 963.0, 963.0, 963.0, 963.0, 963.0, 963.0, 963.0, 963.0, 962.0, 962.0, 963.0, 963.0, 963.0, 963.0, 963.0, 962.0, 963.0, 963.0, 962.0, 963.0, 963.0, 962.0, 963.0, 962.0, 963.0, 963.0, 962.0, 963.0, 963.0, 962.0, 963.0, 963.0, 962.0, 963.0, 962.0, 963.0, 963.0, 963.0, 963.0, 963.0, 963.0, 963.0, 961.0, 962.0, 963.0, 963.0, 962.0, 963.0, 963.0, 962.0, 963.0, 963.0, 963.0, 963.0, 963.0, 963.0, 963.0, 963.0, 962.0, 963.0, 962.0, 963.0, 963.0, 963.0, 963.0, 963.0, 962.0, 962.0, 963.0, 962.0, 962.0, 963.0, 962.0, 963.0, 963.0, 963.0, 962.0, 963.0, 963.0, 963.0, 963.0, 962.0, 963.0, 963.0, 963.0, 963.0, 963.0, 963.0, 962.0, 963.0, 963.0, 963.0, 963.0, 963.0, 963.0, 963.0, 963.0, 963.0, 963.0, 962.0, 962.0, 963.0, 963.0, 963.0, 963.0, 962.0, 962.0, 962.0, 962.0, 963.0, 963.0, 962.0, 963.0, 963.0, 963.0, 962.0, 962.0, 963.0, 963.0, 962.0, 962.0, 962.0, 963.0, 963.0, 963.0, 963.0, 963.0, 963.0, 963.0, 963.0, 963.0, 963.0, 963.0, 963.0, 963.0, 963.0, 962.0, 962.0, 963.0, 963.0, 962.0, 963.0, 962.0, 963.0, 963.0, 963.0, 963.0, 962.0, 962.0, 962.0, 962.0, 963.0, 963.0, 962.0, 962.0, 962.0, 962.0, 963.0, 963.0, 963.0, 963.0, 963.0, 962.0, 962.0, 963.0, 962.0, 963.0, 963.0, 962.0, 962.0, 963.0, 962.0, 962.0, 963.0, 963.0, 963.0, 962.0, 963.0, 962.0, 963.0, 963.0, 962.0, 962.0],
      "WindowWidth": [2244.0, 2244.0, 2245.0, 2244.0, 2245.0, 2244.0, 2245.0, 2244.0, 2245.0, 2244.0, 2244.0, 2244.0, 2245.0, 2245.0, 2245.0, 2245.0, 2244.0, 2245.0, 2244.0, 2245.0, 2244.0, 2245.0, 2245.0, 2245.0, 2245.0, 2244.0, 2245.0, 2245.0, 2245.0, 2245.0, 2245.0, 2245.0, 2245.0, 2245.0, 2245.0, 2244.0, 2245.0, 2245.0, 2245.0, 2245.0, 2244.0, 2245.0, 2245.0, 2244.0, 2245.0, 2245.0, 2244.0, 2245.0, 2245.0, 2245.0, 2245.0, 2244.0, 2245.0, 2245.0, 2245.0, 2245.0, 2245.0, 2245.0, 2245.0, 2243.0, 2244.0, 2245.0, 2245.0, 2244.0, 2245.0, 2245.0, 2244.0, 2245.0, 2245.0, 2245.0, 2245.0, 2245.0, 2245.0, 2245.0, 2245.0, 2245.0, 2245.0, 2245.0, 2245.0, 2245.0, 2245.0, 2245.0, 2245.0, 2244.0, 2244.0, 2245.0, 2244.0, 2244.0, 2245.0, 2244.0, 2245.0, 2245.0, 2245.0, 2244.0, 2245.0, 2245.0, 2245.0, 2245.0, 2244.0, 2245.0, 2245.0, 2245.0, 2245.0, 2245.0, 2245.0, 2244.0, 2245.0, 2245.0, 2245.0, 2245.0, 2245.0, 2245.0, 2245.0, 2245.0, 2245.0, 2245.0, 2245.0, 2244.0, 2245.0, 2245.0, 2245.0, 2245.0, 2245.0, 2245.0, 2244.0, 2244.0, 2245.0, 2245.0, 2245.0, 2245.0, 2246.0, 2246.0, 2244.0, 2245.0, 2245.0, 2245.0, 2244.0, 2245.0, 2244.0, 2246.0, 2246.0, 2246.0, 2245.0, 2245.0, 2245.0, 2245.0, 2245.0, 2245.0, 2245.0, 2245.0, 2245.0, 2245.0, 2245.0, 2245.0, 2245.0, 2246.0, 2245.0, 2245.0, 2245.0, 2245.0, 2245.0, 2245.0, 2245.0, 2246.0, 2245.0, 2245.0, 2245.0, 2245.0, 2245.0, 2245.0, 2244.0, 2245.0, 2245.0, 2245.0, 2245.0, 2245.0, 2245.0, 2245.0, 2245.0, 2245.0, 2245.0, 2246.0, 2245.0, 2245.0, 2246.0, 2245.0, 2245.0, 2246.0, 2245.0, 2245.0, 2246.0, 2246.0, 2245.0, 2245.0, 2245.0, 2245.0, 2245.0, 2245.0, 2245.0, 2245.0]
    },
    "slices": {}
  }
}