{
  "AcquisitionMatrixPE": 80,
  "AcquisitionNumber": 1,
  "AcquisitionTime": "10:06:31.750000",
  "BandwidthPerPixelPhaseEncode": 48.077,
  "BaseResolution": 80,
  "BodyPartExamined": "BRAIN",
  "CoilCombinationMethod": "Sum of Squares",
  "ConsistencyInfo": "N4_VE11E_LATEST_20181129",
  "ConversionSoftware": "dcm2niix",
  "ConversionSoftwareVersion": "v1.0.20220720",
  "DerivedVendorReportedEchoSpacing": 0.000519999,
  "DeviceSerialNumber": "66112",
  "DwellTime": 2.7e-06,
  "EchoTime": 0.035,
  "EchoTrainLength": 39,
  "EffectiveEchoSpacing": 0.00026,
  "FlipAngle": 90,
  "HeudiconvVersion": "0.13.1",
  "ImageOrientationPatientDICOM": [0.999966, 0.00763801, 0.00305408, -0.00820295, 0.953653, 0.300797],
  "ImageOrientationText": "Tra>Cor(17.5)>Sag(0.0)",
  "ImageType": [
    "ORIGINAL",
    "PRIMARY",
    "M",
    "ND",
    "NORM",
    "MOSAIC"
],
  "ImagingFrequency": 123.261,
  "InPlanePhaseEncodingDirectionDICOM": "COL",
  "InstitutionAddress": "Maynard 3,Hanover,NH,US,03755",
  "InstitutionName": "Dartmouth College - PBS",
  "InstitutionalDepartmentName": "Department",
  "MRAcquisitionType": "2D",
  "MagneticFieldStrength": 3,
  "Manufacturer": "Siemens",
  "ManufacturersModelName": "Prisma",
  "MatrixCoilMode": "GRAPPA",
  "Modality": "MR",
  "NonlinearGradientCorrection": false,
  "ParallelReductionFactorInPlane": 2,
  "PartialFourier": 1,
  "PatientPosition": "HFS",
  "PercentPhaseFOV": 100,
  "PercentSampling": 100,
  "PhaseEncodingDirection": "j-",
  "PhaseEncodingSteps": 79,
  "PhaseResolution": 1,
  "PixelBandwidth": 2315,
  "ProcedureStepDescription": "dbic^QA",
  "ProtocolName": "func-bold_task-rest_acq-p2",
  "PulseSequenceDetails": "%SiemensSeq%\\ep2d_bold",
  "ReceiveCoilActiveElements": "HEA;HEP",
  "ReceiveCoilName": "Head_32",
  "ReconMatrixPE": 80,
  "RefLinesPE": 24,
  "RepetitionTime": 2,
  "SAR": 0.0468201,
  "ScanOptions": "FS",
  "ScanningSequence": "EP",
  "SequenceName": "*epfid2d1_80",
  "SequenceVariant": "SK",
  "SeriesDescription": "func-bold_task-rest_acq-p2",
  "SeriesNumber": 5,
  "ShimSetting": [4247, -7741, -7486, -75, -179, -51, -27, 90],
  "SliceThickness": 3.5,
  "SliceTiming": [0.99, 0, 1.055, 0.065, 1.12, 0.13, 1.1875, 0.1975, 1.2525, 0.2625, 1.32, 0.33, 1.385, 0.395, 1.45, 0.46, 1.5175, 0.5275, 1.5825, 0.5925, 1.65, 0.66, 1.715, 0.725, 1.78, 0.79, 1.8475, 0.8575, 1.9125, 0.9225],
  "SoftwareVersions": "syngo MR E11",
  "SpacingBetweenSlices": 3.99,
  "StationName": "AWP66112",
  "TaskName": "rest",
  "TotalReadoutTime": 0.02054,
  "TxRefAmp": 219.774,
  "dcmmeta_affine": [
    [-2.9998984336853027, -0.024608856067061424, 0.0024540352169424295, 121.30144500732422],
    [-0.022914044559001923, 2.8609588146209717, 1.2002387046813965, -120.82218170166016],
    [0.009162254631519318, -0.9023904800415039, 3.805196523666382, -23.505489349365234],
    [0.0, 0.0, 0.0, 1.0]
],
  "dcmmeta_reorient_transform": [
    [0.0, -1.0, 0.0, 79.0],
    [1.0, 0.0, 0.0, 0.0],
    [0.0, 0.0, 1.0, 0.0],
    [0.0, 0.0, 0.0, 1.0]
],
  "dcmmeta_shape": [80, 80, 30, 200],
  "dcmmeta_slice_dim": 2,
  "dcmmeta_version": 0.6,
  "global": {
    "const": {
      "AccessionNumber": "qa",
      "AcquisitionMatrix": [80, 0, 0, 80],
      "AngioFlag": "N",
      "BitsAllocated": 16,
      "BitsStored": 12,
      "BodyPartExamined": "BRAIN",
      "Columns": 480,
      "EchoNumbers": 1,
      "EchoTime": 35.0,
      "EchoTrainLength": 39,
      "FlipAngle": 90.0,
      "HighBit": 11,
      "ImageOrientationPatient": [0.99996616607702, 0.0076380145952, 0.00305408485053, -0.0082029518526, 0.95365296376379, 0.3007968355642],
      "ImagePositionPatient": [-714.41527127898, -681.9681551219, -277.10489231287],
      "ImageType": [
        "ORIGINAL",
        "PRIMARY",
        "M",
        "ND",
        "NORM",
        "MOSAIC"
],
      "ImagedNucleus": "1H",
      "ImagingFrequency": 123.261266,
      "InPlanePhaseEncodingDirection": "COL",
      "MRAcquisitionType": "2D",
      "MagneticFieldStrength": 3.0,
      "Manufacturer": "SIEMENS",
      "ManufacturerModelName": "Prisma",
      "Modality": "MR",
      "NumberOfAverages": 1.0,
      "NumberOfPhaseEncodingSteps": 79,
      "PercentPhaseFieldOfView": 100.0,
      "PercentSampling": 100.0,
      "PerformedProcedureStepStartTime": "100430.224000",
      "PhotometricInterpretation": "MONOCHROME2",
      "PixelBandwidth": 2315.0,
      "PixelRepresentation": 0,
      "PixelSpacing": [3.0, 3.0],
      "ProtocolName": "func-bold_task-rest_acq-p2",
      "RepetitionTime": 2000.0,
      "Rows": 480,
      "SAR": 0.04682008324811,
      "SamplesPerPixel": 1,
      "ScanOptions": "FS",
      "ScanningSequence": "EP",
      "SequenceName": "*epfid2d1_80",
      "SequenceVariant": "SK",
      "SeriesDescription": "func-bold_task-rest_acq-p2",
      "SeriesNumber": 5,
      "SeriesTime": "100706.718000",
      "SliceLocation": -58.686916491045,
      "SliceThickness": 3.5,
      "SmallestImagePixelValue": 0,
      "SoftwareVersions": "syngo MR E11",
      "SpacingBetweenSlices": 3.9899999981818,
      "SpecificCharacterSet": "ISO_IR 100",
      "StudyID": "35",
      "StudyTime": "100430.167000",
      "TransmitCoilName": "Body",
      "VariableFlipAngleFlag": "N",
      "WindowCenterWidthExplanation": "Algo1"
    },
    "slices": {}
  },
  "time": {
    "samples": {
      "AcquisitionNumber": [1, 2, 3, 4, 5, 6, 7, 8, 9, 10, 11, 12, 13, 14, 15, 16, 17, 18, 19, 20, 21, 22, 23, 24, 25, 26, 27, 28, 29, 30, 31, 32, 33, 34, 35, 36, 37, 38, 39, 40, 41, 42, 43, 44, 45, 46, 47, 48, 49, 50, 51, 52, 53, 54, 55, 56, 57, 58, 59, 60, 61, 62, 63, 64, 65, 66, 67, 68, 69, 70, 71, 72, 73, 74, 75, 76, 77, 78, 79, 80, 81, 82, 83, 84, 85, 86, 87, 88, 89, 90, 91, 92, 93, 94, 95, 96, 97, 98, 99, 100, 101, 102, 103, 104, 105, 106, 107, 108, 109, 110, 111, 112, 113, 114, 115, 116, 117, 118, 119, 120, 121, 122, 123, 124, 125, 126, 127, 128, 129, 130, 131, 132, 133, 134, 135, 136, 137, 138, 139, 140, 141, 142, 143, 144, 145, 146, 147, 148, 149, 150, 151, 152, 153, 154, 155, 156, 157, 158, 159, 160, 161, 162, 163, 164, 165, 166, 167, 168, 169, 170, 171, 172, 173, 174, 175, 176, 177, 178, 179, 180, 181, 182, 183, 184, 185, 186, 187, 188, 189, 190, 191, 192, 193, 194, 195, 196, 197, 198, 199, 200],
      "AcquisitionTime": ["100631.750000", "100633.750000", "100635.750000", "100637.750000", "100639.750000", "100641.750000", "100643.750000", "100645.750000", "100647.750000", "100649.750000", "100651.750000", "100653.750000", "100655.750000", "100657.750000", "100659.750000", "100701.750000", "100703.750000", "100705.750000", "100707.750000", "100709.750000", "100711.750000", "100713.750000", "100715.750000", "100717.750000", "100719.750000", "100721.750000", "100723.750000", "100725.750000", "100727.750000", "100729.750000", "100731.750000", "100733.750000", "100735.750000", "100737.750000", "100739.750000", "100741.750000", "100743.750000", "100745.750000", "100747.750000", "100749.750000", "100751.750000", "100753.750000", "100755.750000", "100757.750000", "100759.750000", "100801.750000", "100803.750000", "100805.750000", "100807.750000", "100809.750000", "100811.750000", "100813.750000", "100815.750000", "100817.750000", "100819.750000", "100821.750000", "100823.750000", "100825.750000", "100827.750000", "100829.750000", "100831.750000", "100833.750000", "100835.750000", "100837.750000", "100839.750000", "100841.750000", "100843.750000", "100845.750000", "100847.750000", "100849.750000", "100851.750000", "100853.750000", "100855.750000", "100857.750000", "100859.750000", "100901.750000", "100903.750000", "100905.750000", "100907.750000", "100909.750000", "100911.750000", "100913.750000", "100915.750000", "100917.750000", "100919.750000", "100921.750000", "100923.750000", "100925.750000", "100927.750000", "100929.750000", "100931.750000", "100933.750000", "100935.750000", "100937.750000", "100939.750000", "100941.750000", "100943.750000", "100945.750000", "100947.750000", "100949.750000", "100951.750000", "100953.750000", "100955.750000", "100957.750000", "100959.750000", "101001.750000", "101003.750000", "101005.750000", "101007.750000", "101009.750000", "101011.750000", "101013.750000", "101015.750000", "101017.750000", "101019.750000", "101021.750000", "101023.750000", "101025.750000", "101027.750000", "101029.750000", "101031.750000", "101033.750000", "101035.750000", "101037.750000", "101039.750000", "101041.750000", "101043.750000", "101045.750000", "101047.750000", "101049.750000", "101051.750000", "101053.750000", "101055.750000", "101057.750000", "101059.750000", "101101.750000", "101103.750000", "101105.750000", "101107.750000", "101109.750000", "101111.750000", "101113.750000", "101115.750000", "101117.750000", "101119.750000", "101121.750000", "101123.750000", "101125.750000", "101127.750000", "101129.750000", "101131.750000", "101133.750000", "101135.750000", "101137.750000", "101139.750000", "101141.750000", "101143.750000", "101145.750000", "101147.750000", "101149.750000", "101151.750000", "101153.750000", "101155.750000", "101157.750000", "101159.750000", "101201.750000", "101203.750000", "101205.750000", "101207.750000", "101209.750000", "101211.750000", "101213.750000", "101215.750000", "101217.750000", "101219.750000", "101221.750000", "101223.750000", "101225.750000", "101227.750000", "101229.750000", "101231.750000", "101233.750000", "101235.750000", "101237.750000", "101239.750000", "101241.750000", "101243.750000", "101245.750000", "101247.750000", "101249.750000", "101251.750000", "101253.750000", "101255.750000", "101257.750000", "101259.750000", "101301.750000", "101303.750000", "101305.750000", "101307.750000", "101309.750000"],
      "ContentTime": ["100706.721000", "100706.724000", "100706.727000", "100706.729000", "100706.731000", "100706.734000", "100706.736000", "100706.738000", "100706.741000", "100706.743000", "100706.745000", "100706.747000", "100706.750000", "100706.752000", "100706.763000", "100706.765000", "100706.767000", "100746.715000", "100746.718000", "100746.720000", "100746.722000", "100746.725000", "100746.727000", "100746.729000", "100746.732000", "100746.734000", "100746.736000", "100746.739000", "100746.741000", "100746.751000", "100746.754000", "100746.757000", "100746.759000", "100746.761000", "100746.764000", "100746.766000", "100746.768000", "100826.716000", "100826.718000", "100826.720000", "100826.723000", "100826.725000", "100826.727000", "100826.730000", "100826.732000", "100826.734000", "100826.737000", "100826.739000", "100826.741000", "100826.744000", "100826.746000", "100826.748000", "100826.750000", "100826.753000", "100826.756000", "100826.759000", "100826.761000", "100906.716000", "100906.718000", "100906.720000", "100906.723000", "100906.725000", "100906.727000", "100906.730000", "100906.732000", "100906.734000", "100906.737000", "100906.739000", "100906.741000", "100906.744000", "100906.746000", "100906.748000", "100906.750000", "100906.753000", "100906.757000", "100906.759000", "100906.761000", "100946.715000", "100946.718000", "100946.726000", "100946.728000", "100946.731000", "100946.733000", "100946.735000", "100946.738000", "100946.740000", "100946.742000", "100946.745000", "100946.747000", "100946.749000", "100946.751000", "100946.754000", "100946.757000", "100946.759000", "100946.762000", "100946.764000", "100946.766000", "101026.715000", "101026.718000", "101026.720000", "101026.723000", "101026.725000", "101026.727000", "101026.736000", "101026.738000", "101026.741000", "101026.746000", "101026.748000", "101026.751000", "101026.754000", "101026.757000", "101026.759000", "101026.761000", "101026.764000", "101026.766000", "101026.769000", "101026.771000", "101106.715000", "101106.718000", "101106.720000", "101106.723000", "101106.725000", "101106.727000", "101106.730000", "101106.732000", "101106.734000", "101106.737000", "101106.739000", "101106.741000", "101106.744000", "101106.746000", "101106.748000", "101106.751000", "101106.753000", "101106.756000", "101106.758000", "101106.761000", "101146.716000", "101146.719000", "101146.721000", "101146.723000", "101146.726000", "101146.728000", "101146.731000", "101146.733000", "101146.735000", "101146.738000", "101146.740000", "101146.784000", "101146.786000", "101146.789000", "101146.791000", "101146.794000", "101146.796000", "101146.798000", "101146.801000", "101146.803000", "101226.715000", "101226.718000", "101226.720000", "101226.723000", "101226.725000", "101226.727000", "101226.730000", "101226.732000", "101226.734000", "101226.737000", "101226.739000", "101226.741000", "101226.744000", "101226.746000", "101226.748000", "101226.751000", "101226.754000", "101226.756000", "101226.759000", "101226.761000", "101306.715000", "101306.718000", "101306.720000", "101306.722000", "101306.725000", "101306.727000", "101306.729000", "101306.732000", "101306.734000", "101306.736000", "101306.739000", "101306.741000", "101306.743000", "101306.746000", "101306.748000", "101306.750000", "101306.754000", "101306.756000", "101306.759000", "101306.761000", "101311.730000", "101311.733000", "101311.735000"],
      "InstanceCreationTime": ["100706.721000", "100706.724000", "100706.727000", "100706.729000", "100706.731000", "100706.734000", "100706.736000", "100706.738000", "100706.741000", "100706.743000", "100706.745000", "100706.747000", "100706.750000", "100706.752000", "100706.763000", "100706.765000", "100706.767000", "100746.715000", "100746.718000", "100746.720000", "100746.722000", "100746.725000", "100746.727000", "100746.729000", "100746.732000", "100746.734000", "100746.736000", "100746.739000", "100746.741000", "100746.751000", "100746.754000", "100746.757000", "100746.759000", "100746.761000", "100746.764000", "100746.766000", "100746.768000", "100826.716000", "100826.718000", "100826.720000", "100826.723000", "100826.725000", "100826.727000", "100826.730000", "100826.732000", "100826.734000", "100826.737000", "100826.739000", "100826.741000", "100826.744000", "100826.746000", "100826.748000", "100826.750000", "100826.753000", "100826.756000", "100826.759000", "100826.761000", "100906.716000", "100906.718000", "100906.720000", "100906.723000", "100906.725000", "100906.727000", "100906.730000", "100906.732000", "100906.734000", "100906.737000", "100906.739000", "100906.741000", "100906.744000", "100906.746000", "100906.748000", "100906.750000", "100906.753000", "100906.757000", "100906.759000", "100906.761000", "100946.715000", "100946.718000", "100946.726000", "100946.728000", "100946.731000", "100946.733000", "100946.735000", "100946.738000", "100946.740000", "100946.742000", "100946.745000", "100946.747000", "100946.749000", "100946.751000", "100946.754000", "100946.757000", "100946.759000", "100946.762000", "100946.764000", "100946.766000", "101026.715000", "101026.718000", "101026.720000", "101026.723000", "101026.725000", "101026.727000", "101026.736000", "101026.738000", "101026.741000", "101026.746000", "101026.748000", "101026.751000", "101026.754000", "101026.757000", "101026.759000", "101026.761000", "101026.764000", "101026.766000", "101026.769000", "101026.771000", "101106.715000", "101106.718000", "101106.720000", "101106.723000", "101106.725000", "101106.727000", "101106.730000", "101106.732000", "101106.734000", "101106.737000", "101106.739000", "101106.741000", "101106.744000", "101106.746000", "101106.748000", "101106.751000", "101106.753000", "101106.756000", "101106.758000", "101106.761000", "101146.716000", "101146.719000", "101146.721000", "101146.723000", "101146.726000", "101146.728000", "101146.731000", "101146.733000", "101146.735000", "101146.738000", "101146.740000", "101146.784000", "101146.786000", "101146.789000", "101146.791000", "101146.794000", "101146.796000", "101146.798000", "101146.801000", "101146.803000", "101226.715000", "101226.718000", "101226.720000", "101226.723000", "101226.725000", "101226.727000", "101226.730000", "101226.732000", "101226.734000", "101226.737000", "101226.739000", "101226.741000", "101226.744000", "101226.746000", "101226.748000", "101226.751000", "101226.754000", "101226.756000", "101226.759000", "101226.761000", "101306.715000", "101306.718000", "101306.720000", "101306.722000", "101306.725000", "101306.727000", "101306.729000", "101306.732000", "101306.734000", "101306.736000", "101306.739000", "101306.741000", "101306.743000", "101306.746000", "101306.748000", "101306.750000", "101306.754000", "101306.756000", "101306.759000", "101306.761000", "101311.730000", "101311.733000", "101311.735000"],
      "InstanceNumber": [1, 2, 3, 4, 5, 6, 7, 8, 9, 10, 11, 12, 13, 14, 15, 16, 17, 18, 19, 20, 21, 22, 23, 24, 25, 26, 27, 28, 29, 30, 31, 32, 33, 34, 35, 36, 37, 38, 39, 40, 41, 42, 43, 44, 45, 46, 47, 48, 49, 50, 51, 52, 53, 54, 55, 56, 57, 58, 59, 60, 61, 62, 63, 64, 65, 66, 67, 68, 69, 70, 71, 72, 73, 74, 75, 76, 77, 78, 79, 80, 81, 82, 83, 84, 85, 86, 87, 88, 89, 90, 91, 92, 93, 94, 95, 96, 97, 98, 99, 100, 101, 102, 103, 104, 105, 106, 107, 108, 109, 110, 111, 112, 113, 114, 115, 116, 117, 118, 119, 120, 121, 122, 123, 124, 125, 126, 127, 128, 129, 130, 131, 132, 133, 134, 135, 136, 137, 138, 139, 140, 141, 142, 143, 144, 145, 146, 147, 148, 149, 150, 151, 152, 153, 154, 155, 156, 157, 158, 159, 160, 161, 162, 163, 164, 165, 166, 167, 168, 169, 170, 171, 172, 173, 174, 175, 176, 177, 178, 179, 180, 181, 182, 183, 184, 185, 186, 187, 188, 189, 190, 191, 192, 193, 194, 195, 196, 197, 198, 199, 200],
      "LargestImagePixelValue": [2090, 2087, 2087, 2090, 2085, 2079, 2082, 2093, 2084, 2079, 2089, 2082, 2080, 2089, 2092, 2086, 2091, 2084, 2082, 2086, 2093, 2085, 2081, 2086, 2083, 2087, 2089, 2084, 2095, 2091, 2089, 2092, 2088, 2091, 2087, 2086, 2087, 2083, 2090, 2085, 2091, 2090, 2080, 2084, 2087, 2087, 2092, 2093, 2081, 2088, 2091, 2086, 2089, 2088, 2088, 2087, 2089, 2084, 2088, 2085, 2086, 2085, 2085, 2084, 2084, 2096, 2094, 2085, 2091, 2094, 2090, 2094, 2086, 2089, 2083, 2089, 2088, 2089, 2085, 2085, 2087, 2080, 2086, 2085, 2083, 2093, 2085, 2090, 2087, 2091, 2088, 2085, 2088, 2088, 2082, 2083, 2083, 2084, 2089, 2087, 2085, 2086, 2083, 2084, 2084, 2085, 2088, 2088, 2085, 2084, 2089, 2090, 2088, 2085, 2091, 2089, 2087, 2081, 2091, 2088, 2086, 2090, 2086, 2084, 2088, 2092, 2082, 2091, 2087, 2087, 2081, 2087, 2085, 2087, 2080, 2084, 2087, 2084, 2091, 2085, 2093, 2086, 2088, 2091, 2090, 2086, 2092, 2088, 2089, 2092, 2089, 2090, 2085, 2083, 2084, 2086, 2087, 2085, 2092, 2089, 2084, 2085, 2089, 2084, 2088, 2094, 2088, 2089, 2087, 2091, 2087, 2087, 2083, 2081, 2083, 2086, 2084, 2092, 2085, 2089, 2083, 2087, 2091, 2091, 2086, 2090, 2088, 2089, 2084, 2083, 2088, 2082, 2085, 2088, 2086, 2086, 2079, 2093, 2094, 2091],
      "WindowCenter": [1020.0, 1019.0, 1019.0, 1019.0, 1019.0, 1020.0, 1020.0, 1021.0, 1019.0, 1019.0, 1019.0, 1019.0, 1019.0, 1019.0, 1019.0, 1019.0, 1020.0, 1019.0, 1019.0, 1019.0, 1019.0, 1020.0, 1019.0, 1019.0, 1019.0, 1019.0, 1019.0, 1019.0, 1020.0, 1019.0, 1019.0, 1019.0, 1019.0, 1019.0, 1020.0, 1019.0, 1019.0, 1019.0, 1019.0, 1019.0, 1019.0, 1019.0, 1019.0, 1019.0, 1019.0, 1019.0, 1021.0, 1020.0, 1020.0, 1020.0, 1020.0, 1019.0, 1020.0, 1019.0, 1019.0, 1019.0, 1019.0, 1019.0, 1019.0, 1019.0, 1019.0, 1019.0, 1020.0, 1019.0, 1019.0, 1019.0, 1019.0, 1019.0, 1019.0, 1019.0, 1019.0, 1020.0, 1019.0, 1020.0, 1020.0, 1019.0, 1019.0, 1019.0, 1019.0, 1019.0, 1020.0, 1019.0, 1019.0, 1019.0, 1019.0, 1019.0, 1019.0, 1018.0, 1019.0, 1018.0, 1019.0, 1018.0, 1018.0, 1018.0, 1018.0, 1018.0, 1019.0, 1019.0, 1018.0, 1019.0, 1020.0, 1018.0, 1018.0, 1018.0, 1018.0, 1018.0, 1018.0, 1019.0, 1018.0, 1018.0, 1018.0, 1018.0, 1018.0, 1020.0, 1018.0, 1018.0, 1018.0, 1018.0, 1018.0, 1018.0, 1019.0, 1018.0, 1018.0, 1018.0, 1018.0, 1018.0, 1018.0, 1018.0, 1018.0, 1018.0, 1019.0, 1018.0, 1018.0, 1019.0, 1018.0, 1019.0, 1018.0, 1018.0, 1019.0, 1018.0, 1018.0, 1019.0, 1018.0, 1018.0, 1018.0, 1018.0, 1018.0, 1018.0, 1018.0, 1018.0, 1018.0, 1019.0, 1018.0, 1019.0, 1019.0, 1019.0, 1019.0, 1018.0, 1018.0, 1018.0, 1018.0, 1018.0, 1019.0, 1018.0, 1018.0, 1018.0, 1019.0, 1019.0, 1019.0, 1018.0, 1018.0, 1018.0, 1019.0, 1018.0, 1019.0, 1019.0, 1018.0, 1019.0, 1018.0, 1019.0, 1019.0, 1019.0, 1018.0, 1018.0, 1018.0, 1018.0, 1018.0, 1018.0, 1018.0, 1019.0, 1019.0, 1018.0, 1018.0, 1018.0, 1019.0, 1018.0, 1019.0, 1018.0, 1018.0, 1018.0],
      "WindowWidth": [2272.0, 2272.0, 2272.0, 2272.0, 2272.0, 2272.0, 2272.0, 2273.0, 2272.0, 2272.0, 2271.0, 2271.0, 2271.0, 2271.0, 2271.0, 2271.0, 2272.0, 2271.0, 2271.0, 2271.0, 2271.0, 2272.0, 2271.0, 2271.0, 2271.0, 2271.0, 2271.0, 2271.0, 2272.0, 2271.0, 2271.0, 2271.0, 2271.0, 2271.0, 2272.0, 2271.0, 2271.0, 2271.0, 2271.0, 2271.0, 2271.0, 2270.0, 2271.0, 2271.0, 2270.0, 2271.0, 2272.0, 2271.0, 2271.0, 2271.0, 2271.0, 2271.0, 2271.0, 2270.0, 2270.0, 2270.0, 2270.0, 2270.0, 2270.0, 2270.0, 2270.0, 2270.0, 2271.0, 2270.0, 2270.0, 2270.0, 2270.0, 2270.0, 2270.0, 2270.0, 2270.0, 2271.0, 2270.0, 2271.0, 2271.0, 2270.0, 2270.0, 2270.0, 2270.0, 2270.0, 2271.0, 2270.0, 2270.0, 2271.0, 2270.0, 2271.0, 2270.0, 2270.0, 2271.0, 2270.0, 2269.0, 2270.0, 2270.0, 2270.0, 2270.0, 2270.0, 2269.0, 2269.0, 2270.0, 2271.0, 2271.0, 2270.0, 2269.0, 2269.0, 2270.0, 2270.0, 2270.0, 2270.0, 2269.0, 2269.0, 2269.0, 2270.0, 2270.0, 2271.0, 2270.0, 2269.0, 2269.0, 2269.0, 2269.0, 2269.0, 2270.0, 2269.0, 2269.0, 2269.0, 2269.0, 2269.0, 2269.0, 2269.0, 2269.0, 2269.0, 2270.0, 2269.0, 2269.0, 2270.0, 2269.0, 2270.0, 2269.0, 2269.0, 2270.0, 2269.0, 2269.0, 2270.0, 2269.0, 2269.0, 2269.0, 2269.0, 2269.0, 2269.0, 2269.0, 2269.0, 2269.0, 2270.0, 2269.0, 2270.0, 2270.0, 2270.0, 2270.0, 2269.0, 2269.0, 2269.0, 2269.0, 2269.0, 2269.0, 2269.0, 2269.0, 2269.0, 2270.0, 2270.0, 2269.0, 2269.0, 2268.0, 2269.0, 2269.0, 2269.0, 2269.0, 2269.0, 2268.0, 2269.0, 2269.0, 2269.0, 2269.0, 2269.0, 2268.0, 2268.0, 2268.0, 2269.0, 2268.0, 2268.0, 2268.0, 2269.0, 2269.0, 2268.0, 2269.0, 2268.0, 2269.0, 2268.0, 2269.0, 2268.0, 2268.0, 2268.0]
    },
    "slices": {}
  }
}