{
  "AcquisitionMatrixPE": 80,
  "AcquisitionNumber": 1,
  "AcquisitionTime": "10:13:26.075000",
  "BandwidthPerPixelPhaseEncode": 46.296,
  "BaseResolution": 80,
  "BodyPartExamined": "BRAIN",
  "CoilCombinationMethod": "Sum of Squares",
  "ConsistencyInfo": "N4_VE11E_LATEST_20181129",
  "ConversionSoftware": "dcm2niix",
  "ConversionSoftwareVersion": "v1.0.20220720",
  "DerivedVendorReportedEchoSpacing": 0.000540003,
  "DeviceSerialNumber": "66112",
  "DwellTime": 2.7e-06,
  "EchoTime": 0.035,
  "EchoTrainLength": 39,
  "EffectiveEchoSpacing": 0.000270002,
  "FlipAngle": 90,
  "HeudiconvVersion": "0.13.1",
  "ImageOrientationPatientDICOM": [0.999966, 0.00763801, 0.00305408, -0.00820295, 0.953653, 0.300797],
  "ImageOrientationText": "Tra>Cor(17.5)>Sag(0.0)",
  "ImageType": [
    "ORIGINAL",
    "PRIMARY",
    "M",
    "ND",
    "NORM",
    "MOSAIC"
],
  "ImagingFrequency": 123.261,
  "InPlanePhaseEncodingDirectionDICOM": "COL",
  "InstitutionAddress": "Maynard 3,Hanover,NH,US,03755",
  "InstitutionName": "Dartmouth College - PBS",
  "InstitutionalDepartmentName": "Department",
  "MRAcquisitionType": "2D",
  "MagneticFieldStrength": 3,
  "Manufacturer": "Siemens",
  "ManufacturersModelName": "Prisma",
  "Modality": "MR",
  "MultibandAccelerationFactor": 4,
  "NonlinearGradientCorrection": false,
  "ParallelReductionFactorInPlane": 2,
  "PartialFourier": 1,
  "PatientPosition": "HFS",
  "PercentPhaseFOV": 100,
  "PercentSampling": 100,
  "PhaseEncodingDirection": "j-",
  "PhaseEncodingSteps": 79,
  "PhaseResolution": 1,
  "PixelBandwidth": 2315,
  "ProcedureStepDescription": "dbic^QA",
  "ProtocolName": "func-bold_task-rest_acq-p2-s4-3.5mm",
  "PulseSequenceDetails": "%SiemensSeq%\\ep2d_bold",
  "ReceiveCoilActiveElements": "HEA;HEP",
  "ReceiveCoilName": "Head_32",
  "ReconMatrixPE": 80,
  "RefLinesPE": 24,
  "RepetitionTime": 2,
  "SAR": 0.0176068,
  "ScanOptions": "FS",
  "ScanningSequence": "EP",
  "SequenceName": "*epfid2d1_80",
  "SequenceVariant": "SK",
  "SeriesDescription": "func-bold_task-rest_acq-p2-s4-3.5mm",
  "SeriesNumber": 6,
  "ShimSetting": [4247, -7743, -7485, -74, -176, -48, -28, 90],
  "SliceThickness": 3.5,
  "SliceTiming": [1.485, 0, 0.99, 0.2475, 1.2375, 0.7425, 1.7325, 0.495, 1.485, 0, 0.99, 0.2475, 1.2375, 0.7425, 1.7325, 0.495, 1.485, 0, 0.99, 0.2475, 1.2375, 0.7425, 1.7325, 0.495, 1.485, 0, 0.99, 0.2475, 1.2375, 0.7425, 1.7325, 0.495],
  "SoftwareVersions": "syngo MR E11",
  "SpacingBetweenSlices": 3.99,
  "StationName": "AWP66112",
  "TaskName": "rest",
  "TotalReadoutTime": 0.0213301,
  "TxRefAmp": 219.774,
  "dcmmeta_affine": [
    [-2.9998984336853027, -0.024608856067061424, 0.002454035449773073, 121.29898834228516],
    [-0.022914044559001923, 2.8609588146209717, 1.2002387046813965, -122.02242279052734],
    [0.009162254631519318, -0.9023904800415039, 3.805196523666382, -27.310688018798828],
    [0.0, 0.0, 0.0, 1.0]
],
  "dcmmeta_reorient_transform": [
    [0.0, -1.0, 0.0, 79.0],
    [1.0, 0.0, 0.0, 0.0],
    [0.0, 0.0, 1.0, 0.0],
    [0.0, 0.0, 0.0, 1.0]
],
  "dcmmeta_shape": [80, 80, 32, 200],
  "dcmmeta_slice_dim": 2,
  "dcmmeta_version": 0.6,
  "global": {
    "const": {
      "AccessionNumber": "qa",
      "AcquisitionMatrix": [80, 0, 0, 80],
      "AngioFlag": "N",
      "BitsAllocated": 16,
      "BitsStored": 12,
      "BodyPartExamined": "BRAIN",
      "Columns": 480,
      "EchoNumbers": 1,
      "EchoTime": 35.0,
      "EchoTrainLength": 39,
      "FlipAngle": 90.0,
      "HighBit": 11,
      "ImageOrientationPatient": [0.99996616607702, 0.0076380145952, 0.00305408485053, -0.0082029518526, 0.95365296376379, 0.3007968355642],
      "ImagePositionPatient": [-714.41281723654, -680.76791594038, -280.9100909823],
      "ImageType": [
        "ORIGINAL",
        "PRIMARY",
        "M",
        "ND",
        "NORM",
        "MOSAIC"
],
      "ImagedNucleus": "1H",
      "ImagingFrequency": 123.261266,
      "InPlanePhaseEncodingDirection": "COL",
      "MRAcquisitionType": "2D",
      "MagneticFieldStrength": 3.0,
      "Manufacturer": "SIEMENS",
      "ManufacturerModelName": "Prisma",
      "Modality": "MR",
      "NumberOfAverages": 1.0,
      "NumberOfPhaseEncodingSteps": 79,
      "PercentPhaseFieldOfView": 100.0,
      "PercentSampling": 100.0,
      "PerformedProcedureStepStartTime": "100430.224000",
      "PhotometricInterpretation": "MONOCHROME2",
      "PixelBandwidth": 2315.0,
      "PixelRepresentation": 0,
      "PixelSpacing": [3.0, 3.0],
      "ProtocolName": "func-bold_task-rest_acq-p2-s4-3.5mm",
      "RepetitionTime": 2000.0,
      "Rows": 480,
      "SAR": 0.01760684822963,
      "SamplesPerPixel": 1,
      "ScanOptions": "FS",
      "ScanningSequence": "EP",
      "SequenceName": "*epfid2d1_80",
      "SequenceVariant": "SK",
      "SeriesDescription": "func-bold_task-rest_acq-p2-s4-3.5mm",
      "SeriesNumber": 6,
      "SeriesTime": "101406.820000",
      "SliceLocation": -62.676918625009,
      "SliceThickness": 3.5,
      "SmallestImagePixelValue": 0,
      "SoftwareVersions": "syngo MR E11",
      "SpacingBetweenSlices": 3.9900000186189,
      "SpecificCharacterSet": "ISO_IR 100",
      "StudyID": "35",
      "StudyTime": "100430.167000",
      "TransmitCoilName": "Body",
      "VariableFlipAngleFlag": "N",
      "WindowCenterWidthExplanation": "Algo1"
    },
    "slices": {}
  },
  "time": {
    "samples": {
      "AcquisitionNumber": [1, 2, 3, 4, 5, 6, 7, 8, 9, 10, 11, 12, 13, 14, 15, 16, 17, 18, 19, 20, 21, 22, 23, 24, 25, 26, 27, 28, 29, 30, 31, 32, 33, 34, 35, 36, 37, 38, 39, 40, 41, 42, 43, 44, 45, 46, 47, 48, 49, 50, 51, 52, 53, 54, 55, 56, 57, 58, 59, 60, 61, 62, 63, 64, 65, 66, 67, 68, 69, 70, 71, 72, 73, 74, 75, 76, 77, 78, 79, 80, 81, 82, 83, 84, 85, 86, 87, 88, 89, 90, 91, 92, 93, 94, 95, 96, 97, 98, 99, 100, 101, 102, 103, 104, 105, 106, 107, 108, 109, 110, 111, 112, 113, 114, 115, 116, 117, 118, 119, 120, 121, 122, 123, 124, 125, 126, 127, 128, 129, 130, 131, 132, 133, 134, 135, 136, 137, 138, 139, 140, 141, 142, 143, 144, 145, 146, 147, 148, 149, 150, 151, 152, 153, 154, 155, 156, 157, 158, 159, 160, 161, 162, 163, 164, 165, 166, 167, 168, 169, 170, 171, 172, 173, 174, 175, 176, 177, 178, 179, 180, 181, 182, 183, 184, 185, 186, 187, 188, 189, 190, 191, 192, 193, 194, 195, 196, 197, 198, 199, 200],
      "AcquisitionTime": ["101326.075000", "101328.075000", "101330.075000", "101332.075000", "101334.075000", "101336.075000", "101338.075000", "101340.075000", "101342.075000", "101344.075000", "101346.075000", "101348.075000", "101350.075000", "101352.075000", "101354.075000", "101356.075000", "101358.075000", "101400.075000", "101402.075000", "101404.075000", "101406.075000", "101408.075000", "101410.075000", "101412.075000", "101414.075000", "101416.075000", "101418.075000", "101420.075000", "101422.075000", "101424.075000", "101426.075000", "101428.075000", "101430.075000", "101432.075000", "101434.075000", "101436.075000", "101438.075000", "101440.075000", "101442.075000", "101444.075000", "101446.075000", "101448.075000", "101450.075000", "101452.075000", "101454.075000", "101456.075000", "101458.075000", "101500.075000", "101502.075000", "101504.075000", "101506.075000", "101508.075000", "101510.075000", "101512.075000", "101514.075000", "101516.075000", "101518.075000", "101520.075000", "101522.075000", "101524.075000", "101526.075000", "101528.075000", "101530.075000", "101532.075000", "101534.075000", "101536.075000", "101538.075000", "101540.075000", "101542.075000", "101544.075000", "101546.075000", "101548.075000", "101550.075000", "101552.075000", "101554.075000", "101556.075000", "101558.075000", "101600.075000", "101602.075000", "101604.075000", "101606.075000", "101608.075000", "101610.075000", "101612.075000", "101614.075000", "101616.075000", "101618.075000", "101620.075000", "101622.075000", "101624.075000", "101626.075000", "101628.075000", "101630.075000", "101632.075000", "101634.075000", "101636.075000", "101638.075000", "101640.075000", "101642.075000", "101644.075000", "101646.075000", "101648.075000", "101650.075000", "101652.075000", "101654.075000", "101656.075000", "101658.075000", "101700.075000", "101702.075000", "101704.075000", "101706.075000", "101708.075000", "101710.075000", "101712.075000", "101714.075000", "101716.075000", "101718.075000", "101720.075000", "101722.075000", "101724.075000", "101726.075000", "101728.075000", "101730.075000", "101732.075000", "101734.075000", "101736.075000", "101738.075000", "101740.075000", "101742.075000", "101744.075000", "101746.075000", "101748.075000", "101750.075000", "101752.075000", "101754.075000", "101756.075000", "101758.075000", "101800.075000", "101802.075000", "101804.075000", "101806.075000", "101808.075000", "101810.075000", "101812.075000", "101814.075000", "101816.075000", "101818.075000", "101820.075000", "101822.075000", "101824.075000", "101826.075000", "101828.075000", "101830.075000", "101832.075000", "101834.075000", "101836.075000", "101838.075000", "101840.075000", "101842.075000", "101844.075000", "101846.075000", "101848.075000", "101850.075000", "101852.075000", "101854.075000", "101856.075000", "101858.075000", "101900.075000", "101902.075000", "101904.075000", "101906.075000", "101908.075000", "101910.075000", "101912.075000", "101914.075000", "101916.075000", "101918.075000", "101920.075000", "101922.075000", "101924.075000", "101926.075000", "101928.075000", "101930.075000", "101932.075000", "101934.075000", "101936.075000", "101938.075000", "101940.075000", "101942.075000", "101944.075000", "101946.075000", "101948.075000", "101950.075000", "101952.075000", "101954.075000", "101956.075000", "101958.075000", "102000.075000", "102002.075000", "102004.075000"],
      "ContentTime": ["101406.824000", "101406.836000", "101406.838000", "101406.840000", "101406.843000", "101406.845000", "101406.847000", "101406.850000", "101406.852000", "101406.854000", "101406.857000", "101406.859000", "101406.861000", "101406.868000", "101406.876000", "101406.879000", "101406.881000", "101406.883000", "101406.892000", "101406.895000", "101446.818000", "101446.821000", "101446.823000", "101446.825000", "101446.828000", "101446.830000", "101446.833000", "101446.835000", "101446.837000", "101446.840000", "101446.842000", "101446.844000", "101446.847000", "101446.849000", "101446.851000", "101446.854000", "101446.856000", "101446.858000", "101446.861000", "101446.863000", "101526.818000", "101526.821000", "101526.823000", "101526.825000", "101526.828000", "101526.830000", "101526.832000", "101526.840000", "101526.842000", "101526.844000", "101526.847000", "101526.849000", "101526.851000", "101526.854000", "101526.856000", "101526.858000", "101526.861000", "101526.863000", "101526.865000", "101526.868000", "101606.819000", "101606.822000", "101606.824000", "101606.826000", "101606.829000", "101606.831000", "101606.833000", "101606.836000", "101606.844000", "101606.846000", "101606.849000", "101606.851000", "101606.853000", "101606.856000", "101606.858000", "101606.860000", "101606.863000", "101606.865000", "101606.867000", "101606.870000", "101646.818000", "101646.821000", "101646.823000", "101646.825000", "101646.828000", "101646.830000", "101646.832000", "101646.835000", "101646.837000", "101646.839000", "101646.842000", "101646.844000", "101646.846000", "101646.849000", "101646.851000", "101646.853000", "101646.866000", "101646.868000", "101646.870000", "101646.873000", "101706.818000", "101706.821000", "101706.823000", "101706.825000", "101706.828000", "101706.830000", "101706.832000", "101706.835000", "101706.837000", "101706.840000", "101746.818000", "101746.821000", "101746.823000", "101746.826000", "101746.828000", "101746.830000", "101746.832000", "101746.835000", "101746.837000", "101746.840000", "101746.842000", "101746.844000", "101746.847000", "101746.849000", "101746.852000", "101746.854000", "101746.856000", "101746.859000", "101746.861000", "101746.864000", "101826.819000", "101826.824000", "101826.826000", "101826.829000", "101826.831000", "101826.833000", "101826.836000", "101826.838000", "101826.840000", "101826.843000", "101826.845000", "101826.847000", "101826.849000", "101826.852000", "101826.854000", "101826.856000", "101826.859000", "101826.861000", "101826.863000", "101826.866000", "101906.818000", "101906.821000", "101906.823000", "101906.826000", "101906.828000", "101906.830000", "101906.833000", "101906.835000", "101906.837000", "101906.840000", "101906.842000", "101906.844000", "101906.846000", "101906.849000", "101906.851000", "101906.853000", "101906.856000", "101906.858000", "101906.860000", "101906.863000", "101946.818000", "101946.821000", "101946.823000", "101946.825000", "101946.828000", "101946.830000", "101946.832000", "101946.835000", "101946.837000", "101946.839000", "101946.842000", "101946.844000", "101946.846000", "101946.849000", "101946.851000", "101946.853000", "101946.856000", "101946.858000", "101946.860000", "101946.863000", "102005.660000", "102005.662000", "102005.665000", "102005.667000", "102005.670000", "102005.672000", "102005.674000", "102005.677000", "102005.679000", "102005.682000"],
      "InstanceCreationTime": ["101406.824000", "101406.836000", "101406.838000", "101406.840000", "101406.843000", "101406.845000", "101406.847000", "101406.850000", "101406.852000", "101406.854000", "101406.857000", "101406.859000", "101406.861000", "101406.868000", "101406.876000", "101406.879000", "101406.881000", "101406.883000", "101406.892000", "101406.895000", "101446.818000", "101446.821000", "101446.823000", "101446.825000", "101446.828000", "101446.830000", "101446.833000", "101446.835000", "101446.837000", "101446.840000", "101446.842000", "101446.844000", "101446.847000", "101446.849000", "101446.851000", "101446.854000", "101446.856000", "101446.858000", "101446.861000", "101446.863000", "101526.818000", "101526.821000", "101526.823000", "101526.825000", "101526.828000", "101526.830000", "101526.832000", "101526.840000", "101526.842000", "101526.844000", "101526.847000", "101526.849000", "101526.851000", "101526.854000", "101526.856000", "101526.858000", "101526.861000", "101526.863000", "101526.865000", "101526.868000", "101606.819000", "101606.822000", "101606.824000", "101606.826000", "101606.829000", "101606.831000", "101606.833000", "101606.836000", "101606.844000", "101606.846000", "101606.849000", "101606.851000", "101606.853000", "101606.856000", "101606.858000", "101606.860000", "101606.863000", "101606.865000", "101606.867000", "101606.870000", "101646.818000", "101646.821000", "101646.823000", "101646.825000", "101646.828000", "101646.830000", "101646.832000", "101646.835000", "101646.837000", "101646.839000", "101646.842000", "101646.844000", "101646.846000", "101646.849000", "101646.851000", "101646.853000", "101646.866000", "101646.868000", "101646.870000", "101646.873000", "101706.818000", "101706.821000", "101706.823000", "101706.825000", "101706.828000", "101706.830000", "101706.832000", "101706.835000", "101706.837000", "101706.840000", "101746.818000", "101746.821000", "101746.823000", "101746.826000", "101746.828000", "101746.830000", "101746.832000", "101746.835000", "101746.837000", "101746.840000", "101746.842000", "101746.844000", "101746.847000", "101746.849000", "101746.852000", "101746.854000", "101746.856000", "101746.859000", "101746.861000", "101746.864000", "101826.819000", "101826.824000", "101826.826000", "101826.829000", "101826.831000", "101826.833000", "101826.836000", "101826.838000", "101826.840000", "101826.843000", "101826.845000", "101826.847000", "101826.849000", "101826.852000", "101826.854000", "101826.856000", "101826.859000", "101826.861000", "101826.863000", "101826.866000", "101906.818000", "101906.821000", "101906.823000", "101906.826000", "101906.828000", "101906.830000", "101906.833000", "101906.835000", "101906.837000", "101906.840000", "101906.842000", "101906.844000", "101906.846000", "101906.849000", "101906.851000", "101906.853000", "101906.856000", "101906.858000", "101906.860000", "101906.863000", "101946.818000", "101946.821000", "101946.823000", "101946.825000", "101946.828000", "101946.830000", "101946.832000", "101946.835000", "101946.837000", "101946.839000", "101946.842000", "101946.844000", "101946.846000", "101946.849000", "101946.851000", "101946.853000", "101946.856000", "101946.858000", "101946.860000", "101946.863000", "102005.660000", "102005.662000", "102005.665000", "102005.667000", "102005.670000", "102005.672000", "102005.674000", "102005.677000", "102005.679000", "102005.682000"],
      "InstanceNumber": [1, 2, 3, 4, 5, 6, 7, 8, 9, 10, 11, 12, 13, 14, 15, 16, 17, 18, 19, 20, 21, 22, 23, 24, 25, 26, 27, 28, 29, 30, 31, 32, 33, 34, 35, 36, 37, 38, 39, 40, 41, 42, 43, 44, 45, 46, 47, 48, 49, 50, 51, 52, 53, 54, 55, 56, 57, 58, 59, 60, 61, 62, 63, 64, 65, 66, 67, 68, 69, 70, 71, 72, 73, 74, 75, 76, 77, 78, 79, 80, 81, 82, 83, 84, 85, 86, 87, 88, 89, 90, 91, 92, 93, 94, 95, 96, 97, 98, 99, 100, 101, 102, 103, 104, 105, 106, 107, 108, 109, 110, 111, 112, 113, 114, 115, 116, 117, 118, 119, 120, 121, 122, 123, 124, 125, 126, 127, 128, 129, 130, 131, 132, 133, 134, 135, 136, 137, 138, 139, 140, 141, 142, 143, 144, 145, 146, 147, 148, 149, 150, 151, 152, 153, 154, 155, 156, 157, 158, 159, 160, 161, 162, 163, 164, 165, 166, 167, 168, 169, 170, 171, 172, 173, 174, 175, 176, 177, 178, 179, 180, 181, 182, 183, 184, 185, 186, 187, 188, 189, 190, 191, 192, 193, 194, 195, 196, 197, 198, 199, 200],
      "LargestImagePixelValue": [2104, 2104, 2108, 2105, 2105, 2105, 2098, 2108, 2102, 2102, 2104, 2103, 2098, 2100, 2106, 2101, 2101, 2104, 2101, 2107, 2104, 2099, 2107, 2105, 2100, 2103, 2104, 2107, 2101, 2103, 2105, 2103, 2103, 2104, 2104, 2105, 2102, 2105, 2109, 2102, 2105, 2100, 2107, 2109, 2102, 2103, 2105, 2102, 2102, 2110, 2103, 2105, 2105, 2103, 2104, 2107, 2102, 2101, 2103, 2103, 2101, 2106, 2104, 2101, 2105, 2105, 2107, 2106, 2103, 2106, 2102, 2103, 2101, 2102, 2104, 2108, 2103, 2107, 2104, 2103, 2107, 2100, 2105, 2104, 2105, 2104, 2103, 2097, 2103, 2107, 2103, 2103, 2102, 2105, 2103, 2103, 2099, 2103, 2101, 2104, 2104, 2106, 2105, 2103, 2103, 2103, 2101, 2102, 2102, 2103, 2104, 2102, 2104, 2104, 2103, 2102, 2108, 2101, 2099, 2102, 2105, 2104, 2101, 2099, 2106, 2105, 2105, 2101, 2102, 2104, 2103, 2108, 2102, 2104, 2106, 2104, 2103, 2104, 2099, 2100, 2104, 2106, 2106, 2104, 2101, 2102, 2106, 2103, 2105, 2101, 2101, 2104, 2099, 2106, 2101, 2104, 2099, 2105, 2101, 2102, 2106, 2100, 2103, 2100, 2105, 2099, 2104, 2102, 2104, 2102, 2100, 2106, 2102, 2103, 2106, 2100, 2100, 2102, 2098, 2101, 2104, 2104, 2105, 2104, 2100, 2102, 2100, 2104, 2105, 2102, 2104, 2102, 2102, 2104, 2097, 2103, 2097, 2105, 2103, 2103],
      "WindowCenter": [956.0, 956.0, 954.0, 956.0, 955.0, 956.0, 956.0, 954.0, 955.0, 954.0, 955.0, 954.0, 954.0, 955.0, 954.0, 955.0, 955.0, 956.0, 956.0, 955.0, 954.0, 955.0, 954.0, 954.0, 956.0, 955.0, 955.0, 955.0, 954.0, 954.0, 956.0, 955.0, 955.0, 956.0, 955.0, 956.0, 955.0, 954.0, 955.0, 955.0, 956.0, 954.0, 956.0, 955.0, 955.0, 954.0, 954.0, 954.0, 955.0, 955.0, 955.0, 955.0, 955.0, 954.0, 954.0, 955.0, 954.0, 954.0, 956.0, 955.0, 955.0, 956.0, 956.0, 953.0, 955.0, 955.0, 955.0, 954.0, 956.0, 954.0, 955.0, 954.0, 954.0, 954.0, 954.0, 955.0, 954.0, 955.0, 954.0, 955.0, 956.0, 954.0, 955.0, 955.0, 955.0, 956.0, 955.0, 955.0, 956.0, 955.0, 955.0, 955.0, 954.0, 954.0, 955.0, 955.0, 955.0, 955.0, 955.0, 955.0, 954.0, 955.0, 955.0, 954.0, 955.0, 955.0, 954.0, 954.0, 955.0, 954.0, 954.0, 955.0, 955.0, 954.0, 955.0, 955.0, 955.0, 954.0, 954.0, 955.0, 954.0, 955.0, 954.0, 955.0, 955.0, 955.0, 954.0, 954.0, 955.0, 955.0, 955.0, 954.0, 954.0, 954.0, 955.0, 954.0, 955.0, 955.0, 954.0, 954.0, 954.0, 955.0, 955.0, 954.0, 954.0, 954.0, 954.0, 955.0, 955.0, 954.0, 955.0, 954.0, 955.0, 955.0, 954.0, 955.0, 955.0, 954.0, 954.0, 955.0, 955.0, 953.0, 955.0, 955.0, 953.0, 954.0, 955.0, 954.0, 954.0, 955.0, 954.0, 954.0, 955.0, 955.0, 953.0, 955.0, 955.0, 954.0, 954.0, 954.0, 955.0, 955.0, 954.0, 954.0, 954.0, 954.0, 954.0, 955.0, 954.0, 954.0, 953.0, 954.0, 955.0, 955.0, 954.0, 955.0, 955.0, 954.0, 954.0, 954.0],
      "WindowWidth": [2245.0, 2246.0, 2244.0, 2246.0, 2244.0, 2245.0, 2245.0, 2244.0, 2244.0, 2243.0, 2245.0, 2243.0, 2243.0, 2244.0, 2243.0, 2244.0, 2245.0, 2245.0, 2245.0, 2244.0, 2243.0, 2244.0, 2243.0, 2243.0, 2245.0, 2245.0, 2244.0, 2244.0, 2243.0, 2243.0, 2245.0, 2244.0, 2244.0, 2245.0, 2244.0, 2245.0, 2244.0, 2243.0, 2244.0, 2244.0, 2245.0, 2243.0, 2245.0, 2244.0, 2244.0, 2243.0, 2243.0, 2243.0, 2245.0, 2244.0, 2244.0, 2244.0, 2245.0, 2243.0, 2243.0, 2244.0, 2243.0, 2243.0, 2245.0, 2244.0, 2244.0, 2245.0, 2245.0, 2242.0, 2245.0, 2245.0, 2244.0, 2243.0, 2245.0, 2243.0, 2244.0, 2243.0, 2243.0, 2243.0, 2243.0, 2244.0, 2243.0, 2244.0, 2243.0, 2245.0, 2245.0, 2243.0, 2244.0, 2244.0, 2245.0, 2245.0, 2244.0, 2244.0, 2244.0, 2244.0, 2244.0, 2244.0, 2243.0, 2243.0, 2244.0, 2244.0, 2245.0, 2244.0, 2245.0, 2244.0, 2243.0, 2244.0, 2244.0, 2243.0, 2243.0, 2245.0, 2242.0, 2243.0, 2243.0, 2243.0, 2243.0, 2243.0, 2243.0, 2243.0, 2244.0, 2244.0, 2244.0, 2242.0, 2244.0, 2244.0, 2242.0, 2244.0, 2244.0, 2244.0, 2244.0, 2244.0, 2242.0, 2244.0, 2243.0, 2245.0, 2244.0, 2243.0, 2243.0, 2242.0, 2244.0, 2242.0, 2244.0, 2244.0, 2243.0, 2243.0, 2244.0, 2244.0, 2244.0, 2243.0, 2243.0, 2243.0, 2244.0, 2244.0, 2244.0, 2243.0, 2243.0, 2243.0, 2244.0, 2244.0, 2243.0, 2244.0, 2244.0, 2242.0, 2243.0, 2243.0, 2243.0, 2242.0, 2243.0, 2244.0, 2241.0, 2242.0, 2243.0, 2243.0, 2243.0, 2243.0, 2243.0, 2244.0, 2244.0, 2243.0, 2241.0, 2243.0, 2244.0, 2243.0, 2243.0, 2243.0, 2244.0, 2243.0, 2243.0, 2243.0, 2242.0, 2242.0, 2242.0, 2244.0, 2242.0, 2243.0, 2242.0, 2243.0, 2244.0, 2243.0, 2243.0, 2244.0, 2244.0, 2243.0, 2242.0, 2241.0]
    },
    "slices": {}
  }
}