{
  "AcquisitionMatrixPE": 80,
  "AcquisitionNumber": 1,
  "AcquisitionTime": "10:27:2.502500",
  "BandwidthPerPixelPhaseEncode": 25,
  "BaseResolution": 80,
  "BodyPartExamined": "BRAIN",
  "CoilCombinationMethod": "Sum of Squares",
  "ConsistencyInfo": "N4_VE11E_LATEST_20181129",
  "ConversionSoftware": "dcm2niix",
  "ConversionSoftwareVersion": "v1.0.20220720",
  "DerivedVendorReportedEchoSpacing": 0.0005,
  "DeviceSerialNumber": "66112",
  "DwellTime": 2.7e-06,
  "EchoTime": 0.03,
  "EchoTrainLength": 80,
  "EffectiveEchoSpacing": 0.0005,
  "FlipAngle": 10,
  "HeudiconvVersion": "0.13.1",
  "ImageOrientationPatientDICOM": [0.999966, 0.00763801, 0.00305408, -0.00820295, 0.953653, 0.300797],
  "ImageOrientationText": "Tra>Cor(17.5)>Sag(0.0)",
  "ImageType": [
    "ORIGINAL",
    "PRIMARY",
    "M",
    "ND",
    "NORM",
    "MOSAIC"
],
  "ImagingFrequency": 123.261,
  "InPlanePhaseEncodingDirectionDICOM": "COL",
  "InstitutionAddress": "Maynard 3,Hanover,NH,US,03755",
  "InstitutionName": "Dartmouth College - PBS",
  "InstitutionalDepartmentName": "Department",
  "MRAcquisitionType": "2D",
  "MagneticFieldStrength": 3,
  "Manufacturer": "Siemens",
  "ManufacturersModelName": "Prisma",
  "MatrixCoilMode": "SENSE",
  "Modality": "MR",
  "NonlinearGradientCorrection": false,
  "PartialFourier": 1,
  "PatientPosition": "HFS",
  "PercentPhaseFOV": 100,
  "PercentSampling": 100,
  "PhaseEncodingDirection": "j-",
  "PhaseEncodingSteps": 80,
  "PhaseResolution": 1,
  "PixelBandwidth": 2315,
  "ProcedureStepDescription": "dbic^QA",
  "ProtocolName": "func-bold_fa-10",
  "PulseSequenceDetails": "%SiemensSeq%\\ep2d_bold",
  "ReceiveCoilActiveElements": "HEA;HEP",
  "ReceiveCoilName": "Head_32",
  "ReconMatrixPE": 80,
  "RepetitionTime": 2,
  "SAR": 0.00986984,
  "ScanOptions": "FS",
  "ScanningSequence": "EP",
  "SequenceName": "*epfid2d1_80",
  "SequenceVariant": "SK",
  "SeriesDescription": "func-bold_fa-10",
  "SeriesNumber": 8,
  "ShimSetting": [4247, -7742, -7486, -73, -175, -41, -25, 90],
  "SliceThickness": 3.5,
  "SliceTiming": [0.99, 0, 1.055, 0.065, 1.1225, 0.1325, 1.1875, 0.1975, 1.2525, 0.265, 1.32, 0.33, 1.385, 0.395, 1.4525, 0.4625, 1.5175, 0.5275, 1.5825, 0.595, 1.65, 0.66, 1.715, 0.725, 1.7825, 0.7925, 1.8475, 0.8575, 1.9125, 0.925],
  "SoftwareVersions": "syngo MR E11",
  "SpacingBetweenSlices": 3.99,
  "StationName": "AWP66112",
  "TotalReadoutTime": 0.0395,
  "TxRefAmp": 219.774,
  "dcmmeta_affine": [
    [-2.9998984336853027, -0.024608856067061424, 0.0024540352169424295, 121.27281951904297],
    [-0.022914044559001923, 2.8609588146209717, 1.2002387046813965, -115.81327056884766],
    [0.009162254631519318, -0.9023904800415039, 3.805196523666382, -20.381412506103516],
    [0.0, 0.0, 0.0, 1.0]
],
  "dcmmeta_reorient_transform": [
    [0.0, -1.0, 0.0, 79.0],
    [1.0, 0.0, 0.0, 0.0],
    [0.0, 0.0, 1.0, 0.0],
    [0.0, 0.0, 0.0, 1.0]
],
  "dcmmeta_shape": [80, 80, 30, 200],
  "dcmmeta_slice_dim": 2,
  "dcmmeta_version": 0.6,
  "global": {
    "const": {
      "AccessionNumber": "qa",
      "AcquisitionMatrix": [80, 0, 0, 80],
      "AngioFlag": "N",
      "BitsAllocated": 16,
      "BitsStored": 12,
      "BodyPartExamined": "BRAIN",
      "Columns": 480,
      "EchoNumbers": 1,
      "EchoTime": 30.0,
      "EchoTrainLength": 80,
      "FlipAngle": 10.0,
      "HighBit": 11,
      "ImageOrientationPatient": [0.99996616607702, 0.0076380145952, 0.00305408485053, -0.0082029518526, 0.95365296376379, 0.3007968355642],
      "ImagePositionPatient": [-714.38665178096, -686.9770686389, -273.9808154696],
      "ImageType": [
        "ORIGINAL",
        "PRIMARY",
        "M",
        "ND",
        "NORM",
        "MOSAIC"
],
      "ImagedNucleus": "1H",
      "ImagingFrequency": 123.261266,
      "InPlanePhaseEncodingDirection": "COL",
      "MRAcquisitionType": "2D",
      "MagneticFieldStrength": 3.0,
      "Manufacturer": "SIEMENS",
      "ManufacturerModelName": "Prisma",
      "Modality": "MR",
      "NumberOfAverages": 1.0,
      "NumberOfPhaseEncodingSteps": 80,
      "PercentPhaseFieldOfView": 100.0,
      "PercentSampling": 100.0,
      "PerformedProcedureStepStartTime": "100430.224000",
      "PhotometricInterpretation": "MONOCHROME2",
      "PixelBandwidth": 2315.0,
      "PixelRepresentation": 0,
      "PixelSpacing": [3.0, 3.0],
      "ProtocolName": "func-bold_fa-10",
      "RepetitionTime": 2000.0,
      "Rows": 480,
      "SAR": 0.00986983873059,
      "SamplesPerPixel": 1,
      "ScanOptions": "FS",
      "ScanningSequence": "EP",
      "SequenceName": "*epfid2d1_80",
      "SequenceVariant": "SK",
      "SeriesDescription": "func-bold_fa-10",
      "SeriesNumber": 8,
      "SeriesTime": "102726.716000",
      "SliceLocation": -54.200814171936,
      "SliceThickness": 3.5,
      "SmallestImagePixelValue": 0,
      "SoftwareVersions": "syngo MR E11",
      "SpacingBetweenSlices": 3.9899999932356,
      "SpecificCharacterSet": "ISO_IR 100",
      "StudyID": "35",
      "StudyTime": "100430.167000",
      "TransmitCoilName": "Body",
      "VariableFlipAngleFlag": "N",
      "WindowCenterWidthExplanation": "Algo1"
    },
    "slices": {}
  },
  "time": {
    "samples": {
      "AcquisitionNumber": [1, 2, 3, 4, 5, 6, 7, 8, 9, 10, 11, 12, 13, 14, 15, 16, 17, 18, 19, 20, 21, 22, 23, 24, 25, 26, 27, 28, 29, 30, 31, 32, 33, 34, 35, 36, 37, 38, 39, 40, 41, 42, 43, 44, 45, 46, 47, 48, 49, 50, 51, 52, 53, 54, 55, 56, 57, 58, 59, 60, 61, 62, 63, 64, 65, 66, 67, 68, 69, 70, 71, 72, 73, 74, 75, 76, 77, 78, 79, 80, 81, 82, 83, 84, 85, 86, 87, 88, 89, 90, 91, 92, 93, 94, 95, 96, 97, 98, 99, 100, 101, 102, 103, 104, 105, 106, 107, 108, 109, 110, 111, 112, 113, 114, 115, 116, 117, 118, 119, 120, 121, 122, 123, 124, 125, 126, 127, 128, 129, 130, 131, 132, 133, 134, 135, 136, 137, 138, 139, 140, 141, 142, 143, 144, 145, 146, 147, 148, 149, 150, 151, 152, 153, 154, 155, 156, 157, 158, 159, 160, 161, 162, 163, 164, 165, 166, 167, 168, 169, 170, 171, 172, 173, 174, 175, 176, 177, 178, 179, 180, 181, 182, 183, 184, 185, 186, 187, 188, 189, 190, 191, 192, 193, 194, 195, 196, 197, 198, 199, 200],
      "AcquisitionTime": ["102702.502500", "102704.502500", "102706.502500", "102708.502500", "102710.502500", "102712.502500", "102714.502500", "102716.502500", "102718.502500", "102720.502500", "102722.502500", "102724.502500", "102726.502500", "102728.502500", "102730.502500", "102732.502500", "102734.502500", "102736.502500", "102738.502500", "102740.502500", "102742.502500", "102744.502500", "102746.502500", "102748.502500", "102750.502500", "102752.502500", "102754.502500", "102756.502500", "102758.502500", "102800.502500", "102802.502500", "102804.502500", "102806.502500", "102808.502500", "102810.502500", "102812.502500", "102814.502500", "102816.502500", "102818.502500", "102820.502500", "102822.502500", "102824.502500", "102826.502500", "102828.502500", "102830.502500", "102832.502500", "102834.502500", "102836.502500", "102838.502500", "102840.502500", "102842.502500", "102844.502500", "102846.502500", "102848.502500", "102850.502500", "102852.502500", "102854.502500", "102856.502500", "102858.502500", "102900.502500", "102902.502500", "102904.502500", "102906.502500", "102908.502500", "102910.502500", "102912.502500", "102914.502500", "102916.502500", "102918.502500", "102920.502500", "102922.502500", "102924.502500", "102926.502500", "102928.502500", "102930.502500", "102932.502500", "102934.502500", "102936.502500", "102938.502500", "102940.502500", "102942.502500", "102944.502500", "102946.502500", "102948.502500", "102950.502500", "102952.502500", "102954.502500", "102956.502500", "102958.502500", "103000.502500", "103002.502500", "103004.502500", "103006.502500", "103008.502500", "103010.502500", "103012.502500", "103014.502500", "103016.502500", "103018.502500", "103020.502500", "103022.502500", "103024.502500", "103026.502500", "103028.502500", "103030.502500", "103032.502500", "103034.502500", "103036.502500", "103038.502500", "103040.502500", "103042.502500", "103044.502500", "103046.502500", "103048.502500", "103050.502500", "103052.502500", "103054.502500", "103056.502500", "103058.502500", "103100.502500", "103102.502500", "103104.502500", "103106.502500", "103108.502500", "103110.502500", "103112.502500", "103114.502500", "103116.502500", "103118.502500", "103120.502500", "103122.502500", "103124.502500", "103126.502500", "103128.502500", "103130.502500", "103132.502500", "103134.502500", "103136.502500", "103138.502500", "103140.502500", "103142.502500", "103144.502500", "103146.502500", "103148.502500", "103150.502500", "103152.502500", "103154.502500", "103156.502500", "103158.502500", "103200.502500", "103202.502500", "103204.502500", "103206.502500", "103208.502500", "103210.502500", "103212.502500", "103214.502500", "103216.502500", "103218.502500", "103220.502500", "103222.502500", "103224.502500", "103226.502500", "103228.502500", "103230.502500", "103232.502500", "103234.502500", "103236.502500", "103238.502500", "103240.502500", "103242.502500", "103244.502500", "103246.502500", "103248.502500", "103250.502500", "103252.502500", "103254.502500", "103256.502500", "103258.502500", "103300.502500", "103302.502500", "103304.502500", "103306.502500", "103308.502500", "103310.502500", "103312.502500", "103314.502500", "103316.502500", "103318.502500", "103320.502500", "103322.502500", "103324.502500", "103326.502500", "103328.502500", "103330.502500", "103332.502500", "103334.502500", "103336.502500", "103338.502500", "103340.502500"],
      "ContentTime": ["102726.720000", "102726.723000", "102726.725000", "102726.727000", "102726.730000", "102726.732000", "102726.734000", "102726.737000", "102726.739000", "102726.741000", "102726.743000", "102726.746000", "102806.716000", "102806.718000", "102806.721000", "102806.723000", "102806.725000", "102806.736000", "102806.738000", "102806.740000", "102806.752000", "102806.754000", "102806.757000", "102806.759000", "102806.761000", "102806.763000", "102806.766000", "102806.768000", "102806.770000", "102806.773000", "102806.775000", "102806.777000", "102846.715000", "102846.718000", "102846.720000", "102846.722000", "102846.725000", "102846.727000", "102846.729000", "102846.732000", "102846.734000", "102846.736000", "102846.739000", "102846.741000", "102846.743000", "102846.746000", "102846.748000", "102846.750000", "102846.752000", "102846.755000", "102846.757000", "102846.759000", "102926.715000", "102926.718000", "102926.720000", "102926.722000", "102926.725000", "102926.727000", "102926.729000", "102926.731000", "102926.734000", "102926.736000", "102926.738000", "102926.741000", "102926.743000", "102926.745000", "102926.747000", "102926.750000", "102926.752000", "102926.758000", "102926.761000", "102926.763000", "103006.716000", "103006.719000", "103006.721000", "103006.724000", "103006.726000", "103006.728000", "103006.731000", "103006.733000", "103006.735000", "103006.737000", "103006.740000", "103006.742000", "103006.744000", "103006.746000", "103006.749000", "103006.751000", "103006.761000", "103006.763000", "103006.765000", "103006.768000", "103046.715000", "103046.718000", "103046.720000", "103046.722000", "103046.725000", "103046.727000", "103046.729000", "103046.731000", "103046.734000", "103046.736000", "103046.738000", "103046.740000", "103046.743000", "103046.745000", "103046.747000", "103046.750000", "103046.752000", "103046.754000", "103046.756000", "103046.759000", "103126.715000", "103126.718000", "103126.720000", "103126.722000", "103126.725000", "103126.727000", "103126.729000", "103126.731000", "103126.734000", "103126.736000", "103126.738000", "103126.740000", "103126.743000", "103126.745000", "103126.747000", "103126.750000", "103126.752000", "103126.754000", "103126.756000", "103126.759000", "103206.715000", "103206.718000", "103206.720000", "103206.723000", "103206.725000", "103206.727000", "103206.730000", "103206.732000", "103206.734000", "103206.736000", "103206.739000", "103206.741000", "103206.743000", "103206.745000", "103206.748000", "103206.750000", "103206.752000", "103206.754000", "103206.757000", "103206.759000", "103246.715000", "103246.718000", "103246.720000", "103246.723000", "103246.725000", "103246.727000", "103246.729000", "103246.732000", "103246.734000", "103246.736000", "103246.738000", "103246.741000", "103246.743000", "103246.745000", "103246.747000", "103246.750000", "103246.752000", "103246.754000", "103246.757000", "103246.759000", "103326.715000", "103326.718000", "103326.720000", "103326.722000", "103326.725000", "103326.727000", "103326.729000", "103326.732000", "103326.734000", "103326.736000", "103326.738000", "103326.741000", "103326.743000", "103326.745000", "103326.747000", "103326.750000", "103326.752000", "103326.754000", "103326.757000", "103326.759000", "103341.628000", "103341.631000", "103341.633000", "103341.636000", "103341.638000", "103341.641000", "103341.643000", "103341.660000"],
      "InstanceCreationTime": ["102726.720000", "102726.723000", "102726.725000", "102726.727000", "102726.730000", "102726.732000", "102726.734000", "102726.737000", "102726.739000", "102726.741000", "102726.743000", "102726.746000", "102806.716000", "102806.718000", "102806.721000", "102806.723000", "102806.725000", "102806.736000", "102806.738000", "102806.740000", "102806.752000", "102806.754000", "102806.757000", "102806.759000", "102806.761000", "102806.763000", "102806.766000", "102806.768000", "102806.770000", "102806.773000", "102806.775000", "102806.777000", "102846.715000", "102846.718000", "102846.720000", "102846.722000", "102846.725000", "102846.727000", "102846.729000", "102846.732000", "102846.734000", "102846.736000", "102846.739000", "102846.741000", "102846.743000", "102846.746000", "102846.748000", "102846.750000", "102846.752000", "102846.755000", "102846.757000", "102846.759000", "102926.715000", "102926.718000", "102926.720000", "102926.722000", "102926.725000", "102926.727000", "102926.729000", "102926.731000", "102926.734000", "102926.736000", "102926.738000", "102926.741000", "102926.743000", "102926.745000", "102926.747000", "102926.750000", "102926.752000", "102926.758000", "102926.761000", "102926.763000", "103006.716000", "103006.719000", "103006.721000", "103006.724000", "103006.726000", "103006.728000", "103006.731000", "103006.733000", "103006.735000", "103006.737000", "103006.740000", "103006.742000", "103006.744000", "103006.746000", "103006.749000", "103006.751000", "103006.761000", "103006.763000", "103006.765000", "103006.768000", "103046.715000", "103046.718000", "103046.720000", "103046.722000", "103046.725000", "103046.727000", "103046.729000", "103046.731000", "103046.734000", "103046.736000", "103046.738000", "103046.740000", "103046.743000", "103046.745000", "103046.747000", "103046.750000", "103046.752000", "103046.754000", "103046.756000", "103046.759000", "103126.715000", "103126.718000", "103126.720000", "103126.722000", "103126.725000", "103126.727000", "103126.729000", "103126.731000", "103126.734000", "103126.736000", "103126.738000", "103126.740000", "103126.743000", "103126.745000", "103126.747000", "103126.750000", "103126.752000", "103126.754000", "103126.756000", "103126.759000", "103206.715000", "103206.718000", "103206.720000", "103206.723000", "103206.725000", "103206.727000", "103206.730000", "103206.732000", "103206.734000", "103206.736000", "103206.739000", "103206.741000", "103206.743000", "103206.745000", "103206.748000", "103206.750000", "103206.752000", "103206.754000", "103206.757000", "103206.759000", "103246.715000", "103246.718000", "103246.720000", "103246.723000", "103246.725000", "103246.727000", "103246.729000", "103246.732000", "103246.734000", "103246.736000", "103246.738000", "103246.741000", "103246.743000", "103246.745000", "103246.747000", "103246.750000", "103246.752000", "103246.754000", "103246.757000", "103246.759000", "103326.715000", "103326.718000", "103326.720000", "103326.722000", "103326.725000", "103326.727000", "103326.729000", "103326.732000", "103326.734000", "103326.736000", "103326.738000", "103326.741000", "103326.743000", "103326.745000", "103326.747000", "103326.750000", "103326.752000", "103326.754000", "103326.757000", "103326.759000", "103341.628000", "103341.631000", "103341.633000", "103341.636000", "103341.638000", "103341.641000", "103341.643000", "103341.660000"],
      "InstanceNumber": [1, 2, 3, 4, 5, 6, 7, 8, 9, 10, 11, 12, 13, 14, 15, 16, 17, 18, 19, 20, 21, 22, 23, 24, 25, 26, 27, 28, 29, 30, 31, 32, 33, 34, 35, 36, 37, 38, 39, 40, 41, 42, 43, 44, 45, 46, 47, 48, 49, 50, 51, 52, 53, 54, 55, 56, 57, 58, 59, 60, 61, 62, 63, 64, 65, 66, 67, 68, 69, 70, 71, 72, 73, 74, 75, 76, 77, 78, 79, 80, 81, 82, 83, 84, 85, 86, 87, 88, 89, 90, 91, 92, 93, 94, 95, 96, 97, 98, 99, 100, 101, 102, 103, 104, 105, 106, 107, 108, 109, 110, 111, 112, 113, 114, 115, 116, 117, 118, 119, 120, 121, 122, 123, 124, 125, 126, 127, 128, 129, 130, 131, 132, 133, 134, 135, 136, 137, 138, 139, 140, 141, 142, 143, 144, 145, 146, 147, 148, 149, 150, 151, 152, 153, 154, 155, 156, 157, 158, 159, 160, 161, 162, 163, 164, 165, 166, 167, 168, 169, 170, 171, 172, 173, 174, 175, 176, 177, 178, 179, 180, 181, 182, 183, 184, 185, 186, 187, 188, 189, 190, 191, 192, 193, 194, 195, 196, 197, 198, 199, 200],
      "LargestImagePixelValue": [365, 360, 359, 363, 363, 365, 363, 361, 362, 365, 364, 363, 361, 367, 361, 362, 363, 360, 360, 361, 363, 364, 363, 363, 362, 362, 360, 361, 360, 364, 366, 360, 358, 362, 362, 363, 365, 362, 363, 363, 361, 360, 362, 363, 360, 361, 363, 360, 361, 363, 361, 363, 363, 360, 362, 363, 367, 364, 363, 366, 359, 363, 360, 362, 364, 359, 362, 360, 362, 362, 361, 364, 360, 362, 362, 363, 362, 360, 363, 363, 362, 360, 361, 360, 364, 361, 365, 363, 362, 363, 363, 359, 360, 366, 359, 360, 361, 359, 365, 362, 360, 362, 363, 365, 358, 360, 362, 362, 366, 363, 359, 359, 361, 361, 358, 362, 361, 364, 362, 361, 360, 359, 363, 362, 361, 363, 362, 361, 358, 360, 360, 362, 362, 364, 358, 362, 358, 362, 361, 357, 364, 360, 360, 361, 361, 360, 360, 360, 364, 361, 363, 361, 360, 363, 359, 361, 359, 361, 360, 359, 364, 359, 363, 358, 361, 360, 360, 360, 358, 360, 359, 360, 364, 363, 359, 361, 361, 360, 360, 363, 361, 361, 359, 364, 364, 361, 360, 359, 361, 359, 362, 360, 362, 362, 359, 363, 358, 362, 360, 362],
      "WindowCenter": [297.0, 297.0, 297.0, 297.0, 297.0, 297.0, 297.0, 297.0, 297.0, 297.0, 297.0, 297.0, 297.0, 297.0, 297.0, 297.0, 297.0, 297.0, 297.0, 297.0, 297.0, 297.0, 297.0, 297.0, 297.0, 297.0, 297.0, 297.0, 297.0, 297.0, 297.0, 297.0, 297.0, 297.0, 297.0, 297.0, 297.0, 297.0, 296.0, 297.0, 297.0, 297.0, 297.0, 297.0, 297.0, 297.0, 297.0, 296.0, 297.0, 297.0, 297.0, 296.0, 297.0, 296.0, 296.0, 297.0, 297.0, 297.0, 297.0, 297.0, 296.0, 297.0, 297.0, 296.0, 297.0, 296.0, 297.0, 297.0, 296.0, 296.0, 296.0, 297.0, 296.0, 296.0, 297.0, 296.0, 296.0, 297.0, 296.0, 296.0, 296.0, 297.0, 297.0, 296.0, 297.0, 296.0, 296.0, 296.0, 296.0, 296.0, 296.0, 296.0, 296.0, 296.0, 296.0, 296.0, 296.0, 296.0, 296.0, 296.0, 297.0, 296.0, 296.0, 296.0, 296.0, 297.0, 297.0, 296.0, 296.0, 296.0, 296.0, 297.0, 296.0, 296.0, 296.0, 296.0, 296.0, 296.0, 296.0, 296.0, 296.0, 296.0, 296.0, 296.0, 296.0, 296.0, 296.0, 296.0, 296.0, 296.0, 296.0, 296.0, 296.0, 296.0, 296.0, 296.0, 296.0, 296.0, 296.0, 296.0, 296.0, 296.0, 296.0, 296.0, 296.0, 297.0, 296.0, 296.0, 296.0, 296.0, 296.0, 296.0, 296.0, 296.0, 296.0, 296.0, 296.0, 296.0, 296.0, 296.0, 296.0, 296.0, 296.0, 296.0, 296.0, 296.0, 296.0, 296.0, 296.0, 296.0, 296.0, 296.0, 296.0, 296.0, 296.0, 296.0, 296.0, 296.0, 296.0, 296.0, 296.0, 296.0, 296.0, 296.0, 296.0, 296.0, 296.0, 296.0, 296.0, 296.0, 296.0, 296.0, 296.0, 296.0, 296.0, 296.0, 296.0, 296.0, 296.0, 296.0],
      "WindowWidth": [645.0, 645.0, 645.0, 645.0, 645.0, 645.0, 645.0, 645.0, 645.0, 644.0, 645.0, 645.0, 644.0, 645.0, 645.0, 644.0, 645.0, 645.0, 644.0, 645.0, 645.0, 645.0, 644.0, 645.0, 645.0, 644.0, 644.0, 645.0, 644.0, 645.0, 644.0, 644.0, 645.0, 645.0, 644.0, 645.0, 645.0, 644.0, 644.0, 645.0, 645.0, 645.0, 644.0, 644.0, 645.0, 644.0, 645.0, 644.0, 645.0, 644.0, 645.0, 643.0, 645.0, 644.0, 644.0, 644.0, 645.0, 645.0, 645.0, 645.0, 644.0, 644.0, 644.0, 643.0, 644.0, 643.0, 644.0, 645.0, 643.0, 644.0, 644.0, 644.0, 644.0, 644.0, 645.0, 644.0, 643.0, 644.0, 644.0, 643.0, 644.0, 645.0, 644.0, 643.0, 644.0, 644.0, 643.0, 644.0, 644.0, 643.0, 644.0, 644.0, 644.0, 644.0, 644.0, 643.0, 644.0, 643.0, 644.0, 643.0, 644.0, 644.0, 643.0, 644.0, 644.0, 644.0, 645.0, 643.0, 643.0, 644.0, 643.0, 644.0, 644.0, 643.0, 643.0, 644.0, 643.0, 643.0, 643.0, 643.0, 643.0, 643.0, 643.0, 643.0, 643.0, 644.0, 644.0, 643.0, 644.0, 643.0, 643.0, 643.0, 644.0, 643.0, 643.0, 644.0, 643.0, 643.0, 643.0, 643.0, 643.0, 643.0, 643.0, 643.0, 643.0, 644.0, 643.0, 643.0, 643.0, 643.0, 643.0, 643.0, 643.0, 643.0, 643.0, 643.0, 643.0, 643.0, 643.0, 643.0, 643.0, 643.0, 643.0, 643.0, 643.0, 643.0, 643.0, 643.0, 643.0, 643.0, 643.0, 643.0, 643.0, 643.0, 643.0, 643.0, 643.0, 643.0, 643.0, 643.0, 643.0, 643.0, 643.0, 643.0, 643.0, 643.0, 643.0, 643.0, 643.0, 643.0, 643.0, 643.0, 643.0, 643.0, 643.0, 643.0, 643.0, 643.0, 643.0, 643.0]
    },
    "slices": {}
  }
}