{
  "AcquisitionDateTime": "2016-12-05T10:23:6.187500", 
  "ConversionSoftware": "dcm2niix", 
  "ConversionSoftwareVersion": "v1.0.20170130", 
  "EchoTime": 0.035, 
  "EffectiveEchoSpacing": 0.00026, 
  "FlipAngle": 90, 
  "ImageType": [
    "ORIGINAL", 
    "PRIMARY", 
    "M", 
    "ND", 
    "NORM", 
    "MOSAIC"
], 
  "MagneticFieldStrength": 3, 
  "Manufacturer": "Siemens", 
  "ManufacturersModelName": "Prisma", 
  "PhaseEncodingDirection": "j-", 
  "ProcedureStepDescription": "dbic_QA", 
  "ProtocolName": "BOLD_p2", 
  "RepetitionTime": 2, 
  "SliceTiming": [0.99, 0, 1.055, 0.065, 1.1225, 0.1325, 1.1875, 0.1975, 1.2525, 0.265, 1.32, 0.33, 1.385, 0.395, 1.4525, 0.4625, 1.5175, 0.5275, 1.5825, 0.595, 1.65, 0.66, 1.715, 0.725, 1.7825, 0.7925, 1.8475, 0.8575, 1.9125, 0.9225], 
  "dcmmeta_affine": [
    [-2.9137356281280518, -0.696837306022644, -0.2084438055753708, 157.55914306640625], 
    [-0.7117489576339722, 2.777815818786621, 1.172478437423706, -92.22311401367188], 
    [0.05965119227766991, -0.8933964371681213, 3.8081419467926025, -29.756393432617188], 
    [0.0, 0.0, 0.0, 1.0]
], 
  "dcmmeta_reorient_transform": [
    [0.0, -1.0, 0.0, 79.0], 
    [1.0, 0.0, 0.0, 0.0], 
    [0.0, 0.0, 1.0, 0.0], 
    [0.0, 0.0, 0.0, 1.0]
], 
  "dcmmeta_shape": [80, 80, 30, 157], 
  "dcmmeta_slice_dim": 2, 
  "dcmmeta_version": 0.6, 
  "global": {
    "const": {
      "AccessionNumber": "qa", 
      "AcquisitionMatrix": [80, 0, 0, 80], 
      "AngioFlag": "N", 
      "BitsAllocated": 16, 
      "BitsStored": 12, 
      "BodyPartExamined": "BRAIN", 
      "Columns": 480, 
      "EchoNumbers": 1, 
      "EchoTime": 35.0, 
      "EchoTrainLength": 39, 
      "FlipAngle": 90.0, 
      "HighBit": 11, 
      "ImageOrientationPatient": [0.97124519928964, 0.23724965774803, 0.01988373091926, -0.2322791056417, 0.92593859469337, 0.29779881789483], 
      "ImagePositionPatient": [-545.88865436683, -825.13728255676, -290.9442418478], 
      "ImageType": [
        "ORIGINAL", 
        "PRIMARY", 
        "M", 
        "ND", 
        "NORM", 
        "MOSAIC"
], 
      "ImagedNucleus": "1H", 
      "ImagingFrequency": 123.252584, 
      "InPlanePhaseEncodingDirection": "COL", 
      "MRAcquisitionType": "2D", 
      "MagneticFieldStrength": 3.0, 
      "Manufacturer": "SIEMENS", 
      "ManufacturerModelName": "Prisma", 
      "Modality": "MR", 
      "NumberOfAverages": 1.0, 
      "NumberOfPhaseEncodingSteps": 79, 
      "PercentPhaseFieldOfView": 100.0, 
      "PercentSampling": 100.0, 
      "PerformedProcedureStepStartTime": "101444.643000", 
      "PhotometricInterpretation": "MONOCHROME2", 
      "PixelBandwidth": 2315.0, 
      "PixelRepresentation": 0, 
      "PixelSpacing": [3.0, 3.0], 
      "PositionReferenceIndicator": "", 
      "ProtocolName": "BOLD_p2", 
      "RepetitionTime": 2000.0, 
      "Rows": 480, 
      "SAR": 0.04756125138453, 
      "SamplesPerPixel": 1, 
      "ScanOptions": "FS", 
      "ScanningSequence": "EP", 
      "SequenceName": "*epfid2d1_80", 
      "SequenceVariant": "SK", 
      "SeriesDescription": "BOLD_p2", 
      "SeriesNumber": 5, 
      "SeriesTime": "102401.670000", 
      "SliceLocation": -63.731431471907, 
      "SliceThickness": 3.5, 
      "SmallestImagePixelValue": 0, 
      "SoftwareVersions": "syngo MR E11", 
      "SpacingBetweenSlices": 3.9900000369225, 
      "SpecificCharacterSet": "ISO_IR 100", 
      "StudyID": "10", 
      "StudyTime": "101444.500000", 
      "TransmitCoilName": "Body", 
      "VariableFlipAngleFlag": "N", 
      "WindowCenterWidthExplanation": "Algo1", 
      "dBdt": 0.0}, 
    "slices": {}
  }, 
  "time": {
    "samples": {
      "AcquisitionNumber": [1, 2, 3, 4, 5, 6, 7, 8, 9, 10, 11, 12, 13, 14, 15, 16, 17, 18, 19, 20, 21, 22, 23, 24, 25, 26, 27, 28, 29, 30, 31, 32, 33, 34, 35, 36, 37, 38, 39, 40, 41, 42, 43, 44, 45, 46, 47, 48, 49, 50, 51, 52, 53, 54, 55, 56, 57, 58, 59, 60, 61, 62, 63, 64, 65, 66, 67, 68, 69, 70, 71, 72, 73, 74, 75, 76, 77, 78, 79, 80, 81, 82, 83, 84, 85, 86, 87, 88, 89, 90, 91, 92, 93, 94, 95, 96, 97, 98, 99, 100, 101, 102, 103, 104, 105, 106, 107, 108, 109, 110, 111, 112, 113, 114, 115, 116, 117, 118, 119, 120, 121, 122, 123, 124, 125, 126, 127, 128, 129, 130, 131, 132, 133, 134, 135, 136, 137, 138, 139, 140, 141, 142, 143, 144, 145, 146, 147, 148, 149, 150, 151, 152, 153, 154, 155, 156, 157], 
      "AcquisitionTime": ["102306.190000", "102308.190000", "102310.190000", "102312.190000", "102314.190000", "102316.190000", "102318.190000", "102320.190000", "102322.190000", "102324.190000", "102326.190000", "102328.190000", "102330.190000", "102332.190000", "102334.190000", "102336.190000", "102338.190000", "102340.190000", "102342.190000", "102344.190000", "102346.190000", "102348.190000", "102350.190000", "102352.190000", "102354.190000", "102356.190000", "102358.190000", "102400.190000", "102402.190000", "102404.190000", "102406.190000", "102408.190000", "102410.190000", "102412.190000", "102414.190000", "102416.190000", "102418.190000", "102420.190000", "102422.190000", "102424.190000", "102426.190000", "102428.190000", "102430.190000", "102432.190000", "102434.190000", "102436.190000", "102438.190000", "102440.190000", "102442.190000", "102444.190000", "102446.190000", "102448.190000", "102450.190000", "102452.190000", "102454.190000", "102456.190000", "102458.190000", "102500.190000", "102502.190000", "102504.190000", "102506.190000", "102508.190000", "102510.190000", "102512.190000", "102514.190000", "102516.190000", "102518.190000", "102520.190000", "102522.190000", "102524.190000", "102526.190000", "102528.190000", "102530.190000", "102532.190000", "102534.190000", "102536.190000", "102538.190000", "102540.190000", "102542.190000", "102544.190000", "102546.190000", "102548.190000", "102550.190000", "102552.190000", "102554.190000", "102556.190000", "102558.190000", "102600.190000", "102602.190000", "102604.190000", "102606.190000", "102608.190000", "102610.190000", "102612.190000", "102614.190000", "102616.190000", "102618.190000", "102620.190000", "102622.190000", "102624.190000", "102626.190000", "102628.190000", "102630.190000", "102632.190000", "102634.190000", "102636.190000", "102638.190000", "102640.190000", "102642.190000", "102644.190000", "102646.190000", "102648.190000", "102650.190000", "102652.190000", "102654.190000", "102656.190000", "102658.190000", "102700.190000", "102702.190000", "102704.190000", "102706.190000", "102708.190000", "102710.190000", "102712.190000", "102714.190000", "102716.190000", "102718.190000", "102720.190000", "102722.190000", "102724.190000", "102726.190000", "102728.190000", "102730.190000", "102732.190000", "102734.190000", "102736.190000", "102738.190000", "102740.190000", "102742.190000", "102744.190000", "102746.190000", "102748.190000", "102750.190000", "102752.190000", "102754.190000", "102756.190000", "102758.190000", "102800.190000", "102802.190000", "102804.190000", "102806.190000", "102808.190000", "102810.190000", "102812.190000", "102814.190000", "102816.190000", "102818.190000"], 
      "ContentTime": ["102401.674000", "102401.677000", "102401.680000", "102401.682000", "102401.694000", "102401.697000", "102401.699000", "102401.702000", "102401.704000", "102401.707000", "102401.709000", "102401.712000", "102401.714000", "102401.717000", "102401.719000", "102401.722000", "102401.725000", "102401.727000", "102401.729000", "102401.732000", "102401.735000", "102401.737000", "102401.740000", "102401.748000", "102401.750000", "102401.752000", "102401.755000", "102401.758000", "102441.664000", "102441.667000", "102441.670000", "102441.673000", "102441.675000", "102441.678000", "102441.680000", "102441.683000", "102441.685000", "102441.688000", "102441.690000", "102441.693000", "102441.695000", "102441.698000", "102441.701000", "102441.703000", "102441.706000", "102441.708000", "102441.711000", "102441.713000", "102521.663000", "102521.666000", "102521.669000", "102521.671000", "102521.674000", "102521.677000", "102521.679000", "102521.682000", "102521.684000", "102521.687000", "102521.689000", "102521.692000", "102521.694000", "102521.697000", "102521.699000", "102521.702000", "102521.704000", "102521.707000", "102521.709000", "102521.712000", "102601.664000", "102601.667000", "102601.670000", "102601.672000", "102601.675000", "102601.678000", "102601.680000", "102601.683000", "102601.685000", "102601.688000", "102601.690000", "102601.693000", "102601.695000", "102601.698000", "102601.701000", "102601.703000", "102601.706000", "102601.708000", "102601.711000", "102601.713000", "102641.665000", "102641.667000", "102641.670000", "102641.673000", "102641.675000", "102641.678000", "102641.680000", "102641.683000", "102641.685000", "102641.688000", "102641.691000", "102641.693000", "102641.696000", "102641.698000", "102641.701000", "102641.703000", "102641.706000", "102641.708000", "102641.711000", "102641.713000", "102721.663000", "102721.666000", "102721.669000", "102721.671000", "102721.674000", "102721.677000", "102721.679000", "102721.682000", "102721.684000", "102721.687000", "102721.689000", "102721.692000", "102721.694000", "102721.697000", "102721.700000", "102721.702000", "102721.705000", "102721.723000", "102721.725000", "102721.728000", "102801.664000", "102801.667000", "102801.670000", "102801.672000", "102801.675000", "102801.678000", "102801.680000", "102801.683000", "102801.685000", "102801.688000", "102801.690000", "102801.693000", "102801.695000", "102801.698000", "102801.700000", "102801.703000", "102801.705000", "102801.708000", "102801.710000", "102801.713000", "102819.213000", "102819.222000", "102819.224000", "102819.227000", "102819.229000", "102819.232000", "102819.235000", "102819.237000", "102819.240000"], 
      "InstanceCreationTime": ["102401.674000", "102401.677000", "102401.680000", "102401.682000", "102401.694000", "102401.697000", "102401.699000", "102401.702000", "102401.704000", "102401.707000", "102401.709000", "102401.712000", "102401.714000", "102401.717000", "102401.719000", "102401.722000", "102401.725000", "102401.727000", "102401.729000", "102401.732000", "102401.735000", "102401.737000", "102401.740000", "102401.748000", "102401.750000", "102401.752000", "102401.755000", "102401.758000", "102441.664000", "102441.667000", "102441.670000", "102441.673000", "102441.675000", "102441.678000", "102441.680000", "102441.683000", "102441.685000", "102441.688000", "102441.690000", "102441.693000", "102441.695000", "102441.698000", "102441.701000", "102441.703000", "102441.706000", "102441.708000", "102441.711000", "102441.713000", "102521.663000", "102521.666000", "102521.669000", "102521.671000", "102521.674000", "102521.677000", "102521.679000", "102521.682000", "102521.684000", "102521.687000", "102521.689000", "102521.692000", "102521.694000", "102521.697000", "102521.699000", "102521.702000", "102521.704000", "102521.707000", "102521.709000", "102521.712000", "102601.664000", "102601.667000", "102601.670000", "102601.672000", "102601.675000", "102601.678000", "102601.680000", "102601.683000", "102601.685000", "102601.688000", "102601.690000", "102601.693000", "102601.695000", "102601.698000", "102601.701000", "102601.703000", "102601.706000", "102601.708000", "102601.711000", "102601.713000", "102641.665000", "102641.667000", "102641.670000", "102641.673000", "102641.675000", "102641.678000", "102641.680000", "102641.683000", "102641.685000", "102641.688000", "102641.691000", "102641.693000", "102641.696000", "102641.698000", "102641.701000", "102641.703000", "102641.706000", "102641.708000", "102641.711000", "102641.713000", "102721.663000", "102721.666000", "102721.669000", "102721.671000", "102721.674000", "102721.677000", "102721.679000", "102721.682000", "102721.684000", "102721.687000", "102721.689000", "102721.692000", "102721.694000", "102721.697000", "102721.700000", "102721.702000", "102721.705000", "102721.723000", "102721.725000", "102721.728000", "102801.664000", "102801.667000", "102801.670000", "102801.672000", "102801.675000", "102801.678000", "102801.680000", "102801.683000", "102801.685000", "102801.688000", "102801.690000", "102801.693000", "102801.695000", "102801.698000", "102801.700000", "102801.703000", "102801.705000", "102801.708000", "102801.710000", "102801.713000", "102819.213000", "102819.222000", "102819.224000", "102819.227000", "102819.229000", "102819.232000", "102819.235000", "102819.237000", "102819.240000"], 
      "InstanceNumber": [1, 2, 3, 4, 5, 6, 7, 8, 9, 10, 11, 12, 13, 14, 15, 16, 17, 18, 19, 20, 21, 22, 23, 24, 25, 26, 27, 28, 29, 30, 31, 32, 33, 34, 35, 36, 37, 38, 39, 40, 41, 42, 43, 44, 45, 46, 47, 48, 49, 50, 51, 52, 53, 54, 55, 56, 57, 58, 59, 60, 61, 62, 63, 64, 65, 66, 67, 68, 69, 70, 71, 72, 73, 74, 75, 76, 77, 78, 79, 80, 81, 82, 83, 84, 85, 86, 87, 88, 89, 90, 91, 92, 93, 94, 95, 96, 97, 98, 99, 100, 101, 102, 103, 104, 105, 106, 107, 108, 109, 110, 111, 112, 113, 114, 115, 116, 117, 118, 119, 120, 121, 122, 123, 124, 125, 126, 127, 128, 129, 130, 131, 132, 133, 134, 135, 136, 137, 138, 139, 140, 141, 142, 143, 144, 145, 146, 147, 148, 149, 150, 151, 152, 153, 154, 155, 156, 157], 
      "LargestImagePixelValue": [2313, 2316, 2314, 2312, 2314, 2314, 2312, 2319, 2326, 2314, 2316, 2312, 2309, 2313, 2307, 2314, 2308, 2312, 2314, 2331, 2309, 2320, 2319, 2317, 2319, 2315, 2309, 2305, 2314, 2315, 2313, 2320, 2322, 2313, 2314, 2307, 2315, 2314, 2314, 2305, 2311, 2310, 2313, 2314, 2313, 2312, 2317, 2320, 2316, 2312, 2317, 2317, 2319, 2324, 2315, 2318, 2321, 2308, 2314, 2309, 2314, 2319, 2319, 2309, 2319, 2307, 2312, 2309, 2307, 2313, 2316, 2312, 2313, 2317, 2307, 2305, 2306, 2314, 2313, 2318, 2311, 2314, 2310, 2318, 2309, 2326, 2326, 2318, 2308, 2305, 2315, 2305, 2298, 2311, 2305, 2305, 2319, 2317, 2307, 2310, 2304, 2306, 2306, 2312, 2309, 2306, 2303, 2308, 2317, 2316, 2303, 2306, 2312, 2325, 2317, 2317, 2303, 2304, 2303, 2323, 2309, 2309, 2319, 2316, 2317, 2302, 2314, 2312, 2313, 2306, 2308, 2317, 2314, 2305, 2306, 2310, 2314, 2314, 2306, 2315, 2310, 2307, 2310, 2303, 2314, 2314, 2307, 2310, 2313, 2299, 2315, 2311, 2305, 2318, 2310, 2312, 2308], 
      "WindowCenter": [1006.0, 1006.0, 1006.0, 1007.0, 1006.0, 1006.0, 1006.0, 1006.0, 1006.0, 1006.0, 1006.0, 1007.0, 1006.0, 1006.0, 1006.0, 1006.0, 1006.0, 1007.0, 1006.0, 1006.0, 1006.0, 1007.0, 1006.0, 1006.0, 1006.0, 1006.0, 1006.0, 1006.0, 1006.0, 1006.0, 1006.0, 1006.0, 1006.0, 1006.0, 1006.0, 1006.0, 1006.0, 1006.0, 1006.0, 1006.0, 1006.0, 1006.0, 1006.0, 1006.0, 1007.0, 1006.0, 1006.0, 1006.0, 1006.0, 1006.0, 1006.0, 1007.0, 1006.0, 1006.0, 1006.0, 1006.0, 1006.0, 1006.0, 1006.0, 1006.0, 1006.0, 1006.0, 1006.0, 1006.0, 1006.0, 1006.0, 1006.0, 1006.0, 1006.0, 1006.0, 1006.0, 1006.0, 1007.0, 1006.0, 1006.0, 1006.0, 1006.0, 1006.0, 1006.0, 1006.0, 1006.0, 1006.0, 1006.0, 1006.0, 1006.0, 1006.0, 1006.0, 1006.0, 1006.0, 1006.0, 1006.0, 1006.0, 1006.0, 1006.0, 1006.0, 1006.0, 1006.0, 1006.0, 1006.0, 1006.0, 1006.0, 1005.0, 1005.0, 1006.0, 1006.0, 1006.0, 1006.0, 1006.0, 1006.0, 1005.0, 1006.0, 1005.0, 1005.0, 1006.0, 1005.0, 1005.0, 1006.0, 1005.0, 1005.0, 1005.0, 1005.0, 1005.0, 1005.0, 1005.0, 1005.0, 1006.0, 1006.0, 1005.0, 1005.0, 1005.0, 1006.0, 1007.0, 1006.0, 1005.0, 1005.0, 1005.0, 1005.0, 1005.0, 1006.0, 1005.0, 1005.0, 1005.0, 1005.0, 1005.0, 1005.0, 1005.0, 1006.0, 1005.0, 1006.0, 1005.0, 1005.0, 1005.0, 1005.0, 1005.0, 1005.0, 1005.0, 1005.0], 
      "WindowWidth": [2224.0, 2223.0, 2223.0, 2224.0, 2223.0, 2223.0, 2223.0, 2223.0, 2223.0, 2223.0, 2223.0, 2223.0, 2223.0, 2223.0, 2223.0, 2223.0, 2223.0, 2223.0, 2223.0, 2223.0, 2223.0, 2223.0, 2223.0, 2223.0, 2223.0, 2223.0, 2223.0, 2223.0, 2223.0, 2223.0, 2223.0, 2222.0, 2222.0, 2222.0, 2222.0, 2222.0, 2222.0, 2222.0, 2222.0, 2222.0, 2222.0, 2222.0, 2222.0, 2222.0, 2223.0, 2222.0, 2222.0, 2222.0, 2222.0, 2222.0, 2222.0, 2222.0, 2222.0, 2222.0, 2222.0, 2222.0, 2222.0, 2222.0, 2222.0, 2222.0, 2222.0, 2222.0, 2222.0, 2222.0, 2222.0, 2222.0, 2222.0, 2222.0, 2222.0, 2222.0, 2222.0, 2222.0, 2222.0, 2222.0, 2222.0, 2222.0, 2222.0, 2222.0, 2222.0, 2222.0, 2222.0, 2222.0, 2222.0, 2222.0, 2222.0, 2222.0, 2222.0, 2222.0, 2222.0, 2222.0, 2222.0, 2222.0, 2222.0, 2222.0, 2222.0, 2222.0, 2222.0, 2221.0, 2221.0, 2222.0, 2221.0, 2222.0, 2221.0, 2222.0, 2222.0, 2222.0, 2222.0, 2221.0, 2222.0, 2222.0, 2222.0, 2222.0, 2221.0, 2222.0, 2221.0, 2222.0, 2222.0, 2221.0, 2221.0, 2221.0, 2222.0, 2221.0, 2221.0, 2221.0, 2221.0, 2222.0, 2222.0, 2221.0, 2221.0, 2221.0, 2222.0, 2223.0, 2222.0, 2221.0, 2221.0, 2221.0, 2221.0, 2221.0, 2222.0, 2221.0, 2221.0, 2221.0, 2221.0, 2221.0, 2221.0, 2221.0, 2222.0, 2221.0, 2222.0, 2221.0, 2221.0, 2221.0, 2221.0, 2221.0, 2221.0, 2221.0, 2221.0]
    }, 
    "slices": {}
  }
}