{
  "AcquisitionMatrixPE": 80,
  "AcquisitionNumber": 1,
  "AcquisitionTime": "10:23:6.190000",
  "BandwidthPerPixelPhaseEncode": 48.077,
  "BaseResolution": 80,
  "BodyPartExamined": "BRAIN",
  "CoilCombinationMethod": "Sum of Squares",
  "ConsistencyInfo": "N4_VE11C_LATEST_20160120",
  "ConversionSoftware": "dcm2niix",
  "ConversionSoftwareVersion": "v1.0.20220720",
  "DerivedVendorReportedEchoSpacing": 0.000519999,
  "DeviceSerialNumber": "66112",
  "DwellTime": 2.7e-06,
  "EchoTime": 0.035,
  "EchoTrainLength": 39,
  "EffectiveEchoSpacing": 0.00026,
  "FlipAngle": 90,
  "HeudiconvVersion": "0.13.1",
  "ImageComments": "Reference volume for motion correction.",
  "ImageOrientationPatientDICOM": [0.971245, 0.23725, 0.0198837, -0.232279, 0.925939, 0.297799],
  "ImageOrientationText": "Tra>Cor(17.1)>Sag(-3.0)",
  "ImageType": [
    "ORIGINAL",
    "PRIMARY",
    "M",
    "ND",
    "NORM",
    "MOCO",
    "MOSAIC"
],
  "ImagingFrequency": 123.253,
  "InPlanePhaseEncodingDirectionDICOM": "COL",
  "InstitutionAddress": "Maynard 3,Hanover,NH,US,03755",
  "InstitutionName": "Dartmouth College - PBS",
  "InstitutionalDepartmentName": "Department",
  "MRAcquisitionType": "2D",
  "MagneticFieldStrength": 3,
  "Manufacturer": "Siemens",
  "ManufacturersModelName": "Prisma",
  "MatrixCoilMode": "GRAPPA",
  "Modality": "MR",
  "NonlinearGradientCorrection": false,
  "ParallelReductionFactorInPlane": 2,
  "PartialFourier": 1,
  "PatientPosition": "HFS",
  "PercentPhaseFOV": 100,
  "PercentSampling": 100,
  "PhaseEncodingDirection": "j-",
  "PhaseEncodingSteps": 79,
  "PhaseResolution": 1,
  "PixelBandwidth": 2315,
  "ProcedureStepDescription": "dbic^QA",
  "ProtocolName": "BOLD_p2_MoCo",
  "PulseSequenceDetails": "%SiemensSeq%\\ep2d_bold",
  "ReceiveCoilActiveElements": "HEA;HEP",
  "ReceiveCoilName": "Head_32",
  "ReconMatrixPE": 80,
  "RefLinesPE": 24,
  "RepetitionTime": 2,
  "SAR": 0.0475613,
  "ScanOptions": "FS",
  "ScanningSequence": "EP",
  "SequenceName": "*epfid2d1_80",
  "SequenceVariant": "SK",
  "SeriesDescription": "MoCoSeries",
  "SeriesNumber": 6,
  "ShimSetting": [4149, -7677, -7510, 258, 9, -242, -24, 30],
  "SliceThickness": 3.5,
  "SliceTiming": [0.99, 0, 1.055, 0.065, 1.1225, 0.1325, 1.1875, 0.1975, 1.2525, 0.265, 1.32, 0.33, 1.385, 0.395, 1.4525, 0.4625, 1.5175, 0.5275, 1.5825, 0.595, 1.65, 0.66, 1.715, 0.725, 1.7825, 0.7925, 1.8475, 0.8575, 1.9125, 0.9225],
  "SoftwareVersions": "syngo MR E11",
  "SpacingBetweenSlices": 3.99,
  "StationName": "AWP66112",
  "TaskName": "rest",
  "TotalReadoutTime": 0.02054,
  "TxRefAmp": 230.405,
  "dcmmeta_affine": [
    [-2.9137356281280518, -0.696837306022644, -0.2084438055753708, 157.55914306640625],
    [-0.7117489576339722, 2.777815818786621, 1.172478437423706, -92.22311401367188],
    [0.05965119227766991, -0.8933964371681213, 3.8081419467926025, -29.756393432617188],
    [0.0, 0.0, 0.0, 1.0]
],
  "dcmmeta_reorient_transform": [
    [0.0, -1.0, 0.0, 79.0],
    [1.0, 0.0, 0.0, 0.0],
    [0.0, 0.0, 1.0, 0.0],
    [0.0, 0.0, 0.0, 1.0]
],
  "dcmmeta_shape": [80, 80, 30, 157],
  "dcmmeta_slice_dim": 2,
  "dcmmeta_version": 0.6,
  "global": {
    "const": {
      "AccessionNumber": "qa",
      "AcquisitionMatrix": [80, 0, 0, 80],
      "AngioFlag": "N",
      "BitsAllocated": 16,
      "BitsStored": 12,
      "BodyPartExamined": "BRAIN",
      "Columns": 480,
      "EchoNumbers": 1,
      "EchoTime": 35.0,
      "EchoTrainLength": 39,
      "FlipAngle": 90.0,
      "HighBit": 11,
      "ImageOrientationPatient": [0.97124519928964, 0.23724965774803, 0.01988373091926, -0.2322791056417, 0.92593859469337, 0.29779881789483],
      "ImagePositionPatient": [-545.88865436683, -825.13728255676, -290.9442418478],
      "ImageType": [
        "ORIGINAL",
        "PRIMARY",
        "M",
        "ND",
        "NORM",
        "MOCO",
        "MOSAIC"
],
      "ImagedNucleus": "1H",
      "ImagingFrequency": 123.252584,
      "InPlanePhaseEncodingDirection": "COL",
      "MRAcquisitionType": "2D",
      "MagneticFieldStrength": 3.0,
      "Manufacturer": "SIEMENS",
      "ManufacturerModelName": "Prisma",
      "Modality": "MR",
      "NumberOfAverages": 1.0,
      "NumberOfPhaseEncodingSteps": 79,
      "PercentPhaseFieldOfView": 100.0,
      "PercentSampling": 100.0,
      "PerformedProcedureStepStartTime": "101444.643000",
      "PhotometricInterpretation": "MONOCHROME2",
      "PixelBandwidth": 2315.0,
      "PixelRepresentation": 0,
      "PixelSpacing": [3.0, 3.0],
      "ProtocolName": "BOLD_p2",
      "RepetitionTime": 2000.0,
      "Rows": 480,
      "SAR": 0.04756125138453,
      "SamplesPerPixel": 1,
      "ScanOptions": "FS",
      "ScanningSequence": "EP",
      "SequenceName": "*epfid2d1_80",
      "SequenceVariant": "SK",
      "SeriesDescription": "MoCoSeries",
      "SeriesNumber": 6,
      "SeriesTime": "102401.823000",
      "SliceLocation": -63.731431471907,
      "SliceThickness": 3.5,
      "SmallestImagePixelValue": 0,
      "SoftwareVersions": "syngo MR E11",
      "SpacingBetweenSlices": 3.9900000369225,
      "SpecificCharacterSet": "ISO_IR 100",
      "StudyID": "10",
      "StudyTime": "101444.500000",
      "TransmitCoilName": "Body",
      "VariableFlipAngleFlag": "N",
      "WindowCenterWidthExplanation": "Algo1",
      "dBdt": 0.0},
    "slices": {}
  },
  "time": {
    "samples": {
      "AcquisitionNumber": [1, 2, 3, 4, 5, 6, 7, 8, 9, 10, 11, 12, 13, 14, 15, 16, 17, 18, 19, 20, 21, 22, 23, 24, 25, 26, 27, 28, 29, 30, 31, 32, 33, 34, 35, 36, 37, 38, 39, 40, 41, 42, 43, 44, 45, 46, 47, 48, 49, 50, 51, 52, 53, 54, 55, 56, 57, 58, 59, 60, 61, 62, 63, 64, 65, 66, 67, 68, 69, 70, 71, 72, 73, 74, 75, 76, 77, 78, 79, 80, 81, 82, 83, 84, 85, 86, 87, 88, 89, 90, 91, 92, 93, 94, 95, 96, 97, 98, 99, 100, 101, 102, 103, 104, 105, 106, 107, 108, 109, 110, 111, 112, 113, 114, 115, 116, 117, 118, 119, 120, 121, 122, 123, 124, 125, 126, 127, 128, 129, 130, 131, 132, 133, 134, 135, 136, 137, 138, 139, 140, 141, 142, 143, 144, 145, 146, 147, 148, 149, 150, 151, 152, 153, 154, 155, 156, 157],
      "AcquisitionTime": ["102306.190000", "102308.190000", "102310.190000", "102312.190000", "102314.190000", "102316.190000", "102318.190000", "102320.190000", "102322.190000", "102324.190000", "102326.190000", "102328.190000", "102330.190000", "102332.190000", "102334.190000", "102336.190000", "102338.190000", "102340.190000", "102342.190000", "102344.190000", "102346.190000", "102348.190000", "102350.190000", "102352.190000", "102354.190000", "102356.190000", "102358.190000", "102400.190000", "102402.190000", "102404.190000", "102406.190000", "102408.190000", "102410.190000", "102412.190000", "102414.190000", "102416.190000", "102418.190000", "102420.190000", "102422.190000", "102424.190000", "102426.190000", "102428.190000", "102430.190000", "102432.190000", "102434.190000", "102436.190000", "102438.190000", "102440.190000", "102442.190000", "102444.190000", "102446.190000", "102448.190000", "102450.190000", "102452.190000", "102454.190000", "102456.190000", "102458.190000", "102500.190000", "102502.190000", "102504.190000", "102506.190000", "102508.190000", "102510.190000", "102512.190000", "102514.190000", "102516.190000", "102518.190000", "102520.190000", "102522.190000", "102524.190000", "102526.190000", "102528.190000", "102530.190000", "102532.190000", "102534.190000", "102536.190000", "102538.190000", "102540.190000", "102542.190000", "102544.190000", "102546.190000", "102548.190000", "102550.190000", "102552.190000", "102554.190000", "102556.190000", "102558.190000", "102600.190000", "102602.190000", "102604.190000", "102606.190000", "102608.190000", "102610.190000", "102612.190000", "102614.190000", "102616.190000", "102618.190000", "102620.190000", "102622.190000", "102624.190000", "102626.190000", "102628.190000", "102630.190000", "102632.190000", "102634.190000", "102636.190000", "102638.190000", "102640.190000", "102642.190000", "102644.190000", "102646.190000", "102648.190000", "102650.190000", "102652.190000", "102654.190000", "102656.190000", "102658.190000", "102700.190000", "102702.190000", "102704.190000", "102706.190000", "102708.190000", "102710.190000", "102712.190000", "102714.190000", "102716.190000", "102718.190000", "102720.190000", "102722.190000", "102724.190000", "102726.190000", "102728.190000", "102730.190000", "102732.190000", "102734.190000", "102736.190000", "102738.190000", "102740.190000", "102742.190000", "102744.190000", "102746.190000", "102748.190000", "102750.190000", "102752.190000", "102754.190000", "102756.190000", "102758.190000", "102800.190000", "102802.190000", "102804.190000", "102806.190000", "102808.190000", "102810.190000", "102812.190000", "102814.190000", "102816.190000", "102818.190000"],
      "ContentTime": ["102401.825000", "102401.828000", "102401.830000", "102401.833000", "102401.836000", "102401.838000", "102401.841000", "102401.844000", "102401.846000", "102401.849000", "102401.851000", "102401.854000", "102401.856000", "102401.859000", "102401.862000", "102401.864000", "102401.867000", "102401.869000", "102401.872000", "102401.875000", "102401.877000", "102401.880000", "102401.882000", "102401.885000", "102401.888000", "102401.890000", "102401.893000", "102401.895000", "102441.750000", "102441.753000", "102441.755000", "102441.758000", "102441.760000", "102441.763000", "102441.766000", "102441.768000", "102441.771000", "102441.774000", "102441.777000", "102441.779000", "102441.785000", "102441.788000", "102441.791000", "102441.793000", "102441.796000", "102441.799000", "102441.801000", "102441.804000", "102521.744000", "102521.747000", "102521.749000", "102521.752000", "102521.761000", "102521.763000", "102521.766000", "102521.769000", "102521.771000", "102521.774000", "102521.776000", "102521.779000", "102521.782000", "102521.784000", "102521.787000", "102521.790000", "102521.792000", "102521.795000", "102521.797000", "102521.800000", "102601.747000", "102601.750000", "102601.752000", "102601.755000", "102601.757000", "102601.760000", "102601.763000", "102601.765000", "102601.768000", "102601.771000", "102601.773000", "102601.776000", "102601.779000", "102601.781000", "102601.784000", "102601.787000", "102601.789000", "102601.792000", "102601.795000", "102601.797000", "102641.762000", "102641.765000", "102641.768000", "102641.770000", "102641.773000", "102641.776000", "102641.778000", "102641.781000", "102641.784000", "102641.787000", "102641.790000", "102641.792000", "102641.795000", "102641.797000", "102641.800000", "102641.803000", "102641.805000", "102641.808000", "102641.810000", "102641.813000", "102721.752000", "102721.755000", "102721.757000", "102721.760000", "102721.763000", "102721.765000", "102721.768000", "102721.771000", "102721.773000", "102721.776000", "102721.778000", "102721.781000", "102721.784000", "102721.786000", "102721.789000", "102721.792000", "102721.794000", "102721.797000", "102721.800000", "102721.802000", "102801.742000", "102801.745000", "102801.748000", "102801.750000", "102801.753000", "102801.756000", "102801.758000", "102801.761000", "102801.763000", "102801.766000", "102801.769000", "102801.771000", "102801.774000", "102801.776000", "102801.779000", "102801.782000", "102801.784000", "102801.809000", "102801.812000", "102801.814000", "102819.279000", "102819.283000", "102819.285000", "102819.288000", "102819.296000", "102819.299000", "102819.302000", "102819.305000", "102819.307000"],
      "InstanceCreationTime": ["102401.825000", "102401.828000", "102401.830000", "102401.833000", "102401.836000", "102401.838000", "102401.841000", "102401.844000", "102401.846000", "102401.849000", "102401.851000", "102401.854000", "102401.856000", "102401.859000", "102401.862000", "102401.864000", "102401.867000", "102401.869000", "102401.872000", "102401.875000", "102401.877000", "102401.880000", "102401.882000", "102401.885000", "102401.888000", "102401.890000", "102401.893000", "102401.895000", "102441.750000", "102441.753000", "102441.755000", "102441.758000", "102441.760000", "102441.763000", "102441.766000", "102441.768000", "102441.771000", "102441.774000", "102441.777000", "102441.779000", "102441.785000", "102441.788000", "102441.791000", "102441.793000", "102441.796000", "102441.799000", "102441.801000", "102441.804000", "102521.744000", "102521.747000", "102521.749000", "102521.752000", "102521.761000", "102521.763000", "102521.766000", "102521.769000", "102521.771000", "102521.774000", "102521.776000", "102521.779000", "102521.782000", "102521.784000", "102521.787000", "102521.790000", "102521.792000", "102521.795000", "102521.797000", "102521.800000", "102601.747000", "102601.750000", "102601.752000", "102601.755000", "102601.757000", "102601.760000", "102601.763000", "102601.765000", "102601.768000", "102601.771000", "102601.773000", "102601.776000", "102601.779000", "102601.781000", "102601.784000", "102601.787000", "102601.789000", "102601.792000", "102601.795000", "102601.797000", "102641.762000", "102641.765000", "102641.768000", "102641.770000", "102641.773000", "102641.776000", "102641.778000", "102641.781000", "102641.784000", "102641.787000", "102641.790000", "102641.792000", "102641.795000", "102641.797000", "102641.800000", "102641.803000", "102641.805000", "102641.808000", "102641.810000", "102641.813000", "102721.752000", "102721.755000", "102721.757000", "102721.760000", "102721.763000", "102721.765000", "102721.768000", "102721.771000", "102721.773000", "102721.776000", "102721.778000", "102721.781000", "102721.784000", "102721.786000", "102721.789000", "102721.792000", "102721.794000", "102721.797000", "102721.800000", "102721.802000", "102801.742000", "102801.745000", "102801.748000", "102801.750000", "102801.753000", "102801.756000", "102801.758000", "102801.761000", "102801.763000", "102801.766000", "102801.769000", "102801.771000", "102801.774000", "102801.776000", "102801.779000", "102801.782000", "102801.784000", "102801.809000", "102801.812000", "102801.814000", "102819.279000", "102819.283000", "102819.285000", "102819.288000", "102819.296000", "102819.299000", "102819.302000", "102819.305000", "102819.307000"],
      "InstanceNumber": [1, 2, 3, 4, 5, 6, 7, 8, 9, 10, 11, 12, 13, 14, 15, 16, 17, 18, 19, 20, 21, 22, 23, 24, 25, 26, 27, 28, 29, 30, 31, 32, 33, 34, 35, 36, 37, 38, 39, 40, 41, 42, 43, 44, 45, 46, 47, 48, 49, 50, 51, 52, 53, 54, 55, 56, 57, 58, 59, 60, 61, 62, 63, 64, 65, 66, 67, 68, 69, 70, 71, 72, 73, 74, 75, 76, 77, 78, 79, 80, 81, 82, 83, 84, 85, 86, 87, 88, 89, 90, 91, 92, 93, 94, 95, 96, 97, 98, 99, 100, 101, 102, 103, 104, 105, 106, 107, 108, 109, 110, 111, 112, 113, 114, 115, 116, 117, 118, 119, 120, 121, 122, 123, 124, 125, 126, 127, 128, 129, 130, 131, 132, 133, 134, 135, 136, 137, 138, 139, 140, 141, 142, 143, 144, 145, 146, 147, 148, 149, 150, 151, 152, 153, 154, 155, 156, 157],
      "LargestImagePixelValue": [2313, 2316, 2314, 2312, 2314, 2314, 2311, 2319, 2326, 2314, 2316, 2311, 2308, 2312, 2306, 2313, 2307, 2311, 2313, 2330, 2307, 2319, 2318, 2316, 2318, 2314, 2308, 2303, 2313, 2314, 2311, 2318, 2320, 2311, 2312, 2305, 2313, 2312, 2312, 2304, 2310, 2309, 2311, 2312, 2311, 2310, 2315, 2318, 2314, 2310, 2315, 2315, 2317, 2322, 2313, 2316, 2318, 2305, 2312, 2307, 2311, 2317, 2316, 2307, 2316, 2305, 2309, 2307, 2305, 2311, 2314, 2310, 2311, 2315, 2304, 2303, 2304, 2312, 2311, 2315, 2309, 2312, 2308, 2316, 2306, 2323, 2324, 2316, 2305, 2304, 2313, 2303, 2296, 2309, 2303, 2303, 2317, 2315, 2306, 2308, 2302, 2304, 2304, 2309, 2307, 2303, 2301, 2306, 2314, 2314, 2300, 2303, 2309, 2322, 2314, 2314, 2300, 2301, 2300, 2320, 2306, 2306, 2316, 2313, 2314, 2299, 2312, 2309, 2310, 2302, 2305, 2314, 2311, 2304, 2303, 2307, 2311, 2310, 2304, 2311, 2307, 2303, 2307, 2300, 2310, 2310, 2303, 2307, 2310, 2295, 2311, 2308, 2302, 2315, 2306, 2308, 2304],
      "WindowCenter": [1006.0, 1006.0, 1006.0, 1007.0, 1006.0, 1006.0, 1006.0, 1006.0, 1006.0, 1006.0, 1006.0, 1007.0, 1006.0, 1006.0, 1006.0, 1006.0, 1006.0, 1007.0, 1006.0, 1006.0, 1006.0, 1007.0, 1006.0, 1006.0, 1006.0, 1006.0, 1006.0, 1006.0, 1006.0, 1006.0, 1006.0, 1006.0, 1006.0, 1006.0, 1006.0, 1006.0, 1006.0, 1006.0, 1006.0, 1006.0, 1006.0, 1006.0, 1006.0, 1006.0, 1007.0, 1006.0, 1006.0, 1006.0, 1006.0, 1006.0, 1006.0, 1007.0, 1006.0, 1006.0, 1006.0, 1006.0, 1006.0, 1006.0, 1006.0, 1006.0, 1006.0, 1006.0, 1006.0, 1006.0, 1006.0, 1006.0, 1006.0, 1006.0, 1006.0, 1006.0, 1006.0, 1006.0, 1006.0, 1006.0, 1006.0, 1006.0, 1006.0, 1006.0, 1006.0, 1006.0, 1006.0, 1006.0, 1006.0, 1006.0, 1006.0, 1006.0, 1006.0, 1006.0, 1006.0, 1006.0, 1006.0, 1006.0, 1006.0, 1006.0, 1006.0, 1006.0, 1006.0, 1006.0, 1006.0, 1006.0, 1006.0, 1005.0, 1005.0, 1006.0, 1006.0, 1006.0, 1006.0, 1005.0, 1006.0, 1005.0, 1006.0, 1005.0, 1005.0, 1005.0, 1005.0, 1005.0, 1005.0, 1005.0, 1005.0, 1005.0, 1005.0, 1005.0, 1005.0, 1005.0, 1006.0, 1006.0, 1006.0, 1006.0, 1005.0, 1005.0, 1006.0, 1007.0, 1006.0, 1005.0, 1005.0, 1005.0, 1005.0, 1005.0, 1006.0, 1005.0, 1005.0, 1005.0, 1005.0, 1005.0, 1005.0, 1005.0, 1006.0, 1005.0, 1006.0, 1005.0, 1005.0, 1005.0, 1005.0, 1005.0, 1005.0, 1005.0, 1005.0],
      "WindowWidth": [2224.0, 2223.0, 2223.0, 2224.0, 2223.0, 2223.0, 2223.0, 2223.0, 2223.0, 2223.0, 2223.0, 2223.0, 2223.0, 2223.0, 2223.0, 2223.0, 2223.0, 2223.0, 2223.0, 2223.0, 2223.0, 2223.0, 2223.0, 2223.0, 2223.0, 2223.0, 2223.0, 2223.0, 2223.0, 2223.0, 2223.0, 2223.0, 2222.0, 2222.0, 2222.0, 2222.0, 2222.0, 2222.0, 2222.0, 2222.0, 2222.0, 2222.0, 2222.0, 2222.0, 2223.0, 2222.0, 2222.0, 2222.0, 2222.0, 2222.0, 2222.0, 2222.0, 2222.0, 2222.0, 2222.0, 2222.0, 2222.0, 2222.0, 2222.0, 2222.0, 2222.0, 2222.0, 2222.0, 2222.0, 2222.0, 2222.0, 2222.0, 2222.0, 2222.0, 2222.0, 2222.0, 2222.0, 2222.0, 2222.0, 2222.0, 2222.0, 2222.0, 2222.0, 2222.0, 2222.0, 2222.0, 2222.0, 2222.0, 2222.0, 2222.0, 2222.0, 2222.0, 2222.0, 2222.0, 2222.0, 2222.0, 2222.0, 2222.0, 2222.0, 2221.0, 2222.0, 2222.0, 2221.0, 2221.0, 2222.0, 2221.0, 2221.0, 2221.0, 2222.0, 2222.0, 2222.0, 2222.0, 2222.0, 2222.0, 2222.0, 2222.0, 2221.0, 2221.0, 2222.0, 2221.0, 2222.0, 2222.0, 2221.0, 2221.0, 2221.0, 2221.0, 2221.0, 2221.0, 2221.0, 2221.0, 2222.0, 2222.0, 2221.0, 2221.0, 2221.0, 2222.0, 2223.0, 2222.0, 2221.0, 2221.0, 2221.0, 2221.0, 2221.0, 2222.0, 2221.0, 2221.0, 2221.0, 2221.0, 2221.0, 2221.0, 2221.0, 2222.0, 2221.0, 2222.0, 2221.0, 2221.0, 2221.0, 2221.0, 2221.0, 2221.0, 2221.0, 2221.0]
    },
    "slices": {}
  }
}