{
  "AcquisitionMatrixPE": 80,
  "AcquisitionNumber": 1,
  "AcquisitionTime": "09:44:46.560000",
  "BandwidthPerPixelPhaseEncode": 25,
  "BaseResolution": 80,
  "BodyPartExamined": "BRAIN",
  "CoilCombinationMethod": "Sum of Squares",
  "ConsistencyInfo": "N4_VE11C_LATEST_20160120",
  "ConversionSoftware": "dcm2niix",
  "ConversionSoftwareVersion": "v1.0.20220720",
  "DerivedVendorReportedEchoSpacing": 0.0005,
  "DeviceSerialNumber": "66112",
  "DwellTime": 2.7e-06,
  "EchoTime": 0.03,
  "EchoTrainLength": 80,
  "EffectiveEchoSpacing": 0.0005,
  "FlipAngle": 77,
  "HeudiconvVersion": "0.13.1",
  "ImageOrientationPatientDICOM": [0.989044, 0.147263, 0.0102912, -0.1427, 0.935883, 0.322117],
  "ImageOrientationText": "Tra>Cor(18.7)>Sag(-2.2)",
  "ImageType": [
    "ORIGINAL",
    "PRIMARY",
    "M",
    "ND",
    "NORM",
    "MOSAIC"
],
  "ImagingFrequency": 123.252,
  "InPlanePhaseEncodingDirectionDICOM": "COL",
  "InstitutionAddress": "Maynard 3,Hanover,NH,US,03755",
  "InstitutionName": "Dartmouth College - PBS",
  "InstitutionalDepartmentName": "Department",
  "MRAcquisitionType": "2D",
  "MagneticFieldStrength": 3,
  "Manufacturer": "Siemens",
  "ManufacturersModelName": "Prisma",
  "MatrixCoilMode": "SENSE",
  "Modality": "MR",
  "NonlinearGradientCorrection": false,
  "PartialFourier": 1,
  "PatientPosition": "HFS",
  "PercentPhaseFOV": 100,
  "PercentSampling": 100,
  "PhaseEncodingDirection": "j-",
  "PhaseEncodingSteps": 80,
  "PhaseResolution": 1,
  "PixelBandwidth": 2315,
  "ProcedureStepDescription": "dbic^QA",
  "ProtocolName": "func-bold_fa-77",
  "PulseSequenceDetails": "%SiemensSeq%\\ep2d_bold",
  "ReceiveCoilActiveElements": "HC1-7;NC1,2",
  "ReceiveCoilName": "HeadNeck_64",
  "ReconMatrixPE": 80,
  "RepetitionTime": 2,
  "SAR": 0.0284478,
  "ScanOptions": "FS",
  "ScanningSequence": "EP",
  "SequenceName": "*epfid2d1_80",
  "SequenceVariant": "SK",
  "SeriesDescription": "func-bold_fa-77",
  "SeriesNumber": 7,
  "ShimSetting": [4140, -7681, -7517, 190, -76, -426, -97, 96],
  "SliceThickness": 3.5,
  "SliceTiming": [0.99, 0, 1.055, 0.065, 1.1225, 0.1325, 1.1875, 0.1975, 1.255, 0.265, 1.32, 0.33, 1.385, 0.395, 1.4525, 0.4625, 1.5175, 0.5275, 1.5825, 0.595, 1.65, 0.66, 1.715, 0.725, 1.7825, 0.7925, 1.8475, 0.8575, 1.9125, 0.925],
  "SoftwareVersions": "syngo MR E11",
  "SpacingBetweenSlices": 3.99,
  "StationName": "AWP66112",
  "TotalReadoutTime": 0.0395,
  "TxRefAmp": 210.8,
  "dcmmeta_affine": [
    [-2.9671313762664795, -0.4280989468097687, -0.15084081888198853, 138.39695739746094],
    [-0.4417898654937744, 2.807649612426758, 1.2770256996154785, -109.75738525390625],
    [0.03087347373366356, -0.9663516283035278, 3.777108907699585, -29.809471130371094],
    [0.0, 0.0, 0.0, 1.0]
],
  "dcmmeta_reorient_transform": [
    [0.0, -1.0, 0.0, 79.0],
    [1.0, 0.0, 0.0, 0.0],
    [0.0, 0.0, 1.0, 0.0],
    [0.0, 0.0, 0.0, 1.0]
],
  "dcmmeta_shape": [80, 80, 30, 200],
  "dcmmeta_slice_dim": 2,
  "dcmmeta_version": 0.6,
  "global": {
    "const": {
      "AccessionNumber": "qa64",
      "AcquisitionMatrix": [80, 0, 0, 80],
      "AngioFlag": "N",
      "BitsAllocated": 16,
      "BitsStored": 12,
      "BodyPartExamined": "BRAIN",
      "Columns": 480,
      "EchoNumbers": 1,
      "EchoTime": 30.0,
      "EchoTrainLength": 80,
      "FlipAngle": 77.0,
      "HighBit": 11,
      "ImageOrientationPatient": [0.9890437880076, 0.14726329303844, 0.01029115771193, -0.1426996448487, 0.93588317563659, 0.3221172037014],
      "ImagePositionPatient": [-612.38362241269, -761.93480864231, -305.59626539582],
      "ImageType": [
        "ORIGINAL",
        "PRIMARY",
        "M",
        "ND",
        "NORM",
        "MOSAIC"
],
      "ImagedNucleus": "1H",
      "ImagingFrequency": 123.252353,
      "InPlanePhaseEncodingDirection": "COL",
      "LargestImagePixelValue": 4095,
      "MRAcquisitionType": "2D",
      "MagneticFieldStrength": 3.0,
      "Manufacturer": "SIEMENS",
      "ManufacturerModelName": "Prisma",
      "Modality": "MR",
      "NumberOfAverages": 1.0,
      "NumberOfPhaseEncodingSteps": 80,
      "PercentPhaseFieldOfView": 100.0,
      "PercentSampling": 100.0,
      "PerformedProcedureStepStartTime": "093444.747000",
      "PhotometricInterpretation": "MONOCHROME2",
      "PixelBandwidth": 2315.0,
      "PixelRepresentation": 0,
      "PixelSpacing": [3.0, 3.0],
      "ProtocolName": "func-bold_fa-77",
      "RepetitionTime": 2000.0,
      "Rows": 480,
      "SAR": 0.02844780613675,
      "SamplesPerPixel": 1,
      "ScanOptions": "FS",
      "ScanningSequence": "EP",
      "SequenceName": "*epfid2d1_80",
      "SequenceVariant": "SK",
      "SeriesDescription": "func-bold_fa-77",
      "SeriesNumber": 7,
      "SeriesTime": "094527.883000",
      "SliceLocation": -68.579582401887,
      "SliceThickness": 3.5,
      "SmallestImagePixelValue": 0,
      "SoftwareVersions": "syngo MR E11",
      "SpacingBetweenSlices": 3.98999994516,
      "SpecificCharacterSet": "ISO_IR 100",
      "StudyID": "19",
      "StudyTime": "093444.679000",
      "TransmitCoilName": "Body",
      "VariableFlipAngleFlag": "N",
      "WindowCenterWidthExplanation": "Algo1",
      "dBdt": 0.0},
    "slices": {}
  },
  "time": {
    "samples": {
      "AcquisitionNumber": [1, 2, 3, 4, 5, 6, 7, 8, 9, 10, 11, 12, 13, 14, 15, 16, 17, 18, 19, 20, 21, 22, 23, 24, 25, 26, 27, 28, 29, 30, 31, 32, 33, 34, 35, 36, 37, 38, 39, 40, 41, 42, 43, 44, 45, 46, 47, 48, 49, 50, 51, 52, 53, 54, 55, 56, 57, 58, 59, 60, 61, 62, 63, 64, 65, 66, 67, 68, 69, 70, 71, 72, 73, 74, 75, 76, 77, 78, 79, 80, 81, 82, 83, 84, 85, 86, 87, 88, 89, 90, 91, 92, 93, 94, 95, 96, 97, 98, 99, 100, 101, 102, 103, 104, 105, 106, 107, 108, 109, 110, 111, 112, 113, 114, 115, 116, 117, 118, 119, 120, 121, 122, 123, 124, 125, 126, 127, 128, 129, 130, 131, 132, 133, 134, 135, 136, 137, 138, 139, 140, 141, 142, 143, 144, 145, 146, 147, 148, 149, 150, 151, 152, 153, 154, 155, 156, 157, 158, 159, 160, 161, 162, 163, 164, 165, 166, 167, 168, 169, 170, 171, 172, 173, 174, 175, 176, 177, 178, 179, 180, 181, 182, 183, 184, 185, 186, 187, 188, 189, 190, 191, 192, 193, 194, 195, 196, 197, 198, 199, 200],
      "AcquisitionTime": ["094446.560000", "094448.560000", "094450.560000", "094452.560000", "094454.560000", "094456.560000", "094458.560000", "094500.560000", "094502.560000", "094504.560000", "094506.560000", "094508.560000", "094510.560000", "094512.560000", "094514.560000", "094516.560000", "094518.560000", "094520.560000", "094522.560000", "094524.560000", "094526.560000", "094528.560000", "094530.560000", "094532.560000", "094534.560000", "094536.560000", "094538.560000", "094540.560000", "094542.560000", "094544.560000", "094546.560000", "094548.560000", "094550.560000", "094552.560000", "094554.560000", "094556.560000", "094558.560000", "094600.560000", "094602.560000", "094604.560000", "094606.560000", "094608.560000", "094610.560000", "094612.560000", "094614.560000", "094616.560000", "094618.560000", "094620.560000", "094622.560000", "094624.560000", "094626.560000", "094628.560000", "094630.560000", "094632.560000", "094634.560000", "094636.560000", "094638.560000", "094640.560000", "094642.560000", "094644.560000", "094646.560000", "094648.560000", "094650.560000", "094652.560000", "094654.560000", "094656.560000", "094658.560000", "094700.560000", "094702.560000", "094704.560000", "094706.560000", "094708.560000", "094710.560000", "094712.560000", "094714.560000", "094716.560000", "094718.560000", "094720.560000", "094722.560000", "094724.560000", "094726.560000", "094728.560000", "094730.560000", "094732.560000", "094734.560000", "094736.560000", "094738.560000", "094740.560000", "094742.560000", "094744.560000", "094746.560000", "094748.560000", "094750.560000", "094752.560000", "094754.560000", "094756.560000", "094758.560000", "094800.560000", "094802.560000", "094804.560000", "094806.560000", "094808.560000", "094810.560000", "094812.560000", "094814.560000", "094816.560000", "094818.560000", "094820.560000", "094822.560000", "094824.560000", "094826.560000", "094828.560000", "094830.560000", "094832.560000", "094834.560000", "094836.560000", "094838.560000", "094840.560000", "094842.560000", "094844.560000", "094846.560000", "094848.560000", "094850.560000", "094852.560000", "094854.560000", "094856.560000", "094858.560000", "094900.560000", "094902.560000", "094904.560000", "094906.560000", "094908.560000", "094910.560000", "094912.560000", "094914.560000", "094916.560000", "094918.560000", "094920.560000", "094922.560000", "094924.560000", "094926.560000", "094928.560000", "094930.560000", "094932.560000", "094934.560000", "094936.560000", "094938.560000", "094940.560000", "094942.560000", "094944.560000", "094946.560000", "094948.560000", "094950.560000", "094952.560000", "094954.560000", "094956.560000", "094958.560000", "095000.560000", "095002.560000", "095004.560000", "095006.560000", "095008.560000", "095010.560000", "095012.560000", "095014.560000", "095016.560000", "095018.560000", "095020.560000", "095022.560000", "095024.560000", "095026.560000", "095028.560000", "095030.560000", "095032.560000", "095034.560000", "095036.560000", "095038.560000", "095040.560000", "095042.560000", "095044.560000", "095046.560000", "095048.560000", "095050.560000", "095052.560000", "095054.560000", "095056.560000", "095058.560000", "095100.560000", "095102.560000", "095104.560000", "095106.560000", "095108.560000", "095110.560000", "095112.560000", "095114.560000", "095116.560000", "095118.560000", "095120.560000", "095122.560000", "095124.560000"],
      "ContentTime": ["094527.886000", "094527.890000", "094527.892000", "094527.902000", "094527.904000", "094527.907000", "094527.909000", "094527.912000", "094527.914000", "094527.917000", "094527.920000", "094527.922000", "094527.925000", "094527.927000", "094527.930000", "094527.933000", "094527.935000", "094527.938000", "094527.940000", "094527.943000", "094607.882000", "094607.891000", "094607.903000", "094607.905000", "094607.908000", "094607.910000", "094607.913000", "094607.915000", "094607.918000", "094607.921000", "094607.923000", "094607.926000", "094607.928000", "094607.931000", "094607.934000", "094607.936000", "094607.939000", "094607.941000", "094607.953000", "094607.956000", "094647.881000", "094647.883000", "094647.886000", "094647.889000", "094647.891000", "094647.894000", "094647.896000", "094647.899000", "094647.902000", "094647.904000", "094647.907000", "094647.909000", "094647.912000", "094647.914000", "094647.917000", "094647.919000", "094647.922000", "094647.925000", "094647.927000", "094647.930000", "094727.882000", "094727.884000", "094727.887000", "094727.890000", "094727.892000", "094727.895000", "094727.897000", "094727.900000", "094727.903000", "094727.905000", "094727.908000", "094727.910000", "094727.913000", "094727.915000", "094727.918000", "094727.921000", "094727.923000", "094727.926000", "094727.928000", "094727.931000", "094807.881000", "094807.884000", "094807.887000", "094807.889000", "094807.892000", "094807.895000", "094807.897000", "094807.900000", "094807.902000", "094807.905000", "094807.908000", "094807.910000", "094807.913000", "094807.915000", "094807.918000", "094807.920000", "094807.923000", "094807.926000", "094807.928000", "094807.931000", "094847.881000", "094847.883000", "094847.886000", "094847.889000", "094847.891000", "094847.894000", "094847.896000", "094847.899000", "094847.902000", "094847.904000", "094847.907000", "094847.909000", "094847.912000", "094847.915000", "094847.917000", "094847.920000", "094847.922000", "094847.925000", "094847.928000", "094847.930000", "094927.881000", "094927.883000", "094927.886000", "094927.889000", "094927.891000", "094927.894000", "094927.896000", "094927.899000", "094927.901000", "094927.904000", "094927.907000", "094927.909000", "094927.912000", "094927.914000", "094927.917000", "094927.920000", "094927.922000", "094927.925000", "094927.927000", "094927.930000", "095007.881000", "095007.884000", "095007.887000", "095007.890000", "095007.892000", "095007.895000", "095007.897000", "095007.900000", "095007.903000", "095007.905000", "095007.908000", "095007.910000", "095007.913000", "095007.916000", "095007.918000", "095007.921000", "095007.923000", "095007.926000", "095007.929000", "095007.931000", "095047.882000", "095047.884000", "095047.887000", "095047.890000", "095047.892000", "095047.895000", "095047.897000", "095047.900000", "095047.903000", "095047.905000", "095047.908000", "095047.910000", "095047.921000", "095047.924000", "095047.926000", "095047.929000", "095047.931000", "095047.934000", "095047.936000", "095047.939000", "095126.359000", "095126.363000", "095126.365000", "095126.368000", "095126.371000", "095126.373000", "095126.376000", "095126.378000", "095126.381000", "095126.384000", "095126.387000", "095126.392000", "095126.396000", "095126.399000", "095126.402000", "095126.404000", "095126.408000", "095126.411000", "095126.414000", "095126.416000"],
      "InstanceCreationTime": ["094527.886000", "094527.890000", "094527.892000", "094527.902000", "094527.904000", "094527.907000", "094527.909000", "094527.912000", "094527.914000", "094527.917000", "094527.920000", "094527.922000", "094527.925000", "094527.927000", "094527.930000", "094527.933000", "094527.935000", "094527.938000", "094527.940000", "094527.943000", "094607.882000", "094607.891000", "094607.903000", "094607.905000", "094607.908000", "094607.910000", "094607.913000", "094607.915000", "094607.918000", "094607.921000", "094607.923000", "094607.926000", "094607.928000", "094607.931000", "094607.934000", "094607.936000", "094607.939000", "094607.941000", "094607.953000", "094607.956000", "094647.881000", "094647.883000", "094647.886000", "094647.889000", "094647.891000", "094647.894000", "094647.896000", "094647.899000", "094647.902000", "094647.904000", "094647.907000", "094647.909000", "094647.912000", "094647.914000", "094647.917000", "094647.919000", "094647.922000", "094647.925000", "094647.927000", "094647.930000", "094727.882000", "094727.884000", "094727.887000", "094727.890000", "094727.892000", "094727.895000", "094727.897000", "094727.900000", "094727.903000", "094727.905000", "094727.908000", "094727.910000", "094727.913000", "094727.915000", "094727.918000", "094727.921000", "094727.923000", "094727.926000", "094727.928000", "094727.931000", "094807.881000", "094807.884000", "094807.887000", "094807.889000", "094807.892000", "094807.895000", "094807.897000", "094807.900000", "094807.902000", "094807.905000", "094807.908000", "094807.910000", "094807.913000", "094807.915000", "094807.918000", "094807.920000", "094807.923000", "094807.926000", "094807.928000", "094807.931000", "094847.881000", "094847.883000", "094847.886000", "094847.889000", "094847.891000", "094847.894000", "094847.896000", "094847.899000", "094847.902000", "094847.904000", "094847.907000", "094847.909000", "094847.912000", "094847.915000", "094847.917000", "094847.920000", "094847.922000", "094847.925000", "094847.928000", "094847.930000", "094927.881000", "094927.883000", "094927.886000", "094927.889000", "094927.891000", "094927.894000", "094927.896000", "094927.899000", "094927.901000", "094927.904000", "094927.907000", "094927.909000", "094927.912000", "094927.914000", "094927.917000", "094927.920000", "094927.922000", "094927.925000", "094927.927000", "094927.930000", "095007.881000", "095007.884000", "095007.887000", "095007.890000", "095007.892000", "095007.895000", "095007.897000", "095007.900000", "095007.903000", "095007.905000", "095007.908000", "095007.910000", "095007.913000", "095007.916000", "095007.918000", "095007.921000", "095007.923000", "095007.926000", "095007.929000", "095007.931000", "095047.882000", "095047.884000", "095047.887000", "095047.890000", "095047.892000", "095047.895000", "095047.897000", "095047.900000", "095047.903000", "095047.905000", "095047.908000", "095047.910000", "095047.921000", "095047.924000", "095047.926000", "095047.929000", "095047.931000", "095047.934000", "095047.936000", "095047.939000", "095126.359000", "095126.363000", "095126.365000", "095126.368000", "095126.371000", "095126.373000", "095126.376000", "095126.378000", "095126.381000", "095126.384000", "095126.387000", "095126.392000", "095126.396000", "095126.399000", "095126.402000", "095126.404000", "095126.408000", "095126.411000", "095126.414000", "095126.416000"],
      "InstanceNumber": [1, 2, 3, 4, 5, 6, 7, 8, 9, 10, 11, 12, 13, 14, 15, 16, 17, 18, 19, 20, 21, 22, 23, 24, 25, 26, 27, 28, 29, 30, 31, 32, 33, 34, 35, 36, 37, 38, 39, 40, 41, 42, 43, 44, 45, 46, 47, 48, 49, 50, 51, 52, 53, 54, 55, 56, 57, 58, 59, 60, 61, 62, 63, 64, 65, 66, 67, 68, 69, 70, 71, 72, 73, 74, 75, 76, 77, 78, 79, 80, 81, 82, 83, 84, 85, 86, 87, 88, 89, 90, 91, 92, 93, 94, 95, 96, 97, 98, 99, 100, 101, 102, 103, 104, 105, 106, 107, 108, 109, 110, 111, 112, 113, 114, 115, 116, 117, 118, 119, 120, 121, 122, 123, 124, 125, 126, 127, 128, 129, 130, 131, 132, 133, 134, 135, 136, 137, 138, 139, 140, 141, 142, 143, 144, 145, 146, 147, 148, 149, 150, 151, 152, 153, 154, 155, 156, 157, 158, 159, 160, 161, 162, 163, 164, 165, 166, 167, 168, 169, 170, 171, 172, 173, 174, 175, 176, 177, 178, 179, 180, 181, 182, 183, 184, 185, 186, 187, 188, 189, 190, 191, 192, 193, 194, 195, 196, 197, 198, 199, 200],
      "WindowCenter": [1471.0, 1470.0, 1470.0, 1470.0, 1470.0, 1471.0, 1470.0, 1470.0, 1471.0, 1470.0, 1470.0, 1470.0, 1470.0, 1470.0, 1470.0, 1471.0, 1470.0, 1471.0, 1470.0, 1470.0, 1471.0, 1471.0, 1470.0, 1470.0, 1470.0, 1469.0, 1470.0, 1470.0, 1469.0, 1470.0, 1470.0, 1469.0, 1470.0, 1470.0, 1469.0, 1470.0, 1469.0, 1469.0, 1469.0, 1469.0, 1469.0, 1469.0, 1469.0, 1470.0, 1469.0, 1469.0, 1468.0, 1469.0, 1469.0, 1470.0, 1469.0, 1469.0, 1469.0, 1468.0, 1468.0, 1468.0, 1469.0, 1468.0, 1468.0, 1468.0, 1468.0, 1468.0, 1468.0, 1467.0, 1468.0, 1468.0, 1467.0, 1467.0, 1468.0, 1468.0, 1467.0, 1468.0, 1467.0, 1467.0, 1468.0, 1467.0, 1467.0, 1467.0, 1468.0, 1468.0, 1468.0, 1467.0, 1468.0, 1468.0, 1467.0, 1467.0, 1467.0, 1467.0, 1467.0, 1466.0, 1466.0, 1467.0, 1467.0, 1467.0, 1467.0, 1467.0, 1467.0, 1467.0, 1466.0, 1467.0, 1466.0, 1466.0, 1466.0, 1466.0, 1466.0, 1466.0, 1466.0, 1466.0, 1466.0, 1465.0, 1465.0, 1466.0, 1465.0, 1465.0, 1464.0, 1464.0, 1464.0, 1464.0, 1464.0, 1464.0, 1463.0, 1464.0, 1464.0, 1464.0, 1464.0, 1463.0, 1463.0, 1464.0, 1464.0, 1463.0, 1463.0, 1464.0, 1464.0, 1464.0, 1463.0, 1463.0, 1464.0, 1463.0, 1463.0, 1463.0, 1463.0, 1463.0, 1463.0, 1463.0, 1464.0, 1463.0, 1463.0, 1463.0, 1463.0, 1463.0, 1463.0, 1464.0, 1464.0, 1463.0, 1465.0, 1464.0, 1463.0, 1464.0, 1464.0, 1463.0, 1463.0, 1463.0, 1463.0, 1463.0, 1463.0, 1463.0, 1464.0, 1464.0, 1463.0, 1463.0, 1463.0, 1463.0, 1463.0, 1462.0, 1463.0, 1463.0, 1463.0, 1463.0, 1463.0, 1463.0, 1463.0, 1462.0, 1462.0, 1462.0, 1462.0, 1463.0, 1462.0, 1462.0, 1463.0, 1462.0, 1462.0, 1462.0, 1463.0, 1462.0, 1462.0, 1462.0, 1462.0, 1462.0, 1462.0, 1462.0],
      "WindowWidth": [3442.0, 3443.0, 3443.0, 3442.0, 3442.0, 3442.0, 3443.0, 3443.0, 3442.0, 3442.0, 3443.0, 3442.0, 3442.0, 3442.0, 3442.0, 3442.0, 3442.0, 3442.0, 3442.0, 3442.0, 3442.0, 3442.0, 3442.0, 3442.0, 3442.0, 3442.0, 3442.0, 3441.0, 3442.0, 3441.0, 3441.0, 3441.0, 3441.0, 3441.0, 3441.0, 3441.0, 3441.0, 3441.0, 3441.0, 3441.0, 3441.0, 3441.0, 3441.0, 3441.0, 3441.0, 3441.0, 3441.0, 3440.0, 3441.0, 3440.0, 3440.0, 3441.0, 3440.0, 3440.0, 3440.0, 3440.0, 3440.0, 3440.0, 3440.0, 3440.0, 3440.0, 3440.0, 3440.0, 3440.0, 3440.0, 3440.0, 3440.0, 3440.0, 3440.0, 3440.0, 3440.0, 3440.0, 3439.0, 3440.0, 3440.0, 3439.0, 3439.0, 3439.0, 3440.0, 3440.0, 3440.0, 3439.0, 3440.0, 3440.0, 3439.0, 3439.0, 3439.0, 3440.0, 3439.0, 3439.0, 3439.0, 3439.0, 3439.0, 3439.0, 3439.0, 3439.0, 3439.0, 3439.0, 3439.0, 3439.0, 3439.0, 3439.0, 3439.0, 3438.0, 3438.0, 3439.0, 3439.0, 3438.0, 3437.0, 3437.0, 3438.0, 3438.0, 3438.0, 3437.0, 3437.0, 3437.0, 3437.0, 3437.0, 3437.0, 3437.0, 3437.0, 3437.0, 3437.0, 3437.0, 3437.0, 3437.0, 3437.0, 3437.0, 3436.0, 3436.0, 3436.0, 3436.0, 3436.0, 3436.0, 3436.0, 3436.0, 3436.0, 3436.0, 3436.0, 3436.0, 3437.0, 3436.0, 3436.0, 3436.0, 3436.0, 3436.0, 3436.0, 3436.0, 3436.0, 3436.0, 3436.0, 3436.0, 3436.0, 3437.0, 3437.0, 3436.0, 3436.0, 3436.0, 3436.0, 3436.0, 3436.0, 3436.0, 3436.0, 3436.0, 3436.0, 3436.0, 3435.0, 3435.0, 3436.0, 3436.0, 3435.0, 3435.0, 3435.0, 3435.0, 3435.0, 3435.0, 3435.0, 3436.0, 3435.0, 3435.0, 3435.0, 3435.0, 3435.0, 3435.0, 3435.0, 3435.0, 3435.0, 3435.0, 3435.0, 3434.0, 3434.0, 3434.0, 3434.0, 3434.0, 3434.0, 3435.0, 3434.0, 3434.0, 3434.0, 3434.0]
    },
    "slices": {}
  }
}