{
  "AcquisitionMatrixPE": 80,
  "AcquisitionNumber": 1,
  "AcquisitionTime": "09:37:55.195000",
  "BandwidthPerPixelPhaseEncode": 48.077,
  "BaseResolution": 80,
  "BodyPartExamined": "BRAIN",
  "CoilCombinationMethod": "Sum of Squares",
  "ConsistencyInfo": "N4_VE11C_LATEST_20160120",
  "ConversionSoftware": "dcm2niix",
  "ConversionSoftwareVersion": "v1.0.20220720",
  "DerivedVendorReportedEchoSpacing": 0.000519999,
  "DeviceSerialNumber": "66112",
  "DwellTime": 2.7e-06,
  "EchoTime": 0.035,
  "EchoTrainLength": 39,
  "EffectiveEchoSpacing": 0.00026,
  "FlipAngle": 90,
  "HeudiconvVersion": "0.13.1",
  "ImageOrientationPatientDICOM": [0.989044, 0.147263, 0.0102912, -0.1427, 0.935883, 0.322117],
  "ImageOrientationText": "Tra>Cor(18.7)>Sag(-2.2)",
  "ImageType": [
    "ORIGINAL",
    "PRIMARY",
    "M",
    "ND",
    "NORM",
    "MOSAIC"
],
  "ImagingFrequency": 123.252,
  "InPlanePhaseEncodingDirectionDICOM": "COL",
  "InstitutionAddress": "Maynard 3,Hanover,NH,US,03755",
  "InstitutionName": "Dartmouth College - PBS",
  "InstitutionalDepartmentName": "Department",
  "MRAcquisitionType": "2D",
  "MagneticFieldStrength": 3,
  "Manufacturer": "Siemens",
  "ManufacturersModelName": "Prisma",
  "MatrixCoilMode": "GRAPPA",
  "Modality": "MR",
  "NonlinearGradientCorrection": false,
  "ParallelReductionFactorInPlane": 2,
  "PartialFourier": 1,
  "PatientPosition": "HFS",
  "PercentPhaseFOV": 100,
  "PercentSampling": 100,
  "PhaseEncodingDirection": "j-",
  "PhaseEncodingSteps": 79,
  "PhaseResolution": 1,
  "PixelBandwidth": 2315,
  "ProcedureStepDescription": "dbic^QA",
  "ProtocolName": "func-bold_task-rest_acq-p2",
  "PulseSequenceDetails": "%SiemensSeq%\\ep2d_bold",
  "ReceiveCoilActiveElements": "HC1-7;NC1,2",
  "ReceiveCoilName": "HeadNeck_64",
  "ReconMatrixPE": 80,
  "RefLinesPE": 24,
  "RepetitionTime": 2,
  "SAR": 0.0362001,
  "ScanOptions": "FS",
  "ScanningSequence": "EP",
  "SequenceName": "*epfid2d1_80",
  "SequenceVariant": "SK",
  "SeriesDescription": "func-bold_task-rest_acq-p2",
  "SeriesNumber": 5,
  "ShimSetting": [4140, -7681, -7517, 190, -77, -427, -98, 97],
  "SliceThickness": 3.5,
  "SliceTiming": [0.99, 0, 1.055, 0.065, 1.1225, 0.1325, 1.1875, 0.1975, 1.2525, 0.265, 1.32, 0.33, 1.385, 0.395, 1.4525, 0.4625, 1.5175, 0.5275, 1.5825, 0.595, 1.65, 0.66, 1.715, 0.725, 1.7825, 0.7925, 1.8475, 0.8575, 1.9125, 0.925],
  "SoftwareVersions": "syngo MR E11",
  "SpacingBetweenSlices": 3.99,
  "StationName": "AWP66112",
  "TaskName": "rest",
  "TotalReadoutTime": 0.02054,
  "TxRefAmp": 210.8,
  "dcmmeta_affine": [
    [-2.9671313762664795, -0.4280989468097687, -0.15084083378314972, 140.61827087402344],
    [-0.4417898654937744, 2.807649612426758, 1.2770256996154785, -111.68171691894531],
    [0.03087347373366356, -0.9663516283035278, 3.777109146118164, -30.420516967773438],
    [0.0, 0.0, 0.0, 1.0]
],
  "dcmmeta_reorient_transform": [
    [0.0, -1.0, 0.0, 79.0],
    [1.0, 0.0, 0.0, 0.0],
    [0.0, 0.0, 1.0, 0.0],
    [0.0, 0.0, 0.0, 1.0]
],
  "dcmmeta_shape": [80, 80, 30, 200],
  "dcmmeta_slice_dim": 2,
  "dcmmeta_version": 0.6,
  "global": {
    "const": {
      "AccessionNumber": "qa64",
      "AcquisitionMatrix": [80, 0, 0, 80],
      "AngioFlag": "N",
      "BitsAllocated": 16,
      "BitsStored": 12,
      "BodyPartExamined": "BRAIN",
      "Columns": 480,
      "EchoNumbers": 1,
      "EchoTime": 35.0,
      "EchoTrainLength": 39,
      "FlipAngle": 90.0,
      "HighBit": 11,
      "ImageOrientationPatient": [0.9890437880076, 0.14726329303844, 0.01029115771193, -0.1426996448487, 0.93588317563659, 0.3221172037014],
      "ImagePositionPatient": [-614.6049442339, -760.01047506992, -306.20731123322],
      "ImageType": [
        "ORIGINAL",
        "PRIMARY",
        "M",
        "ND",
        "NORM",
        "MOSAIC"
],
      "ImagedNucleus": "1H",
      "ImagingFrequency": 123.252353,
      "InPlanePhaseEncodingDirection": "COL",
      "LargestImagePixelValue": 4095,
      "MRAcquisitionType": "2D",
      "MagneticFieldStrength": 3.0,
      "Manufacturer": "SIEMENS",
      "ManufacturerModelName": "Prisma",
      "Modality": "MR",
      "NumberOfAverages": 1.0,
      "NumberOfPhaseEncodingSteps": 79,
      "PercentPhaseFieldOfView": 100.0,
      "PercentSampling": 100.0,
      "PerformedProcedureStepStartTime": "093444.747000",
      "PhotometricInterpretation": "MONOCHROME2",
      "PixelBandwidth": 2315.0,
      "PixelRepresentation": 0,
      "PixelSpacing": [3.0, 3.0],
      "ProtocolName": "func-bold_task-rest_acq-p2",
      "RepetitionTime": 2000.0,
      "Rows": 480,
      "SAR": 0.03620005212748,
      "SamplesPerPixel": 1,
      "ScanOptions": "FS",
      "ScanningSequence": "EP",
      "SequenceName": "*epfid2d1_80",
      "SequenceVariant": "SK",
      "SeriesDescription": "func-bold_task-rest_acq-p2",
      "SeriesNumber": 5,
      "SeriesTime": "093847.812000",
      "SliceLocation": -69.857897230278,
      "SliceThickness": 3.5,
      "SmallestImagePixelValue": 0,
      "SoftwareVersions": "syngo MR E11",
      "SpacingBetweenSlices": 3.9900000693719,
      "SpecificCharacterSet": "ISO_IR 100",
      "StudyID": "19",
      "StudyTime": "093444.679000",
      "TransmitCoilName": "Body",
      "VariableFlipAngleFlag": "N",
      "WindowCenterWidthExplanation": "Algo1",
      "dBdt": 0.0},
    "slices": {}
  },
  "time": {
    "samples": {
      "AcquisitionNumber": [1, 2, 3, 4, 5, 6, 7, 8, 9, 10, 11, 12, 13, 14, 15, 16, 17, 18, 19, 20, 21, 22, 23, 24, 25, 26, 27, 28, 29, 30, 31, 32, 33, 34, 35, 36, 37, 38, 39, 40, 41, 42, 43, 44, 45, 46, 47, 48, 49, 50, 51, 52, 53, 54, 55, 56, 57, 58, 59, 60, 61, 62, 63, 64, 65, 66, 67, 68, 69, 70, 71, 72, 73, 74, 75, 76, 77, 78, 79, 80, 81, 82, 83, 84, 85, 86, 87, 88, 89, 90, 91, 92, 93, 94, 95, 96, 97, 98, 99, 100, 101, 102, 103, 104, 105, 106, 107, 108, 109, 110, 111, 112, 113, 114, 115, 116, 117, 118, 119, 120, 121, 122, 123, 124, 125, 126, 127, 128, 129, 130, 131, 132, 133, 134, 135, 136, 137, 138, 139, 140, 141, 142, 143, 144, 145, 146, 147, 148, 149, 150, 151, 152, 153, 154, 155, 156, 157, 158, 159, 160, 161, 162, 163, 164, 165, 166, 167, 168, 169, 170, 171, 172, 173, 174, 175, 176, 177, 178, 179, 180, 181, 182, 183, 184, 185, 186, 187, 188, 189, 190, 191, 192, 193, 194, 195, 196, 197, 198, 199, 200],
      "AcquisitionTime": ["093755.195000", "093757.195000", "093759.195000", "093801.195000", "093803.195000", "093805.195000", "093807.195000", "093809.195000", "093811.195000", "093813.195000", "093815.195000", "093817.195000", "093819.195000", "093821.195000", "093823.195000", "093825.195000", "093827.195000", "093829.195000", "093831.195000", "093833.195000", "093835.195000", "093837.195000", "093839.195000", "093841.195000", "093843.195000", "093845.195000", "093847.195000", "093849.195000", "093851.195000", "093853.195000", "093855.195000", "093857.195000", "093859.195000", "093901.195000", "093903.195000", "093905.195000", "093907.195000", "093909.195000", "093911.195000", "093913.195000", "093915.195000", "093917.195000", "093919.195000", "093921.195000", "093923.195000", "093925.195000", "093927.195000", "093929.195000", "093931.195000", "093933.195000", "093935.195000", "093937.195000", "093939.195000", "093941.195000", "093943.195000", "093945.195000", "093947.195000", "093949.195000", "093951.195000", "093953.195000", "093955.195000", "093957.195000", "093959.195000", "094001.195000", "094003.195000", "094005.195000", "094007.195000", "094009.195000", "094011.195000", "094013.195000", "094015.195000", "094017.195000", "094019.195000", "094021.195000", "094023.195000", "094025.195000", "094027.195000", "094029.195000", "094031.195000", "094033.195000", "094035.195000", "094037.195000", "094039.195000", "094041.195000", "094043.195000", "094045.195000", "094047.195000", "094049.195000", "094051.195000", "094053.195000", "094055.195000", "094057.195000", "094059.195000", "094101.195000", "094103.195000", "094105.195000", "094107.195000", "094109.195000", "094111.195000", "094113.195000", "094115.195000", "094117.195000", "094119.195000", "094121.195000", "094123.195000", "094125.195000", "094127.195000", "094129.195000", "094131.195000", "094133.195000", "094135.195000", "094137.195000", "094139.195000", "094141.195000", "094143.195000", "094145.195000", "094147.195000", "094149.195000", "094151.195000", "094153.195000", "094155.195000", "094157.195000", "094159.195000", "094201.195000", "094203.195000", "094205.195000", "094207.195000", "094209.195000", "094211.195000", "094213.195000", "094215.195000", "094217.195000", "094219.195000", "094221.195000", "094223.195000", "094225.195000", "094227.195000", "094229.195000", "094231.195000", "094233.195000", "094235.195000", "094237.195000", "094239.195000", "094241.195000", "094243.195000", "094245.195000", "094247.195000", "094249.195000", "094251.195000", "094253.195000", "094255.195000", "094257.195000", "094259.195000", "094301.195000", "094303.195000", "094305.195000", "094307.195000", "094309.195000", "094311.195000", "094313.195000", "094315.195000", "094317.195000", "094319.195000", "094321.195000", "094323.195000", "094325.195000", "094327.195000", "094329.195000", "094331.195000", "094333.195000", "094335.195000", "094337.195000", "094339.195000", "094341.195000", "094343.195000", "094345.195000", "094347.195000", "094349.195000", "094351.195000", "094353.195000", "094355.195000", "094357.195000", "094359.195000", "094401.195000", "094403.195000", "094405.195000", "094407.195000", "094409.195000", "094411.195000", "094413.195000", "094415.195000", "094417.195000", "094419.195000", "094421.195000", "094423.195000", "094425.195000", "094427.195000", "094429.195000", "094431.195000", "094433.195000"],
      "ContentTime": ["093847.816000", "093847.819000", "093847.822000", "093847.825000", "093847.827000", "093847.830000", "093847.833000", "093847.835000", "093847.838000", "093847.840000", "093847.843000", "093847.846000", "093847.849000", "093847.851000", "093847.854000", "093847.857000", "093847.859000", "093847.862000", "093847.865000", "093847.867000", "093847.870000", "093847.872000", "093847.875000", "093847.878000", "093847.887000", "093847.890000", "093927.809000", "093927.812000", "093927.815000", "093927.818000", "093927.820000", "093927.823000", "093927.826000", "093927.828000", "093927.831000", "093927.834000", "093927.836000", "093927.839000", "093927.842000", "093927.844000", "093927.847000", "093927.849000", "093927.852000", "093927.855000", "093927.857000", "093927.860000", "094007.810000", "094007.813000", "094007.815000", "094007.818000", "094007.820000", "094007.823000", "094007.826000", "094007.828000", "094007.831000", "094007.833000", "094007.836000", "094007.839000", "094007.841000", "094007.844000", "094007.847000", "094007.849000", "094007.852000", "094007.854000", "094007.857000", "094007.860000", "094047.811000", "094047.814000", "094047.816000", "094047.819000", "094047.821000", "094047.824000", "094047.827000", "094047.829000", "094047.832000", "094047.834000", "094047.837000", "094047.840000", "094047.842000", "094047.845000", "094047.848000", "094047.850000", "094047.853000", "094047.856000", "094047.858000", "094047.861000", "094127.811000", "094127.814000", "094127.816000", "094127.819000", "094127.821000", "094127.824000", "094127.827000", "094127.829000", "094127.832000", "094127.835000", "094127.837000", "094127.840000", "094127.842000", "094127.845000", "094127.848000", "094127.850000", "094127.853000", "094127.856000", "094127.858000", "094127.861000", "094207.810000", "094207.813000", "094207.815000", "094207.818000", "094207.820000", "094207.823000", "094207.826000", "094207.828000", "094207.831000", "094207.834000", "094207.836000", "094207.839000", "094207.842000", "094207.844000", "094207.847000", "094207.849000", "094207.852000", "094207.855000", "094207.857000", "094207.860000", "094247.810000", "094247.812000", "094247.815000", "094247.818000", "094247.820000", "094247.823000", "094247.826000", "094247.828000", "094247.831000", "094247.834000", "094247.836000", "094247.839000", "094247.841000", "094247.844000", "094247.847000", "094247.849000", "094247.852000", "094247.854000", "094247.857000", "094247.860000", "094327.810000", "094327.813000", "094327.816000", "094327.819000", "094327.821000", "094327.824000", "094327.827000", "094327.829000", "094327.832000", "094327.835000", "094327.837000", "094327.840000", "094327.842000", "094327.845000", "094327.848000", "094327.850000", "094327.853000", "094327.855000", "094327.858000", "094327.861000", "094407.810000", "094407.813000", "094407.815000", "094407.818000", "094407.821000", "094407.823000", "094407.826000", "094407.828000", "094407.831000", "094407.834000", "094407.836000", "094407.839000", "094407.842000", "094407.844000", "094407.847000", "094407.849000", "094407.852000", "094407.855000", "094407.857000", "094407.860000", "094434.892000", "094434.895000", "094434.897000", "094434.900000", "094434.903000", "094434.906000", "094434.908000", "094434.911000", "094434.914000", "094434.916000", "094434.919000", "094434.927000", "094434.930000", "094434.933000"],
      "InstanceCreationTime": ["093847.816000", "093847.819000", "093847.822000", "093847.825000", "093847.827000", "093847.830000", "093847.833000", "093847.835000", "093847.838000", "093847.840000", "093847.843000", "093847.846000", "093847.849000", "093847.851000", "093847.854000", "093847.857000", "093847.859000", "093847.862000", "093847.865000", "093847.867000", "093847.870000", "093847.872000", "093847.875000", "093847.878000", "093847.887000", "093847.890000", "093927.809000", "093927.812000", "093927.815000", "093927.818000", "093927.820000", "093927.823000", "093927.826000", "093927.828000", "093927.831000", "093927.834000", "093927.836000", "093927.839000", "093927.842000", "093927.844000", "093927.847000", "093927.849000", "093927.852000", "093927.855000", "093927.857000", "093927.860000", "094007.810000", "094007.813000", "094007.815000", "094007.818000", "094007.820000", "094007.823000", "094007.826000", "094007.828000", "094007.831000", "094007.833000", "094007.836000", "094007.839000", "094007.841000", "094007.844000", "094007.847000", "094007.849000", "094007.852000", "094007.854000", "094007.857000", "094007.860000", "094047.811000", "094047.814000", "094047.816000", "094047.819000", "094047.821000", "094047.824000", "094047.827000", "094047.829000", "094047.832000", "094047.834000", "094047.837000", "094047.840000", "094047.842000", "094047.845000", "094047.848000", "094047.850000", "094047.853000", "094047.856000", "094047.858000", "094047.861000", "094127.811000", "094127.814000", "094127.816000", "094127.819000", "094127.821000", "094127.824000", "094127.827000", "094127.829000", "094127.832000", "094127.835000", "094127.837000", "094127.840000", "094127.842000", "094127.845000", "094127.848000", "094127.850000", "094127.853000", "094127.856000", "094127.858000", "094127.861000", "094207.810000", "094207.813000", "094207.815000", "094207.818000", "094207.820000", "094207.823000", "094207.826000", "094207.828000", "094207.831000", "094207.834000", "094207.836000", "094207.839000", "094207.842000", "094207.844000", "094207.847000", "094207.849000", "094207.852000", "094207.855000", "094207.857000", "094207.860000", "094247.810000", "094247.812000", "094247.815000", "094247.818000", "094247.820000", "094247.823000", "094247.826000", "094247.828000", "094247.831000", "094247.834000", "094247.836000", "094247.839000", "094247.841000", "094247.844000", "094247.847000", "094247.849000", "094247.852000", "094247.854000", "094247.857000", "094247.860000", "094327.810000", "094327.813000", "094327.816000", "094327.819000", "094327.821000", "094327.824000", "094327.827000", "094327.829000", "094327.832000", "094327.835000", "094327.837000", "094327.840000", "094327.842000", "094327.845000", "094327.848000", "094327.850000", "094327.853000", "094327.855000", "094327.858000", "094327.861000", "094407.810000", "094407.813000", "094407.815000", "094407.818000", "094407.821000", "094407.823000", "094407.826000", "094407.828000", "094407.831000", "094407.834000", "094407.836000", "094407.839000", "094407.842000", "094407.844000", "094407.847000", "094407.849000", "094407.852000", "094407.855000", "094407.857000", "094407.860000", "094434.892000", "094434.895000", "094434.897000", "094434.900000", "094434.903000", "094434.906000", "094434.908000", "094434.911000", "094434.914000", "094434.916000", "094434.919000", "094434.927000", "094434.930000", "094434.933000"],
      "InstanceNumber": [1, 2, 3, 4, 5, 6, 7, 8, 9, 10, 11, 12, 13, 14, 15, 16, 17, 18, 19, 20, 21, 22, 23, 24, 25, 26, 27, 28, 29, 30, 31, 32, 33, 34, 35, 36, 37, 38, 39, 40, 41, 42, 43, 44, 45, 46, 47, 48, 49, 50, 51, 52, 53, 54, 55, 56, 57, 58, 59, 60, 61, 62, 63, 64, 65, 66, 67, 68, 69, 70, 71, 72, 73, 74, 75, 76, 77, 78, 79, 80, 81, 82, 83, 84, 85, 86, 87, 88, 89, 90, 91, 92, 93, 94, 95, 96, 97, 98, 99, 100, 101, 102, 103, 104, 105, 106, 107, 108, 109, 110, 111, 112, 113, 114, 115, 116, 117, 118, 119, 120, 121, 122, 123, 124, 125, 126, 127, 128, 129, 130, 131, 132, 133, 134, 135, 136, 137, 138, 139, 140, 141, 142, 143, 144, 145, 146, 147, 148, 149, 150, 151, 152, 153, 154, 155, 156, 157, 158, 159, 160, 161, 162, 163, 164, 165, 166, 167, 168, 169, 170, 171, 172, 173, 174, 175, 176, 177, 178, 179, 180, 181, 182, 183, 184, 185, 186, 187, 188, 189, 190, 191, 192, 193, 194, 195, 196, 197, 198, 199, 200],
      "WindowCenter": [1567.0, 1566.0, 1567.0, 1566.0, 1567.0, 1566.0, 1566.0, 1566.0, 1565.0, 1564.0, 1565.0, 1565.0, 1565.0, 1564.0, 1565.0, 1564.0, 1564.0, 1564.0, 1565.0, 1564.0, 1563.0, 1564.0, 1563.0, 1563.0, 1564.0, 1564.0, 1564.0, 1564.0, 1564.0, 1564.0, 1564.0, 1563.0, 1563.0, 1562.0, 1563.0, 1563.0, 1563.0, 1562.0, 1563.0, 1563.0, 1563.0, 1562.0, 1563.0, 1562.0, 1562.0, 1562.0, 1562.0, 1561.0, 1562.0, 1561.0, 1561.0, 1561.0, 1561.0, 1561.0, 1561.0, 1562.0, 1560.0, 1561.0, 1561.0, 1561.0, 1561.0, 1562.0, 1561.0, 1561.0, 1562.0, 1561.0, 1560.0, 1561.0, 1561.0, 1560.0, 1561.0, 1561.0, 1561.0, 1561.0, 1560.0, 1560.0, 1560.0, 1560.0, 1560.0, 1560.0, 1561.0, 1561.0, 1560.0, 1559.0, 1560.0, 1560.0, 1559.0, 1560.0, 1560.0, 1560.0, 1560.0, 1559.0, 1560.0, 1559.0, 1559.0, 1559.0, 1559.0, 1559.0, 1559.0, 1560.0, 1559.0, 1560.0, 1559.0, 1560.0, 1559.0, 1559.0, 1560.0, 1559.0, 1559.0, 1560.0, 1559.0, 1560.0, 1558.0, 1558.0, 1558.0, 1559.0, 1559.0, 1559.0, 1558.0, 1560.0, 1558.0, 1558.0, 1559.0, 1558.0, 1557.0, 1558.0, 1559.0, 1559.0, 1557.0, 1558.0, 1558.0, 1557.0, 1557.0, 1557.0, 1557.0, 1559.0, 1558.0, 1558.0, 1557.0, 1558.0, 1557.0, 1558.0, 1558.0, 1557.0, 1558.0, 1557.0, 1557.0, 1558.0, 1557.0, 1557.0, 1556.0, 1557.0, 1557.0, 1557.0, 1557.0, 1557.0, 1557.0, 1556.0, 1557.0, 1556.0, 1557.0, 1557.0, 1557.0, 1557.0, 1556.0, 1556.0, 1556.0, 1556.0, 1556.0, 1556.0, 1556.0, 1556.0, 1556.0, 1557.0, 1557.0, 1555.0, 1557.0, 1557.0, 1556.0, 1557.0, 1556.0, 1556.0, 1556.0, 1556.0, 1555.0, 1556.0, 1557.0, 1556.0, 1556.0, 1556.0, 1556.0, 1556.0, 1556.0, 1556.0, 1555.0, 1556.0, 1556.0, 1556.0, 1556.0, 1556.0],
      "WindowWidth": [3491.0, 3490.0, 3490.0, 3490.0, 3490.0, 3489.0, 3489.0, 3489.0, 3490.0, 3490.0, 3489.0, 3489.0, 3489.0, 3489.0, 3489.0, 3489.0, 3489.0, 3489.0, 3489.0, 3489.0, 3489.0, 3488.0, 3489.0, 3489.0, 3488.0, 3488.0, 3488.0, 3488.0, 3488.0, 3488.0, 3488.0, 3488.0, 3488.0, 3488.0, 3488.0, 3488.0, 3488.0, 3488.0, 3487.0, 3487.0, 3487.0, 3487.0, 3487.0, 3487.0, 3487.0, 3487.0, 3487.0, 3487.0, 3487.0, 3487.0, 3487.0, 3487.0, 3487.0, 3487.0, 3487.0, 3487.0, 3487.0, 3487.0, 3487.0, 3486.0, 3486.0, 3486.0, 3486.0, 3486.0, 3486.0, 3486.0, 3486.0, 3486.0, 3486.0, 3486.0, 3486.0, 3486.0, 3486.0, 3485.0, 3486.0, 3486.0, 3486.0, 3485.0, 3486.0, 3486.0, 3485.0, 3485.0, 3485.0, 3485.0, 3485.0, 3485.0, 3485.0, 3485.0, 3485.0, 3485.0, 3485.0, 3485.0, 3485.0, 3485.0, 3485.0, 3485.0, 3485.0, 3485.0, 3484.0, 3484.0, 3484.0, 3484.0, 3484.0, 3484.0, 3484.0, 3484.0, 3484.0, 3484.0, 3484.0, 3484.0, 3484.0, 3484.0, 3484.0, 3484.0, 3484.0, 3484.0, 3484.0, 3483.0, 3484.0, 3483.0, 3483.0, 3483.0, 3483.0, 3483.0, 3484.0, 3483.0, 3483.0, 3483.0, 3483.0, 3483.0, 3483.0, 3483.0, 3483.0, 3483.0, 3483.0, 3482.0, 3483.0, 3483.0, 3483.0, 3483.0, 3483.0, 3483.0, 3483.0, 3482.0, 3482.0, 3482.0, 3482.0, 3483.0, 3482.0, 3482.0, 3482.0, 3482.0, 3483.0, 3483.0, 3483.0, 3482.0, 3482.0, 3483.0, 3482.0, 3483.0, 3482.0, 3482.0, 3482.0, 3482.0, 3482.0, 3482.0, 3482.0, 3482.0, 3482.0, 3482.0, 3482.0, 3482.0, 3482.0, 3482.0, 3482.0, 3482.0, 3481.0, 3481.0, 3482.0, 3481.0, 3481.0, 3482.0, 3482.0, 3481.0, 3481.0, 3482.0, 3481.0, 3482.0, 3481.0, 3481.0, 3482.0, 3481.0, 3481.0, 3481.0, 3481.0, 3481.0, 3481.0, 3481.0, 3481.0, 3480.0]
    },
    "slices": {}
  }
}