{
  "AcquisitionMatrixPE": 80,
  "AcquisitionNumber": 1,
  "AcquisitionTime": "09:50:51.200000",
  "BandwidthPerPixelPhaseEncode": 44.643,
  "BaseResolution": 80,
  "BodyPartExamined": "BRAIN",
  "CoilCombinationMethod": "Sum of Squares",
  "ConsistencyInfo": "N4_VE11C_LATEST_20160120",
  "ConversionSoftware": "dcm2niix",
  "ConversionSoftwareVersion": "v1.0.20220720",
  "DerivedVendorReportedEchoSpacing": 0.000559998,
  "DeviceSerialNumber": "66112",
  "DwellTime": 2.7e-06,
  "EchoTime": 0.035,
  "EchoTrainLength": 39,
  "EffectiveEchoSpacing": 0.000279999,
  "FlipAngle": 90,
  "HeudiconvVersion": "0.13.1",
  "ImageOrientationPatientDICOM": [0.990907, 0.134246, 0.00901446, -0.130455, 0.942208, 0.308586],
  "ImageOrientationText": "Tra>Cor(17.9)>Sag(-1.9)",
  "ImageType": [
    "ORIGINAL",
    "PRIMARY",
    "M",
    "ND",
    "NORM",
    "MOSAIC"
],
  "ImagingFrequency": 123.252,
  "InPlanePhaseEncodingDirectionDICOM": "COL",
  "InstitutionAddress": "Maynard 3,Hanover,NH,US,03755",
  "InstitutionName": "Dartmouth College - PBS",
  "InstitutionalDepartmentName": "Department",
  "MRAcquisitionType": "2D",
  "MagneticFieldStrength": 3,
  "Manufacturer": "Siemens",
  "ManufacturersModelName": "Prisma",
  "Modality": "MR",
  "MultibandAccelerationFactor": 4,
  "NonlinearGradientCorrection": false,
  "ParallelReductionFactorInPlane": 2,
  "PartialFourier": 1,
  "PatientPosition": "HFS",
  "PercentPhaseFOV": 100,
  "PercentSampling": 100,
  "PhaseEncodingDirection": "j-",
  "PhaseEncodingSteps": 79,
  "PhaseResolution": 1,
  "PixelBandwidth": 2315,
  "ProcedureStepDescription": "dbic^QA",
  "ProtocolName": "func-bold_task-rest_acq-p2-s4-3.5mm",
  "PulseSequenceDetails": "%SiemensSeq%\\ep2d_bold",
  "ReceiveCoilActiveElements": "HEA;HEP",
  "ReceiveCoilName": "Head_32",
  "ReconMatrixPE": 80,
  "RefLinesPE": 24,
  "RepetitionTime": 2,
  "SAR": 0.0209318,
  "ScanOptions": "FS",
  "ScanningSequence": "EP",
  "SequenceName": "*epfid2d1_80",
  "SequenceVariant": "SK",
  "SeriesDescription": "func-bold_task-rest_acq-p2-s4-3.5mm",
  "SeriesNumber": 7,
  "ShimSetting": [4143, -7702, -7513, 285, -82, -138, 18, 58],
  "SliceThickness": 3.5,
  "SliceTiming": [1.485, 0, 0.99, 0.2475, 1.2375, 0.7425, 1.7325, 0.495, 1.485, 0, 0.99, 0.2475, 1.2375, 0.7425, 1.7325, 0.495, 1.485, 0, 0.99, 0.2475, 1.2375, 0.7425, 1.7325, 0.495, 1.485, 0, 0.99, 0.2475, 1.2375, 0.7425, 1.7325, 0.495],
  "SoftwareVersions": "syngo MR E11",
  "SpacingBetweenSlices": 3.99,
  "StationName": "AWP66112",
  "TaskName": "rest",
  "TotalReadoutTime": 0.0221199,
  "TxRefAmp": 220.418,
  "dcmmeta_affine": [
    [-2.9727210998535156, -0.39136606454849243, -0.13140229880809784, 136.78262329101562],
    [-0.40273720026016235, 2.8266239166259766, 1.224755883216858, -102.0408935546875],
    [0.02704336866736412, -0.9257590174674988, 3.795102834701538, -23.66423225402832],
    [0.0, 0.0, 0.0, 1.0]
],
  "dcmmeta_reorient_transform": [
    [0.0, -1.0, 0.0, 79.0],
    [1.0, 0.0, 0.0, 0.0],
    [0.0, 0.0, 1.0, 0.0],
    [0.0, 0.0, 0.0, 1.0]
],
  "dcmmeta_shape": [80, 80, 32, 200],
  "dcmmeta_slice_dim": 2,
  "dcmmeta_version": 0.6,
  "global": {
    "const": {
      "AccessionNumber": "qa",
      "AcquisitionMatrix": [80, 0, 0, 80],
      "AngioFlag": "N",
      "BitsAllocated": 16,
      "BitsStored": 12,
      "BodyPartExamined": "BRAIN",
      "Columns": 480,
      "EchoNumbers": 1,
      "EchoTime": 35.0,
      "EchoTrainLength": 39,
      "FlipAngle": 90.0,
      "HighBit": 11,
      "ImageOrientationPatient": [0.99090707072541, 0.13424573277901, 0.00901445600205, -0.1304553595895, 0.94220797674885, 0.30858633752195],
      "ImagePositionPatient": [-622.13573688347, -767.13462442756, -287.35967079406],
      "ImageType": [
        "ORIGINAL",
        "PRIMARY",
        "M",
        "ND",
        "NORM",
        "MOSAIC"
],
      "ImagedNucleus": "1H",
      "ImagingFrequency": 123.252325,
      "InPlanePhaseEncodingDirection": "COL",
      "MRAcquisitionType": "2D",
      "MagneticFieldStrength": 3.0,
      "Manufacturer": "SIEMENS",
      "ManufacturerModelName": "Prisma",
      "Modality": "MR",
      "NumberOfAverages": 1.0,
      "NumberOfPhaseEncodingSteps": 79,
      "PercentPhaseFieldOfView": 100.0,
      "PercentSampling": 100.0,
      "PerformedProcedureStepStartTime": "094212.217000",
      "PhotometricInterpretation": "MONOCHROME2",
      "PixelBandwidth": 2315.0,
      "PixelRepresentation": 0,
      "PixelSpacing": [3.0, 3.0],
      "ProtocolName": "func-bold_task-rest_acq-p2-s4-3.5mm",
      "RepetitionTime": 2000.0,
      "Rows": 480,
      "SAR": 0.02093178393511,
      "SamplesPerPixel": 1,
      "ScanOptions": "FS",
      "ScanningSequence": "EP",
      "SequenceName": "*epfid2d1_80",
      "SequenceVariant": "SK",
      "SeriesDescription": "func-bold_task-rest_acq-p2-s4-3.5mm",
      "SeriesNumber": 7,
      "SeriesTime": "095133.765000",
      "SliceLocation": -58.335071737839,
      "SliceThickness": 3.5,
      "SmallestImagePixelValue": 0,
      "SoftwareVersions": "syngo MR E11",
      "SpacingBetweenSlices": 3.9899999497582,
      "SpecificCharacterSet": "ISO_IR 100",
      "StudyID": "2",
      "StudyTime": "094212.171000",
      "TransmitCoilName": "Body",
      "VariableFlipAngleFlag": "N",
      "WindowCenterWidthExplanation": "Algo1",
      "dBdt": 0.0},
    "slices": {}
  },
  "time": {
    "samples": {
      "AcquisitionNumber": [1, 2, 3, 4, 5, 6, 7, 8, 9, 10, 11, 12, 13, 14, 15, 16, 17, 18, 19, 20, 21, 22, 23, 24, 25, 26, 27, 28, 29, 30, 31, 32, 33, 34, 35, 36, 37, 38, 39, 40, 41, 42, 43, 44, 45, 46, 47, 48, 49, 50, 51, 52, 53, 54, 55, 56, 57, 58, 59, 60, 61, 62, 63, 64, 65, 66, 67, 68, 69, 70, 71, 72, 73, 74, 75, 76, 77, 78, 79, 80, 81, 82, 83, 84, 85, 86, 87, 88, 89, 90, 91, 92, 93, 94, 95, 96, 97, 98, 99, 100, 101, 102, 103, 104, 105, 106, 107, 108, 109, 110, 111, 112, 113, 114, 115, 116, 117, 118, 119, 120, 121, 122, 123, 124, 125, 126, 127, 128, 129, 130, 131, 132, 133, 134, 135, 136, 137, 138, 139, 140, 141, 142, 143, 144, 145, 146, 147, 148, 149, 150, 151, 152, 153, 154, 155, 156, 157, 158, 159, 160, 161, 162, 163, 164, 165, 166, 167, 168, 169, 170, 171, 172, 173, 174, 175, 176, 177, 178, 179, 180, 181, 182, 183, 184, 185, 186, 187, 188, 189, 190, 191, 192, 193, 194, 195, 196, 197, 198, 199, 200],
      "AcquisitionTime": ["095051.200000", "095053.200000", "095055.200000", "095057.200000", "095059.200000", "095101.200000", "095103.200000", "095105.200000", "095107.200000", "095109.200000", "095111.200000", "095113.200000", "095115.200000", "095117.200000", "095119.200000", "095121.200000", "095123.200000", "095125.200000", "095127.200000", "095129.200000", "095131.200000", "095133.200000", "095135.200000", "095137.200000", "095139.200000", "095141.200000", "095143.200000", "095145.200000", "095147.200000", "095149.200000", "095151.200000", "095153.200000", "095155.200000", "095157.200000", "095159.200000", "095201.200000", "095203.200000", "095205.200000", "095207.200000", "095209.200000", "095211.200000", "095213.200000", "095215.200000", "095217.200000", "095219.200000", "095221.200000", "095223.200000", "095225.200000", "095227.200000", "095229.200000", "095231.200000", "095233.200000", "095235.200000", "095237.200000", "095239.200000", "095241.200000", "095243.200000", "095245.200000", "095247.200000", "095249.200000", "095251.200000", "095253.200000", "095255.200000", "095257.200000", "095259.200000", "095301.200000", "095303.200000", "095305.200000", "095307.200000", "095309.200000", "095311.200000", "095313.200000", "095315.200000", "095317.200000", "095319.200000", "095321.200000", "095323.200000", "095325.200000", "095327.200000", "095329.200000", "095331.200000", "095333.200000", "095335.200000", "095337.200000", "095339.200000", "095341.200000", "095343.200000", "095345.200000", "095347.200000", "095349.200000", "095351.200000", "095353.200000", "095355.200000", "095357.200000", "095359.200000", "095401.200000", "095403.200000", "095405.200000", "095407.200000", "095409.200000", "095411.200000", "095413.200000", "095415.200000", "095417.200000", "095419.200000", "095421.200000", "095423.200000", "095425.200000", "095427.200000", "095429.200000", "095431.200000", "095433.200000", "095435.200000", "095437.200000", "095439.200000", "095441.200000", "095443.200000", "095445.200000", "095447.200000", "095449.200000", "095451.200000", "095453.200000", "095455.200000", "095457.200000", "095459.200000", "095501.200000", "095503.200000", "095505.200000", "095507.200000", "095509.200000", "095511.200000", "095513.200000", "095515.200000", "095517.200000", "095519.200000", "095521.200000", "095523.200000", "095525.200000", "095527.200000", "095529.200000", "095531.200000", "095533.200000", "095535.200000", "095537.200000", "095539.200000", "095541.200000", "095543.200000", "095545.200000", "095547.200000", "095549.200000", "095551.200000", "095553.200000", "095555.200000", "095557.200000", "095559.200000", "095601.200000", "095603.200000", "095605.200000", "095607.200000", "095609.200000", "095611.200000", "095613.200000", "095615.200000", "095617.200000", "095619.200000", "095621.200000", "095623.200000", "095625.200000", "095627.200000", "095629.200000", "095631.200000", "095633.200000", "095635.200000", "095637.200000", "095639.200000", "095641.200000", "095643.200000", "095645.200000", "095647.200000", "095649.200000", "095651.200000", "095653.200000", "095655.200000", "095657.200000", "095659.200000", "095701.200000", "095703.200000", "095705.200000", "095707.200000", "095709.200000", "095711.200000", "095713.200000", "095715.200000", "095717.200000", "095719.200000", "095721.200000", "095723.200000", "095725.200000", "095727.200000", "095729.200000"],
      "ContentTime": ["095133.768000", "095133.772000", "095133.774000", "095133.777000", "095133.779000", "095133.790000", "095133.793000", "095133.795000", "095133.798000", "095133.800000", "095133.803000", "095133.805000", "095133.808000", "095133.810000", "095133.813000", "095133.815000", "095133.818000", "095133.825000", "095133.828000", "095133.830000", "095133.833000", "095133.836000", "095213.763000", "095213.766000", "095213.769000", "095213.771000", "095213.774000", "095213.776000", "095213.779000", "095213.781000", "095213.785000", "095213.787000", "095213.790000", "095213.792000", "095213.795000", "095213.797000", "095213.800000", "095213.802000", "095213.805000", "095213.807000", "095213.810000", "095213.812000", "095253.762000", "095253.765000", "095253.768000", "095253.770000", "095253.773000", "095253.775000", "095253.778000", "095253.781000", "095253.784000", "095253.787000", "095253.789000", "095253.792000", "095253.794000", "095253.797000", "095253.799000", "095253.802000", "095253.804000", "095253.807000", "095253.809000", "095253.812000", "095333.763000", "095333.766000", "095333.769000", "095333.771000", "095333.774000", "095333.776000", "095333.779000", "095333.782000", "095333.785000", "095333.787000", "095333.790000", "095333.793000", "095333.795000", "095333.798000", "095333.800000", "095333.803000", "095333.805000", "095333.808000", "095333.810000", "095333.813000", "095413.763000", "095413.766000", "095413.784000", "095413.787000", "095413.789000", "095413.792000", "095413.794000", "095413.797000", "095413.799000", "095413.802000", "095413.804000", "095413.807000", "095413.809000", "095413.812000", "095413.814000", "095413.817000", "095413.819000", "095413.822000", "095413.824000", "095413.827000", "095453.762000", "095453.765000", "095453.768000", "095453.770000", "095453.773000", "095453.775000", "095453.779000", "095453.781000", "095453.784000", "095453.786000", "095453.789000", "095453.791000", "095453.794000", "095453.796000", "095453.799000", "095453.802000", "095453.804000", "095453.807000", "095453.809000", "095453.812000", "095533.762000", "095533.765000", "095533.768000", "095533.770000", "095533.773000", "095533.775000", "095533.780000", "095533.782000", "095533.785000", "095533.787000", "095533.790000", "095533.793000", "095533.795000", "095533.798000", "095533.800000", "095533.803000", "095533.805000", "095533.808000", "095533.810000", "095533.813000", "095613.763000", "095613.766000", "095613.769000", "095613.771000", "095613.774000", "095613.778000", "095613.781000", "095613.783000", "095613.786000", "095613.788000", "095613.791000", "095613.793000", "095613.796000", "095613.798000", "095613.801000", "095613.804000", "095613.806000", "095613.809000", "095613.811000", "095613.814000", "095653.763000", "095653.766000", "095653.783000", "095653.785000", "095653.788000", "095653.790000", "095653.793000", "095653.796000", "095653.798000", "095653.801000", "095653.803000", "095653.806000", "095653.808000", "095653.811000", "095653.814000", "095653.816000", "095653.819000", "095653.821000", "095653.824000", "095653.826000", "095729.816000", "095729.819000", "095729.821000", "095729.824000", "095729.827000", "095729.829000", "095729.832000", "095729.834000", "095729.837000", "095729.839000", "095729.842000", "095729.845000", "095729.852000", "095729.855000", "095729.858000", "095729.861000", "095729.864000", "095729.869000"],
      "InstanceCreationTime": ["095133.768000", "095133.772000", "095133.774000", "095133.777000", "095133.779000", "095133.790000", "095133.793000", "095133.795000", "095133.798000", "095133.800000", "095133.803000", "095133.805000", "095133.808000", "095133.810000", "095133.813000", "095133.815000", "095133.818000", "095133.825000", "095133.828000", "095133.830000", "095133.833000", "095133.836000", "095213.763000", "095213.766000", "095213.769000", "095213.771000", "095213.774000", "095213.776000", "095213.779000", "095213.781000", "095213.785000", "095213.787000", "095213.790000", "095213.792000", "095213.795000", "095213.797000", "095213.800000", "095213.802000", "095213.805000", "095213.807000", "095213.810000", "095213.812000", "095253.762000", "095253.765000", "095253.768000", "095253.770000", "095253.773000", "095253.775000", "095253.778000", "095253.781000", "095253.784000", "095253.787000", "095253.789000", "095253.792000", "095253.794000", "095253.797000", "095253.799000", "095253.802000", "095253.804000", "095253.807000", "095253.809000", "095253.812000", "095333.763000", "095333.766000", "095333.769000", "095333.771000", "095333.774000", "095333.776000", "095333.779000", "095333.782000", "095333.785000", "095333.787000", "095333.790000", "095333.793000", "095333.795000", "095333.798000", "095333.800000", "095333.803000", "095333.805000", "095333.808000", "095333.810000", "095333.813000", "095413.763000", "095413.766000", "095413.784000", "095413.787000", "095413.789000", "095413.792000", "095413.794000", "095413.797000", "095413.799000", "095413.802000", "095413.804000", "095413.807000", "095413.809000", "095413.812000", "095413.814000", "095413.817000", "095413.819000", "095413.822000", "095413.824000", "095413.827000", "095453.762000", "095453.765000", "095453.768000", "095453.770000", "095453.773000", "095453.775000", "095453.779000", "095453.781000", "095453.784000", "095453.786000", "095453.789000", "095453.791000", "095453.794000", "095453.796000", "095453.799000", "095453.802000", "095453.804000", "095453.807000", "095453.809000", "095453.812000", "095533.762000", "095533.765000", "095533.768000", "095533.770000", "095533.773000", "095533.775000", "095533.780000", "095533.782000", "095533.785000", "095533.787000", "095533.790000", "095533.793000", "095533.795000", "095533.798000", "095533.800000", "095533.803000", "095533.805000", "095533.808000", "095533.810000", "095533.813000", "095613.763000", "095613.766000", "095613.769000", "095613.771000", "095613.774000", "095613.778000", "095613.781000", "095613.783000", "095613.786000", "095613.788000", "095613.791000", "095613.793000", "095613.796000", "095613.798000", "095613.801000", "095613.804000", "095613.806000", "095613.809000", "095613.811000", "095613.814000", "095653.763000", "095653.766000", "095653.783000", "095653.785000", "095653.788000", "095653.790000", "095653.793000", "095653.796000", "095653.798000", "095653.801000", "095653.803000", "095653.806000", "095653.808000", "095653.811000", "095653.814000", "095653.816000", "095653.819000", "095653.821000", "095653.824000", "095653.826000", "095729.816000", "095729.819000", "095729.821000", "095729.824000", "095729.827000", "095729.829000", "095729.832000", "095729.834000", "095729.837000", "095729.839000", "095729.842000", "095729.845000", "095729.852000", "095729.855000", "095729.858000", "095729.861000", "095729.864000", "095729.869000"],
      "InstanceNumber": [1, 2, 3, 4, 5, 6, 7, 8, 9, 10, 11, 12, 13, 14, 15, 16, 17, 18, 19, 20, 21, 22, 23, 24, 25, 26, 27, 28, 29, 30, 31, 32, 33, 34, 35, 36, 37, 38, 39, 40, 41, 42, 43, 44, 45, 46, 47, 48, 49, 50, 51, 52, 53, 54, 55, 56, 57, 58, 59, 60, 61, 62, 63, 64, 65, 66, 67, 68, 69, 70, 71, 72, 73, 74, 75, 76, 77, 78, 79, 80, 81, 82, 83, 84, 85, 86, 87, 88, 89, 90, 91, 92, 93, 94, 95, 96, 97, 98, 99, 100, 101, 102, 103, 104, 105, 106, 107, 108, 109, 110, 111, 112, 113, 114, 115, 116, 117, 118, 119, 120, 121, 122, 123, 124, 125, 126, 127, 128, 129, 130, 131, 132, 133, 134, 135, 136, 137, 138, 139, 140, 141, 142, 143, 144, 145, 146, 147, 148, 149, 150, 151, 152, 153, 154, 155, 156, 157, 158, 159, 160, 161, 162, 163, 164, 165, 166, 167, 168, 169, 170, 171, 172, 173, 174, 175, 176, 177, 178, 179, 180, 181, 182, 183, 184, 185, 186, 187, 188, 189, 190, 191, 192, 193, 194, 195, 196, 197, 198, 199, 200],
      "LargestImagePixelValue": [1954, 1959, 1958, 1955, 1962, 1957, 1957, 1962, 1956, 1961, 1961, 1952, 1957, 1957, 1956, 1962, 1957, 1957, 1953, 1954, 1957, 1954, 1961, 1958, 1957, 1960, 1958, 1954, 1957, 1961, 1963, 1953, 1956, 1961, 1954, 1954, 1960, 1955, 1965, 1961, 1964, 1959, 1955, 1952, 1952, 1960, 1958, 1960, 1956, 1964, 1959, 1960, 1964, 1959, 1965, 1958, 1957, 1961, 1962, 1961, 1956, 1958, 1960, 1956, 1957, 1961, 1955, 1957, 1961, 1961, 1955, 1960, 1958, 1957, 1954, 1955, 1954, 1955, 1954, 1957, 1959, 1958, 1960, 1960, 1956, 1964, 1961, 1957, 1963, 1961, 1959, 1964, 1960, 1954, 1956, 1966, 1964, 1959, 1960, 1958, 1960, 1957, 1965, 1957, 1960, 1957, 1958, 1963, 1961, 1960, 1960, 1964, 1959, 1961, 1962, 1962, 1960, 1959, 1960, 1961, 1960, 1957, 1956, 1960, 1956, 1951, 1957, 1961, 1958, 1960, 1961, 1956, 1959, 1962, 1958, 1963, 1955, 1963, 1962, 1962, 1965, 1958, 1955, 1961, 1959, 1956, 1956, 1960, 1961, 1964, 1956, 1962, 1958, 1957, 1954, 1958, 1956, 1957, 1958, 1959, 1959, 1958, 1960, 1958, 1958, 1959, 1961, 1959, 1962, 1957, 1959, 1956, 1960, 1958, 1957, 1959, 1955, 1959, 1954, 1953, 1954, 1958, 1956, 1956, 1958, 1955, 1957, 1960, 1959, 1960, 1960, 1954, 1956, 1956, 1956, 1955, 1961, 1958, 1963, 1957],
      "WindowCenter": [926.0, 926.0, 926.0, 926.0, 926.0, 926.0, 926.0, 926.0, 926.0, 926.0, 926.0, 926.0, 926.0, 926.0, 926.0, 926.0, 926.0, 926.0, 926.0, 926.0, 926.0, 926.0, 926.0, 926.0, 926.0, 926.0, 926.0, 926.0, 926.0, 926.0, 926.0, 926.0, 926.0, 926.0, 926.0, 926.0, 926.0, 926.0, 926.0, 926.0, 926.0, 926.0, 926.0, 927.0, 926.0, 926.0, 926.0, 926.0, 926.0, 926.0, 926.0, 926.0, 926.0, 926.0, 926.0, 926.0, 926.0, 926.0, 926.0, 926.0, 926.0, 926.0, 926.0, 926.0, 926.0, 926.0, 926.0, 926.0, 926.0, 926.0, 926.0, 926.0, 926.0, 926.0, 926.0, 926.0, 926.0, 926.0, 926.0, 926.0, 926.0, 926.0, 926.0, 926.0, 926.0, 926.0, 926.0, 926.0, 926.0, 926.0, 926.0, 926.0, 926.0, 926.0, 926.0, 926.0, 926.0, 926.0, 926.0, 926.0, 926.0, 926.0, 926.0, 926.0, 926.0, 926.0, 926.0, 926.0, 926.0, 926.0, 926.0, 926.0, 926.0, 926.0, 926.0, 926.0, 926.0, 926.0, 926.0, 926.0, 926.0, 926.0, 926.0, 926.0, 926.0, 926.0, 926.0, 926.0, 926.0, 926.0, 926.0, 926.0, 926.0, 926.0, 926.0, 926.0, 926.0, 926.0, 926.0, 926.0, 926.0, 926.0, 926.0, 926.0, 926.0, 926.0, 926.0, 926.0, 926.0, 926.0, 926.0, 926.0, 926.0, 926.0, 926.0, 926.0, 926.0, 926.0, 926.0, 926.0, 926.0, 926.0, 926.0, 926.0, 926.0, 926.0, 926.0, 926.0, 926.0, 926.0, 926.0, 926.0, 926.0, 926.0, 926.0, 926.0, 926.0, 926.0, 926.0, 926.0, 926.0, 926.0, 926.0, 926.0, 926.0, 926.0, 926.0, 926.0, 926.0, 926.0, 926.0, 926.0, 926.0, 926.0, 926.0, 926.0, 926.0, 926.0, 926.0, 926.0],
      "WindowWidth": [2116.0, 2116.0, 2116.0, 2116.0, 2116.0, 2116.0, 2117.0, 2116.0, 2116.0, 2116.0, 2116.0, 2117.0, 2117.0, 2117.0, 2117.0, 2116.0, 2116.0, 2117.0, 2116.0, 2117.0, 2116.0, 2116.0, 2116.0, 2116.0, 2116.0, 2116.0, 2116.0, 2116.0, 2116.0, 2116.0, 2116.0, 2116.0, 2116.0, 2117.0, 2116.0, 2116.0, 2116.0, 2117.0, 2117.0, 2117.0, 2116.0, 2117.0, 2117.0, 2118.0, 2117.0, 2117.0, 2117.0, 2117.0, 2117.0, 2117.0, 2117.0, 2117.0, 2117.0, 2117.0, 2117.0, 2117.0, 2117.0, 2117.0, 2117.0, 2117.0, 2117.0, 2117.0, 2117.0, 2117.0, 2117.0, 2117.0, 2117.0, 2117.0, 2117.0, 2117.0, 2117.0, 2117.0, 2117.0, 2117.0, 2117.0, 2117.0, 2117.0, 2117.0, 2117.0, 2117.0, 2117.0, 2117.0, 2117.0, 2117.0, 2117.0, 2117.0, 2117.0, 2117.0, 2117.0, 2117.0, 2117.0, 2117.0, 2117.0, 2117.0, 2117.0, 2117.0, 2117.0, 2117.0, 2117.0, 2117.0, 2116.0, 2117.0, 2117.0, 2117.0, 2117.0, 2117.0, 2117.0, 2117.0, 2117.0, 2117.0, 2117.0, 2117.0, 2117.0, 2117.0, 2117.0, 2117.0, 2117.0, 2117.0, 2117.0, 2117.0, 2117.0, 2117.0, 2117.0, 2117.0, 2117.0, 2117.0, 2117.0, 2117.0, 2117.0, 2117.0, 2117.0, 2117.0, 2117.0, 2117.0, 2117.0, 2117.0, 2117.0, 2117.0, 2117.0, 2117.0, 2117.0, 2117.0, 2117.0, 2117.0, 2117.0, 2117.0, 2117.0, 2117.0, 2117.0, 2117.0, 2117.0, 2117.0, 2117.0, 2117.0, 2117.0, 2117.0, 2117.0, 2117.0, 2117.0, 2117.0, 2117.0, 2117.0, 2117.0, 2117.0, 2117.0, 2117.0, 2117.0, 2118.0, 2117.0, 2117.0, 2118.0, 2117.0, 2117.0, 2117.0, 2117.0, 2117.0, 2117.0, 2117.0, 2117.0, 2117.0, 2117.0, 2117.0, 2117.0, 2117.0, 2117.0, 2117.0, 2117.0, 2117.0, 2117.0, 2117.0, 2117.0, 2117.0, 2117.0, 2117.0, 2117.0, 2117.0, 2117.0, 2117.0, 2117.0, 2117.0]
    },
    "slices": {}
  }
}