{
  "AcquisitionMatrixPE": 80,
  "AcquisitionNumber": 1,
  "AcquisitionTime": "09:59:20.427500",
  "BandwidthPerPixelPhaseEncode": 25,
  "BaseResolution": 80,
  "BodyPartExamined": "BRAIN",
  "CoilCombinationMethod": "Sum of Squares",
  "ConsistencyInfo": "N4_VE11C_LATEST_20160120",
  "ConversionSoftware": "dcm2niix",
  "ConversionSoftwareVersion": "v1.0.20220720",
  "DerivedVendorReportedEchoSpacing": 0.0005,
  "DeviceSerialNumber": "66112",
  "DwellTime": 2.7e-06,
  "EchoTime": 0.03,
  "EchoTrainLength": 80,
  "EffectiveEchoSpacing": 0.0005,
  "FlipAngle": 77,
  "HeudiconvVersion": "0.13.1",
  "ImageOrientationPatientDICOM": [0.990907, 0.134246, 0.00901446, -0.130455, 0.942208, 0.308586],
  "ImageOrientationText": "Tra>Cor(17.9)>Sag(-1.9)",
  "ImageType": [
    "ORIGINAL",
    "PRIMARY",
    "M",
    "ND",
    "NORM",
    "MOSAIC"
],
  "ImagingFrequency": 123.252,
  "InPlanePhaseEncodingDirectionDICOM": "COL",
  "InstitutionAddress": "Maynard 3,Hanover,NH,US,03755",
  "InstitutionName": "Dartmouth College - PBS",
  "InstitutionalDepartmentName": "Department",
  "MRAcquisitionType": "2D",
  "MagneticFieldStrength": 3,
  "Manufacturer": "Siemens",
  "ManufacturersModelName": "Prisma",
  "MatrixCoilMode": "SENSE",
  "Modality": "MR",
  "NonlinearGradientCorrection": false,
  "PartialFourier": 1,
  "PatientPosition": "HFS",
  "PercentPhaseFOV": 100,
  "PercentSampling": 100,
  "PhaseEncodingDirection": "j-",
  "PhaseEncodingSteps": 80,
  "PhaseResolution": 1,
  "PixelBandwidth": 2315,
  "ProcedureStepDescription": "dbic^QA",
  "ProtocolName": "func-bold_fa-77",
  "PulseSequenceDetails": "%SiemensSeq%\\ep2d_bold",
  "ReceiveCoilActiveElements": "HEA;HEP",
  "ReceiveCoilName": "Head_32",
  "ReconMatrixPE": 80,
  "RepetitionTime": 2,
  "SAR": 0.0437446,
  "ScanOptions": "FS",
  "ScanningSequence": "EP",
  "SequenceName": "*epfid2d1_80",
  "SequenceVariant": "SK",
  "SeriesDescription": "func-bold_fa-77",
  "SeriesNumber": 8,
  "ShimSetting": [4143, -7701, -7513, 283, -82, -131, 21, 57],
  "SliceThickness": 3.5,
  "SliceTiming": [0.99, 0, 1.0575, 0.0675, 1.1225, 0.1325, 1.1875, 0.1975, 1.255, 0.265, 1.32, 0.33, 1.3875, 0.3975, 1.4525, 0.4625, 1.5175, 0.5275, 1.585, 0.595, 1.65, 0.66, 1.7175, 0.7275, 1.7825, 0.7925, 1.8475, 0.8575, 1.915, 0.925],
  "SoftwareVersions": "syngo MR E11",
  "SpacingBetweenSlices": 3.99,
  "StationName": "AWP66112",
  "TotalReadoutTime": 0.0395,
  "TxRefAmp": 220.418,
  "dcmmeta_affine": [
    [-2.9727210998535156, -0.39136606454849243, -0.13140229880809784, 136.56614685058594],
    [-0.40273720026016235, 2.8266239166259766, 1.224755883216858, -99.84783935546875],
    [0.02704336866736412, -0.9257590174674988, 3.795103073120117, -14.79875373840332],
    [0.0, 0.0, 0.0, 1.0]
],
  "dcmmeta_reorient_transform": [
    [0.0, -1.0, 0.0, 79.0],
    [1.0, 0.0, 0.0, 0.0],
    [0.0, 0.0, 1.0, 0.0],
    [0.0, 0.0, 0.0, 1.0]
],
  "dcmmeta_shape": [80, 80, 30, 200],
  "dcmmeta_slice_dim": 2,
  "dcmmeta_version": 0.6,
  "global": {
    "const": {
      "AccessionNumber": "qa",
      "AcquisitionMatrix": [80, 0, 0, 80],
      "AngioFlag": "N",
      "BitsAllocated": 16,
      "BitsStored": 12,
      "BodyPartExamined": "BRAIN",
      "Columns": 480,
      "EchoNumbers": 1,
      "EchoTime": 30.0,
      "EchoTrainLength": 80,
      "FlipAngle": 77.0,
      "HighBit": 11,
      "ImageOrientationPatient": [0.99090707072541, 0.13424573277901, 0.00901445600205, -0.1304553595895, 0.94220797674885, 0.30858633752195],
      "ImagePositionPatient": [-621.91925042946, -769.32767433525, -278.49419227844],
      "ImageType": [
        "ORIGINAL",
        "PRIMARY",
        "M",
        "ND",
        "NORM",
        "MOSAIC"
],
      "ImagedNucleus": "1H",
      "ImagingFrequency": 123.252322,
      "InPlanePhaseEncodingDirection": "COL",
      "MRAcquisitionType": "2D",
      "MagneticFieldStrength": 3.0,
      "Manufacturer": "SIEMENS",
      "ManufacturerModelName": "Prisma",
      "Modality": "MR",
      "NumberOfAverages": 1.0,
      "NumberOfPhaseEncodingSteps": 80,
      "PercentPhaseFieldOfView": 100.0,
      "PercentSampling": 100.0,
      "PerformedProcedureStepStartTime": "094212.217000",
      "PhotometricInterpretation": "MONOCHROME2",
      "PixelBandwidth": 2315.0,
      "PixelRepresentation": 0,
      "PixelSpacing": [3.0, 3.0],
      "ProtocolName": "func-bold_fa-77",
      "RepetitionTime": 2000.0,
      "Rows": 480,
      "SAR": 0.0437445909812,
      "SamplesPerPixel": 1,
      "ScanOptions": "FS",
      "ScanningSequence": "EP",
      "SequenceName": "*epfid2d1_80",
      "SequenceVariant": "SK",
      "SeriesDescription": "func-bold_fa-77",
      "SeriesNumber": 8,
      "SeriesTime": "100013.834000",
      "SliceLocation": -49.222339578087,
      "SliceThickness": 3.5,
      "SmallestImagePixelValue": 0,
      "SoftwareVersions": "syngo MR E11",
      "SpacingBetweenSlices": 3.9900000613053,
      "SpecificCharacterSet": "ISO_IR 100",
      "StudyID": "2",
      "StudyTime": "094212.171000",
      "TransmitCoilName": "Body",
      "VariableFlipAngleFlag": "N",
      "WindowCenterWidthExplanation": "Algo1",
      "dBdt": 0.0},
    "slices": {}
  },
  "time": {
    "samples": {
      "AcquisitionNumber": [1, 2, 3, 4, 5, 6, 7, 8, 9, 10, 11, 12, 13, 14, 15, 16, 17, 18, 19, 20, 21, 22, 23, 24, 25, 26, 27, 28, 29, 30, 31, 32, 33, 34, 35, 36, 37, 38, 39, 40, 41, 42, 43, 44, 45, 46, 47, 48, 49, 50, 51, 52, 53, 54, 55, 56, 57, 58, 59, 60, 61, 62, 63, 64, 65, 66, 67, 68, 69, 70, 71, 72, 73, 74, 75, 76, 77, 78, 79, 80, 81, 82, 83, 84, 85, 86, 87, 88, 89, 90, 91, 92, 93, 94, 95, 96, 97, 98, 99, 100, 101, 102, 103, 104, 105, 106, 107, 108, 109, 110, 111, 112, 113, 114, 115, 116, 117, 118, 119, 120, 121, 122, 123, 124, 125, 126, 127, 128, 129, 130, 131, 132, 133, 134, 135, 136, 137, 138, 139, 140, 141, 142, 143, 144, 145, 146, 147, 148, 149, 150, 151, 152, 153, 154, 155, 156, 157, 158, 159, 160, 161, 162, 163, 164, 165, 166, 167, 168, 169, 170, 171, 172, 173, 174, 175, 176, 177, 178, 179, 180, 181, 182, 183, 184, 185, 186, 187, 188, 189, 190, 191, 192, 193, 194, 195, 196, 197, 198, 199, 200],
      "AcquisitionTime": ["095920.427500", "095922.427500", "095924.427500", "095926.427500", "095928.427500", "095930.427500", "095932.427500", "095934.427500", "095936.427500", "095938.427500", "095940.427500", "095942.427500", "095944.427500", "095946.427500", "095948.427500", "095950.427500", "095952.427500", "095954.427500", "095956.427500", "095958.427500", "100000.427500", "100002.427500", "100004.427500", "100006.427500", "100008.427500", "100010.427500", "100012.427500", "100014.427500", "100016.427500", "100018.427500", "100020.427500", "100022.427500", "100024.427500", "100026.427500", "100028.427500", "100030.427500", "100032.427500", "100034.427500", "100036.427500", "100038.427500", "100040.427500", "100042.427500", "100044.427500", "100046.427500", "100048.427500", "100050.427500", "100052.427500", "100054.427500", "100056.427500", "100058.427500", "100100.427500", "100102.427500", "100104.427500", "100106.427500", "100108.427500", "100110.427500", "100112.427500", "100114.427500", "100116.427500", "100118.427500", "100120.427500", "100122.427500", "100124.427500", "100126.427500", "100128.427500", "100130.427500", "100132.427500", "100134.427500", "100136.427500", "100138.427500", "100140.427500", "100142.427500", "100144.427500", "100146.427500", "100148.427500", "100150.427500", "100152.427500", "100154.427500", "100156.427500", "100158.427500", "100200.427500", "100202.427500", "100204.427500", "100206.427500", "100208.427500", "100210.427500", "100212.427500", "100214.427500", "100216.427500", "100218.427500", "100220.427500", "100222.427500", "100224.427500", "100226.427500", "100228.427500", "100230.427500", "100232.427500", "100234.427500", "100236.427500", "100238.427500", "100240.427500", "100242.427500", "100244.427500", "100246.427500", "100248.427500", "100250.427500", "100252.427500", "100254.427500", "100256.427500", "100258.427500", "100300.427500", "100302.427500", "100304.427500", "100306.427500", "100308.427500", "100310.427500", "100312.427500", "100314.427500", "100316.427500", "100318.427500", "100320.427500", "100322.427500", "100324.427500", "100326.427500", "100328.427500", "100330.427500", "100332.427500", "100334.427500", "100336.427500", "100338.427500", "100340.427500", "100342.427500", "100344.427500", "100346.427500", "100348.427500", "100350.427500", "100352.427500", "100354.427500", "100356.427500", "100358.427500", "100400.427500", "100402.427500", "100404.427500", "100406.427500", "100408.427500", "100410.427500", "100412.427500", "100414.427500", "100416.427500", "100418.427500", "100420.427500", "100422.427500", "100424.427500", "100426.427500", "100428.427500", "100430.427500", "100432.427500", "100434.427500", "100436.427500", "100438.427500", "100440.427500", "100442.427500", "100444.427500", "100446.427500", "100448.427500", "100450.427500", "100452.427500", "100454.427500", "100456.427500", "100458.427500", "100500.427500", "100502.427500", "100504.427500", "100506.427500", "100508.427500", "100510.427500", "100512.427500", "100514.427500", "100516.427500", "100518.427500", "100520.427500", "100522.427500", "100524.427500", "100526.427500", "100528.427500", "100530.427500", "100532.427500", "100534.427500", "100536.427500", "100538.427500", "100540.427500", "100542.427500", "100544.427500", "100546.427500", "100548.427500", "100550.427500", "100552.427500", "100554.427500", "100556.427500", "100558.427500"],
      "ContentTime": ["100013.837000", "100013.841000", "100013.843000", "100013.846000", "100013.849000", "100013.851000", "100013.853000", "100013.856000", "100013.859000", "100013.861000", "100013.863000", "100013.866000", "100013.868000", "100013.871000", "100013.873000", "100013.876000", "100013.878000", "100013.881000", "100013.883000", "100013.886000", "100013.888000", "100013.891000", "100013.893000", "100013.896000", "100013.898000", "100013.900000", "100013.903000", "100053.833000", "100053.836000", "100053.839000", "100053.841000", "100053.844000", "100053.846000", "100053.848000", "100053.851000", "100053.853000", "100053.856000", "100053.859000", "100053.861000", "100053.863000", "100053.866000", "100053.868000", "100053.871000", "100053.873000", "100053.876000", "100053.878000", "100053.881000", "100133.833000", "100133.836000", "100133.839000", "100133.841000", "100133.844000", "100133.846000", "100133.849000", "100133.851000", "100133.854000", "100133.856000", "100133.859000", "100133.861000", "100133.864000", "100133.866000", "100133.869000", "100133.871000", "100133.874000", "100133.876000", "100133.879000", "100133.881000", "100213.832000", "100213.835000", "100213.838000", "100213.840000", "100213.843000", "100213.845000", "100213.847000", "100213.850000", "100213.852000", "100213.855000", "100213.857000", "100213.860000", "100213.862000", "100213.865000", "100213.867000", "100213.870000", "100213.872000", "100213.875000", "100213.877000", "100213.879000", "100253.833000", "100253.925000", "100253.927000", "100253.929000", "100253.932000", "100253.934000", "100253.937000", "100253.939000", "100253.942000", "100253.944000", "100253.947000", "100253.949000", "100253.952000", "100253.954000", "100253.957000", "100253.959000", "100253.962000", "100253.964000", "100253.967000", "100253.969000", "100333.834000", "100333.836000", "100333.839000", "100333.841000", "100333.844000", "100333.846000", "100333.849000", "100333.851000", "100333.854000", "100333.856000", "100333.859000", "100333.861000", "100333.864000", "100333.866000", "100333.869000", "100333.871000", "100333.874000", "100333.876000", "100333.879000", "100333.881000", "100413.832000", "100413.835000", "100413.838000", "100413.840000", "100413.843000", "100413.845000", "100413.848000", "100413.850000", "100413.853000", "100413.855000", "100413.857000", "100413.860000", "100413.862000", "100413.865000", "100413.867000", "100413.870000", "100413.872000", "100413.875000", "100413.877000", "100413.880000", "100453.832000", "100453.835000", "100453.838000", "100453.840000", "100453.843000", "100453.845000", "100453.848000", "100453.850000", "100453.853000", "100453.855000", "100453.857000", "100453.860000", "100453.862000", "100453.865000", "100453.867000", "100453.870000", "100453.872000", "100453.875000", "100453.877000", "100453.880000", "100533.833000", "100533.836000", "100533.839000", "100533.841000", "100533.844000", "100533.846000", "100533.849000", "100533.851000", "100533.854000", "100533.856000", "100533.859000", "100533.861000", "100533.864000", "100533.866000", "100533.869000", "100533.871000", "100533.874000", "100533.876000", "100533.878000", "100533.881000", "100559.554000", "100559.557000", "100559.559000", "100559.562000", "100559.564000", "100559.567000", "100559.569000", "100559.572000", "100559.575000", "100559.577000", "100559.579000", "100559.582000", "100559.586000"],
      "InstanceCreationTime": ["100013.837000", "100013.841000", "100013.843000", "100013.846000", "100013.849000", "100013.851000", "100013.853000", "100013.856000", "100013.859000", "100013.861000", "100013.863000", "100013.866000", "100013.868000", "100013.871000", "100013.873000", "100013.876000", "100013.878000", "100013.881000", "100013.883000", "100013.886000", "100013.888000", "100013.891000", "100013.893000", "100013.896000", "100013.898000", "100013.900000", "100013.903000", "100053.833000", "100053.836000", "100053.839000", "100053.841000", "100053.844000", "100053.846000", "100053.848000", "100053.851000", "100053.853000", "100053.856000", "100053.859000", "100053.861000", "100053.863000", "100053.866000", "100053.868000", "100053.871000", "100053.873000", "100053.876000", "100053.878000", "100053.881000", "100133.833000", "100133.836000", "100133.839000", "100133.841000", "100133.844000", "100133.846000", "100133.849000", "100133.851000", "100133.854000", "100133.856000", "100133.859000", "100133.861000", "100133.864000", "100133.866000", "100133.869000", "100133.871000", "100133.874000", "100133.876000", "100133.879000", "100133.881000", "100213.832000", "100213.835000", "100213.838000", "100213.840000", "100213.843000", "100213.845000", "100213.847000", "100213.850000", "100213.852000", "100213.855000", "100213.857000", "100213.860000", "100213.862000", "100213.865000", "100213.867000", "100213.870000", "100213.872000", "100213.875000", "100213.877000", "100213.879000", "100253.833000", "100253.925000", "100253.927000", "100253.929000", "100253.932000", "100253.934000", "100253.937000", "100253.939000", "100253.942000", "100253.944000", "100253.947000", "100253.949000", "100253.952000", "100253.954000", "100253.957000", "100253.959000", "100253.962000", "100253.964000", "100253.967000", "100253.969000", "100333.834000", "100333.836000", "100333.839000", "100333.841000", "100333.844000", "100333.846000", "100333.849000", "100333.851000", "100333.854000", "100333.856000", "100333.859000", "100333.861000", "100333.864000", "100333.866000", "100333.869000", "100333.871000", "100333.874000", "100333.876000", "100333.879000", "100333.881000", "100413.832000", "100413.835000", "100413.838000", "100413.840000", "100413.843000", "100413.845000", "100413.848000", "100413.850000", "100413.853000", "100413.855000", "100413.857000", "100413.860000", "100413.862000", "100413.865000", "100413.867000", "100413.870000", "100413.872000", "100413.875000", "100413.877000", "100413.880000", "100453.832000", "100453.835000", "100453.838000", "100453.840000", "100453.843000", "100453.845000", "100453.848000", "100453.850000", "100453.853000", "100453.855000", "100453.857000", "100453.860000", "100453.862000", "100453.865000", "100453.867000", "100453.870000", "100453.872000", "100453.875000", "100453.877000", "100453.880000", "100533.833000", "100533.836000", "100533.839000", "100533.841000", "100533.844000", "100533.846000", "100533.849000", "100533.851000", "100533.854000", "100533.856000", "100533.859000", "100533.861000", "100533.864000", "100533.866000", "100533.869000", "100533.871000", "100533.874000", "100533.876000", "100533.878000", "100533.881000", "100559.554000", "100559.557000", "100559.559000", "100559.562000", "100559.564000", "100559.567000", "100559.569000", "100559.572000", "100559.575000", "100559.577000", "100559.579000", "100559.582000", "100559.586000"],
      "InstanceNumber": [1, 2, 3, 4, 5, 6, 7, 8, 9, 10, 11, 12, 13, 14, 15, 16, 17, 18, 19, 20, 21, 22, 23, 24, 25, 26, 27, 28, 29, 30, 31, 32, 33, 34, 35, 36, 37, 38, 39, 40, 41, 42, 43, 44, 45, 46, 47, 48, 49, 50, 51, 52, 53, 54, 55, 56, 57, 58, 59, 60, 61, 62, 63, 64, 65, 66, 67, 68, 69, 70, 71, 72, 73, 74, 75, 76, 77, 78, 79, 80, 81, 82, 83, 84, 85, 86, 87, 88, 89, 90, 91, 92, 93, 94, 95, 96, 97, 98, 99, 100, 101, 102, 103, 104, 105, 106, 107, 108, 109, 110, 111, 112, 113, 114, 115, 116, 117, 118, 119, 120, 121, 122, 123, 124, 125, 126, 127, 128, 129, 130, 131, 132, 133, 134, 135, 136, 137, 138, 139, 140, 141, 142, 143, 144, 145, 146, 147, 148, 149, 150, 151, 152, 153, 154, 155, 156, 157, 158, 159, 160, 161, 162, 163, 164, 165, 166, 167, 168, 169, 170, 171, 172, 173, 174, 175, 176, 177, 178, 179, 180, 181, 182, 183, 184, 185, 186, 187, 188, 189, 190, 191, 192, 193, 194, 195, 196, 197, 198, 199, 200],
      "LargestImagePixelValue": [1969, 1970, 1968, 1969, 1972, 1970, 1970, 1970, 1970, 1970, 1970, 1969, 1967, 1969, 1968, 1971, 1970, 1969, 1969, 1970, 1970, 1969, 1968, 1967, 1970, 1971, 1971, 1969, 1970, 1971, 1968, 1968, 1971, 1969, 1968, 1970, 1969, 1968, 1968, 1968, 1967, 1967, 1968, 1972, 1968, 1967, 1967, 1969, 1968, 1967, 1969, 1967, 1970, 1967, 1968, 1968, 1968, 1968, 1968, 1969, 1970, 1967, 1967, 1968, 1969, 1969, 1967, 1969, 1969, 1968, 1970, 1967, 1968, 1968, 1967, 1968, 1967, 1968, 1969, 1968, 1968, 1969, 1967, 1967, 1968, 1968, 1967, 1968, 1968, 1970, 1968, 1969, 1966, 1967, 1967, 1968, 1968, 1967, 1966, 1967, 1967, 1967, 1967, 1963, 1966, 1966, 1967, 1965, 1966, 1966, 1967, 1967, 1966, 1968, 1966, 1968, 1967, 1964, 1967, 1968, 1967, 1966, 1967, 1965, 1966, 1965, 1964, 1966, 1967, 1968, 1967, 1966, 1968, 1966, 1967, 1966, 1965, 1967, 1967, 1965, 1967, 1966, 1966, 1965, 1965, 1967, 1964, 1962, 1967, 1965, 1966, 1965, 1968, 1966, 1966, 1964, 1964, 1965, 1964, 1966, 1966, 1968, 1964, 1965, 1965, 1963, 1965, 1966, 1966, 1964, 1963, 1963, 1964, 1964, 1965, 1968, 1965, 1967, 1966, 1966, 1966, 1967, 1966, 1964, 1967, 1966, 1966, 1967, 1964, 1966, 1965, 1966, 1963, 1964, 1964, 1965, 1964, 1963, 1966, 1963],
      "WindowCenter": [981.0, 981.0, 981.0, 981.0, 981.0, 981.0, 980.0, 979.0, 981.0, 980.0, 981.0, 980.0, 981.0, 981.0, 980.0, 981.0, 981.0, 980.0, 980.0, 981.0, 980.0, 980.0, 980.0, 981.0, 980.0, 980.0, 980.0, 981.0, 981.0, 980.0, 980.0, 980.0, 980.0, 979.0, 981.0, 980.0, 981.0, 981.0, 980.0, 979.0, 980.0, 981.0, 981.0, 980.0, 981.0, 980.0, 980.0, 980.0, 980.0, 981.0, 981.0, 981.0, 980.0, 980.0, 980.0, 981.0, 980.0, 980.0, 980.0, 980.0, 981.0, 980.0, 980.0, 981.0, 981.0, 980.0, 981.0, 981.0, 980.0, 980.0, 980.0, 980.0, 980.0, 980.0, 980.0, 980.0, 980.0, 979.0, 981.0, 980.0, 980.0, 981.0, 981.0, 980.0, 980.0, 980.0, 980.0, 981.0, 981.0, 980.0, 980.0, 980.0, 980.0, 980.0, 980.0, 980.0, 981.0, 980.0, 981.0, 980.0, 980.0, 980.0, 980.0, 980.0, 980.0, 980.0, 980.0, 980.0, 980.0, 980.0, 980.0, 980.0, 980.0, 980.0, 980.0, 980.0, 980.0, 980.0, 980.0, 980.0, 978.0, 980.0, 979.0, 980.0, 980.0, 980.0, 979.0, 979.0, 980.0, 979.0, 978.0, 980.0, 979.0, 980.0, 979.0, 980.0, 979.0, 979.0, 980.0, 980.0, 980.0, 979.0, 979.0, 979.0, 979.0, 979.0, 979.0, 980.0, 979.0, 979.0, 979.0, 979.0, 979.0, 979.0, 980.0, 979.0, 980.0, 979.0, 980.0, 980.0, 979.0, 979.0, 980.0, 980.0, 979.0, 978.0, 979.0, 980.0, 979.0, 979.0, 979.0, 980.0, 979.0, 979.0, 979.0, 980.0, 980.0, 979.0, 979.0, 979.0, 980.0, 980.0, 979.0, 979.0, 980.0, 980.0, 979.0, 980.0, 980.0, 980.0, 979.0, 979.0, 979.0, 979.0, 980.0, 980.0, 979.0, 979.0, 980.0, 979.0],
      "WindowWidth": [2154.0, 2154.0, 2154.0, 2155.0, 2155.0, 2155.0, 2154.0, 2152.0, 2154.0, 2153.0, 2154.0, 2153.0, 2154.0, 2154.0, 2153.0, 2154.0, 2154.0, 2153.0, 2153.0, 2154.0, 2153.0, 2153.0, 2153.0, 2154.0, 2153.0, 2153.0, 2153.0, 2154.0, 2154.0, 2153.0, 2153.0, 2153.0, 2153.0, 2152.0, 2154.0, 2153.0, 2154.0, 2153.0, 2153.0, 2152.0, 2153.0, 2153.0, 2153.0, 2153.0, 2153.0, 2153.0, 2153.0, 2153.0, 2153.0, 2153.0, 2153.0, 2153.0, 2153.0, 2153.0, 2153.0, 2153.0, 2153.0, 2153.0, 2153.0, 2153.0, 2153.0, 2153.0, 2153.0, 2153.0, 2153.0, 2153.0, 2153.0, 2153.0, 2153.0, 2153.0, 2152.0, 2153.0, 2153.0, 2152.0, 2152.0, 2152.0, 2153.0, 2152.0, 2153.0, 2152.0, 2152.0, 2153.0, 2153.0, 2152.0, 2152.0, 2152.0, 2152.0, 2153.0, 2153.0, 2152.0, 2152.0, 2152.0, 2152.0, 2152.0, 2153.0, 2152.0, 2153.0, 2152.0, 2153.0, 2153.0, 2152.0, 2152.0, 2152.0, 2152.0, 2152.0, 2152.0, 2152.0, 2152.0, 2152.0, 2152.0, 2152.0, 2152.0, 2152.0, 2152.0, 2152.0, 2152.0, 2152.0, 2152.0, 2152.0, 2152.0, 2150.0, 2152.0, 2152.0, 2152.0, 2152.0, 2152.0, 2151.0, 2152.0, 2152.0, 2151.0, 2150.0, 2152.0, 2151.0, 2152.0, 2151.0, 2152.0, 2152.0, 2152.0, 2152.0, 2152.0, 2152.0, 2151.0, 2151.0, 2151.0, 2151.0, 2151.0, 2151.0, 2152.0, 2151.0, 2151.0, 2151.0, 2151.0, 2151.0, 2151.0, 2152.0, 2151.0, 2152.0, 2151.0, 2152.0, 2152.0, 2151.0, 2151.0, 2152.0, 2152.0, 2151.0, 2150.0, 2151.0, 2152.0, 2151.0, 2151.0, 2151.0, 2152.0, 2151.0, 2151.0, 2151.0, 2152.0, 2152.0, 2151.0, 2151.0, 2151.0, 2152.0, 2152.0, 2151.0, 2151.0, 2152.0, 2152.0, 2151.0, 2152.0, 2152.0, 2152.0, 2151.0, 2151.0, 2151.0, 2151.0, 2151.0, 2152.0, 2151.0, 2151.0, 2151.0, 2151.0]
    },
    "slices": {}
  }
}