{
  "AcquisitionMatrixPE": 80,
  "AcquisitionNumber": 1,
  "AcquisitionTime": "09:43:56.467500",
  "BandwidthPerPixelPhaseEncode": 48.077,
  "BaseResolution": 80,
  "BodyPartExamined": "BRAIN",
  "CoilCombinationMethod": "Sum of Squares",
  "ConsistencyInfo": "N4_VE11C_LATEST_20160120",
  "ConversionSoftware": "dcm2niix",
  "ConversionSoftwareVersion": "v1.0.20220720",
  "DerivedVendorReportedEchoSpacing": 0.000519999,
  "DeviceSerialNumber": "66112",
  "DwellTime": 2.7e-06,
  "EchoTime": 0.035,
  "EchoTrainLength": 39,
  "EffectiveEchoSpacing": 0.00026,
  "FlipAngle": 90,
  "HeudiconvVersion": "0.13.1",
  "ImageOrientationPatientDICOM": [0.990907, 0.134246, 0.00901446, -0.130455, 0.942208, 0.308586],
  "ImageOrientationText": "Tra>Cor(17.9)>Sag(-1.9)",
  "ImageType": [
    "ORIGINAL",
    "PRIMARY",
    "M",
    "ND",
    "NORM",
    "MOSAIC"
],
  "ImagingFrequency": 123.252,
  "InPlanePhaseEncodingDirectionDICOM": "COL",
  "InstitutionAddress": "Maynard 3,Hanover,NH,US,03755",
  "InstitutionName": "Dartmouth College - PBS",
  "InstitutionalDepartmentName": "Department",
  "MRAcquisitionType": "2D",
  "MagneticFieldStrength": 3,
  "Manufacturer": "Siemens",
  "ManufacturersModelName": "Prisma",
  "MatrixCoilMode": "GRAPPA",
  "Modality": "MR",
  "NonlinearGradientCorrection": false,
  "ParallelReductionFactorInPlane": 2,
  "PartialFourier": 1,
  "PatientPosition": "HFS",
  "PercentPhaseFOV": 100,
  "PercentSampling": 100,
  "PhaseEncodingDirection": "j-",
  "PhaseEncodingSteps": 79,
  "PhaseResolution": 1,
  "PixelBandwidth": 2315,
  "ProcedureStepDescription": "dbic^QA",
  "ProtocolName": "func-bold_task-rest_acq-p2",
  "PulseSequenceDetails": "%SiemensSeq%\\ep2d_bold",
  "ReceiveCoilActiveElements": "HEA;HEP",
  "ReceiveCoilName": "Head_32",
  "ReconMatrixPE": 80,
  "RefLinesPE": 24,
  "RepetitionTime": 2,
  "SAR": 0.0556653,
  "ScanOptions": "FS",
  "ScanningSequence": "EP",
  "SequenceName": "*epfid2d1_80",
  "SequenceVariant": "SK",
  "SeriesDescription": "func-bold_task-rest_acq-p2",
  "SeriesNumber": 5,
  "ShimSetting": [4143, -7701, -7513, 283, -81, -138, 16, 58],
  "SliceThickness": 3.5,
  "SliceTiming": [0.99, 0, 1.0575, 0.0675, 1.1225, 0.1325, 1.1875, 0.2, 1.255, 0.265, 1.32, 0.33, 1.3875, 0.3975, 1.4525, 0.4625, 1.5175, 0.53, 1.585, 0.595, 1.65, 0.66, 1.7175, 0.7275, 1.7825, 0.7925, 1.8475, 0.8575, 1.915, 0.925],
  "SoftwareVersions": "syngo MR E11",
  "SpacingBetweenSlices": 3.99,
  "StationName": "AWP66112",
  "TaskName": "rest",
  "TotalReadoutTime": 0.02054,
  "TxRefAmp": 220.418,
  "dcmmeta_affine": [
    [-2.9727210998535156, -0.39136606454849243, -0.13140229880809784, 136.65122985839844],
    [-0.40273720026016235, 2.8266239166259766, 1.224755883216858, -100.8161392211914],
    [0.02704336866736412, -0.9257590174674988, 3.795103073120117, -19.869131088256836],
    [0.0, 0.0, 0.0, 1.0]
],
  "dcmmeta_reorient_transform": [
    [0.0, -1.0, 0.0, 79.0],
    [1.0, 0.0, 0.0, 0.0],
    [0.0, 0.0, 1.0, 0.0],
    [0.0, 0.0, 0.0, 1.0]
],
  "dcmmeta_shape": [80, 80, 30, 200],
  "dcmmeta_slice_dim": 2,
  "dcmmeta_version": 0.6,
  "global": {
    "const": {
      "AccessionNumber": "qa",
      "AcquisitionMatrix": [80, 0, 0, 80],
      "AngioFlag": "N",
      "BitsAllocated": 16,
      "BitsStored": 12,
      "BodyPartExamined": "BRAIN",
      "Columns": 480,
      "EchoNumbers": 1,
      "EchoTime": 35.0,
      "EchoTrainLength": 39,
      "FlipAngle": 90.0,
      "HighBit": 11,
      "ImageOrientationPatient": [0.99090707072541, 0.13424573277901, 0.00901445600205, -0.1304553595895, 0.94220797674885, 0.30858633752195],
      "ImagePositionPatient": [-622.00433462937, -768.35938019157, -283.56456962829],
      "ImageType": [
        "ORIGINAL",
        "PRIMARY",
        "M",
        "ND",
        "NORM",
        "MOSAIC"
],
      "ImagedNucleus": "1H",
      "ImagingFrequency": 123.252325,
      "InPlanePhaseEncodingDirection": "COL",
      "MRAcquisitionType": "2D",
      "MagneticFieldStrength": 3.0,
      "Manufacturer": "SIEMENS",
      "ManufacturerModelName": "Prisma",
      "Modality": "MR",
      "NumberOfAverages": 1.0,
      "NumberOfPhaseEncodingSteps": 79,
      "PercentPhaseFieldOfView": 100.0,
      "PercentSampling": 100.0,
      "PerformedProcedureStepStartTime": "094212.217000",
      "PhotometricInterpretation": "MONOCHROME2",
      "PixelBandwidth": 2315.0,
      "PixelRepresentation": 0,
      "PixelSpacing": [3.0, 3.0],
      "ProtocolName": "func-bold_task-rest_acq-p2",
      "RepetitionTime": 2000.0,
      "Rows": 480,
      "SAR": 0.05566532698696,
      "SamplesPerPixel": 1,
      "ScanOptions": "FS",
      "ScanningSequence": "EP",
      "SequenceName": "*epfid2d1_80",
      "SequenceVariant": "SK",
      "SeriesDescription": "func-bold_task-rest_acq-p2",
      "SeriesNumber": 5,
      "SeriesTime": "094453.905000",
      "SliceLocation": -54.34507348066,
      "SliceThickness": 3.5,
      "SmallestImagePixelValue": 0,
      "SoftwareVersions": "syngo MR E11",
      "SpacingBetweenSlices": 3.9900000613053,
      "SpecificCharacterSet": "ISO_IR 100",
      "StudyID": "2",
      "StudyTime": "094212.171000",
      "TransmitCoilName": "Body",
      "VariableFlipAngleFlag": "N",
      "WindowCenterWidthExplanation": "Algo1",
      "dBdt": 0.0},
    "slices": {}
  },
  "time": {
    "samples": {
      "AcquisitionNumber": [1, 2, 3, 4, 5, 6, 7, 8, 9, 10, 11, 12, 13, 14, 15, 16, 17, 18, 19, 20, 21, 22, 23, 24, 25, 26, 27, 28, 29, 30, 31, 32, 33, 34, 35, 36, 37, 38, 39, 40, 41, 42, 43, 44, 45, 46, 47, 48, 49, 50, 51, 52, 53, 54, 55, 56, 57, 58, 59, 60, 61, 62, 63, 64, 65, 66, 67, 68, 69, 70, 71, 72, 73, 74, 75, 76, 77, 78, 79, 80, 81, 82, 83, 84, 85, 86, 87, 88, 89, 90, 91, 92, 93, 94, 95, 96, 97, 98, 99, 100, 101, 102, 103, 104, 105, 106, 107, 108, 109, 110, 111, 112, 113, 114, 115, 116, 117, 118, 119, 120, 121, 122, 123, 124, 125, 126, 127, 128, 129, 130, 131, 132, 133, 134, 135, 136, 137, 138, 139, 140, 141, 142, 143, 144, 145, 146, 147, 148, 149, 150, 151, 152, 153, 154, 155, 156, 157, 158, 159, 160, 161, 162, 163, 164, 165, 166, 167, 168, 169, 170, 171, 172, 173, 174, 175, 176, 177, 178, 179, 180, 181, 182, 183, 184, 185, 186, 187, 188, 189, 190, 191, 192, 193, 194, 195, 196, 197, 198, 199, 200],
      "AcquisitionTime": ["094356.467500", "094358.467500", "094400.467500", "094402.467500", "094404.467500", "094406.467500", "094408.467500", "094410.467500", "094412.467500", "094414.467500", "094416.467500", "094418.467500", "094420.467500", "094422.467500", "094424.467500", "094426.467500", "094428.467500", "094430.467500", "094432.467500", "094434.467500", "094436.467500", "094438.467500", "094440.467500", "094442.467500", "094444.467500", "094446.467500", "094448.467500", "094450.467500", "094452.467500", "094454.467500", "094456.467500", "094458.467500", "094500.467500", "094502.467500", "094504.467500", "094506.467500", "094508.467500", "094510.467500", "094512.467500", "094514.467500", "094516.467500", "094518.467500", "094520.467500", "094522.467500", "094524.467500", "094526.467500", "094528.467500", "094530.467500", "094532.467500", "094534.467500", "094536.467500", "094538.467500", "094540.467500", "094542.467500", "094544.467500", "094546.467500", "094548.467500", "094550.467500", "094552.467500", "094554.467500", "094556.467500", "094558.467500", "094600.467500", "094602.467500", "094604.467500", "094606.467500", "094608.467500", "094610.467500", "094612.467500", "094614.467500", "094616.467500", "094618.467500", "094620.467500", "094622.467500", "094624.467500", "094626.467500", "094628.467500", "094630.467500", "094632.467500", "094634.467500", "094636.467500", "094638.467500", "094640.467500", "094642.467500", "094644.467500", "094646.467500", "094648.467500", "094650.467500", "094652.467500", "094654.467500", "094656.467500", "094658.467500", "094700.467500", "094702.467500", "094704.467500", "094706.467500", "094708.467500", "094710.467500", "094712.467500", "094714.467500", "094716.467500", "094718.467500", "094720.467500", "094722.467500", "094724.467500", "094726.467500", "094728.467500", "094730.467500", "094732.467500", "094734.467500", "094736.467500", "094738.467500", "094740.467500", "094742.467500", "094744.467500", "094746.467500", "094748.467500", "094750.467500", "094752.467500", "094754.467500", "094756.467500", "094758.467500", "094800.467500", "094802.467500", "094804.467500", "094806.467500", "094808.467500", "094810.467500", "094812.467500", "094814.467500", "094816.467500", "094818.467500", "094820.467500", "094822.467500", "094824.467500", "094826.467500", "094828.467500", "094830.467500", "094832.467500", "094834.467500", "094836.467500", "094838.467500", "094840.467500", "094842.467500", "094844.467500", "094846.467500", "094848.467500", "094850.467500", "094852.467500", "094854.467500", "094856.467500", "094858.467500", "094900.467500", "094902.467500", "094904.467500", "094906.467500", "094908.467500", "094910.467500", "094912.467500", "094914.467500", "094916.467500", "094918.467500", "094920.467500", "094922.467500", "094924.467500", "094926.467500", "094928.467500", "094930.467500", "094932.467500", "094934.467500", "094936.467500", "094938.467500", "094940.467500", "094942.467500", "094944.467500", "094946.467500", "094948.467500", "094950.467500", "094952.467500", "094954.467500", "094956.467500", "094958.467500", "095000.467500", "095002.467500", "095004.467500", "095006.467500", "095008.467500", "095010.467500", "095012.467500", "095014.467500", "095016.467500", "095018.467500", "095020.467500", "095022.467500", "095024.467500", "095026.467500", "095028.467500", "095030.467500", "095032.467500", "095034.467500"],
      "ContentTime": ["094453.908000", "094453.912000", "094453.914000", "094453.917000", "094453.919000", "094453.922000", "094453.924000", "094453.927000", "094453.929000", "094453.932000", "094453.934000", "094453.937000", "094453.939000", "094453.942000", "094453.944000", "094453.947000", "094453.949000", "094453.952000", "094453.954000", "094453.957000", "094453.959000", "094453.962000", "094453.964000", "094453.974000", "094453.977000", "094453.979000", "094453.982000", "094453.984000", "094453.987000", "094533.902000", "094533.905000", "094533.908000", "094533.910000", "094533.913000", "094533.915000", "094533.918000", "094533.921000", "094533.923000", "094533.986000", "094533.988000", "094533.991000", "094533.993000", "094533.996000", "094533.998000", "094534.002000", "094534.004000", "094534.007000", "094534.009000", "094534.012000", "094613.902000", "094613.905000", "094613.908000", "094613.910000", "094613.912000", "094613.915000", "094613.918000", "094613.920000", "094613.923000", "094613.925000", "094613.928000", "094613.930000", "094613.933000", "094613.935000", "094613.938000", "094613.940000", "094613.943000", "094613.945000", "094613.948000", "094613.950000", "094653.903000", "094653.906000", "094653.909000", "094653.911000", "094653.914000", "094653.916000", "094653.919000", "094653.921000", "094653.924000", "094653.927000", "094653.940000", "094653.942000", "094653.945000", "094653.947000", "094653.950000", "094653.952000", "094653.955000", "094653.957000", "094653.960000", "094653.962000", "094733.903000", "094733.906000", "094733.909000", "094733.911000", "094733.914000", "094733.916000", "094733.919000", "094733.921000", "094733.924000", "094733.926000", "094733.929000", "094733.931000", "094733.934000", "094733.936000", "094733.939000", "094733.941000", "094733.944000", "094733.946000", "094733.949000", "094733.951000", "094813.902000", "094813.905000", "094813.908000", "094813.910000", "094813.913000", "094813.915000", "094813.918000", "094813.920000", "094813.923000", "094813.925000", "094813.928000", "094813.930000", "094813.933000", "094813.935000", "094813.938000", "094813.940000", "094813.943000", "094813.945000", "094813.948000", "094813.950000", "094833.903000", "094833.905000", "094833.908000", "094833.910000", "094833.920000", "094833.922000", "094833.925000", "094833.927000", "094833.930000", "094833.932000", "094913.903000", "094913.906000", "094913.909000", "094913.911000", "094913.914000", "094913.916000", "094913.919000", "094913.921000", "094913.924000", "094913.926000", "094913.929000", "094913.931000", "094913.934000", "094913.936000", "094913.939000", "094913.941000", "094913.944000", "094913.946000", "094913.949000", "094913.951000", "094953.903000", "094953.906000", "094953.909000", "094953.911000", "094953.914000", "094953.916000", "094953.919000", "094953.921000", "094953.924000", "094953.926000", "094953.929000", "094953.931000", "094953.934000", "094953.936000", "094953.939000", "094953.941000", "094953.944000", "094953.946000", "094953.949000", "094953.951000", "095033.902000", "095033.905000", "095033.908000", "095033.910000", "095033.913000", "095033.915000", "095033.918000", "095033.920000", "095033.923000", "095033.925000", "095033.928000", "095033.930000", "095033.933000", "095033.935000", "095033.938000", "095033.940000", "095033.943000", "095033.945000", "095033.948000", "095033.950000", "095035.756000"],
      "InstanceCreationTime": ["094453.908000", "094453.912000", "094453.914000", "094453.917000", "094453.919000", "094453.922000", "094453.924000", "094453.927000", "094453.929000", "094453.932000", "094453.934000", "094453.937000", "094453.939000", "094453.942000", "094453.944000", "094453.947000", "094453.949000", "094453.952000", "094453.954000", "094453.957000", "094453.959000", "094453.962000", "094453.964000", "094453.974000", "094453.977000", "094453.979000", "094453.982000", "094453.984000", "094453.987000", "094533.902000", "094533.905000", "094533.908000", "094533.910000", "094533.913000", "094533.915000", "094533.918000", "094533.921000", "094533.923000", "094533.986000", "094533.988000", "094533.991000", "094533.993000", "094533.996000", "094533.998000", "094534.002000", "094534.004000", "094534.007000", "094534.009000", "094534.012000", "094613.902000", "094613.905000", "094613.908000", "094613.910000", "094613.912000", "094613.915000", "094613.918000", "094613.920000", "094613.923000", "094613.925000", "094613.928000", "094613.930000", "094613.933000", "094613.935000", "094613.938000", "094613.940000", "094613.943000", "094613.945000", "094613.948000", "094613.950000", "094653.903000", "094653.906000", "094653.909000", "094653.911000", "094653.914000", "094653.916000", "094653.919000", "094653.921000", "094653.924000", "094653.927000", "094653.940000", "094653.942000", "094653.945000", "094653.947000", "094653.950000", "094653.952000", "094653.955000", "094653.957000", "094653.960000", "094653.962000", "094733.903000", "094733.906000", "094733.909000", "094733.911000", "094733.914000", "094733.916000", "094733.919000", "094733.921000", "094733.924000", "094733.926000", "094733.929000", "094733.931000", "094733.934000", "094733.936000", "094733.939000", "094733.941000", "094733.944000", "094733.946000", "094733.949000", "094733.951000", "094813.902000", "094813.905000", "094813.908000", "094813.910000", "094813.913000", "094813.915000", "094813.918000", "094813.920000", "094813.923000", "094813.925000", "094813.928000", "094813.930000", "094813.933000", "094813.935000", "094813.938000", "094813.940000", "094813.943000", "094813.945000", "094813.948000", "094813.950000", "094833.903000", "094833.905000", "094833.908000", "094833.910000", "094833.920000", "094833.922000", "094833.925000", "094833.927000", "094833.930000", "094833.932000", "094913.903000", "094913.906000", "094913.909000", "094913.911000", "094913.914000", "094913.916000", "094913.919000", "094913.921000", "094913.924000", "094913.926000", "094913.929000", "094913.931000", "094913.934000", "094913.936000", "094913.939000", "094913.941000", "094913.944000", "094913.946000", "094913.949000", "094913.951000", "094953.903000", "094953.906000", "094953.909000", "094953.911000", "094953.914000", "094953.916000", "094953.919000", "094953.921000", "094953.924000", "094953.926000", "094953.929000", "094953.931000", "094953.934000", "094953.936000", "094953.939000", "094953.941000", "094953.944000", "094953.946000", "094953.949000", "094953.951000", "095033.902000", "095033.905000", "095033.908000", "095033.910000", "095033.913000", "095033.915000", "095033.918000", "095033.920000", "095033.923000", "095033.925000", "095033.928000", "095033.930000", "095033.933000", "095033.935000", "095033.938000", "095033.940000", "095033.943000", "095033.945000", "095033.948000", "095033.950000", "095035.756000"],
      "InstanceNumber": [1, 2, 3, 4, 5, 6, 7, 8, 9, 10, 11, 12, 13, 14, 15, 16, 17, 18, 19, 20, 21, 22, 23, 24, 25, 26, 27, 28, 29, 30, 31, 32, 33, 34, 35, 36, 37, 38, 39, 40, 41, 42, 43, 44, 45, 46, 47, 48, 49, 50, 51, 52, 53, 54, 55, 56, 57, 58, 59, 60, 61, 62, 63, 64, 65, 66, 67, 68, 69, 70, 71, 72, 73, 74, 75, 76, 77, 78, 79, 80, 81, 82, 83, 84, 85, 86, 87, 88, 89, 90, 91, 92, 93, 94, 95, 96, 97, 98, 99, 100, 101, 102, 103, 104, 105, 106, 107, 108, 109, 110, 111, 112, 113, 114, 115, 116, 117, 118, 119, 120, 121, 122, 123, 124, 125, 126, 127, 128, 129, 130, 131, 132, 133, 134, 135, 136, 137, 138, 139, 140, 141, 142, 143, 144, 145, 146, 147, 148, 149, 150, 151, 152, 153, 154, 155, 156, 157, 158, 159, 160, 161, 162, 163, 164, 165, 166, 167, 168, 169, 170, 171, 172, 173, 174, 175, 176, 177, 178, 179, 180, 181, 182, 183, 184, 185, 186, 187, 188, 189, 190, 191, 192, 193, 194, 195, 196, 197, 198, 199, 200],
      "LargestImagePixelValue": [1992, 1984, 1988, 1993, 1989, 1988, 1986, 1987, 1987, 1994, 1986, 1984, 1981, 1988, 1986, 1988, 1984, 1988, 1987, 1986, 1988, 1995, 1991, 1994, 1989, 1986, 1997, 1990, 1991, 1988, 1986, 1990, 1991, 1995, 1990, 1992, 1992, 1990, 1984, 1981, 1989, 1985, 1986, 1991, 1987, 1992, 1984, 1991, 1985, 1985, 1990, 1990, 1992, 1988, 1986, 1983, 1989, 1985, 1986, 1993, 1991, 1994, 1989, 1986, 1989, 1990, 1992, 1992, 1987, 1993, 1987, 1989, 1983, 1984, 1982, 1983, 1985, 1989, 1983, 1987, 1985, 1989, 1981, 1990, 1989, 1983, 1989, 1984, 1986, 1984, 1986, 1988, 1983, 1993, 1988, 1983, 1981, 1982, 1985, 1984, 1987, 1980, 1984, 1987, 1987, 1982, 1986, 1984, 1989, 1984, 1977, 1985, 1988, 1980, 1980, 1985, 1985, 1986, 1984, 1985, 1981, 1983, 1986, 1982, 1987, 1983, 1989, 1981, 1986, 1985, 1989, 1985, 1978, 1984, 1982, 1984, 1984, 1985, 1987, 1980, 1982, 1987, 1988, 1982, 1987, 1984, 1984, 1982, 1983, 1989, 1988, 1990, 1978, 1988, 1980, 1984, 1983, 1988, 1980, 1981, 1988, 1986, 1982, 1985, 1980, 1980, 1987, 1991, 1987, 1987, 1988, 1985, 1983, 1988, 1984, 1990, 1983, 1987, 1985, 1983, 1982, 1987, 1980, 1996, 1979, 1980, 1988, 1981, 1979, 1984, 1978, 1984, 1983, 1988, 1987, 1991, 1988, 1982, 1992, 1985],
      "WindowCenter": [994.0, 994.0, 994.0, 994.0, 994.0, 994.0, 994.0, 994.0, 994.0, 993.0, 993.0, 994.0, 993.0, 993.0, 994.0, 994.0, 993.0, 993.0, 993.0, 993.0, 993.0, 994.0, 993.0, 994.0, 993.0, 994.0, 993.0, 994.0, 993.0, 994.0, 994.0, 993.0, 993.0, 993.0, 993.0, 993.0, 994.0, 994.0, 993.0, 993.0, 994.0, 993.0, 994.0, 994.0, 993.0, 994.0, 995.0, 993.0, 993.0, 994.0, 993.0, 993.0, 993.0, 994.0, 994.0, 993.0, 994.0, 993.0, 994.0, 994.0, 993.0, 994.0, 993.0, 993.0, 994.0, 993.0, 993.0, 994.0, 993.0, 993.0, 994.0, 993.0, 993.0, 993.0, 994.0, 993.0, 993.0, 993.0, 993.0, 993.0, 993.0, 993.0, 993.0, 993.0, 993.0, 992.0, 992.0, 993.0, 993.0, 993.0, 992.0, 993.0, 993.0, 993.0, 993.0, 993.0, 993.0, 993.0, 992.0, 992.0, 992.0, 993.0, 992.0, 992.0, 992.0, 992.0, 992.0, 993.0, 992.0, 992.0, 993.0, 992.0, 992.0, 992.0, 993.0, 992.0, 993.0, 993.0, 992.0, 993.0, 993.0, 993.0, 992.0, 993.0, 992.0, 992.0, 992.0, 992.0, 992.0, 992.0, 992.0, 992.0, 993.0, 993.0, 992.0, 993.0, 993.0, 992.0, 995.0, 992.0, 992.0, 992.0, 993.0, 992.0, 992.0, 993.0, 992.0, 993.0, 993.0, 992.0, 992.0, 992.0, 992.0, 993.0, 992.0, 993.0, 993.0, 993.0, 992.0, 992.0, 994.0, 993.0, 992.0, 992.0, 992.0, 992.0, 992.0, 992.0, 993.0, 992.0, 992.0, 992.0, 992.0, 992.0, 993.0, 993.0, 994.0, 992.0, 993.0, 993.0, 992.0, 992.0, 993.0, 992.0, 992.0, 993.0, 993.0, 992.0, 992.0, 993.0, 992.0, 993.0, 993.0, 992.0, 993.0, 993.0, 993.0, 992.0, 993.0, 993.0],
      "WindowWidth": [2184.0, 2184.0, 2184.0, 2184.0, 2183.0, 2184.0, 2184.0, 2183.0, 2183.0, 2182.0, 2182.0, 2183.0, 2182.0, 2183.0, 2183.0, 2183.0, 2182.0, 2182.0, 2182.0, 2182.0, 2182.0, 2183.0, 2182.0, 2182.0, 2182.0, 2183.0, 2182.0, 2182.0, 2182.0, 2182.0, 2182.0, 2182.0, 2182.0, 2182.0, 2182.0, 2182.0, 2182.0, 2182.0, 2182.0, 2182.0, 2182.0, 2182.0, 2182.0, 2182.0, 2181.0, 2182.0, 2182.0, 2181.0, 2181.0, 2182.0, 2181.0, 2181.0, 2181.0, 2182.0, 2182.0, 2181.0, 2181.0, 2181.0, 2181.0, 2181.0, 2181.0, 2183.0, 2181.0, 2181.0, 2182.0, 2181.0, 2181.0, 2181.0, 2181.0, 2181.0, 2181.0, 2181.0, 2181.0, 2181.0, 2181.0, 2181.0, 2181.0, 2181.0, 2181.0, 2181.0, 2181.0, 2181.0, 2181.0, 2181.0, 2181.0, 2181.0, 2180.0, 2181.0, 2181.0, 2181.0, 2180.0, 2181.0, 2181.0, 2181.0, 2181.0, 2180.0, 2181.0, 2181.0, 2180.0, 2180.0, 2180.0, 2181.0, 2180.0, 2180.0, 2180.0, 2180.0, 2180.0, 2181.0, 2180.0, 2180.0, 2181.0, 2180.0, 2180.0, 2180.0, 2181.0, 2180.0, 2180.0, 2180.0, 2180.0, 2181.0, 2180.0, 2181.0, 2180.0, 2180.0, 2180.0, 2180.0, 2180.0, 2180.0, 2180.0, 2180.0, 2180.0, 2180.0, 2180.0, 2180.0, 2180.0, 2180.0, 2180.0, 2180.0, 2182.0, 2179.0, 2179.0, 2179.0, 2180.0, 2180.0, 2179.0, 2180.0, 2180.0, 2180.0, 2180.0, 2179.0, 2179.0, 2179.0, 2180.0, 2180.0, 2179.0, 2180.0, 2180.0, 2180.0, 2179.0, 2179.0, 2181.0, 2180.0, 2179.0, 2179.0, 2179.0, 2179.0, 2179.0, 2179.0, 2180.0, 2179.0, 2179.0, 2179.0, 2179.0, 2179.0, 2180.0, 2180.0, 2181.0, 2179.0, 2180.0, 2180.0, 2179.0, 2179.0, 2180.0, 2179.0, 2179.0, 2180.0, 2180.0, 2179.0, 2179.0, 2180.0, 2179.0, 2179.0, 2179.0, 2179.0, 2179.0, 2180.0, 2180.0, 2179.0, 2179.0, 2179.0]
    },
    "slices": {}
  }
}