{
  "AcquisitionNumber": 1,
  "AcquisitionTime": "11:41:59.140000",
  "BandwidthPerPixelPhaseEncode": 44.643,
  "BodyPartExamined": "BRAIN",
  "ConversionSoftware": "dcm2niix",
  "ConversionSoftwareVersion": "v1.0.20170624 GCC6.3.0",
  "DeviceSerialNumber": "66112",
  "EchoTime": 0.035,
  "EchoTrainLength": 39,
  "EffectiveEchoSpacing": 0.000279999,
  "FlipAngle": 90,
  "ImageType": [
    "ORIGINAL",
    "PRIMARY",
    "M",
    "ND",
    "NORM",
    "MOSAIC"
],
  "InstitutionAddress": "Maynard_3_Hanover_NH_US_03755",
  "InstitutionName": "Dartmouth_College_-_PBS",
  "MagneticFieldStrength": 3,
  "Manufacturer": "Siemens",
  "ManufacturersModelName": "Prisma",
  "PhaseEncodingDirection": "j-",
  "PhaseEncodingLines": 80,
  "ProcedureStepDescription": "dbic_QA",
  "ProtocolName": "func-bold_task-rest_acq-p2-s4-3.5mm",
  "RepetitionTime": 2,
  "ScanningSequence": "EP",
  "SequenceName": "_epfid2d1_80",
  "SequenceVariant": "SK",
  "SeriesDescription": "func-bold_task-rest_acq-p2-s4-3.5mm",
  "SliceTiming": [1.485, 0, 0.99, 0.2475, 1.2375, 0.7425, 1.7325, 0.495, 1.485, 0, 0.99, 0.2475, 1.2375, 0.7425, 1.7325, 0.495, 1.485, 0, 0.99, 0.2475, 1.2375, 0.7425, 1.7325, 0.495, 1.485, 0, 0.99, 0.2475, 1.2375, 0.7425, 1.7325, 0.495],
  "SoftwareVersions": "syngo_MR_E11",
  "TaskName": "rest",
  "TotalReadoutTime": 0.0218399,
  "dcmmeta_affine": [
    [-2.969632387161255, -0.41365551948547363, -0.13414470851421356, 138.71395874023438],
    [-0.4246490001678467, 2.8258485794067383, 1.2147884368896484, -103.8177261352539],
    [0.03093515709042549, -0.9184058904647827, 3.7982091903686523, -26.6984920501709],
    [0.0, 0.0, 0.0, 1.0]
],
  "dcmmeta_reorient_transform": [
    [0.0, -1.0, 0.0, 79.0],
    [1.0, 0.0, 0.0, 0.0],
    [0.0, 0.0, 1.0, 0.0],
    [0.0, 0.0, 0.0, 1.0]
],
  "dcmmeta_shape": [80, 80, 32, 200],
  "dcmmeta_slice_dim": 2,
  "dcmmeta_version": 0.6,
  "global": {
    "const": {
      "AccessionNumber": "qa",
      "AcquisitionMatrix": [80, 0, 0, 80],
      "AngioFlag": "N",
      "BitsAllocated": 16,
      "BitsStored": 12,
      "BodyPartExamined": "BRAIN",
      "Columns": 480,
      "EchoNumbers": 1,
      "EchoTime": 35.0,
      "EchoTrainLength": 39,
      "FlipAngle": 90.0,
      "HighBit": 11,
      "ImageOrientationPatient": [0.98987744721018, 0.14154966602583, 0.01031171918944, -0.1378851684821, 0.94194950214512, 0.30613528989845],
      "ImagePositionPatient": [-617.23054010855, -769.5238085843, -289.12076194855],
      "ImageType": [
        "ORIGINAL",
        "PRIMARY",
        "M",
        "ND",
        "NORM",
        "MOSAIC"
],
      "ImagedNucleus": "1H",
      "ImagingFrequency": 123.252453,
      "InPlanePhaseEncodingDirection": "COL",
      "MRAcquisitionType": "2D",
      "MagneticFieldStrength": 3.0,
      "Manufacturer": "SIEMENS",
      "ManufacturerModelName": "Prisma",
      "Modality": "MR",
      "NumberOfAverages": 1.0,
      "NumberOfPhaseEncodingSteps": 79,
      "PercentPhaseFieldOfView": 100.0,
      "PercentSampling": 100.0,
      "PerformedProcedureStepStartTime": "113129.664000",
      "PhotometricInterpretation": "MONOCHROME2",
      "PixelBandwidth": 2315.0,
      "PixelRepresentation": 0,
      "PixelSpacing": [3.0, 3.0],
      "PositionReferenceIndicator": "",
      "ProtocolName": "func-bold_task-rest_acq-p2-s4-3.5mm",
      "RepetitionTime": 2000.0,
      "Rows": 480,
      "SAR": 0.02091279741721,
      "SamplesPerPixel": 1,
      "ScanOptions": "FS",
      "ScanningSequence": "EP",
      "SequenceName": "*epfid2d1_80",
      "SequenceVariant": "SK",
      "SeriesDescription": "func-bold_task-rest_acq-p2-s4-3.5mm",
      "SeriesNumber": 7,
      "SeriesTime": "114257.664000",
      "SliceLocation": -61.686912110973,
      "SliceThickness": 3.5,
      "SmallestImagePixelValue": 0,
      "SoftwareVersions": "syngo MR E11",
      "SpacingBetweenSlices": 3.9899999387467,
      "SpecificCharacterSet": "ISO_IR 100",
      "StudyID": "93",
      "StudyTime": "113129.597000",
      "TransmitCoilName": "Body",
      "VariableFlipAngleFlag": "N",
      "WindowCenterWidthExplanation": "Algo1",
      "dBdt": 0.0},
    "slices": {}
  },
  "time": {
    "samples": {
      "AcquisitionNumber": [1, 2, 3, 4, 5, 6, 7, 8, 9, 10, 11, 12, 13, 14, 15, 16, 17, 18, 19, 20, 21, 22, 23, 24, 25, 26, 27, 28, 29, 30, 31, 32, 33, 34, 35, 36, 37, 38, 39, 40, 41, 42, 43, 44, 45, 46, 47, 48, 49, 50, 51, 52, 53, 54, 55, 56, 57, 58, 59, 60, 61, 62, 63, 64, 65, 66, 67, 68, 69, 70, 71, 72, 73, 74, 75, 76, 77, 78, 79, 80, 81, 82, 83, 84, 85, 86, 87, 88, 89, 90, 91, 92, 93, 94, 95, 96, 97, 98, 99, 100, 101, 102, 103, 104, 105, 106, 107, 108, 109, 110, 111, 112, 113, 114, 115, 116, 117, 118, 119, 120, 121, 122, 123, 124, 125, 126, 127, 128, 129, 130, 131, 132, 133, 134, 135, 136, 137, 138, 139, 140, 141, 142, 143, 144, 145, 146, 147, 148, 149, 150, 151, 152, 153, 154, 155, 156, 157, 158, 159, 160, 161, 162, 163, 164, 165, 166, 167, 168, 169, 170, 171, 172, 173, 174, 175, 176, 177, 178, 179, 180, 181, 182, 183, 184, 185, 186, 187, 188, 189, 190, 191, 192, 193, 194, 195, 196, 197, 198, 199, 200],
      "AcquisitionTime": ["114159.140000", "114201.140000", "114203.140000", "114205.140000", "114207.140000", "114209.140000", "114211.140000", "114213.140000", "114215.140000", "114217.140000", "114219.140000", "114221.140000", "114223.140000", "114225.140000", "114227.140000", "114229.140000", "114231.140000", "114233.140000", "114235.140000", "114237.140000", "114239.140000", "114241.140000", "114243.140000", "114245.140000", "114247.140000", "114249.140000", "114251.140000", "114253.140000", "114255.140000", "114257.140000", "114259.140000", "114301.140000", "114303.140000", "114305.140000", "114307.140000", "114309.140000", "114311.140000", "114313.140000", "114315.140000", "114317.140000", "114319.140000", "114321.140000", "114323.140000", "114325.140000", "114327.140000", "114329.140000", "114331.140000", "114333.140000", "114335.140000", "114337.140000", "114339.140000", "114341.140000", "114343.140000", "114345.140000", "114347.140000", "114349.140000", "114351.140000", "114353.140000", "114355.140000", "114357.140000", "114359.140000", "114401.140000", "114403.140000", "114405.140000", "114407.140000", "114409.140000", "114411.140000", "114413.140000", "114415.140000", "114417.140000", "114419.140000", "114421.140000", "114423.140000", "114425.140000", "114427.140000", "114429.140000", "114431.140000", "114433.140000", "114435.140000", "114437.140000", "114439.140000", "114441.140000", "114443.140000", "114445.140000", "114447.140000", "114449.140000", "114451.140000", "114453.140000", "114455.140000", "114457.140000", "114459.140000", "114501.140000", "114503.140000", "114505.140000", "114507.140000", "114509.140000", "114511.140000", "114513.140000", "114515.140000", "114517.140000", "114519.140000", "114521.140000", "114523.140000", "114525.140000", "114527.140000", "114529.140000", "114531.140000", "114533.140000", "114535.140000", "114537.140000", "114539.140000", "114541.140000", "114543.140000", "114545.140000", "114547.140000", "114549.140000", "114551.140000", "114553.140000", "114555.140000", "114557.140000", "114559.140000", "114601.140000", "114603.140000", "114605.140000", "114607.140000", "114609.140000", "114611.140000", "114613.140000", "114615.140000", "114617.140000", "114619.140000", "114621.140000", "114623.140000", "114625.140000", "114627.140000", "114629.140000", "114631.140000", "114633.140000", "114635.140000", "114637.140000", "114639.140000", "114641.140000", "114643.140000", "114645.140000", "114647.140000", "114649.140000", "114651.140000", "114653.140000", "114655.140000", "114657.140000", "114659.140000", "114701.140000", "114703.140000", "114705.140000", "114707.140000", "114709.140000", "114711.140000", "114713.140000", "114715.140000", "114717.140000", "114719.140000", "114721.140000", "114723.140000", "114725.140000", "114727.140000", "114729.140000", "114731.140000", "114733.140000", "114735.140000", "114737.140000", "114739.140000", "114741.140000", "114743.140000", "114745.140000", "114747.140000", "114749.140000", "114751.140000", "114753.140000", "114755.140000", "114757.140000", "114759.140000", "114801.140000", "114803.140000", "114805.140000", "114807.140000", "114809.140000", "114811.140000", "114813.140000", "114815.140000", "114817.140000", "114819.140000", "114821.140000", "114823.140000", "114825.140000", "114827.140000", "114829.140000", "114831.140000", "114833.140000", "114835.140000", "114837.140000"],
      "ContentTime": ["114257.668000", "114257.671000", "114257.674000", "114257.684000", "114257.689000", "114257.692000", "114257.698000", "114257.700000", "114257.703000", "114257.705000", "114257.708000", "114257.710000", "114257.713000", "114257.715000", "114257.718000", "114257.720000", "114257.723000", "114257.725000", "114257.728000", "114257.731000", "114257.733000", "114257.736000", "114257.743000", "114257.745000", "114257.748000", "114257.750000", "114257.753000", "114257.755000", "114257.758000", "114337.631000", "114337.633000", "114337.636000", "114337.639000", "114337.641000", "114337.644000", "114337.646000", "114337.649000", "114337.651000", "114337.663000", "114337.665000", "114337.668000", "114337.670000", "114337.673000", "114337.675000", "114337.678000", "114337.681000", "114337.683000", "114337.685000", "114337.688000", "114417.629000", "114417.632000", "114417.635000", "114417.637000", "114417.640000", "114417.642000", "114417.645000", "114417.647000", "114417.660000", "114417.662000", "114417.665000", "114417.667000", "114417.670000", "114417.672000", "114417.675000", "114417.678000", "114417.680000", "114417.683000", "114417.685000", "114417.688000", "114457.629000", "114457.632000", "114457.635000", "114457.637000", "114457.640000", "114457.642000", "114457.645000", "114457.647000", "114457.650000", "114457.652000", "114457.655000", "114457.657000", "114457.660000", "114457.662000", "114457.665000", "114457.667000", "114457.670000", "114457.672000", "114457.675000", "114457.678000", "114537.629000", "114537.632000", "114537.635000", "114537.637000", "114537.640000", "114537.642000", "114537.645000", "114537.647000", "114537.650000", "114537.652000", "114537.655000", "114537.657000", "114537.660000", "114537.662000", "114537.665000", "114537.667000", "114537.670000", "114537.673000", "114537.675000", "114537.678000", "114617.630000", "114617.633000", "114617.636000", "114617.638000", "114617.641000", "114617.643000", "114617.646000", "114617.648000", "114617.651000", "114617.653000", "114617.656000", "114617.658000", "114617.661000", "114617.663000", "114617.666000", "114617.668000", "114617.671000", "114617.673000", "114617.676000", "114617.678000", "114657.629000", "114657.632000", "114657.635000", "114657.637000", "114657.640000", "114657.642000", "114657.645000", "114657.647000", "114657.650000", "114657.652000", "114657.655000", "114657.658000", "114657.660000", "114657.663000", "114657.665000", "114657.668000", "114657.670000", "114657.673000", "114657.675000", "114657.678000", "114737.629000", "114737.632000", "114737.635000", "114737.637000", "114737.640000", "114737.642000", "114737.645000", "114737.647000", "114737.650000", "114737.652000", "114737.655000", "114737.657000", "114737.660000", "114737.662000", "114737.665000", "114737.668000", "114737.670000", "114737.673000", "114737.675000", "114737.678000", "114817.630000", "114817.633000", "114817.636000", "114817.638000", "114817.641000", "114817.643000", "114817.646000", "114817.648000", "114817.651000", "114817.653000", "114817.656000", "114817.658000", "114817.661000", "114817.664000", "114817.666000", "114817.669000", "114817.671000", "114817.674000", "114817.676000", "114817.679000", "114838.463000", "114838.466000", "114838.468000", "114838.471000", "114838.474000", "114838.476000", "114838.479000", "114838.482000", "114838.484000", "114838.487000", "114838.489000"],
      "InstanceCreationTime": ["114257.668000", "114257.671000", "114257.674000", "114257.684000", "114257.689000", "114257.692000", "114257.698000", "114257.700000", "114257.703000", "114257.705000", "114257.708000", "114257.710000", "114257.713000", "114257.715000", "114257.718000", "114257.720000", "114257.723000", "114257.725000", "114257.728000", "114257.731000", "114257.733000", "114257.736000", "114257.743000", "114257.745000", "114257.748000", "114257.750000", "114257.753000", "114257.755000", "114257.758000", "114337.631000", "114337.633000", "114337.636000", "114337.639000", "114337.641000", "114337.644000", "114337.646000", "114337.649000", "114337.651000", "114337.663000", "114337.665000", "114337.668000", "114337.670000", "114337.673000", "114337.675000", "114337.678000", "114337.681000", "114337.683000", "114337.685000", "114337.688000", "114417.629000", "114417.632000", "114417.635000", "114417.637000", "114417.640000", "114417.642000", "114417.645000", "114417.647000", "114417.660000", "114417.662000", "114417.665000", "114417.667000", "114417.670000", "114417.672000", "114417.675000", "114417.678000", "114417.680000", "114417.683000", "114417.685000", "114417.688000", "114457.629000", "114457.632000", "114457.635000", "114457.637000", "114457.640000", "114457.642000", "114457.645000", "114457.647000", "114457.650000", "114457.652000", "114457.655000", "114457.657000", "114457.660000", "114457.662000", "114457.665000", "114457.667000", "114457.670000", "114457.672000", "114457.675000", "114457.678000", "114537.629000", "114537.632000", "114537.635000", "114537.637000", "114537.640000", "114537.642000", "114537.645000", "114537.647000", "114537.650000", "114537.652000", "114537.655000", "114537.657000", "114537.660000", "114537.662000", "114537.665000", "114537.667000", "114537.670000", "114537.673000", "114537.675000", "114537.678000", "114617.630000", "114617.633000", "114617.636000", "114617.638000", "114617.641000", "114617.643000", "114617.646000", "114617.648000", "114617.651000", "114617.653000", "114617.656000", "114617.658000", "114617.661000", "114617.663000", "114617.666000", "114617.668000", "114617.671000", "114617.673000", "114617.676000", "114617.678000", "114657.629000", "114657.632000", "114657.635000", "114657.637000", "114657.640000", "114657.642000", "114657.645000", "114657.647000", "114657.650000", "114657.652000", "114657.655000", "114657.658000", "114657.660000", "114657.663000", "114657.665000", "114657.668000", "114657.670000", "114657.673000", "114657.675000", "114657.678000", "114737.629000", "114737.632000", "114737.635000", "114737.637000", "114737.640000", "114737.642000", "114737.645000", "114737.647000", "114737.650000", "114737.652000", "114737.655000", "114737.657000", "114737.660000", "114737.662000", "114737.665000", "114737.668000", "114737.670000", "114737.673000", "114737.675000", "114737.678000", "114817.630000", "114817.633000", "114817.636000", "114817.638000", "114817.641000", "114817.643000", "114817.646000", "114817.648000", "114817.651000", "114817.653000", "114817.656000", "114817.658000", "114817.661000", "114817.664000", "114817.666000", "114817.669000", "114817.671000", "114817.674000", "114817.676000", "114817.679000", "114838.463000", "114838.466000", "114838.468000", "114838.471000", "114838.474000", "114838.476000", "114838.479000", "114838.482000", "114838.484000", "114838.487000", "114838.489000"],
      "InstanceNumber": [1, 2, 3, 4, 5, 6, 7, 8, 9, 10, 11, 12, 13, 14, 15, 16, 17, 18, 19, 20, 21, 22, 23, 24, 25, 26, 27, 28, 29, 30, 31, 32, 33, 34, 35, 36, 37, 38, 39, 40, 41, 42, 43, 44, 45, 46, 47, 48, 49, 50, 51, 52, 53, 54, 55, 56, 57, 58, 59, 60, 61, 62, 63, 64, 65, 66, 67, 68, 69, 70, 71, 72, 73, 74, 75, 76, 77, 78, 79, 80, 81, 82, 83, 84, 85, 86, 87, 88, 89, 90, 91, 92, 93, 94, 95, 96, 97, 98, 99, 100, 101, 102, 103, 104, 105, 106, 107, 108, 109, 110, 111, 112, 113, 114, 115, 116, 117, 118, 119, 120, 121, 122, 123, 124, 125, 126, 127, 128, 129, 130, 131, 132, 133, 134, 135, 136, 137, 138, 139, 140, 141, 142, 143, 144, 145, 146, 147, 148, 149, 150, 151, 152, 153, 154, 155, 156, 157, 158, 159, 160, 161, 162, 163, 164, 165, 166, 167, 168, 169, 170, 171, 172, 173, 174, 175, 176, 177, 178, 179, 180, 181, 182, 183, 184, 185, 186, 187, 188, 189, 190, 191, 192, 193, 194, 195, 196, 197, 198, 199, 200],
      "LargestImagePixelValue": [2055, 2053, 2057, 2057, 2052, 2056, 2055, 2061, 2055, 2058, 2052, 2058, 2056, 2055, 2052, 2057, 2055, 2057, 2054, 2055, 2058, 2053, 2057, 2063, 2056, 2055, 2057, 2056, 2054, 2049, 2060, 2053, 2055, 2054, 2053, 2056, 2062, 2057, 2056, 2054, 2055, 2060, 2057, 2059, 2055, 2061, 2058, 2055, 2057, 2057, 2062, 2055, 2058, 2057, 2061, 2057, 2059, 2053, 2053, 2055, 2055, 2059, 2056, 2058, 2063, 2058, 2060, 2056, 2065, 2058, 2057, 2057, 2058, 2060, 2058, 2055, 2060, 2058, 2056, 2058, 2056, 2055, 2059, 2057, 2061, 2054, 2056, 2059, 2059, 2058, 2064, 2058, 2059, 2056, 2055, 2057, 2058, 2066, 2061, 2057, 2056, 2059, 2061, 2059, 2056, 2060, 2058, 2057, 2056, 2061, 2058, 2058, 2065, 2063, 2060, 2057, 2061, 2058, 2058, 2063, 2060, 2060, 2062, 2060, 2058, 2059, 2057, 2055, 2058, 2060, 2058, 2060, 2061, 2061, 2058, 2058, 2057, 2059, 2060, 2061, 2058, 2062, 2063, 2061, 2058, 2058, 2063, 2059, 2060, 2062, 2063, 2059, 2058, 2060, 2057, 2063, 2057, 2061, 2065, 2064, 2064, 2057, 2059, 2067, 2060, 2060, 2061, 2064, 2057, 2060, 2062, 2061, 2062, 2062, 2057, 2061, 2062, 2058, 2059, 2062, 2061, 2058, 2062, 2060, 2064, 2054, 2063, 2058, 2059, 2061, 2057, 2060, 2061, 2062, 2060, 2059, 2061, 2066, 2062, 2056],
      "WindowCenter": [925.0, 926.0, 925.0, 925.0, 926.0, 925.0, 925.0, 926.0, 925.0, 926.0, 925.0, 926.0, 925.0, 925.0, 925.0, 925.0, 925.0, 925.0, 925.0, 925.0, 926.0, 926.0, 925.0, 926.0, 926.0, 926.0, 926.0, 925.0, 926.0, 926.0, 925.0, 925.0, 925.0, 925.0, 926.0, 926.0, 925.0, 926.0, 925.0, 926.0, 926.0, 926.0, 926.0, 925.0, 926.0, 926.0, 926.0, 926.0, 925.0, 925.0, 926.0, 925.0, 926.0, 925.0, 926.0, 926.0, 926.0, 926.0, 926.0, 926.0, 926.0, 926.0, 926.0, 926.0, 926.0, 926.0, 926.0, 925.0, 926.0, 926.0, 926.0, 926.0, 926.0, 926.0, 926.0, 926.0, 925.0, 926.0, 926.0, 926.0, 926.0, 926.0, 926.0, 926.0, 926.0, 926.0, 926.0, 926.0, 926.0, 926.0, 926.0, 926.0, 926.0, 926.0, 926.0, 926.0, 926.0, 926.0, 926.0, 925.0, 926.0, 926.0, 926.0, 925.0, 926.0, 926.0, 926.0, 926.0, 926.0, 926.0, 926.0, 925.0, 926.0, 926.0, 926.0, 925.0, 926.0, 925.0, 925.0, 926.0, 926.0, 926.0, 926.0, 926.0, 926.0, 926.0, 926.0, 926.0, 926.0, 926.0, 926.0, 926.0, 926.0, 925.0, 926.0, 926.0, 926.0, 926.0, 925.0, 926.0, 926.0, 925.0, 925.0, 926.0, 925.0, 925.0, 926.0, 926.0, 926.0, 926.0, 926.0, 926.0, 926.0, 926.0, 926.0, 926.0, 926.0, 925.0, 926.0, 926.0, 926.0, 926.0, 925.0, 926.0, 925.0, 926.0, 926.0, 926.0, 926.0, 926.0, 925.0, 926.0, 926.0, 926.0, 926.0, 926.0, 926.0, 926.0, 925.0, 925.0, 926.0, 926.0, 926.0, 926.0, 925.0, 926.0, 926.0, 926.0, 925.0, 925.0, 926.0, 926.0, 926.0, 925.0, 926.0, 926.0, 925.0, 926.0, 926.0, 925.0],
      "WindowWidth": [2114.0, 2115.0, 2114.0, 2114.0, 2115.0, 2114.0, 2114.0, 2115.0, 2114.0, 2115.0, 2114.0, 2115.0, 2114.0, 2114.0, 2114.0, 2114.0, 2114.0, 2114.0, 2114.0, 2114.0, 2114.0, 2114.0, 2114.0, 2115.0, 2115.0, 2115.0, 2115.0, 2115.0, 2114.0, 2114.0, 2114.0, 2115.0, 2114.0, 2115.0, 2114.0, 2115.0, 2114.0, 2114.0, 2114.0, 2115.0, 2115.0, 2114.0, 2114.0, 2114.0, 2114.0, 2114.0, 2114.0, 2115.0, 2114.0, 2115.0, 2115.0, 2114.0, 2115.0, 2114.0, 2114.0, 2114.0, 2114.0, 2114.0, 2115.0, 2114.0, 2115.0, 2114.0, 2115.0, 2114.0, 2114.0, 2115.0, 2115.0, 2115.0, 2114.0, 2114.0, 2114.0, 2114.0, 2114.0, 2114.0, 2114.0, 2114.0, 2115.0, 2115.0, 2114.0, 2115.0, 2114.0, 2115.0, 2115.0, 2114.0, 2115.0, 2114.0, 2115.0, 2114.0, 2114.0, 2114.0, 2115.0, 2115.0, 2114.0, 2114.0, 2115.0, 2116.0, 2115.0, 2114.0, 2114.0, 2115.0, 2114.0, 2115.0, 2114.0, 2114.0, 2114.0, 2114.0, 2114.0, 2114.0, 2115.0, 2115.0, 2114.0, 2115.0, 2115.0, 2115.0, 2115.0, 2115.0, 2115.0, 2115.0, 2115.0, 2114.0, 2115.0, 2114.0, 2115.0, 2114.0, 2115.0, 2115.0, 2114.0, 2114.0, 2114.0, 2114.0, 2114.0, 2115.0, 2115.0, 2114.0, 2115.0, 2114.0, 2115.0, 2114.0, 2115.0, 2115.0, 2114.0, 2114.0, 2114.0, 2114.0, 2115.0, 2114.0, 2114.0, 2115.0, 2114.0, 2115.0, 2114.0, 2114.0, 2114.0, 2115.0, 2114.0, 2114.0, 2114.0, 2114.0, 2115.0, 2115.0, 2114.0, 2115.0, 2115.0, 2114.0, 2114.0, 2115.0, 2114.0, 2114.0, 2115.0, 2114.0, 2114.0, 2115.0, 2115.0, 2115.0, 2115.0, 2114.0, 2114.0, 2115.0, 2114.0, 2114.0, 2114.0, 2114.0, 2114.0, 2115.0, 2114.0, 2114.0, 2115.0, 2115.0, 2114.0, 2114.0, 2114.0, 2115.0, 2115.0, 2114.0, 2115.0, 2114.0, 2114.0, 2114.0, 2114.0, 2114.0]
    },
    "slices": {}
  }
}