{
  "AcquisitionMatrixPE": 80,
  "AcquisitionNumber": 1,
  "AcquisitionTime": "09:25:10.515000",
  "BandwidthPerPixelPhaseEncode": 25,
  "BaseResolution": 80,
  "BodyPartExamined": "BRAIN",
  "CoilCombinationMethod": "Sum of Squares",
  "ConsistencyInfo": "N4_VE11C_LATEST_20160120",
  "ConversionSoftware": "dcm2niix",
  "ConversionSoftwareVersion": "v1.0.20220720",
  "DerivedVendorReportedEchoSpacing": 0.0005,
  "DeviceSerialNumber": "66112",
  "DwellTime": 2.7e-06,
  "EchoTime": 0.03,
  "EchoTrainLength": 80,
  "EffectiveEchoSpacing": 0.0005,
  "FlipAngle": 10,
  "HeudiconvVersion": "0.13.1",
  "ImageOrientationPatientDICOM": [0.988344, 0.152003, 0.00839265, -0.146651, 0.935852, 0.320428],
  "ImageOrientationText": "Tra>Cor(18.6)>Sag(-2.3)",
  "ImageType": [
    "ORIGINAL",
    "PRIMARY",
    "M",
    "ND",
    "NORM",
    "MOSAIC"
],
  "ImagingFrequency": 123.252,
  "InPlanePhaseEncodingDirectionDICOM": "COL",
  "InstitutionAddress": "Maynard 3,Hanover,NH,US,03755",
  "InstitutionName": "Dartmouth College - PBS",
  "InstitutionalDepartmentName": "Department",
  "MRAcquisitionType": "2D",
  "MagneticFieldStrength": 3,
  "Manufacturer": "Siemens",
  "ManufacturersModelName": "Prisma",
  "MatrixCoilMode": "SENSE",
  "Modality": "MR",
  "NonlinearGradientCorrection": false,
  "PartialFourier": 1,
  "PatientPosition": "HFS",
  "PercentPhaseFOV": 100,
  "PercentSampling": 100,
  "PhaseEncodingDirection": "j-",
  "PhaseEncodingSteps": 80,
  "PhaseResolution": 1,
  "PixelBandwidth": 2315,
  "ProcedureStepDescription": "dbic^QA",
  "ProtocolName": "func-bold_fa-10",
  "PulseSequenceDetails": "%SiemensSeq%\\ep2d_bold",
  "ReceiveCoilActiveElements": "HC1-7;NC1,2",
  "ReceiveCoilName": "HeadNeck_64",
  "ReconMatrixPE": 80,
  "RepetitionTime": 2,
  "SAR": 0.00865671,
  "ScanOptions": "FS",
  "ScanningSequence": "EP",
  "SequenceName": "*epfid2d1_80",
  "SequenceVariant": "SK",
  "SeriesDescription": "func-bold_fa-10",
  "SeriesNumber": 9,
  "ShimSetting": [4137, -7721, -7513, 154, -67, -309, -57, 99],
  "SliceThickness": 3.5,
  "SliceTiming": [0.99, 0, 1.055, 0.065, 1.12, 0.13, 1.1875, 0.1975, 1.2525, 0.2625, 1.32, 0.33, 1.385, 0.395, 1.45, 0.46, 1.5175, 0.5275, 1.5825, 0.5925, 1.65, 0.66, 1.715, 0.725, 1.78, 0.79, 1.8475, 0.8575, 1.9125, 0.9225],
  "SoftwareVersions": "syngo MR E11",
  "SpacingBetweenSlices": 3.99,
  "StationName": "AWP66112",
  "TotalReadoutTime": 0.0395,
  "TxRefAmp": 214.041,
  "dcmmeta_affine": [
    [-2.9650330543518066, -0.43995338678359985, -0.1629989892244339, 138.1263885498047],
    [-0.45600980520248413, 2.80755615234375, 1.2685182094573975, -94.20732879638672],
    [0.025177961215376854, -0.9612851142883301, 3.7794697284698486, -7.4624457359313965],
    [0.0, 0.0, 0.0, 1.0]
],
  "dcmmeta_reorient_transform": [
    [0.0, -1.0, 0.0, 79.0],
    [1.0, 0.0, 0.0, 0.0],
    [0.0, 0.0, 1.0, 0.0],
    [0.0, 0.0, 0.0, 1.0]
],
  "dcmmeta_shape": [80, 80, 30, 200],
  "dcmmeta_slice_dim": 2,
  "dcmmeta_version": 0.6,
  "global": {
    "const": {
      "AccessionNumber": "qa64",
      "AcquisitionMatrix": [80, 0, 0, 80],
      "AngioFlag": "N",
      "BitsAllocated": 16,
      "BitsStored": 12,
      "BodyPartExamined": "BRAIN",
      "Columns": 480,
      "EchoNumbers": 1,
      "EchoTime": 30.0,
      "EchoTrainLength": 80,
      "FlipAngle": 10.0,
      "HighBit": 11,
      "ImageOrientationPatient": [0.98834435789948, 0.15200326830635, 0.0083926534808, -0.1466511315574, 0.93585207610541, 0.32042836525833],
      "ImagePositionPatient": [-608.38600838995, -780.3028221586, -280.69657950658],
      "ImageType": [
        "ORIGINAL",
        "PRIMARY",
        "M",
        "ND",
        "NORM",
        "MOSAIC"
],
      "ImagedNucleus": "1H",
      "ImagingFrequency": 123.252354,
      "InPlanePhaseEncodingDirection": "COL",
      "MRAcquisitionType": "2D",
      "MagneticFieldStrength": 3.0,
      "Manufacturer": "SIEMENS",
      "ManufacturerModelName": "Prisma",
      "Modality": "MR",
      "NumberOfAverages": 1.0,
      "NumberOfPhaseEncodingSteps": 80,
      "PercentPhaseFieldOfView": 100.0,
      "PercentSampling": 100.0,
      "PerformedProcedureStepStartTime": "090509.621000",
      "PhotometricInterpretation": "MONOCHROME2",
      "PixelBandwidth": 2315.0,
      "PixelRepresentation": 0,
      "PixelSpacing": [3.0, 3.0],
      "ProtocolName": "func-bold_fa-10",
      "RepetitionTime": 2000.0,
      "Rows": 480,
      "SAR": 0.00865670637133,
      "SamplesPerPixel": 1,
      "ScanOptions": "FS",
      "ScanningSequence": "EP",
      "SequenceName": "*epfid2d1_80",
      "SequenceVariant": "SK",
      "SeriesDescription": "func-bold_fa-10",
      "SeriesNumber": 9,
      "SeriesTime": "092552.311000",
      "SliceLocation": -42.662220179926,
      "SliceThickness": 3.5,
      "SmallestImagePixelValue": 0,
      "SoftwareVersions": "syngo MR E11",
      "SpacingBetweenSlices": 3.9899999055786,
      "SpecificCharacterSet": "ISO_IR 100",
      "StudyID": "2",
      "StudyTime": "090509.557000",
      "TransmitCoilName": "Body",
      "VariableFlipAngleFlag": "N",
      "WindowCenterWidthExplanation": "Algo1",
      "dBdt": 0.0},
    "slices": {}
  },
  "time": {
    "samples": {
      "AcquisitionNumber": [1, 2, 3, 4, 5, 6, 7, 8, 9, 10, 11, 12, 13, 14, 15, 16, 17, 18, 19, 20, 21, 22, 23, 24, 25, 26, 27, 28, 29, 30, 31, 32, 33, 34, 35, 36, 37, 38, 39, 40, 41, 42, 43, 44, 45, 46, 47, 48, 49, 50, 51, 52, 53, 54, 55, 56, 57, 58, 59, 60, 61, 62, 63, 64, 65, 66, 67, 68, 69, 70, 71, 72, 73, 74, 75, 76, 77, 78, 79, 80, 81, 82, 83, 84, 85, 86, 87, 88, 89, 90, 91, 92, 93, 94, 95, 96, 97, 98, 99, 100, 101, 102, 103, 104, 105, 106, 107, 108, 109, 110, 111, 112, 113, 114, 115, 116, 117, 118, 119, 120, 121, 122, 123, 124, 125, 126, 127, 128, 129, 130, 131, 132, 133, 134, 135, 136, 137, 138, 139, 140, 141, 142, 143, 144, 145, 146, 147, 148, 149, 150, 151, 152, 153, 154, 155, 156, 157, 158, 159, 160, 161, 162, 163, 164, 165, 166, 167, 168, 169, 170, 171, 172, 173, 174, 175, 176, 177, 178, 179, 180, 181, 182, 183, 184, 185, 186, 187, 188, 189, 190, 191, 192, 193, 194, 195, 196, 197, 198, 199, 200],
      "AcquisitionTime": ["092510.515000", "092512.515000", "092514.515000", "092516.515000", "092518.515000", "092520.515000", "092522.515000", "092524.515000", "092526.515000", "092528.515000", "092530.515000", "092532.515000", "092534.515000", "092536.515000", "092538.515000", "092540.515000", "092542.515000", "092544.515000", "092546.515000", "092548.515000", "092550.515000", "092552.515000", "092554.515000", "092556.515000", "092558.515000", "092600.515000", "092602.515000", "092604.515000", "092606.515000", "092608.515000", "092610.515000", "092612.515000", "092614.515000", "092616.515000", "092618.515000", "092620.515000", "092622.515000", "092624.515000", "092626.515000", "092628.515000", "092630.515000", "092632.515000", "092634.515000", "092636.515000", "092638.515000", "092640.515000", "092642.515000", "092644.515000", "092646.515000", "092648.515000", "092650.515000", "092652.515000", "092654.515000", "092656.515000", "092658.515000", "092700.515000", "092702.515000", "092704.515000", "092706.515000", "092708.515000", "092710.515000", "092712.515000", "092714.515000", "092716.515000", "092718.515000", "092720.515000", "092722.515000", "092724.515000", "092726.515000", "092728.515000", "092730.515000", "092732.515000", "092734.515000", "092736.515000", "092738.515000", "092740.515000", "092742.515000", "092744.515000", "092746.515000", "092748.515000", "092750.515000", "092752.515000", "092754.515000", "092756.515000", "092758.515000", "092800.515000", "092802.515000", "092804.515000", "092806.515000", "092808.515000", "092810.515000", "092812.515000", "092814.515000", "092816.515000", "092818.515000", "092820.515000", "092822.515000", "092824.515000", "092826.515000", "092828.515000", "092830.515000", "092832.515000", "092834.515000", "092836.515000", "092838.515000", "092840.515000", "092842.515000", "092844.515000", "092846.515000", "092848.515000", "092850.515000", "092852.515000", "092854.515000", "092856.515000", "092858.515000", "092900.515000", "092902.515000", "092904.515000", "092906.515000", "092908.515000", "092910.515000", "092912.515000", "092914.515000", "092916.515000", "092918.515000", "092920.515000", "092922.515000", "092924.515000", "092926.515000", "092928.515000", "092930.515000", "092932.515000", "092934.515000", "092936.515000", "092938.515000", "092940.515000", "092942.515000", "092944.515000", "092946.515000", "092948.515000", "092950.515000", "092952.515000", "092954.515000", "092956.515000", "092958.515000", "093000.515000", "093002.515000", "093004.515000", "093006.515000", "093008.515000", "093010.515000", "093012.515000", "093014.515000", "093016.515000", "093018.515000", "093020.515000", "093022.515000", "093024.515000", "093026.515000", "093028.515000", "093030.515000", "093032.515000", "093034.515000", "093036.515000", "093038.515000", "093040.515000", "093042.515000", "093044.515000", "093046.515000", "093048.515000", "093050.515000", "093052.515000", "093054.515000", "093056.515000", "093058.515000", "093100.515000", "093102.515000", "093104.515000", "093106.515000", "093108.515000", "093110.515000", "093112.515000", "093114.515000", "093116.515000", "093118.515000", "093120.515000", "093122.515000", "093124.515000", "093126.515000", "093128.515000", "093130.515000", "093132.515000", "093134.515000", "093136.515000", "093138.515000", "093140.515000", "093142.515000", "093144.515000", "093146.515000", "093148.515000"],
      "ContentTime": ["092552.314000", "092552.318000", "092552.320000", "092552.323000", "092552.325000", "092552.328000", "092552.331000", "092552.333000", "092552.336000", "092552.338000", "092552.341000", "092552.344000", "092552.346000", "092552.349000", "092552.351000", "092552.354000", "092552.356000", "092552.359000", "092552.362000", "092552.364000", "092632.310000", "092632.313000", "092632.315000", "092632.318000", "092632.320000", "092632.323000", "092632.325000", "092632.328000", "092632.331000", "092632.333000", "092632.336000", "092632.338000", "092632.341000", "092632.343000", "092632.346000", "092632.349000", "092632.351000", "092632.354000", "092632.356000", "092632.359000", "092712.309000", "092712.311000", "092712.314000", "092712.317000", "092712.319000", "092712.322000", "092712.324000", "092712.327000", "092712.330000", "092712.332000", "092712.335000", "092712.337000", "092712.340000", "092712.342000", "092712.345000", "092712.347000", "092712.350000", "092712.353000", "092712.355000", "092712.358000", "092752.309000", "092752.312000", "092752.315000", "092752.317000", "092752.320000", "092752.322000", "092752.325000", "092752.328000", "092752.330000", "092752.333000", "092752.335000", "092752.338000", "092752.341000", "092752.343000", "092752.346000", "092752.348000", "092752.351000", "092752.353000", "092752.356000", "092752.359000", "092832.309000", "092832.312000", "092832.315000", "092832.317000", "092832.320000", "092832.323000", "092832.325000", "092832.328000", "092832.330000", "092832.333000", "092832.335000", "092832.338000", "092832.341000", "092832.343000", "092832.346000", "092832.348000", "092832.351000", "092832.353000", "092832.356000", "092832.359000", "092912.309000", "092912.312000", "092912.315000", "092912.318000", "092912.320000", "092912.323000", "092912.325000", "092912.328000", "092912.331000", "092912.333000", "092912.336000", "092912.338000", "092912.341000", "092912.344000", "092912.346000", "092912.349000", "092912.351000", "092912.354000", "092912.356000", "092912.359000", "092952.308000", "092952.311000", "092952.314000", "092952.317000", "092952.319000", "092952.322000", "092952.324000", "092952.327000", "092952.329000", "092952.332000", "092952.335000", "092952.343000", "092952.345000", "092952.348000", "092952.350000", "092952.353000", "092952.356000", "092952.358000", "092952.361000", "092952.363000", "093032.310000", "093032.312000", "093032.315000", "093032.318000", "093032.320000", "093032.323000", "093032.325000", "093032.328000", "093032.331000", "093032.333000", "093032.336000", "093032.338000", "093032.341000", "093032.344000", "093032.346000", "093032.349000", "093032.351000", "093032.354000", "093032.356000", "093032.359000", "093112.310000", "093112.312000", "093112.315000", "093112.318000", "093112.320000", "093112.323000", "093112.325000", "093112.328000", "093112.330000", "093112.342000", "093112.345000", "093112.347000", "093112.350000", "093112.352000", "093112.355000", "093112.365000", "093112.368000", "093112.370000", "093112.373000", "093112.375000", "093150.509000", "093150.512000", "093150.515000", "093150.518000", "093150.520000", "093150.523000", "093150.525000", "093150.528000", "093150.530000", "093150.533000", "093150.535000", "093150.538000", "093150.541000", "093150.544000", "093150.546000", "093150.550000", "093150.553000", "093150.556000", "093150.559000", "093150.565000"],
      "InstanceCreationTime": ["092552.314000", "092552.318000", "092552.320000", "092552.323000", "092552.325000", "092552.328000", "092552.331000", "092552.333000", "092552.336000", "092552.338000", "092552.341000", "092552.344000", "092552.346000", "092552.349000", "092552.351000", "092552.354000", "092552.356000", "092552.359000", "092552.362000", "092552.364000", "092632.310000", "092632.313000", "092632.315000", "092632.318000", "092632.320000", "092632.323000", "092632.325000", "092632.328000", "092632.331000", "092632.333000", "092632.336000", "092632.338000", "092632.341000", "092632.343000", "092632.346000", "092632.349000", "092632.351000", "092632.354000", "092632.356000", "092632.359000", "092712.309000", "092712.311000", "092712.314000", "092712.317000", "092712.319000", "092712.322000", "092712.324000", "092712.327000", "092712.330000", "092712.332000", "092712.335000", "092712.337000", "092712.340000", "092712.342000", "092712.345000", "092712.347000", "092712.350000", "092712.353000", "092712.355000", "092712.358000", "092752.309000", "092752.312000", "092752.315000", "092752.317000", "092752.320000", "092752.322000", "092752.325000", "092752.328000", "092752.330000", "092752.333000", "092752.335000", "092752.338000", "092752.341000", "092752.343000", "092752.346000", "092752.348000", "092752.351000", "092752.353000", "092752.356000", "092752.359000", "092832.309000", "092832.312000", "092832.315000", "092832.317000", "092832.320000", "092832.323000", "092832.325000", "092832.328000", "092832.330000", "092832.333000", "092832.335000", "092832.338000", "092832.341000", "092832.343000", "092832.346000", "092832.348000", "092832.351000", "092832.353000", "092832.356000", "092832.359000", "092912.309000", "092912.312000", "092912.315000", "092912.318000", "092912.320000", "092912.323000", "092912.325000", "092912.328000", "092912.331000", "092912.333000", "092912.336000", "092912.338000", "092912.341000", "092912.344000", "092912.346000", "092912.349000", "092912.351000", "092912.354000", "092912.356000", "092912.359000", "092952.308000", "092952.311000", "092952.314000", "092952.317000", "092952.319000", "092952.322000", "092952.324000", "092952.327000", "092952.329000", "092952.332000", "092952.335000", "092952.343000", "092952.345000", "092952.348000", "092952.350000", "092952.353000", "092952.356000", "092952.358000", "092952.361000", "092952.363000", "093032.310000", "093032.312000", "093032.315000", "093032.318000", "093032.320000", "093032.323000", "093032.325000", "093032.328000", "093032.331000", "093032.333000", "093032.336000", "093032.338000", "093032.341000", "093032.344000", "093032.346000", "093032.349000", "093032.351000", "093032.354000", "093032.356000", "093032.359000", "093112.310000", "093112.312000", "093112.315000", "093112.318000", "093112.320000", "093112.323000", "093112.325000", "093112.328000", "093112.330000", "093112.342000", "093112.345000", "093112.347000", "093112.350000", "093112.352000", "093112.355000", "093112.365000", "093112.368000", "093112.370000", "093112.373000", "093112.375000", "093150.509000", "093150.512000", "093150.515000", "093150.518000", "093150.520000", "093150.523000", "093150.525000", "093150.528000", "093150.530000", "093150.533000", "093150.535000", "093150.538000", "093150.541000", "093150.544000", "093150.546000", "093150.550000", "093150.553000", "093150.556000", "093150.559000", "093150.565000"],
      "InstanceNumber": [1, 2, 3, 4, 5, 6, 7, 8, 9, 10, 11, 12, 13, 14, 15, 16, 17, 18, 19, 20, 21, 22, 23, 24, 25, 26, 27, 28, 29, 30, 31, 32, 33, 34, 35, 36, 37, 38, 39, 40, 41, 42, 43, 44, 45, 46, 47, 48, 49, 50, 51, 52, 53, 54, 55, 56, 57, 58, 59, 60, 61, 62, 63, 64, 65, 66, 67, 68, 69, 70, 71, 72, 73, 74, 75, 76, 77, 78, 79, 80, 81, 82, 83, 84, 85, 86, 87, 88, 89, 90, 91, 92, 93, 94, 95, 96, 97, 98, 99, 100, 101, 102, 103, 104, 105, 106, 107, 108, 109, 110, 111, 112, 113, 114, 115, 116, 117, 118, 119, 120, 121, 122, 123, 124, 125, 126, 127, 128, 129, 130, 131, 132, 133, 134, 135, 136, 137, 138, 139, 140, 141, 142, 143, 144, 145, 146, 147, 148, 149, 150, 151, 152, 153, 154, 155, 156, 157, 158, 159, 160, 161, 162, 163, 164, 165, 166, 167, 168, 169, 170, 171, 172, 173, 174, 175, 176, 177, 178, 179, 180, 181, 182, 183, 184, 185, 186, 187, 188, 189, 190, 191, 192, 193, 194, 195, 196, 197, 198, 199, 200],
      "LargestImagePixelValue": [644, 639, 642, 643, 638, 643, 641, 640, 640, 642, 643, 642, 643, 639, 641, 642, 642, 642, 640, 640, 640, 638, 642, 642, 640, 641, 643, 642, 641, 639, 644, 640, 644, 640, 641, 641, 643, 640, 644, 640, 643, 640, 642, 642, 641, 640, 641, 641, 641, 642, 644, 639, 643, 641, 643, 639, 639, 641, 641, 641, 641, 643, 643, 643, 641, 640, 642, 642, 641, 639, 640, 641, 641, 639, 641, 642, 641, 643, 640, 644, 640, 641, 641, 641, 641, 641, 643, 643, 644, 640, 643, 642, 640, 639, 641, 641, 642, 640, 638, 642, 640, 642, 644, 642, 640, 637, 640, 644, 644, 642, 641, 642, 640, 640, 639, 642, 642, 640, 641, 638, 642, 638, 640, 640, 639, 639, 640, 642, 641, 643, 639, 643, 641, 639, 643, 643, 638, 641, 643, 642, 640, 642, 641, 643, 643, 640, 637, 642, 641, 640, 640, 640, 642, 645, 640, 639, 639, 639, 642, 640, 641, 639, 639, 639, 642, 641, 640, 641, 641, 640, 641, 643, 638, 641, 637, 643, 641, 640, 639, 640, 639, 642, 643, 636, 640, 641, 642, 642, 642, 642, 639, 641, 637, 639, 641, 640, 637, 636, 638, 638],
      "WindowCenter": [448.0, 448.0, 448.0, 448.0, 448.0, 448.0, 448.0, 448.0, 448.0, 448.0, 447.0, 448.0, 448.0, 448.0, 447.0, 447.0, 447.0, 448.0, 447.0, 447.0, 447.0, 447.0, 447.0, 447.0, 448.0, 448.0, 447.0, 447.0, 447.0, 447.0, 448.0, 447.0, 447.0, 447.0, 447.0, 447.0, 447.0, 448.0, 447.0, 447.0, 447.0, 447.0, 447.0, 448.0, 447.0, 447.0, 447.0, 447.0, 448.0, 448.0, 447.0, 448.0, 447.0, 447.0, 447.0, 448.0, 447.0, 447.0, 447.0, 447.0, 447.0, 447.0, 447.0, 447.0, 447.0, 447.0, 447.0, 447.0, 447.0, 447.0, 447.0, 447.0, 447.0, 447.0, 447.0, 447.0, 447.0, 447.0, 447.0, 447.0, 447.0, 447.0, 447.0, 447.0, 447.0, 447.0, 447.0, 447.0, 447.0, 447.0, 447.0, 447.0, 447.0, 447.0, 447.0, 447.0, 447.0, 447.0, 447.0, 447.0, 447.0, 447.0, 447.0, 447.0, 447.0, 447.0, 447.0, 447.0, 447.0, 447.0, 447.0, 447.0, 447.0, 447.0, 447.0, 447.0, 447.0, 447.0, 447.0, 447.0, 447.0, 447.0, 447.0, 447.0, 447.0, 447.0, 447.0, 447.0, 447.0, 447.0, 447.0, 447.0, 447.0, 447.0, 447.0, 447.0, 447.0, 447.0, 447.0, 447.0, 447.0, 447.0, 447.0, 447.0, 447.0, 447.0, 447.0, 447.0, 446.0, 447.0, 447.0, 447.0, 447.0, 447.0, 447.0, 447.0, 447.0, 447.0, 446.0, 446.0, 447.0, 447.0, 447.0, 447.0, 447.0, 447.0, 447.0, 446.0, 446.0, 447.0, 446.0, 447.0, 447.0, 447.0, 447.0, 446.0, 447.0, 447.0, 447.0, 447.0, 446.0, 446.0, 447.0, 447.0, 446.0, 447.0, 446.0, 446.0, 447.0, 446.0, 446.0, 446.0, 446.0, 446.0, 446.0, 446.0, 446.0, 447.0, 446.0, 446.0],
      "WindowWidth": [931.0, 931.0, 931.0, 931.0, 931.0, 931.0, 931.0, 931.0, 931.0, 931.0, 930.0, 931.0, 931.0, 931.0, 930.0, 930.0, 930.0, 931.0, 930.0, 930.0, 930.0, 930.0, 930.0, 930.0, 931.0, 931.0, 930.0, 930.0, 930.0, 930.0, 931.0, 930.0, 930.0, 930.0, 930.0, 930.0, 930.0, 931.0, 930.0, 930.0, 930.0, 930.0, 930.0, 931.0, 930.0, 930.0, 930.0, 930.0, 931.0, 931.0, 930.0, 931.0, 930.0, 930.0, 930.0, 931.0, 930.0, 930.0, 930.0, 930.0, 930.0, 930.0, 930.0, 930.0, 930.0, 930.0, 930.0, 930.0, 930.0, 930.0, 930.0, 930.0, 930.0, 930.0, 930.0, 930.0, 930.0, 930.0, 930.0, 930.0, 930.0, 930.0, 930.0, 930.0, 930.0, 930.0, 930.0, 930.0, 930.0, 930.0, 930.0, 930.0, 930.0, 930.0, 930.0, 930.0, 930.0, 930.0, 930.0, 930.0, 930.0, 930.0, 930.0, 930.0, 929.0, 930.0, 930.0, 930.0, 930.0, 930.0, 930.0, 930.0, 930.0, 929.0, 929.0, 929.0, 929.0, 929.0, 930.0, 929.0, 930.0, 930.0, 930.0, 930.0, 929.0, 930.0, 930.0, 930.0, 930.0, 930.0, 930.0, 930.0, 930.0, 930.0, 930.0, 930.0, 929.0, 929.0, 929.0, 929.0, 929.0, 929.0, 929.0, 929.0, 929.0, 929.0, 929.0, 929.0, 929.0, 929.0, 929.0, 929.0, 929.0, 929.0, 929.0, 929.0, 929.0, 929.0, 929.0, 929.0, 929.0, 929.0, 929.0, 929.0, 929.0, 929.0, 929.0, 929.0, 928.0, 929.0, 928.0, 929.0, 929.0, 929.0, 929.0, 928.0, 929.0, 929.0, 929.0, 929.0, 928.0, 928.0, 929.0, 929.0, 928.0, 929.0, 928.0, 928.0, 929.0, 928.0, 928.0, 928.0, 928.0, 928.0, 928.0, 928.0, 928.0, 929.0, 928.0, 928.0]
    },
    "slices": {}
  }
}