{
  "AcquisitionMatrixPE": 80,
  "AcquisitionNumber": 1,
  "AcquisitionTime": "09:11:35.212500",
  "BandwidthPerPixelPhaseEncode": 48.077,
  "BaseResolution": 80,
  "BodyPartExamined": "BRAIN",
  "CoilCombinationMethod": "Sum of Squares",
  "ConsistencyInfo": "N4_VE11C_LATEST_20160120",
  "ConversionSoftware": "dcm2niix",
  "ConversionSoftwareVersion": "v1.0.20220720",
  "DerivedVendorReportedEchoSpacing": 0.000519999,
  "DeviceSerialNumber": "66112",
  "DwellTime": 2.7e-06,
  "EchoTime": 0.035,
  "EchoTrainLength": 39,
  "EffectiveEchoSpacing": 0.00026,
  "FlipAngle": 90,
  "HeudiconvVersion": "0.13.1",
  "ImageOrientationPatientDICOM": [0.988344, 0.152003, 0.00839265, -0.146651, 0.935852, 0.320428],
  "ImageOrientationText": "Tra>Cor(18.6)>Sag(-2.3)",
  "ImageType": [
    "ORIGINAL",
    "PRIMARY",
    "M",
    "ND",
    "NORM",
    "MOSAIC"
],
  "ImagingFrequency": 123.252,
  "InPlanePhaseEncodingDirectionDICOM": "COL",
  "InstitutionAddress": "Maynard 3,Hanover,NH,US,03755",
  "InstitutionName": "Dartmouth College - PBS",
  "InstitutionalDepartmentName": "Department",
  "MRAcquisitionType": "2D",
  "MagneticFieldStrength": 3,
  "Manufacturer": "Siemens",
  "ManufacturersModelName": "Prisma",
  "MatrixCoilMode": "GRAPPA",
  "Modality": "MR",
  "NonlinearGradientCorrection": false,
  "ParallelReductionFactorInPlane": 2,
  "PartialFourier": 1,
  "PatientPosition": "HFS",
  "PercentPhaseFOV": 100,
  "PercentSampling": 100,
  "PhaseEncodingDirection": "j-",
  "PhaseEncodingSteps": 79,
  "PhaseResolution": 1,
  "PixelBandwidth": 2315,
  "ProcedureStepDescription": "dbic^QA",
  "ProtocolName": "func-bold_task-rest_acq-p2",
  "PulseSequenceDetails": "%SiemensSeq%\\ep2d_bold",
  "ReceiveCoilActiveElements": "HC1-7;NC1,2",
  "ReceiveCoilName": "HeadNeck_64",
  "ReconMatrixPE": 80,
  "RefLinesPE": 24,
  "RepetitionTime": 2,
  "SAR": 0.0410653,
  "ScanOptions": "FS",
  "ScanningSequence": "EP",
  "SequenceName": "*epfid2d1_80",
  "SequenceVariant": "SK",
  "SeriesDescription": "func-bold_task-rest_acq-p2",
  "SeriesNumber": 5,
  "ShimSetting": [4137, -7721, -7514, 152, -67, -308, -58, 99],
  "SliceThickness": 3.5,
  "SliceTiming": [0.99, 0, 1.055, 0.065, 1.12, 0.1325, 1.1875, 0.1975, 1.2525, 0.2625, 1.32, 0.33, 1.385, 0.395, 1.45, 0.4625, 1.5175, 0.5275, 1.5825, 0.5925, 1.65, 0.66, 1.715, 0.725, 1.78, 0.7925, 1.8475, 0.8575, 1.9125, 0.9225],
  "SoftwareVersions": "syngo MR E11",
  "SpacingBetweenSlices": 3.99,
  "StationName": "AWP66112",
  "TaskName": "rest",
  "TotalReadoutTime": 0.02054,
  "TxRefAmp": 214.041,
  "dcmmeta_affine": [
    [-2.9650330543518066, -0.43995338678359985, -0.1629989892244339, 140.35789489746094],
    [-0.45600980520248413, 2.80755615234375, 1.2685182094573975, -96.11937713623047],
    [0.025177961215376854, -0.9612851142883301, 3.7794699668884277, -8.073796272277832],
    [0.0, 0.0, 0.0, 1.0]
],
  "dcmmeta_reorient_transform": [
    [0.0, -1.0, 0.0, 79.0],
    [1.0, 0.0, 0.0, 0.0],
    [0.0, 0.0, 1.0, 0.0],
    [0.0, 0.0, 0.0, 1.0]
],
  "dcmmeta_shape": [80, 80, 30, 200],
  "dcmmeta_slice_dim": 2,
  "dcmmeta_version": 0.6,
  "global": {
    "const": {
      "AccessionNumber": "qa64",
      "AcquisitionMatrix": [80, 0, 0, 80],
      "AngioFlag": "N",
      "BitsAllocated": 16,
      "BitsStored": 12,
      "BodyPartExamined": "BRAIN",
      "Columns": 480,
      "EchoNumbers": 1,
      "EchoTime": 35.0,
      "EchoTrainLength": 39,
      "FlipAngle": 90.0,
      "HighBit": 11,
      "ImageOrientationPatient": [0.98834435789948, 0.15200326830635, 0.0083926534808, -0.1466511315574, 0.93585207610541, 0.32042836525833],
      "ImagePositionPatient": [-610.61750734663, -778.39076857354, -281.30793051976],
      "ImageType": [
        "ORIGINAL",
        "PRIMARY",
        "M",
        "ND",
        "NORM",
        "MOSAIC"
],
      "ImagedNucleus": "1H",
      "ImagingFrequency": 123.252354,
      "InPlanePhaseEncodingDirection": "COL",
      "MRAcquisitionType": "2D",
      "MagneticFieldStrength": 3.0,
      "Manufacturer": "SIEMENS",
      "ManufacturerModelName": "Prisma",
      "Modality": "MR",
      "NumberOfAverages": 1.0,
      "NumberOfPhaseEncodingSteps": 79,
      "PercentPhaseFieldOfView": 100.0,
      "PercentSampling": 100.0,
      "PerformedProcedureStepStartTime": "090509.621000",
      "PhotometricInterpretation": "MONOCHROME2",
      "PixelBandwidth": 2315.0,
      "PixelRepresentation": 0,
      "PixelSpacing": [3.0, 3.0],
      "ProtocolName": "func-bold_task-rest_acq-p2",
      "RepetitionTime": 2000.0,
      "Rows": 480,
      "SAR": 0.04106528293899,
      "SamplesPerPixel": 1,
      "ScanOptions": "FS",
      "ScanningSequence": "EP",
      "SequenceName": "*epfid2d1_80",
      "SequenceVariant": "SK",
      "SeriesDescription": "func-bold_task-rest_acq-p2",
      "SeriesNumber": 5,
      "SeriesTime": "091232.168000",
      "SliceLocation": -43.940362936184,
      "SliceThickness": 3.5,
      "SmallestImagePixelValue": 0,
      "SoftwareVersions": "syngo MR E11",
      "SpacingBetweenSlices": 3.989999921723,
      "SpecificCharacterSet": "ISO_IR 100",
      "StudyID": "2",
      "StudyTime": "090509.557000",
      "TransmitCoilName": "Body",
      "VariableFlipAngleFlag": "N",
      "WindowCenterWidthExplanation": "Algo1",
      "dBdt": 0.0},
    "slices": {}
  },
  "time": {
    "samples": {
      "AcquisitionNumber": [1, 2, 3, 4, 5, 6, 7, 8, 9, 10, 11, 12, 13, 14, 15, 16, 17, 18, 19, 20, 21, 22, 23, 24, 25, 26, 27, 28, 29, 30, 31, 32, 33, 34, 35, 36, 37, 38, 39, 40, 41, 42, 43, 44, 45, 46, 47, 48, 49, 50, 51, 52, 53, 54, 55, 56, 57, 58, 59, 60, 61, 62, 63, 64, 65, 66, 67, 68, 69, 70, 71, 72, 73, 74, 75, 76, 77, 78, 79, 80, 81, 82, 83, 84, 85, 86, 87, 88, 89, 90, 91, 92, 93, 94, 95, 96, 97, 98, 99, 100, 101, 102, 103, 104, 105, 106, 107, 108, 109, 110, 111, 112, 113, 114, 115, 116, 117, 118, 119, 120, 121, 122, 123, 124, 125, 126, 127, 128, 129, 130, 131, 132, 133, 134, 135, 136, 137, 138, 139, 140, 141, 142, 143, 144, 145, 146, 147, 148, 149, 150, 151, 152, 153, 154, 155, 156, 157, 158, 159, 160, 161, 162, 163, 164, 165, 166, 167, 168, 169, 170, 171, 172, 173, 174, 175, 176, 177, 178, 179, 180, 181, 182, 183, 184, 185, 186, 187, 188, 189, 190, 191, 192, 193, 194, 195, 196, 197, 198, 199, 200],
      "AcquisitionTime": ["091135.212500", "091137.212500", "091139.212500", "091141.212500", "091143.212500", "091145.212500", "091147.212500", "091149.212500", "091151.212500", "091153.212500", "091155.212500", "091157.212500", "091159.212500", "091201.212500", "091203.212500", "091205.212500", "091207.212500", "091209.212500", "091211.212500", "091213.212500", "091215.212500", "091217.212500", "091219.212500", "091221.212500", "091223.212500", "091225.212500", "091227.212500", "091229.212500", "091231.212500", "091233.212500", "091235.212500", "091237.212500", "091239.212500", "091241.212500", "091243.212500", "091245.212500", "091247.212500", "091249.212500", "091251.212500", "091253.212500", "091255.212500", "091257.212500", "091259.212500", "091301.212500", "091303.212500", "091305.212500", "091307.212500", "091309.212500", "091311.212500", "091313.212500", "091315.212500", "091317.212500", "091319.212500", "091321.212500", "091323.212500", "091325.212500", "091327.212500", "091329.212500", "091331.212500", "091333.212500", "091335.212500", "091337.212500", "091339.212500", "091341.212500", "091343.212500", "091345.212500", "091347.212500", "091349.212500", "091351.212500", "091353.212500", "091355.212500", "091357.212500", "091359.212500", "091401.212500", "091403.212500", "091405.212500", "091407.212500", "091409.212500", "091411.212500", "091413.212500", "091415.212500", "091417.212500", "091419.212500", "091421.212500", "091423.212500", "091425.212500", "091427.212500", "091429.212500", "091431.212500", "091433.212500", "091435.212500", "091437.212500", "091439.212500", "091441.212500", "091443.212500", "091445.212500", "091447.212500", "091449.212500", "091451.212500", "091453.212500", "091455.212500", "091457.212500", "091459.212500", "091501.212500", "091503.212500", "091505.212500", "091507.212500", "091509.212500", "091511.212500", "091513.212500", "091515.212500", "091517.212500", "091519.212500", "091521.212500", "091523.212500", "091525.212500", "091527.212500", "091529.212500", "091531.212500", "091533.212500", "091535.212500", "091537.212500", "091539.212500", "091541.212500", "091543.212500", "091545.212500", "091547.212500", "091549.212500", "091551.212500", "091553.212500", "091555.212500", "091557.212500", "091559.212500", "091601.212500", "091603.212500", "091605.212500", "091607.212500", "091609.212500", "091611.212500", "091613.212500", "091615.212500", "091617.212500", "091619.212500", "091621.212500", "091623.212500", "091625.212500", "091627.212500", "091629.212500", "091631.212500", "091633.212500", "091635.212500", "091637.212500", "091639.212500", "091641.212500", "091643.212500", "091645.212500", "091647.212500", "091649.212500", "091651.212500", "091653.212500", "091655.212500", "091657.212500", "091659.212500", "091701.212500", "091703.212500", "091705.212500", "091707.212500", "091709.212500", "091711.212500", "091713.212500", "091715.212500", "091717.212500", "091719.212500", "091721.212500", "091723.212500", "091725.212500", "091727.212500", "091729.212500", "091731.212500", "091733.212500", "091735.212500", "091737.212500", "091739.212500", "091741.212500", "091743.212500", "091745.212500", "091747.212500", "091749.212500", "091751.212500", "091753.212500", "091755.212500", "091757.212500", "091759.212500", "091801.212500", "091803.212500", "091805.212500", "091807.212500", "091809.212500", "091811.212500", "091813.212500"],
      "ContentTime": ["091232.172000", "091232.175000", "091232.178000", "091232.181000", "091232.183000", "091232.186000", "091232.188000", "091232.191000", "091232.194000", "091232.196000", "091232.199000", "091232.202000", "091232.208000", "091232.211000", "091232.213000", "091232.216000", "091232.219000", "091232.221000", "091232.224000", "091232.226000", "091232.229000", "091232.232000", "091232.234000", "091232.237000", "091232.240000", "091232.242000", "091232.245000", "091232.247000", "091312.167000", "091312.170000", "091312.172000", "091312.175000", "091312.178000", "091312.180000", "091312.183000", "091312.186000", "091312.188000", "091312.191000", "091312.193000", "091312.196000", "091312.199000", "091312.201000", "091312.209000", "091312.212000", "091312.214000", "091312.217000", "091312.220000", "091312.222000", "091352.166000", "091352.169000", "091352.171000", "091352.174000", "091352.176000", "091352.179000", "091352.182000", "091352.184000", "091352.187000", "091352.190000", "091352.192000", "091352.195000", "091352.197000", "091352.200000", "091352.203000", "091352.205000", "091352.208000", "091352.210000", "091352.213000", "091352.215000", "091432.166000", "091432.169000", "091432.172000", "091432.174000", "091432.177000", "091432.180000", "091432.182000", "091432.185000", "091432.187000", "091432.190000", "091432.192000", "091432.195000", "091432.197000", "091432.200000", "091432.203000", "091432.205000", "091432.208000", "091432.211000", "091432.213000", "091432.216000", "091512.166000", "091512.170000", "091512.172000", "091512.175000", "091512.177000", "091512.180000", "091512.183000", "091512.185000", "091512.188000", "091512.191000", "091512.193000", "091512.196000", "091512.198000", "091512.201000", "091512.204000", "091512.206000", "091512.209000", "091512.212000", "091512.214000", "091512.217000", "091552.166000", "091552.169000", "091552.171000", "091552.174000", "091552.177000", "091552.179000", "091552.182000", "091552.185000", "091552.187000", "091552.190000", "091552.192000", "091552.195000", "091552.198000", "091552.200000", "091552.203000", "091552.205000", "091552.208000", "091552.211000", "091552.213000", "091552.216000", "091632.167000", "091632.170000", "091632.172000", "091632.175000", "091632.177000", "091632.180000", "091632.183000", "091632.185000", "091632.188000", "091632.191000", "091632.193000", "091632.196000", "091632.198000", "091632.201000", "091632.204000", "091632.206000", "091632.209000", "091632.211000", "091632.214000", "091632.217000", "091712.166000", "091712.170000", "091712.172000", "091712.175000", "091712.177000", "091712.180000", "091712.183000", "091712.185000", "091712.188000", "091712.191000", "091712.193000", "091712.196000", "091712.198000", "091712.201000", "091712.204000", "091712.206000", "091712.209000", "091712.211000", "091712.214000", "091712.217000", "091752.167000", "091752.170000", "091752.172000", "091752.175000", "091752.178000", "091752.180000", "091752.183000", "091752.185000", "091752.188000", "091752.191000", "091752.193000", "091752.196000", "091752.198000", "091752.201000", "091752.204000", "091752.206000", "091752.209000", "091752.212000", "091752.214000", "091752.217000", "091815.047000", "091815.050000", "091815.053000", "091815.055000", "091815.058000", "091815.061000", "091815.064000", "091815.067000", "091815.069000", "091815.072000", "091815.075000", "091815.080000"],
      "InstanceCreationTime": ["091232.172000", "091232.175000", "091232.178000", "091232.181000", "091232.183000", "091232.186000", "091232.188000", "091232.191000", "091232.194000", "091232.196000", "091232.199000", "091232.202000", "091232.208000", "091232.211000", "091232.213000", "091232.216000", "091232.219000", "091232.221000", "091232.224000", "091232.226000", "091232.229000", "091232.232000", "091232.234000", "091232.237000", "091232.240000", "091232.242000", "091232.245000", "091232.247000", "091312.167000", "091312.170000", "091312.172000", "091312.175000", "091312.178000", "091312.180000", "091312.183000", "091312.186000", "091312.188000", "091312.191000", "091312.193000", "091312.196000", "091312.199000", "091312.201000", "091312.209000", "091312.212000", "091312.214000", "091312.217000", "091312.220000", "091312.222000", "091352.166000", "091352.169000", "091352.171000", "091352.174000", "091352.176000", "091352.179000", "091352.182000", "091352.184000", "091352.187000", "091352.190000", "091352.192000", "091352.195000", "091352.197000", "091352.200000", "091352.203000", "091352.205000", "091352.208000", "091352.210000", "091352.213000", "091352.215000", "091432.166000", "091432.169000", "091432.172000", "091432.174000", "091432.177000", "091432.180000", "091432.182000", "091432.185000", "091432.187000", "091432.190000", "091432.192000", "091432.195000", "091432.197000", "091432.200000", "091432.203000", "091432.205000", "091432.208000", "091432.211000", "091432.213000", "091432.216000", "091512.166000", "091512.170000", "091512.172000", "091512.175000", "091512.177000", "091512.180000", "091512.183000", "091512.185000", "091512.188000", "091512.191000", "091512.193000", "091512.196000", "091512.198000", "091512.201000", "091512.204000", "091512.206000", "091512.209000", "091512.212000", "091512.214000", "091512.217000", "091552.166000", "091552.169000", "091552.171000", "091552.174000", "091552.177000", "091552.179000", "091552.182000", "091552.185000", "091552.187000", "091552.190000", "091552.192000", "091552.195000", "091552.198000", "091552.200000", "091552.203000", "091552.205000", "091552.208000", "091552.211000", "091552.213000", "091552.216000", "091632.167000", "091632.170000", "091632.172000", "091632.175000", "091632.177000", "091632.180000", "091632.183000", "091632.185000", "091632.188000", "091632.191000", "091632.193000", "091632.196000", "091632.198000", "091632.201000", "091632.204000", "091632.206000", "091632.209000", "091632.211000", "091632.214000", "091632.217000", "091712.166000", "091712.170000", "091712.172000", "091712.175000", "091712.177000", "091712.180000", "091712.183000", "091712.185000", "091712.188000", "091712.191000", "091712.193000", "091712.196000", "091712.198000", "091712.201000", "091712.204000", "091712.206000", "091712.209000", "091712.211000", "091712.214000", "091712.217000", "091752.167000", "091752.170000", "091752.172000", "091752.175000", "091752.178000", "091752.180000", "091752.183000", "091752.185000", "091752.188000", "091752.191000", "091752.193000", "091752.196000", "091752.198000", "091752.201000", "091752.204000", "091752.206000", "091752.209000", "091752.212000", "091752.214000", "091752.217000", "091815.047000", "091815.050000", "091815.053000", "091815.055000", "091815.058000", "091815.061000", "091815.064000", "091815.067000", "091815.069000", "091815.072000", "091815.075000", "091815.080000"],
      "InstanceNumber": [1, 2, 3, 4, 5, 6, 7, 8, 9, 10, 11, 12, 13, 14, 15, 16, 17, 18, 19, 20, 21, 22, 23, 24, 25, 26, 27, 28, 29, 30, 31, 32, 33, 34, 35, 36, 37, 38, 39, 40, 41, 42, 43, 44, 45, 46, 47, 48, 49, 50, 51, 52, 53, 54, 55, 56, 57, 58, 59, 60, 61, 62, 63, 64, 65, 66, 67, 68, 69, 70, 71, 72, 73, 74, 75, 76, 77, 78, 79, 80, 81, 82, 83, 84, 85, 86, 87, 88, 89, 90, 91, 92, 93, 94, 95, 96, 97, 98, 99, 100, 101, 102, 103, 104, 105, 106, 107, 108, 109, 110, 111, 112, 113, 114, 115, 116, 117, 118, 119, 120, 121, 122, 123, 124, 125, 126, 127, 128, 129, 130, 131, 132, 133, 134, 135, 136, 137, 138, 139, 140, 141, 142, 143, 144, 145, 146, 147, 148, 149, 150, 151, 152, 153, 154, 155, 156, 157, 158, 159, 160, 161, 162, 163, 164, 165, 166, 167, 168, 169, 170, 171, 172, 173, 174, 175, 176, 177, 178, 179, 180, 181, 182, 183, 184, 185, 186, 187, 188, 189, 190, 191, 192, 193, 194, 195, 196, 197, 198, 199, 200],
      "LargestImagePixelValue": [3868, 3869, 3885, 3870, 3880, 3875, 3885, 3877, 3883, 3870, 3862, 3869, 3875, 3877, 3878, 3869, 3866, 3869, 3871, 3871, 3854, 3856, 3868, 3868, 3875, 3872, 3880, 3870, 3875, 3880, 3868, 3869, 3869, 3868, 3868, 3863, 3881, 3874, 3869, 3882, 3892, 3875, 3876, 3884, 3890, 3873, 3887, 3874, 3899, 3876, 3860, 3883, 3886, 3883, 3871, 3870, 3870, 3867, 3874, 3880, 3860, 3867, 3874, 3864, 3872, 3871, 3870, 3867, 3873, 3882, 3886, 3878, 3894, 3877, 3889, 3890, 3888, 3889, 3887, 3882, 3870, 3869, 3880, 3871, 3866, 3869, 3870, 3882, 3874, 3877, 3877, 3872, 3871, 3878, 3872, 3872, 3873, 3873, 3882, 3893, 3901, 3878, 3889, 3888, 3886, 3889, 3875, 3882, 3896, 3877, 3886, 3883, 3899, 3899, 3885, 3887, 3882, 3895, 3907, 3890, 3878, 3875, 3880, 3880, 3872, 3872, 3873, 3869, 3866, 3866, 3868, 3869, 3875, 3862, 3872, 3856, 3864, 3869, 3853, 3873, 3867, 3864, 3861, 3878, 3868, 3864, 3873, 3872, 3887, 3870, 3878, 3876, 3881, 3877, 3872, 3883, 3887, 3887, 3888, 3885, 3887, 3891, 3882, 3885, 3893, 3896, 3877, 3879, 3874, 3873, 3873, 3863, 3874, 3866, 3875, 3870, 3868, 3866, 3872, 3873, 3869, 3867, 3870, 3882, 3884, 3883, 3880, 3860, 3866, 3870, 3868, 3877, 3876, 3868, 3883, 3877, 3880, 3879, 3872, 3872],
      "WindowCenter": [1431.0, 1431.0, 1430.0, 1429.0, 1430.0, 1430.0, 1430.0, 1430.0, 1429.0, 1430.0, 1431.0, 1430.0, 1430.0, 1430.0, 1429.0, 1429.0, 1430.0, 1430.0, 1430.0, 1430.0, 1430.0, 1429.0, 1430.0, 1429.0, 1430.0, 1430.0, 1429.0, 1429.0, 1429.0, 1430.0, 1429.0, 1429.0, 1429.0, 1428.0, 1429.0, 1429.0, 1429.0, 1428.0, 1429.0, 1429.0, 1429.0, 1429.0, 1427.0, 1428.0, 1428.0, 1428.0, 1428.0, 1427.0, 1427.0, 1427.0, 1427.0, 1427.0, 1426.0, 1428.0, 1427.0, 1427.0, 1426.0, 1427.0, 1426.0, 1426.0, 1427.0, 1427.0, 1427.0, 1426.0, 1426.0, 1426.0, 1427.0, 1426.0, 1426.0, 1426.0, 1426.0, 1426.0, 1426.0, 1426.0, 1426.0, 1425.0, 1426.0, 1425.0, 1426.0, 1426.0, 1427.0, 1426.0, 1426.0, 1426.0, 1426.0, 1426.0, 1426.0, 1425.0, 1425.0, 1425.0, 1426.0, 1425.0, 1426.0, 1425.0, 1426.0, 1426.0, 1425.0, 1425.0, 1425.0, 1426.0, 1425.0, 1425.0, 1426.0, 1426.0, 1426.0, 1425.0, 1425.0, 1426.0, 1425.0, 1425.0, 1425.0, 1425.0, 1425.0, 1425.0, 1425.0, 1425.0, 1425.0, 1425.0, 1425.0, 1425.0, 1424.0, 1425.0, 1425.0, 1425.0, 1425.0, 1424.0, 1425.0, 1426.0, 1425.0, 1425.0, 1425.0, 1425.0, 1425.0, 1426.0, 1425.0, 1425.0, 1425.0, 1425.0, 1424.0, 1425.0, 1424.0, 1424.0, 1425.0, 1425.0, 1426.0, 1425.0, 1426.0, 1426.0, 1425.0, 1425.0, 1425.0, 1425.0, 1425.0, 1425.0, 1425.0, 1425.0, 1426.0, 1425.0, 1425.0, 1425.0, 1425.0, 1425.0, 1425.0, 1426.0, 1426.0, 1425.0, 1425.0, 1425.0, 1425.0, 1425.0, 1425.0, 1425.0, 1426.0, 1425.0, 1425.0, 1424.0, 1425.0, 1426.0, 1425.0, 1425.0, 1425.0, 1426.0, 1424.0, 1425.0, 1425.0, 1425.0, 1425.0, 1425.0, 1425.0, 1425.0, 1424.0, 1425.0, 1425.0, 1425.0, 1425.0, 1425.0, 1425.0, 1425.0, 1425.0, 1425.0],
      "WindowWidth": [3295.0, 3295.0, 3294.0, 3295.0, 3294.0, 3294.0, 3294.0, 3294.0, 3294.0, 3294.0, 3294.0, 3294.0, 3294.0, 3294.0, 3294.0, 3294.0, 3294.0, 3294.0, 3294.0, 3294.0, 3294.0, 3294.0, 3294.0, 3294.0, 3294.0, 3293.0, 3294.0, 3294.0, 3294.0, 3293.0, 3294.0, 3294.0, 3294.0, 3294.0, 3294.0, 3294.0, 3294.0, 3294.0, 3294.0, 3294.0, 3294.0, 3294.0, 3294.0, 3294.0, 3294.0, 3294.0, 3294.0, 3294.0, 3294.0, 3294.0, 3294.0, 3294.0, 3295.0, 3294.0, 3294.0, 3294.0, 3295.0, 3294.0, 3295.0, 3295.0, 3294.0, 3294.0, 3294.0, 3295.0, 3295.0, 3295.0, 3294.0, 3295.0, 3295.0, 3295.0, 3295.0, 3295.0, 3294.0, 3294.0, 3294.0, 3294.0, 3294.0, 3294.0, 3294.0, 3294.0, 3294.0, 3294.0, 3293.0, 3294.0, 3294.0, 3293.0, 3293.0, 3294.0, 3294.0, 3294.0, 3293.0, 3293.0, 3293.0, 3294.0, 3293.0, 3293.0, 3293.0, 3293.0, 3293.0, 3293.0, 3293.0, 3293.0, 3293.0, 3293.0, 3293.0, 3293.0, 3293.0, 3293.0, 3293.0, 3293.0, 3293.0, 3293.0, 3293.0, 3293.0, 3292.0, 3293.0, 3293.0, 3293.0, 3293.0, 3292.0, 3293.0, 3293.0, 3293.0, 3293.0, 3292.0, 3293.0, 3292.0, 3292.0, 3293.0, 3292.0, 3293.0, 3293.0, 3292.0, 3292.0, 3292.0, 3292.0, 3292.0, 3292.0, 3293.0, 3293.0, 3293.0, 3293.0, 3292.0, 3293.0, 3292.0, 3292.0, 3292.0, 3292.0, 3292.0, 3292.0, 3292.0, 3292.0, 3292.0, 3292.0, 3293.0, 3293.0, 3292.0, 3292.0, 3292.0, 3292.0, 3292.0, 3292.0, 3292.0, 3292.0, 3292.0, 3292.0, 3292.0, 3292.0, 3292.0, 3292.0, 3293.0, 3293.0, 3292.0, 3293.0, 3293.0, 3293.0, 3292.0, 3292.0, 3293.0, 3293.0, 3293.0, 3292.0, 3293.0, 3293.0, 3293.0, 3293.0, 3293.0, 3292.0, 3292.0, 3293.0, 3292.0, 3293.0, 3293.0, 3293.0, 3293.0, 3293.0, 3293.0, 3293.0, 3292.0, 3293.0]
    },
    "slices": {}
  }
}