{
  "AcquisitionMatrixPE": 80,
  "AcquisitionNumber": 1,
  "AcquisitionTime": "09:24:56.180000",
  "BandwidthPerPixelPhaseEncode": 44.643,
  "BaseResolution": 80,
  "BodyPartExamined": "BRAIN",
  "CoilCombinationMethod": "Sum of Squares",
  "ConsistencyInfo": "N4_VE11C_LATEST_20160120",
  "ConversionSoftware": "dcm2niix",
  "ConversionSoftwareVersion": "v1.0.20220720",
  "DerivedVendorReportedEchoSpacing": 0.000559998,
  "DeviceSerialNumber": "66112",
  "DwellTime": 2.7e-06,
  "EchoTime": 0.035,
  "EchoTrainLength": 39,
  "EffectiveEchoSpacing": 0.000279999,
  "FlipAngle": 90,
  "HeudiconvVersion": "0.13.1",
  "ImageOrientationPatientDICOM": [0.988379, 0.151847, 0.00702088, -0.146656, 0.940405, 0.306808],
  "ImageOrientationText": "Tra>Cor(17.7)>Sag(-2.3)",
  "ImageType": [
    "ORIGINAL",
    "PRIMARY",
    "M",
    "ND",
    "NORM",
    "MOSAIC"
],
  "ImagingFrequency": 123.252,
  "InPlanePhaseEncodingDirectionDICOM": "COL",
  "InstitutionAddress": "Maynard 3,Hanover,NH,US,03755",
  "InstitutionName": "Dartmouth College - PBS",
  "InstitutionalDepartmentName": "Department",
  "MRAcquisitionType": "2D",
  "MagneticFieldStrength": 3,
  "Manufacturer": "Siemens",
  "ManufacturersModelName": "Prisma",
  "Modality": "MR",
  "MultibandAccelerationFactor": 4,
  "NonlinearGradientCorrection": false,
  "ParallelReductionFactorInPlane": 2,
  "PartialFourier": 1,
  "PatientPosition": "HFS",
  "PercentPhaseFOV": 100,
  "PercentSampling": 100,
  "PhaseEncodingDirection": "j-",
  "PhaseEncodingSteps": 79,
  "PhaseResolution": 1,
  "PixelBandwidth": 2315,
  "ProcedureStepDescription": "dbic^QA",
  "ProtocolName": "func-bold_task-rest_acq-p2-s4-3.5mm",
  "PulseSequenceDetails": "%SiemensSeq%\\ep2d_bold",
  "ReceiveCoilActiveElements": "HEA;HEP",
  "ReceiveCoilName": "Head_32",
  "ReconMatrixPE": 80,
  "RefLinesPE": 24,
  "RepetitionTime": 2,
  "SAR": 0.0208751,
  "ScanOptions": "FS",
  "ScanningSequence": "EP",
  "SequenceName": "*epfid2d1_80",
  "SequenceVariant": "SK",
  "SeriesDescription": "func-bold_task-rest_acq-p2-s4-3.5mm",
  "SeriesNumber": 7,
  "ShimSetting": [4144, -7705, -7509, 251, -78, -133, -27, 68],
  "SliceThickness": 3.5,
  "SliceTiming": [1.485, 0, 0.99, 0.2475, 1.2375, 0.7425, 1.7325, 0.495, 1.485, 0, 0.99, 0.2475, 1.2375, 0.7425, 1.7325, 0.495, 1.485, 0, 0.99, 0.2475, 1.2375, 0.7425, 1.7325, 0.495, 1.485, 0, 0.99, 0.2475, 1.2375, 0.7425, 1.7325, 0.495],
  "SoftwareVersions": "syngo MR E11",
  "SpacingBetweenSlices": 3.99,
  "StationName": "AWP66112",
  "TaskName": "rest",
  "TotalReadoutTime": 0.0221199,
  "TxRefAmp": 235.792,
  "dcmmeta_affine": [
    [-2.965137004852295, -0.4399688243865967, -0.15954215824604034, 139.36801147460938],
    [-0.4555419683456421, 2.821213722229004, 1.2140461206436157, -101.69146728515625],
    [0.021062638610601425, -0.9204239249229431, 3.797464609146118, -13.72042465209961],
    [0.0, 0.0, 0.0, 1.0]
],
  "dcmmeta_reorient_transform": [
    [0.0, -1.0, 0.0, 79.0],
    [1.0, 0.0, 0.0, 0.0],
    [0.0, 0.0, 1.0, 0.0],
    [0.0, 0.0, 0.0, 1.0]
],
  "dcmmeta_shape": [80, 80, 32, 200],
  "dcmmeta_slice_dim": 2,
  "dcmmeta_version": 0.6,
  "global": {
    "const": {
      "AccessionNumber": "qa",
      "AcquisitionMatrix": [80, 0, 0, 80],
      "AngioFlag": "N",
      "BitsAllocated": 16,
      "BitsStored": 12,
      "BodyPartExamined": "BRAIN",
      "Columns": 480,
      "EchoNumbers": 1,
      "EchoTime": 35.0,
      "EchoTrainLength": 39,
      "FlipAngle": 90.0,
      "HighBit": 11,
      "ImageOrientationPatient": [0.98837902510826, 0.15184732456256, 0.00702087952079, -0.146656272686, 0.94040459666162, 0.30680797293998],
      "ImagePositionPatient": [-609.64412458191, -776.53557624406, -274.73122598123],
      "ImageType": [
        "ORIGINAL",
        "PRIMARY",
        "M",
        "ND",
        "NORM",
        "MOSAIC"
],
      "ImagedNucleus": "1H",
      "ImagingFrequency": 123.252385,
      "InPlanePhaseEncodingDirection": "COL",
      "MRAcquisitionType": "2D",
      "MagneticFieldStrength": 3.0,
      "Manufacturer": "SIEMENS",
      "ManufacturerModelName": "Prisma",
      "Modality": "MR",
      "NumberOfAverages": 1.0,
      "NumberOfPhaseEncodingSteps": 79,
      "PercentPhaseFieldOfView": 100.0,
      "PercentSampling": 100.0,
      "PerformedProcedureStepStartTime": "091618.052000",
      "PhotometricInterpretation": "MONOCHROME2",
      "PixelBandwidth": 2315.0,
      "PixelRepresentation": 0,
      "PixelSpacing": [3.0, 3.0],
      "ProtocolName": "func-bold_task-rest_acq-p2-s4-3.5mm",
      "RepetitionTime": 2000.0,
      "Rows": 480,
      "SAR": 0.02087512662804,
      "SamplesPerPixel": 1,
      "ScanOptions": "FS",
      "ScanningSequence": "EP",
      "SequenceName": "*epfid2d1_80",
      "SequenceVariant": "SK",
      "SeriesDescription": "func-bold_task-rest_acq-p2-s4-3.5mm",
      "SeriesNumber": 7,
      "SeriesTime": "092540.376000",
      "SliceLocation": -49.572941343514,
      "SliceThickness": 3.5,
      "SmallestImagePixelValue": 0,
      "SoftwareVersions": "syngo MR E11",
      "SpacingBetweenSlices": 3.9899999727754,
      "SpecificCharacterSet": "ISO_IR 100",
      "StudyID": "7",
      "StudyTime": "091617.980000",
      "TransmitCoilName": "Body",
      "VariableFlipAngleFlag": "N",
      "WindowCenterWidthExplanation": "Algo1",
      "dBdt": 0.0},
    "slices": {}
  },
  "time": {
    "samples": {
      "AcquisitionNumber": [1, 2, 3, 4, 5, 6, 7, 8, 9, 10, 11, 12, 13, 14, 15, 16, 17, 18, 19, 20, 21, 22, 23, 24, 25, 26, 27, 28, 29, 30, 31, 32, 33, 34, 35, 36, 37, 38, 39, 40, 41, 42, 43, 44, 45, 46, 47, 48, 49, 50, 51, 52, 53, 54, 55, 56, 57, 58, 59, 60, 61, 62, 63, 64, 65, 66, 67, 68, 69, 70, 71, 72, 73, 74, 75, 76, 77, 78, 79, 80, 81, 82, 83, 84, 85, 86, 87, 88, 89, 90, 91, 92, 93, 94, 95, 96, 97, 98, 99, 100, 101, 102, 103, 104, 105, 106, 107, 108, 109, 110, 111, 112, 113, 114, 115, 116, 117, 118, 119, 120, 121, 122, 123, 124, 125, 126, 127, 128, 129, 130, 131, 132, 133, 134, 135, 136, 137, 138, 139, 140, 141, 142, 143, 144, 145, 146, 147, 148, 149, 150, 151, 152, 153, 154, 155, 156, 157, 158, 159, 160, 161, 162, 163, 164, 165, 166, 167, 168, 169, 170, 171, 172, 173, 174, 175, 176, 177, 178, 179, 180, 181, 182, 183, 184, 185, 186, 187, 188, 189, 190, 191, 192, 193, 194, 195, 196, 197, 198, 199, 200],
      "AcquisitionTime": ["092456.180000", "092458.180000", "092500.180000", "092502.180000", "092504.180000", "092506.180000", "092508.180000", "092510.180000", "092512.180000", "092514.180000", "092516.180000", "092518.180000", "092520.180000", "092522.180000", "092524.180000", "092526.180000", "092528.180000", "092530.180000", "092532.180000", "092534.180000", "092536.180000", "092538.180000", "092540.180000", "092542.180000", "092544.180000", "092546.180000", "092548.180000", "092550.180000", "092552.180000", "092554.180000", "092556.180000", "092558.180000", "092600.180000", "092602.180000", "092604.180000", "092606.180000", "092608.180000", "092610.180000", "092612.180000", "092614.180000", "092616.180000", "092618.180000", "092620.180000", "092622.180000", "092624.180000", "092626.180000", "092628.180000", "092630.180000", "092632.180000", "092634.180000", "092636.180000", "092638.180000", "092640.180000", "092642.180000", "092644.180000", "092646.180000", "092648.180000", "092650.180000", "092652.180000", "092654.180000", "092656.180000", "092658.180000", "092700.180000", "092702.180000", "092704.180000", "092706.180000", "092708.180000", "092710.180000", "092712.180000", "092714.180000", "092716.180000", "092718.180000", "092720.180000", "092722.180000", "092724.180000", "092726.180000", "092728.180000", "092730.180000", "092732.180000", "092734.180000", "092736.180000", "092738.180000", "092740.180000", "092742.180000", "092744.180000", "092746.180000", "092748.180000", "092750.180000", "092752.180000", "092754.180000", "092756.180000", "092758.180000", "092800.180000", "092802.180000", "092804.180000", "092806.180000", "092808.180000", "092810.180000", "092812.180000", "092814.180000", "092816.180000", "092818.180000", "092820.180000", "092822.180000", "092824.180000", "092826.180000", "092828.180000", "092830.180000", "092832.180000", "092834.180000", "092836.180000", "092838.180000", "092840.180000", "092842.180000", "092844.180000", "092846.180000", "092848.180000", "092850.180000", "092852.180000", "092854.180000", "092856.180000", "092858.180000", "092900.180000", "092902.180000", "092904.180000", "092906.180000", "092908.180000", "092910.180000", "092912.180000", "092914.180000", "092916.180000", "092918.180000", "092920.180000", "092922.180000", "092924.180000", "092926.180000", "092928.180000", "092930.180000", "092932.180000", "092934.180000", "092936.180000", "092938.180000", "092940.180000", "092942.180000", "092944.180000", "092946.180000", "092948.180000", "092950.180000", "092952.180000", "092954.180000", "092956.180000", "092958.180000", "093000.180000", "093002.180000", "093004.180000", "093006.180000", "093008.180000", "093010.180000", "093012.180000", "093014.180000", "093016.180000", "093018.180000", "093020.180000", "093022.180000", "093024.180000", "093026.180000", "093028.180000", "093030.180000", "093032.180000", "093034.180000", "093036.180000", "093038.180000", "093040.180000", "093042.180000", "093044.180000", "093046.180000", "093048.180000", "093050.180000", "093052.180000", "093054.180000", "093056.180000", "093058.180000", "093100.180000", "093102.180000", "093104.180000", "093106.180000", "093108.180000", "093110.180000", "093112.180000", "093114.180000", "093116.180000", "093118.180000", "093120.180000", "093122.180000", "093124.180000", "093126.180000", "093128.180000", "093130.180000", "093132.180000", "093134.180000"],
      "ContentTime": ["092540.379000", "092540.383000", "092540.385000", "092540.388000", "092540.390000", "092540.403000", "092540.405000", "092540.408000", "092540.410000", "092540.413000", "092540.415000", "092540.418000", "092540.420000", "092540.422000", "092540.425000", "092540.427000", "092540.430000", "092540.437000", "092540.440000", "092540.442000", "092540.445000", "092540.463000", "092620.374000", "092620.377000", "092620.380000", "092620.382000", "092620.385000", "092620.387000", "092620.390000", "092620.392000", "092620.395000", "092620.397000", "092620.400000", "092620.402000", "092620.405000", "092620.407000", "092620.410000", "092620.412000", "092620.415000", "092620.418000", "092620.420000", "092620.422000", "092700.376000", "092700.379000", "092700.381000", "092700.384000", "092700.386000", "092700.389000", "092700.391000", "092700.394000", "092700.396000", "092700.399000", "092700.401000", "092700.404000", "092700.406000", "092700.409000", "092700.411000", "092700.414000", "092700.416000", "092700.419000", "092700.421000", "092700.424000", "092740.374000", "092740.377000", "092740.380000", "092740.382000", "092740.385000", "092740.387000", "092740.390000", "092740.392000", "092740.395000", "092740.397000", "092740.400000", "092740.402000", "092740.405000", "092740.407000", "092740.410000", "092740.412000", "092740.415000", "092740.417000", "092740.420000", "092740.422000", "092820.374000", "092820.377000", "092820.380000", "092820.382000", "092820.385000", "092820.387000", "092820.390000", "092820.392000", "092820.395000", "092820.397000", "092820.400000", "092820.402000", "092820.405000", "092820.407000", "092820.410000", "092820.412000", "092820.415000", "092820.417000", "092820.420000", "092820.422000", "092900.376000", "092900.378000", "092900.381000", "092900.383000", "092900.386000", "092900.389000", "092900.391000", "092900.394000", "092900.396000", "092900.399000", "092900.401000", "092900.404000", "092900.406000", "092900.409000", "092900.411000", "092900.414000", "092900.416000", "092900.419000", "092900.421000", "092900.424000", "092940.375000", "092940.378000", "092940.381000", "092940.383000", "092940.386000", "092940.389000", "092940.391000", "092940.394000", "092940.396000", "092940.398000", "092940.401000", "092940.403000", "092940.406000", "092940.408000", "092940.411000", "092940.413000", "092940.416000", "092940.418000", "092940.421000", "092940.423000", "093020.374000", "093020.377000", "093020.380000", "093020.382000", "093020.385000", "093020.387000", "093020.390000", "093020.392000", "093020.395000", "093020.398000", "093020.400000", "093020.403000", "093020.405000", "093020.408000", "093020.410000", "093020.413000", "093020.415000", "093020.418000", "093020.420000", "093020.423000", "093100.375000", "093100.377000", "093100.380000", "093100.383000", "093100.385000", "093100.388000", "093100.390000", "093100.393000", "093100.396000", "093100.399000", "093100.401000", "093100.404000", "093100.406000", "093100.409000", "093100.411000", "093100.414000", "093100.417000", "093100.419000", "093100.422000", "093100.424000", "093134.704000", "093134.707000", "093134.710000", "093134.712000", "093134.715000", "093134.718000", "093134.721000", "093134.723000", "093134.726000", "093134.728000", "093134.731000", "093134.738000", "093134.743000", "093134.747000", "093134.750000", "093134.753000", "093134.756000", "093134.759000"],
      "InstanceCreationTime": ["092540.379000", "092540.383000", "092540.385000", "092540.388000", "092540.390000", "092540.403000", "092540.405000", "092540.408000", "092540.410000", "092540.413000", "092540.415000", "092540.418000", "092540.420000", "092540.422000", "092540.425000", "092540.427000", "092540.430000", "092540.437000", "092540.440000", "092540.442000", "092540.445000", "092540.463000", "092620.374000", "092620.377000", "092620.380000", "092620.382000", "092620.385000", "092620.387000", "092620.390000", "092620.392000", "092620.395000", "092620.397000", "092620.400000", "092620.402000", "092620.405000", "092620.407000", "092620.410000", "092620.412000", "092620.415000", "092620.418000", "092620.420000", "092620.422000", "092700.376000", "092700.379000", "092700.381000", "092700.384000", "092700.386000", "092700.389000", "092700.391000", "092700.394000", "092700.396000", "092700.399000", "092700.401000", "092700.404000", "092700.406000", "092700.409000", "092700.411000", "092700.414000", "092700.416000", "092700.419000", "092700.421000", "092700.424000", "092740.374000", "092740.377000", "092740.380000", "092740.382000", "092740.385000", "092740.387000", "092740.390000", "092740.392000", "092740.395000", "092740.397000", "092740.400000", "092740.402000", "092740.405000", "092740.407000", "092740.410000", "092740.412000", "092740.415000", "092740.417000", "092740.420000", "092740.422000", "092820.374000", "092820.377000", "092820.380000", "092820.382000", "092820.385000", "092820.387000", "092820.390000", "092820.392000", "092820.395000", "092820.397000", "092820.400000", "092820.402000", "092820.405000", "092820.407000", "092820.410000", "092820.412000", "092820.415000", "092820.417000", "092820.420000", "092820.422000", "092900.376000", "092900.378000", "092900.381000", "092900.383000", "092900.386000", "092900.389000", "092900.391000", "092900.394000", "092900.396000", "092900.399000", "092900.401000", "092900.404000", "092900.406000", "092900.409000", "092900.411000", "092900.414000", "092900.416000", "092900.419000", "092900.421000", "092900.424000", "092940.375000", "092940.378000", "092940.381000", "092940.383000", "092940.386000", "092940.389000", "092940.391000", "092940.394000", "092940.396000", "092940.398000", "092940.401000", "092940.403000", "092940.406000", "092940.408000", "092940.411000", "092940.413000", "092940.416000", "092940.418000", "092940.421000", "092940.423000", "093020.374000", "093020.377000", "093020.380000", "093020.382000", "093020.385000", "093020.387000", "093020.390000", "093020.392000", "093020.395000", "093020.398000", "093020.400000", "093020.403000", "093020.405000", "093020.408000", "093020.410000", "093020.413000", "093020.415000", "093020.418000", "093020.420000", "093020.423000", "093100.375000", "093100.377000", "093100.380000", "093100.383000", "093100.385000", "093100.388000", "093100.390000", "093100.393000", "093100.396000", "093100.399000", "093100.401000", "093100.404000", "093100.406000", "093100.409000", "093100.411000", "093100.414000", "093100.417000", "093100.419000", "093100.422000", "093100.424000", "093134.704000", "093134.707000", "093134.710000", "093134.712000", "093134.715000", "093134.718000", "093134.721000", "093134.723000", "093134.726000", "093134.728000", "093134.731000", "093134.738000", "093134.743000", "093134.747000", "093134.750000", "093134.753000", "093134.756000", "093134.759000"],
      "InstanceNumber": [1, 2, 3, 4, 5, 6, 7, 8, 9, 10, 11, 12, 13, 14, 15, 16, 17, 18, 19, 20, 21, 22, 23, 24, 25, 26, 27, 28, 29, 30, 31, 32, 33, 34, 35, 36, 37, 38, 39, 40, 41, 42, 43, 44, 45, 46, 47, 48, 49, 50, 51, 52, 53, 54, 55, 56, 57, 58, 59, 60, 61, 62, 63, 64, 65, 66, 67, 68, 69, 70, 71, 72, 73, 74, 75, 76, 77, 78, 79, 80, 81, 82, 83, 84, 85, 86, 87, 88, 89, 90, 91, 92, 93, 94, 95, 96, 97, 98, 99, 100, 101, 102, 103, 104, 105, 106, 107, 108, 109, 110, 111, 112, 113, 114, 115, 116, 117, 118, 119, 120, 121, 122, 123, 124, 125, 126, 127, 128, 129, 130, 131, 132, 133, 134, 135, 136, 137, 138, 139, 140, 141, 142, 143, 144, 145, 146, 147, 148, 149, 150, 151, 152, 153, 154, 155, 156, 157, 158, 159, 160, 161, 162, 163, 164, 165, 166, 167, 168, 169, 170, 171, 172, 173, 174, 175, 176, 177, 178, 179, 180, 181, 182, 183, 184, 185, 186, 187, 188, 189, 190, 191, 192, 193, 194, 195, 196, 197, 198, 199, 200],
      "LargestImagePixelValue": [1994, 1988, 1987, 1997, 1995, 1990, 1994, 1995, 1989, 1996, 1992, 1991, 1992, 1991, 1997, 1993, 1997, 1992, 1993, 1990, 1990, 1993, 1990, 1990, 1992, 1997, 1990, 1993, 1993, 1992, 1995, 1994, 1996, 1992, 1993, 1996, 1994, 1994, 1998, 1991, 1992, 1999, 1994, 1991, 1997, 1991, 1995, 1989, 1993, 1995, 1996, 1995, 1996, 1996, 1994, 1997, 1988, 1996, 1993, 1991, 1993, 1994, 1996, 1997, 1995, 1995, 1993, 1997, 1991, 1996, 1998, 1996, 1994, 1994, 1996, 1996, 1995, 1991, 1997, 1996, 1994, 1997, 1994, 1996, 1992, 1997, 1999, 1997, 1991, 1995, 1998, 1998, 1995, 1999, 1996, 2000, 1997, 1995, 2000, 1995, 1997, 1997, 1995, 1997, 1998, 1995, 2002, 1995, 1993, 1995, 1999, 1993, 2003, 1998, 1997, 1996, 1994, 1997, 1996, 1999, 1999, 1999, 1995, 1998, 1996, 1999, 1999, 1997, 1995, 1998, 1996, 2000, 1998, 1998, 2000, 1995, 1994, 1992, 1991, 1997, 2000, 1996, 1996, 1997, 1998, 1999, 2001, 1997, 1996, 1999, 1997, 1998, 1997, 1997, 2000, 1996, 1991, 1997, 1995, 1995, 1997, 1998, 1992, 1996, 1994, 1997, 1997, 1993, 1998, 1996, 2000, 1996, 1999, 1995, 1996, 1995, 1996, 1996, 1991, 1996, 1994, 1997, 2000, 2000, 1996, 2001, 1998, 1998, 2000, 1998, 1998, 1996, 1996, 2002, 2002, 2000, 1995, 1997, 1997, 1998],
      "WindowCenter": [917.0, 917.0, 917.0, 917.0, 917.0, 917.0, 917.0, 917.0, 917.0, 917.0, 917.0, 917.0, 917.0, 917.0, 917.0, 917.0, 917.0, 917.0, 917.0, 917.0, 917.0, 917.0, 917.0, 917.0, 917.0, 917.0, 917.0, 917.0, 917.0, 917.0, 917.0, 917.0, 917.0, 917.0, 917.0, 917.0, 917.0, 917.0, 917.0, 917.0, 917.0, 917.0, 917.0, 917.0, 917.0, 917.0, 917.0, 917.0, 917.0, 917.0, 917.0, 917.0, 917.0, 917.0, 918.0, 917.0, 917.0, 917.0, 917.0, 917.0, 917.0, 917.0, 917.0, 917.0, 917.0, 917.0, 917.0, 917.0, 917.0, 917.0, 917.0, 917.0, 918.0, 917.0, 917.0, 917.0, 917.0, 917.0, 918.0, 917.0, 917.0, 918.0, 918.0, 917.0, 918.0, 918.0, 918.0, 917.0, 917.0, 917.0, 918.0, 917.0, 918.0, 918.0, 917.0, 918.0, 917.0, 917.0, 918.0, 918.0, 918.0, 918.0, 917.0, 917.0, 918.0, 917.0, 918.0, 918.0, 918.0, 918.0, 918.0, 918.0, 918.0, 918.0, 918.0, 918.0, 918.0, 918.0, 918.0, 918.0, 918.0, 918.0, 918.0, 918.0, 918.0, 918.0, 918.0, 918.0, 918.0, 918.0, 918.0, 918.0, 918.0, 918.0, 918.0, 917.0, 918.0, 918.0, 918.0, 917.0, 918.0, 918.0, 918.0, 918.0, 918.0, 918.0, 918.0, 918.0, 918.0, 918.0, 918.0, 918.0, 918.0, 917.0, 918.0, 918.0, 917.0, 917.0, 917.0, 918.0, 918.0, 917.0, 917.0, 918.0, 918.0, 918.0, 918.0, 918.0, 918.0, 918.0, 917.0, 918.0, 918.0, 917.0, 918.0, 917.0, 918.0, 918.0, 918.0, 917.0, 917.0, 918.0, 918.0, 917.0, 917.0, 918.0, 918.0, 917.0, 917.0, 918.0, 918.0, 917.0, 918.0, 918.0, 918.0, 918.0, 917.0, 918.0, 917.0, 917.0],
      "WindowWidth": [2079.0, 2079.0, 2079.0, 2079.0, 2079.0, 2079.0, 2079.0, 2080.0, 2079.0, 2079.0, 2079.0, 2079.0, 2079.0, 2080.0, 2079.0, 2079.0, 2079.0, 2080.0, 2079.0, 2079.0, 2079.0, 2079.0, 2080.0, 2079.0, 2080.0, 2080.0, 2080.0, 2079.0, 2080.0, 2080.0, 2080.0, 2080.0, 2080.0, 2080.0, 2080.0, 2080.0, 2080.0, 2080.0, 2080.0, 2080.0, 2080.0, 2080.0, 2080.0, 2080.0, 2080.0, 2080.0, 2080.0, 2080.0, 2080.0, 2080.0, 2080.0, 2080.0, 2080.0, 2080.0, 2080.0, 2080.0, 2080.0, 2080.0, 2080.0, 2080.0, 2080.0, 2080.0, 2080.0, 2080.0, 2080.0, 2080.0, 2080.0, 2080.0, 2080.0, 2080.0, 2080.0, 2080.0, 2080.0, 2080.0, 2080.0, 2080.0, 2080.0, 2080.0, 2080.0, 2080.0, 2080.0, 2080.0, 2080.0, 2080.0, 2080.0, 2080.0, 2080.0, 2080.0, 2080.0, 2080.0, 2080.0, 2080.0, 2080.0, 2080.0, 2080.0, 2080.0, 2080.0, 2080.0, 2080.0, 2080.0, 2080.0, 2080.0, 2080.0, 2080.0, 2080.0, 2080.0, 2080.0, 2080.0, 2080.0, 2080.0, 2080.0, 2080.0, 2080.0, 2080.0, 2080.0, 2080.0, 2080.0, 2080.0, 2080.0, 2080.0, 2080.0, 2080.0, 2080.0, 2080.0, 2080.0, 2080.0, 2080.0, 2080.0, 2080.0, 2080.0, 2080.0, 2080.0, 2080.0, 2080.0, 2080.0, 2080.0, 2080.0, 2080.0, 2080.0, 2080.0, 2080.0, 2080.0, 2080.0, 2080.0, 2080.0, 2080.0, 2080.0, 2080.0, 2080.0, 2080.0, 2080.0, 2080.0, 2080.0, 2080.0, 2080.0, 2080.0, 2080.0, 2080.0, 2080.0, 2080.0, 2080.0, 2080.0, 2080.0, 2080.0, 2080.0, 2080.0, 2081.0, 2080.0, 2080.0, 2080.0, 2080.0, 2080.0, 2080.0, 2080.0, 2080.0, 2080.0, 2080.0, 2080.0, 2080.0, 2080.0, 2080.0, 2080.0, 2080.0, 2080.0, 2080.0, 2080.0, 2080.0, 2080.0, 2080.0, 2080.0, 2080.0, 2080.0, 2080.0, 2080.0, 2080.0, 2080.0, 2080.0, 2080.0, 2080.0, 2080.0]
    },
    "slices": {}
  }
}