{
  "AcquisitionMatrixPE": 80,
  "AcquisitionNumber": 1,
  "AcquisitionTime": "09:31:45.490000",
  "BandwidthPerPixelPhaseEncode": 25,
  "BaseResolution": 80,
  "BodyPartExamined": "BRAIN",
  "CoilCombinationMethod": "Sum of Squares",
  "ConsistencyInfo": "N4_VE11C_LATEST_20160120",
  "ConversionSoftware": "dcm2niix",
  "ConversionSoftwareVersion": "v1.0.20220720",
  "DerivedVendorReportedEchoSpacing": 0.0005,
  "DeviceSerialNumber": "66112",
  "DwellTime": 2.7e-06,
  "EchoTime": 0.03,
  "EchoTrainLength": 80,
  "EffectiveEchoSpacing": 0.0005,
  "FlipAngle": 77,
  "HeudiconvVersion": "0.13.1",
  "ImageOrientationPatientDICOM": [0.988379, 0.151847, 0.00702088, -0.146656, 0.940405, 0.306808],
  "ImageOrientationText": "Tra>Cor(17.7)>Sag(-2.3)",
  "ImageType": [
    "ORIGINAL",
    "PRIMARY",
    "M",
    "ND",
    "NORM",
    "MOSAIC"
],
  "ImagingFrequency": 123.252,
  "InPlanePhaseEncodingDirectionDICOM": "COL",
  "InstitutionAddress": "Maynard 3,Hanover,NH,US,03755",
  "InstitutionName": "Dartmouth College - PBS",
  "InstitutionalDepartmentName": "Department",
  "MRAcquisitionType": "2D",
  "MagneticFieldStrength": 3,
  "Manufacturer": "Siemens",
  "ManufacturersModelName": "Prisma",
  "MatrixCoilMode": "SENSE",
  "Modality": "MR",
  "NonlinearGradientCorrection": false,
  "PartialFourier": 1,
  "PatientPosition": "HFS",
  "PercentPhaseFOV": 100,
  "PercentSampling": 100,
  "PhaseEncodingDirection": "j-",
  "PhaseEncodingSteps": 80,
  "PhaseResolution": 1,
  "PixelBandwidth": 2315,
  "ProcedureStepDescription": "dbic^QA",
  "ProtocolName": "func-bold_fa-77",
  "PulseSequenceDetails": "%SiemensSeq%\\ep2d_bold",
  "ReceiveCoilActiveElements": "HEA;HEP",
  "ReceiveCoilName": "Head_32",
  "ReconMatrixPE": 80,
  "RepetitionTime": 2,
  "SAR": 0.0436262,
  "ScanOptions": "FS",
  "ScanningSequence": "EP",
  "SequenceName": "*epfid2d1_80",
  "SequenceVariant": "SK",
  "SeriesDescription": "func-bold_fa-77",
  "SeriesNumber": 8,
  "ShimSetting": [4144, -7704, -7509, 249, -77, -127, -29, 68],
  "SliceThickness": 3.5,
  "SliceTiming": [0.99, 0, 1.055, 0.065, 1.1225, 0.1325, 1.1875, 0.1975, 1.255, 0.265, 1.32, 0.33, 1.385, 0.395, 1.4525, 0.4625, 1.5175, 0.5275, 1.585, 0.595, 1.65, 0.66, 1.715, 0.725, 1.7825, 0.7925, 1.8475, 0.8575, 1.9125, 0.925],
  "SoftwareVersions": "syngo MR E11",
  "SpacingBetweenSlices": 3.99,
  "StationName": "AWP66112",
  "TotalReadoutTime": 0.0395,
  "TxRefAmp": 235.792,
  "dcmmeta_affine": [
    [-2.965137004852295, -0.4399688243865967, -0.15954215824604034, 139.3707275390625],
    [-0.4555419683456421, 2.821213722229004, 1.2140461206436157, -101.4867935180664],
    [0.021062638610601425, -0.9204239249229431, 3.797464609146118, -8.917304992675781],
    [0.0, 0.0, 0.0, 1.0]
],
  "dcmmeta_reorient_transform": [
    [0.0, -1.0, 0.0, 79.0],
    [1.0, 0.0, 0.0, 0.0],
    [0.0, 0.0, 1.0, 0.0],
    [0.0, 0.0, 0.0, 1.0]
],
  "dcmmeta_shape": [80, 80, 30, 200],
  "dcmmeta_slice_dim": 2,
  "dcmmeta_version": 0.6,
  "global": {
    "const": {
      "AccessionNumber": "qa",
      "AcquisitionMatrix": [80, 0, 0, 80],
      "AngioFlag": "N",
      "BitsAllocated": 16,
      "BitsStored": 12,
      "BodyPartExamined": "BRAIN",
      "Columns": 480,
      "EchoNumbers": 1,
      "EchoTime": 30.0,
      "EchoTrainLength": 80,
      "FlipAngle": 77.0,
      "HighBit": 11,
      "ImageOrientationPatient": [0.98837902510826, 0.15184732456256, 0.00702087952079, -0.146656272686, 0.94040459666162, 0.30680797293998],
      "ImagePositionPatient": [-609.64683945427, -776.74024524277, -269.92810632181],
      "ImageType": [
        "ORIGINAL",
        "PRIMARY",
        "M",
        "ND",
        "NORM",
        "MOSAIC"
],
      "ImagedNucleus": "1H",
      "ImagingFrequency": 123.252382,
      "InPlanePhaseEncodingDirection": "COL",
      "MRAcquisitionType": "2D",
      "MagneticFieldStrength": 3.0,
      "Manufacturer": "SIEMENS",
      "ManufacturerModelName": "Prisma",
      "Modality": "MR",
      "NumberOfAverages": 1.0,
      "NumberOfPhaseEncodingSteps": 80,
      "PercentPhaseFieldOfView": 100.0,
      "PercentSampling": 100.0,
      "PerformedProcedureStepStartTime": "091618.052000",
      "PhotometricInterpretation": "MONOCHROME2",
      "PixelBandwidth": 2315.0,
      "PixelRepresentation": 0,
      "PixelSpacing": [3.0, 3.0],
      "ProtocolName": "func-bold_fa-77",
      "RepetitionTime": 2000.0,
      "Rows": 480,
      "SAR": 0.04362618719042,
      "SamplesPerPixel": 1,
      "ScanOptions": "FS",
      "ScanningSequence": "EP",
      "SequenceName": "*epfid2d1_80",
      "SequenceVariant": "SK",
      "SeriesDescription": "func-bold_fa-77",
      "SeriesNumber": 8,
      "SeriesTime": "093240.447000",
      "SliceLocation": -44.939427089001,
      "SliceThickness": 3.5,
      "SmallestImagePixelValue": 0,
      "SoftwareVersions": "syngo MR E11",
      "SpacingBetweenSlices": 3.9899999965132,
      "SpecificCharacterSet": "ISO_IR 100",
      "StudyID": "7",
      "StudyTime": "091617.980000",
      "TransmitCoilName": "Body",
      "VariableFlipAngleFlag": "N",
      "WindowCenterWidthExplanation": "Algo1",
      "dBdt": 0.0},
    "slices": {}
  },
  "time": {
    "samples": {
      "AcquisitionNumber": [1, 2, 3, 4, 5, 6, 7, 8, 9, 10, 11, 12, 13, 14, 15, 16, 17, 18, 19, 20, 21, 22, 23, 24, 25, 26, 27, 28, 29, 30, 31, 32, 33, 34, 35, 36, 37, 38, 39, 40, 41, 42, 43, 44, 45, 46, 47, 48, 49, 50, 51, 52, 53, 54, 55, 56, 57, 58, 59, 60, 61, 62, 63, 64, 65, 66, 67, 68, 69, 70, 71, 72, 73, 74, 75, 76, 77, 78, 79, 80, 81, 82, 83, 84, 85, 86, 87, 88, 89, 90, 91, 92, 93, 94, 95, 96, 97, 98, 99, 100, 101, 102, 103, 104, 105, 106, 107, 108, 109, 110, 111, 112, 113, 114, 115, 116, 117, 118, 119, 120, 121, 122, 123, 124, 125, 126, 127, 128, 129, 130, 131, 132, 133, 134, 135, 136, 137, 138, 139, 140, 141, 142, 143, 144, 145, 146, 147, 148, 149, 150, 151, 152, 153, 154, 155, 156, 157, 158, 159, 160, 161, 162, 163, 164, 165, 166, 167, 168, 169, 170, 171, 172, 173, 174, 175, 176, 177, 178, 179, 180, 181, 182, 183, 184, 185, 186, 187, 188, 189, 190, 191, 192, 193, 194, 195, 196, 197, 198, 199, 200],
      "AcquisitionTime": ["093145.490000", "093147.490000", "093149.490000", "093151.490000", "093153.490000", "093155.490000", "093157.490000", "093159.490000", "093201.490000", "093203.490000", "093205.490000", "093207.490000", "093209.490000", "093211.490000", "093213.490000", "093215.490000", "093217.490000", "093219.490000", "093221.490000", "093223.490000", "093225.490000", "093227.490000", "093229.490000", "093231.490000", "093233.490000", "093235.490000", "093237.490000", "093239.490000", "093241.490000", "093243.490000", "093245.490000", "093247.490000", "093249.490000", "093251.490000", "093253.490000", "093255.490000", "093257.490000", "093259.490000", "093301.490000", "093303.490000", "093305.490000", "093307.490000", "093309.490000", "093311.490000", "093313.490000", "093315.490000", "093317.490000", "093319.490000", "093321.490000", "093323.490000", "093325.490000", "093327.490000", "093329.490000", "093331.490000", "093333.490000", "093335.490000", "093337.490000", "093339.490000", "093341.490000", "093343.490000", "093345.490000", "093347.490000", "093349.490000", "093351.490000", "093353.490000", "093355.490000", "093357.490000", "093359.490000", "093401.490000", "093403.490000", "093405.490000", "093407.490000", "093409.490000", "093411.490000", "093413.490000", "093415.490000", "093417.490000", "093419.490000", "093421.490000", "093423.490000", "093425.490000", "093427.490000", "093429.490000", "093431.490000", "093433.490000", "093435.490000", "093437.490000", "093439.490000", "093441.490000", "093443.490000", "093445.490000", "093447.490000", "093449.490000", "093451.490000", "093453.490000", "093455.490000", "093457.490000", "093459.490000", "093501.490000", "093503.490000", "093505.490000", "093507.490000", "093509.490000", "093511.490000", "093513.490000", "093515.490000", "093517.490000", "093519.490000", "093521.490000", "093523.490000", "093525.490000", "093527.490000", "093529.490000", "093531.490000", "093533.490000", "093535.490000", "093537.490000", "093539.490000", "093541.490000", "093543.490000", "093545.490000", "093547.490000", "093549.490000", "093551.490000", "093553.490000", "093555.490000", "093557.490000", "093559.490000", "093601.490000", "093603.490000", "093605.490000", "093607.490000", "093609.490000", "093611.490000", "093613.490000", "093615.490000", "093617.490000", "093619.490000", "093621.490000", "093623.490000", "093625.490000", "093627.490000", "093629.490000", "093631.490000", "093633.490000", "093635.490000", "093637.490000", "093639.490000", "093641.490000", "093643.490000", "093645.490000", "093647.490000", "093649.490000", "093651.490000", "093653.490000", "093655.490000", "093657.490000", "093659.490000", "093701.490000", "093703.490000", "093705.490000", "093707.490000", "093709.490000", "093711.490000", "093713.490000", "093715.490000", "093717.490000", "093719.490000", "093721.490000", "093723.490000", "093725.490000", "093727.490000", "093729.490000", "093731.490000", "093733.490000", "093735.490000", "093737.490000", "093739.490000", "093741.490000", "093743.490000", "093745.490000", "093747.490000", "093749.490000", "093751.490000", "093753.490000", "093755.490000", "093757.490000", "093759.490000", "093801.490000", "093803.490000", "093805.490000", "093807.490000", "093809.490000", "093811.490000", "093813.490000", "093815.490000", "093817.490000", "093819.490000", "093821.490000", "093823.490000"],
      "ContentTime": ["093240.450000", "093240.453000", "093240.456000", "093240.458000", "093240.461000", "093240.463000", "093240.466000", "093240.468000", "093240.471000", "093240.473000", "093240.476000", "093240.478000", "093240.481000", "093240.483000", "093240.486000", "093240.488000", "093240.491000", "093240.493000", "093240.496000", "093240.498000", "093240.501000", "093240.503000", "093240.506000", "093240.508000", "093240.511000", "093240.513000", "093240.516000", "093320.445000", "093320.448000", "093320.451000", "093320.453000", "093320.456000", "093320.458000", "093320.461000", "093320.463000", "093320.466000", "093320.468000", "093320.471000", "093320.473000", "093320.476000", "093320.478000", "093320.481000", "093320.483000", "093320.486000", "093320.488000", "093320.491000", "093320.536000", "093400.446000", "093400.449000", "093400.452000", "093400.454000", "093400.457000", "093400.459000", "093400.462000", "093400.465000", "093400.467000", "093400.470000", "093400.472000", "093400.475000", "093400.477000", "093400.480000", "093400.482000", "093400.485000", "093400.487000", "093400.490000", "093400.492000", "093400.495000", "093440.445000", "093440.448000", "093440.451000", "093440.453000", "093440.456000", "093440.458000", "093440.460000", "093440.463000", "093440.465000", "093440.468000", "093440.471000", "093440.473000", "093440.475000", "093440.478000", "093440.481000", "093440.483000", "093440.486000", "093440.488000", "093440.491000", "093440.493000", "093520.445000", "093520.448000", "093520.451000", "093520.453000", "093520.456000", "093520.458000", "093520.461000", "093520.463000", "093520.466000", "093520.468000", "093520.471000", "093520.473000", "093520.476000", "093520.478000", "093520.480000", "093520.483000", "093520.485000", "093520.488000", "093520.490000", "093520.493000", "093600.446000", "093600.449000", "093600.452000", "093600.454000", "093600.457000", "093600.459000", "093600.462000", "093600.464000", "093600.467000", "093600.469000", "093600.472000", "093600.474000", "093600.477000", "093600.479000", "093600.482000", "093600.484000", "093600.487000", "093600.489000", "093600.492000", "093600.495000", "093640.446000", "093640.449000", "093640.452000", "093640.454000", "093640.457000", "093640.459000", "093640.462000", "093640.464000", "093640.467000", "093640.469000", "093640.472000", "093640.474000", "093640.477000", "093640.479000", "093640.482000", "093640.484000", "093640.487000", "093640.489000", "093640.492000", "093640.494000", "093700.446000", "093700.448000", "093700.451000", "093700.454000", "093700.456000", "093700.459000", "093700.461000", "093700.464000", "093700.466000", "093700.469000", "093740.446000", "093740.448000", "093740.451000", "093740.453000", "093740.456000", "093740.458000", "093740.461000", "093740.463000", "093740.466000", "093740.468000", "093740.471000", "093740.473000", "093740.476000", "093740.478000", "093740.481000", "093740.483000", "093740.486000", "093740.488000", "093740.491000", "093740.493000", "093820.446000", "093820.449000", "093820.452000", "093820.454000", "093820.457000", "093820.459000", "093820.462000", "093820.464000", "093820.467000", "093820.469000", "093820.472000", "093820.474000", "093820.477000", "093820.479000", "093820.482000", "093820.484000", "093820.487000", "093820.489000", "093820.492000", "093820.494000", "093825.019000", "093825.022000", "093825.025000"],
      "InstanceCreationTime": ["093240.450000", "093240.453000", "093240.456000", "093240.458000", "093240.461000", "093240.463000", "093240.466000", "093240.468000", "093240.471000", "093240.473000", "093240.476000", "093240.478000", "093240.481000", "093240.483000", "093240.486000", "093240.488000", "093240.491000", "093240.493000", "093240.496000", "093240.498000", "093240.501000", "093240.503000", "093240.506000", "093240.508000", "093240.511000", "093240.513000", "093240.516000", "093320.445000", "093320.448000", "093320.451000", "093320.453000", "093320.456000", "093320.458000", "093320.461000", "093320.463000", "093320.466000", "093320.468000", "093320.471000", "093320.473000", "093320.476000", "093320.478000", "093320.481000", "093320.483000", "093320.486000", "093320.488000", "093320.491000", "093320.536000", "093400.446000", "093400.449000", "093400.452000", "093400.454000", "093400.457000", "093400.459000", "093400.462000", "093400.465000", "093400.467000", "093400.470000", "093400.472000", "093400.475000", "093400.477000", "093400.480000", "093400.482000", "093400.485000", "093400.487000", "093400.490000", "093400.492000", "093400.495000", "093440.445000", "093440.448000", "093440.451000", "093440.453000", "093440.456000", "093440.458000", "093440.460000", "093440.463000", "093440.465000", "093440.468000", "093440.471000", "093440.473000", "093440.475000", "093440.478000", "093440.481000", "093440.483000", "093440.486000", "093440.488000", "093440.491000", "093440.493000", "093520.445000", "093520.448000", "093520.451000", "093520.453000", "093520.456000", "093520.458000", "093520.461000", "093520.463000", "093520.466000", "093520.468000", "093520.471000", "093520.473000", "093520.476000", "093520.478000", "093520.480000", "093520.483000", "093520.485000", "093520.488000", "093520.490000", "093520.493000", "093600.446000", "093600.449000", "093600.452000", "093600.454000", "093600.457000", "093600.459000", "093600.462000", "093600.464000", "093600.467000", "093600.469000", "093600.472000", "093600.474000", "093600.477000", "093600.479000", "093600.482000", "093600.484000", "093600.487000", "093600.489000", "093600.492000", "093600.495000", "093640.446000", "093640.449000", "093640.452000", "093640.454000", "093640.457000", "093640.459000", "093640.462000", "093640.464000", "093640.467000", "093640.469000", "093640.472000", "093640.474000", "093640.477000", "093640.479000", "093640.482000", "093640.484000", "093640.487000", "093640.489000", "093640.492000", "093640.494000", "093700.446000", "093700.448000", "093700.451000", "093700.454000", "093700.456000", "093700.459000", "093700.461000", "093700.464000", "093700.466000", "093700.469000", "093740.446000", "093740.448000", "093740.451000", "093740.453000", "093740.456000", "093740.458000", "093740.461000", "093740.463000", "093740.466000", "093740.468000", "093740.471000", "093740.473000", "093740.476000", "093740.478000", "093740.481000", "093740.483000", "093740.486000", "093740.488000", "093740.491000", "093740.493000", "093820.446000", "093820.449000", "093820.452000", "093820.454000", "093820.457000", "093820.459000", "093820.462000", "093820.464000", "093820.467000", "093820.469000", "093820.472000", "093820.474000", "093820.477000", "093820.479000", "093820.482000", "093820.484000", "093820.487000", "093820.489000", "093820.492000", "093820.494000", "093825.019000", "093825.022000", "093825.025000"],
      "InstanceNumber": [1, 2, 3, 4, 5, 6, 7, 8, 9, 10, 11, 12, 13, 14, 15, 16, 17, 18, 19, 20, 21, 22, 23, 24, 25, 26, 27, 28, 29, 30, 31, 32, 33, 34, 35, 36, 37, 38, 39, 40, 41, 42, 43, 44, 45, 46, 47, 48, 49, 50, 51, 52, 53, 54, 55, 56, 57, 58, 59, 60, 61, 62, 63, 64, 65, 66, 67, 68, 69, 70, 71, 72, 73, 74, 75, 76, 77, 78, 79, 80, 81, 82, 83, 84, 85, 86, 87, 88, 89, 90, 91, 92, 93, 94, 95, 96, 97, 98, 99, 100, 101, 102, 103, 104, 105, 106, 107, 108, 109, 110, 111, 112, 113, 114, 115, 116, 117, 118, 119, 120, 121, 122, 123, 124, 125, 126, 127, 128, 129, 130, 131, 132, 133, 134, 135, 136, 137, 138, 139, 140, 141, 142, 143, 144, 145, 146, 147, 148, 149, 150, 151, 152, 153, 154, 155, 156, 157, 158, 159, 160, 161, 162, 163, 164, 165, 166, 167, 168, 169, 170, 171, 172, 173, 174, 175, 176, 177, 178, 179, 180, 181, 182, 183, 184, 185, 186, 187, 188, 189, 190, 191, 192, 193, 194, 195, 196, 197, 198, 199, 200],
      "LargestImagePixelValue": [1975, 1976, 1977, 1976, 1976, 1975, 1976, 1975, 1975, 1976, 1977, 1976, 1975, 1975, 1975, 1976, 1974, 1975, 1975, 1974, 1972, 1974, 1975, 1974, 1973, 1975, 1974, 1972, 1975, 1973, 1973, 1972, 1974, 1975, 1974, 1974, 1971, 1975, 1975, 1974, 1973, 1974, 1973, 1973, 1973, 1972, 1972, 1971, 1974, 1971, 1972, 1970, 1972, 1971, 1972, 1972, 1972, 1973, 1971, 1972, 1974, 1972, 1970, 1972, 1973, 1972, 1973, 1972, 1972, 1974, 1972, 1970, 1973, 1974, 1972, 1971, 1972, 1973, 1971, 1973, 1973, 1971, 1972, 1971, 1970, 1973, 1972, 1971, 1971, 1972, 1971, 1971, 1971, 1970, 1969, 1971, 1972, 1970, 1972, 1970, 1972, 1972, 1971, 1970, 1971, 1969, 1972, 1972, 1972, 1972, 1972, 1972, 1972, 1970, 1971, 1970, 1970, 1971, 1970, 1968, 1971, 1972, 1972, 1972, 1969, 1970, 1970, 1971, 1973, 1970, 1973, 1971, 1971, 1971, 1971, 1970, 1969, 1968, 1969, 1970, 1970, 1971, 1968, 1968, 1969, 1970, 1969, 1969, 1970, 1970, 1969, 1970, 1968, 1970, 1967, 1968, 1970, 1968, 1969, 1968, 1968, 1968, 1972, 1970, 1968, 1970, 1970, 1969, 1969, 1970, 1971, 1971, 1970, 1970, 1969, 1967, 1968, 1969, 1969, 1968, 1968, 1968, 1970, 1967, 1966, 1966, 1966, 1967, 1967, 1968, 1968, 1966, 1967, 1967, 1965, 1966, 1969, 1968, 1968, 1966],
      "WindowCenter": [972.0, 972.0, 972.0, 972.0, 972.0, 972.0, 972.0, 972.0, 972.0, 972.0, 972.0, 972.0, 972.0, 972.0, 972.0, 971.0, 972.0, 972.0, 971.0, 972.0, 972.0, 971.0, 972.0, 971.0, 971.0, 971.0, 972.0, 971.0, 972.0, 972.0, 971.0, 972.0, 971.0, 972.0, 971.0, 972.0, 971.0, 971.0, 972.0, 971.0, 972.0, 972.0, 971.0, 971.0, 971.0, 971.0, 972.0, 972.0, 972.0, 971.0, 971.0, 972.0, 972.0, 971.0, 971.0, 972.0, 972.0, 972.0, 970.0, 972.0, 971.0, 972.0, 972.0, 972.0, 972.0, 972.0, 972.0, 972.0, 971.0, 972.0, 972.0, 972.0, 972.0, 972.0, 972.0, 970.0, 971.0, 971.0, 972.0, 972.0, 971.0, 972.0, 972.0, 972.0, 970.0, 971.0, 971.0, 972.0, 971.0, 972.0, 972.0, 972.0, 970.0, 972.0, 971.0, 972.0, 971.0, 972.0, 972.0, 972.0, 971.0, 972.0, 971.0, 971.0, 972.0, 972.0, 971.0, 971.0, 971.0, 972.0, 971.0, 971.0, 972.0, 971.0, 971.0, 971.0, 971.0, 971.0, 971.0, 971.0, 971.0, 971.0, 971.0, 971.0, 971.0, 971.0, 970.0, 971.0, 971.0, 970.0, 971.0, 971.0, 970.0, 971.0, 971.0, 971.0, 971.0, 971.0, 971.0, 970.0, 972.0, 970.0, 971.0, 971.0, 971.0, 970.0, 970.0, 971.0, 971.0, 970.0, 971.0, 971.0, 970.0, 971.0, 971.0, 971.0, 971.0, 971.0, 969.0, 971.0, 971.0, 971.0, 971.0, 970.0, 971.0, 970.0, 972.0, 971.0, 971.0, 970.0, 971.0, 971.0, 971.0, 971.0, 970.0, 970.0, 970.0, 971.0, 971.0, 970.0, 971.0, 971.0, 971.0, 971.0, 971.0, 969.0, 971.0, 970.0, 971.0, 970.0, 971.0, 971.0, 971.0, 971.0, 971.0, 971.0, 970.0, 971.0, 970.0, 971.0],
      "WindowWidth": [2121.0, 2122.0, 2121.0, 2122.0, 2121.0, 2121.0, 2121.0, 2121.0, 2121.0, 2121.0, 2122.0, 2121.0, 2121.0, 2122.0, 2122.0, 2121.0, 2121.0, 2121.0, 2121.0, 2121.0, 2121.0, 2120.0, 2121.0, 2120.0, 2120.0, 2120.0, 2121.0, 2120.0, 2121.0, 2121.0, 2120.0, 2121.0, 2120.0, 2121.0, 2120.0, 2121.0, 2120.0, 2120.0, 2121.0, 2120.0, 2121.0, 2121.0, 2120.0, 2120.0, 2120.0, 2120.0, 2121.0, 2121.0, 2121.0, 2120.0, 2120.0, 2121.0, 2121.0, 2120.0, 2120.0, 2121.0, 2120.0, 2120.0, 2119.0, 2120.0, 2120.0, 2120.0, 2120.0, 2120.0, 2121.0, 2121.0, 2121.0, 2121.0, 2120.0, 2121.0, 2121.0, 2121.0, 2121.0, 2120.0, 2120.0, 2119.0, 2120.0, 2120.0, 2121.0, 2121.0, 2120.0, 2120.0, 2120.0, 2120.0, 2119.0, 2120.0, 2120.0, 2120.0, 2120.0, 2120.0, 2120.0, 2120.0, 2119.0, 2120.0, 2120.0, 2120.0, 2120.0, 2120.0, 2120.0, 2120.0, 2120.0, 2120.0, 2120.0, 2120.0, 2120.0, 2120.0, 2120.0, 2120.0, 2120.0, 2120.0, 2120.0, 2120.0, 2121.0, 2120.0, 2120.0, 2119.0, 2119.0, 2120.0, 2120.0, 2120.0, 2120.0, 2120.0, 2119.0, 2120.0, 2119.0, 2120.0, 2118.0, 2120.0, 2120.0, 2119.0, 2120.0, 2119.0, 2118.0, 2119.0, 2120.0, 2120.0, 2119.0, 2119.0, 2119.0, 2119.0, 2120.0, 2119.0, 2119.0, 2119.0, 2119.0, 2119.0, 2119.0, 2119.0, 2120.0, 2118.0, 2119.0, 2119.0, 2118.0, 2119.0, 2119.0, 2119.0, 2119.0, 2119.0, 2118.0, 2119.0, 2119.0, 2119.0, 2119.0, 2118.0, 2119.0, 2118.0, 2120.0, 2119.0, 2119.0, 2118.0, 2119.0, 2119.0, 2119.0, 2119.0, 2118.0, 2118.0, 2118.0, 2119.0, 2118.0, 2118.0, 2119.0, 2119.0, 2119.0, 2118.0, 2119.0, 2117.0, 2119.0, 2118.0, 2119.0, 2118.0, 2119.0, 2119.0, 2118.0, 2119.0, 2118.0, 2118.0, 2118.0, 2118.0, 2118.0, 2118.0]
    },
    "slices": {}
  }
}