{
  "AcquisitionMatrixPE": 80,
  "AcquisitionNumber": 1,
  "AcquisitionTime": "08:48:35.822500",
  "BandwidthPerPixelPhaseEncode": 48.077,
  "BaseResolution": 80,
  "BodyPartExamined": "BRAIN",
  "CoilCombinationMethod": "Sum of Squares",
  "ConsistencyInfo": "N4_VE11C_LATEST_20160120",
  "ConversionSoftware": "dcm2niix",
  "ConversionSoftwareVersion": "v1.0.20220720",
  "DerivedVendorReportedEchoSpacing": 0.000519999,
  "DeviceSerialNumber": "66112",
  "DwellTime": 2.7e-06,
  "EchoTime": 0.035,
  "EchoTrainLength": 39,
  "EffectiveEchoSpacing": 0.00026,
  "FlipAngle": 90,
  "HeudiconvVersion": "0.13.1",
  "ImageOrientationPatientDICOM": [0.991113, 0.132874, 0.00619594, -0.127668, 0.937133, 0.324782],
  "ImageOrientationText": "Tra>Cor(18.8)>Sag(-2.1)",
  "ImageType": [
    "ORIGINAL",
    "PRIMARY",
    "M",
    "ND",
    "NORM",
    "MOSAIC"
],
  "ImagingFrequency": 123.252,
  "InPlanePhaseEncodingDirectionDICOM": "COL",
  "InstitutionAddress": "Maynard 3,Hanover,NH,US,03755",
  "InstitutionName": "Dartmouth College - PBS",
  "InstitutionalDepartmentName": "Department",
  "MRAcquisitionType": "2D",
  "MagneticFieldStrength": 3,
  "Manufacturer": "Siemens",
  "ManufacturersModelName": "Prisma",
  "MatrixCoilMode": "GRAPPA",
  "Modality": "MR",
  "NonlinearGradientCorrection": false,
  "ParallelReductionFactorInPlane": 2,
  "PartialFourier": 1,
  "PatientPosition": "HFS",
  "PercentPhaseFOV": 100,
  "PercentSampling": 100,
  "PhaseEncodingDirection": "j-",
  "PhaseEncodingSteps": 79,
  "PhaseResolution": 1,
  "PixelBandwidth": 2315,
  "ProcedureStepDescription": "dbic^QA",
  "ProtocolName": "func-bold_task-rest_acq-p2",
  "PulseSequenceDetails": "%SiemensSeq%\\ep2d_bold",
  "ReceiveCoilActiveElements": "HC1-7;NC1,2",
  "ReceiveCoilName": "HeadNeck_64",
  "ReconMatrixPE": 80,
  "RefLinesPE": 24,
  "RepetitionTime": 2,
  "SAR": 0.0359391,
  "ScanOptions": "FS",
  "ScanningSequence": "EP",
  "SequenceName": "*epfid2d1_80",
  "SequenceVariant": "SK",
  "SeriesDescription": "func-bold_task-rest_acq-p2",
  "SeriesNumber": 5,
  "ShimSetting": [4141, -7699, -7504, 154, -58, -204, -41, 80],
  "SliceThickness": 3.5,
  "SliceTiming": [0.99, 0, 1.055, 0.065, 1.1225, 0.1325, 1.1875, 0.1975, 1.2525, 0.2625, 1.32, 0.33, 1.385, 0.395, 1.4525, 0.4625, 1.5175, 0.5275, 1.5825, 0.5925, 1.65, 0.66, 1.715, 0.725, 1.7825, 0.7925, 1.8475, 0.8575, 1.9125, 0.9225],
  "SoftwareVersions": "syngo MR E11",
  "SpacingBetweenSlices": 3.99,
  "StationName": "AWP66112",
  "TaskName": "rest",
  "TotalReadoutTime": 0.02054,
  "TxRefAmp": 210.628,
  "dcmmeta_affine": [
    [-2.9733405113220215, -0.3830035626888275, -0.14902164041996002, 137.74298095703125],
    [-0.39862340688705444, 2.8113980293273926, 1.2875195741653442, -98.7713623046875],
    [0.018587831407785416, -0.9743452668190002, 3.7736170291900635, -22.195344924926758],
    [0.0, 0.0, 0.0, 1.0]
],
  "dcmmeta_reorient_transform": [
    [0.0, -1.0, 0.0, 79.0],
    [1.0, 0.0, 0.0, 0.0],
    [0.0, 0.0, 1.0, 0.0],
    [0.0, 0.0, 0.0, 1.0]
],
  "dcmmeta_shape": [80, 80, 30, 200],
  "dcmmeta_slice_dim": 2,
  "dcmmeta_version": 0.6,
  "global": {
    "const": {
      "AccessionNumber": "qa64",
      "AcquisitionMatrix": [80, 0, 0, 80],
      "AngioFlag": "N",
      "BitsAllocated": 16,
      "BitsStored": 12,
      "BodyPartExamined": "BRAIN",
      "Columns": 480,
      "EchoNumbers": 1,
      "EchoTime": 35.0,
      "EchoTrainLength": 39,
      "FlipAngle": 90.0,
      "HighBit": 11,
      "ImageOrientationPatient": [0.99111350828496, 0.1328744669823, 0.00619594377423, -0.1276678589863, 0.93713271576539, 0.32478175876122],
      "ImagePositionPatient": [-625.55308777279, -765.33339995663, -297.75524358554],
      "ImageType": [
        "ORIGINAL",
        "PRIMARY",
        "M",
        "ND",
        "NORM",
        "MOSAIC"
],
      "ImagedNucleus": "1H",
      "ImagingFrequency": 123.252386,
      "InPlanePhaseEncodingDirection": "COL",
      "MRAcquisitionType": "2D",
      "MagneticFieldStrength": 3.0,
      "Manufacturer": "SIEMENS",
      "ManufacturerModelName": "Prisma",
      "Modality": "MR",
      "NumberOfAverages": 1.0,
      "NumberOfPhaseEncodingSteps": 79,
      "PercentPhaseFieldOfView": 100.0,
      "PercentSampling": 100.0,
      "PerformedProcedureStepStartTime": "084632.855000",
      "PhotometricInterpretation": "MONOCHROME2",
      "PixelBandwidth": 2315.0,
      "PixelRepresentation": 0,
      "PixelSpacing": [3.0, 3.0],
      "ProtocolName": "func-bold_task-rest_acq-p2",
      "RepetitionTime": 2000.0,
      "Rows": 480,
      "SAR": 0.03593907379278,
      "SamplesPerPixel": 1,
      "ScanOptions": "FS",
      "ScanningSequence": "EP",
      "SequenceName": "*epfid2d1_80",
      "SequenceVariant": "SK",
      "SeriesDescription": "func-bold_task-rest_acq-p2",
      "SeriesNumber": 5,
      "SeriesTime": "084924.847000",
      "SliceLocation": -58.008391648327,
      "SliceThickness": 3.5,
      "SmallestImagePixelValue": 0,
      "SoftwareVersions": "syngo MR E11",
      "SpacingBetweenSlices": 3.9899999773468,
      "SpecificCharacterSet": "ISO_IR 100",
      "StudyID": "7",
      "StudyTime": "084632.775000",
      "TransmitCoilName": "Body",
      "VariableFlipAngleFlag": "N",
      "WindowCenterWidthExplanation": "Algo1",
      "dBdt": 0.0},
    "slices": {}
  },
  "time": {
    "samples": {
      "AcquisitionNumber": [1, 2, 3, 4, 5, 6, 7, 8, 9, 10, 11, 12, 13, 14, 15, 16, 17, 18, 19, 20, 21, 22, 23, 24, 25, 26, 27, 28, 29, 30, 31, 32, 33, 34, 35, 36, 37, 38, 39, 40, 41, 42, 43, 44, 45, 46, 47, 48, 49, 50, 51, 52, 53, 54, 55, 56, 57, 58, 59, 60, 61, 62, 63, 64, 65, 66, 67, 68, 69, 70, 71, 72, 73, 74, 75, 76, 77, 78, 79, 80, 81, 82, 83, 84, 85, 86, 87, 88, 89, 90, 91, 92, 93, 94, 95, 96, 97, 98, 99, 100, 101, 102, 103, 104, 105, 106, 107, 108, 109, 110, 111, 112, 113, 114, 115, 116, 117, 118, 119, 120, 121, 122, 123, 124, 125, 126, 127, 128, 129, 130, 131, 132, 133, 134, 135, 136, 137, 138, 139, 140, 141, 142, 143, 144, 145, 146, 147, 148, 149, 150, 151, 152, 153, 154, 155, 156, 157, 158, 159, 160, 161, 162, 163, 164, 165, 166, 167, 168, 169, 170, 171, 172, 173, 174, 175, 176, 177, 178, 179, 180, 181, 182, 183, 184, 185, 186, 187, 188, 189, 190, 191, 192, 193, 194, 195, 196, 197, 198, 199, 200],
      "AcquisitionTime": ["084835.822500", "084837.822500", "084839.822500", "084841.822500", "084843.822500", "084845.822500", "084847.822500", "084849.822500", "084851.822500", "084853.822500", "084855.822500", "084857.822500", "084859.822500", "084901.822500", "084903.822500", "084905.822500", "084907.822500", "084909.822500", "084911.822500", "084913.822500", "084915.822500", "084917.822500", "084919.822500", "084921.822500", "084923.822500", "084925.822500", "084927.822500", "084929.822500", "084931.822500", "084933.822500", "084935.822500", "084937.822500", "084939.822500", "084941.822500", "084943.822500", "084945.822500", "084947.822500", "084949.822500", "084951.822500", "084953.822500", "084955.822500", "084957.822500", "084959.822500", "085001.822500", "085003.822500", "085005.822500", "085007.822500", "085009.822500", "085011.822500", "085013.822500", "085015.822500", "085017.822500", "085019.822500", "085021.822500", "085023.822500", "085025.822500", "085027.822500", "085029.822500", "085031.822500", "085033.822500", "085035.822500", "085037.822500", "085039.822500", "085041.822500", "085043.822500", "085045.822500", "085047.822500", "085049.822500", "085051.822500", "085053.822500", "085055.822500", "085057.822500", "085059.822500", "085101.822500", "085103.822500", "085105.822500", "085107.822500", "085109.822500", "085111.822500", "085113.822500", "085115.822500", "085117.822500", "085119.822500", "085121.822500", "085123.822500", "085125.822500", "085127.822500", "085129.822500", "085131.822500", "085133.822500", "085135.822500", "085137.822500", "085139.822500", "085141.822500", "085143.822500", "085145.822500", "085147.822500", "085149.822500", "085151.822500", "085153.822500", "085155.822500", "085157.822500", "085159.822500", "085201.822500", "085203.822500", "085205.822500", "085207.822500", "085209.822500", "085211.822500", "085213.822500", "085215.822500", "085217.822500", "085219.822500", "085221.822500", "085223.822500", "085225.822500", "085227.822500", "085229.822500", "085231.822500", "085233.822500", "085235.822500", "085237.822500", "085239.822500", "085241.822500", "085243.822500", "085245.822500", "085247.822500", "085249.822500", "085251.822500", "085253.822500", "085255.822500", "085257.822500", "085259.822500", "085301.822500", "085303.822500", "085305.822500", "085307.822500", "085309.822500", "085311.822500", "085313.822500", "085315.822500", "085317.822500", "085319.822500", "085321.822500", "085323.822500", "085325.822500", "085327.822500", "085329.822500", "085331.822500", "085333.822500", "085335.822500", "085337.822500", "085339.822500", "085341.822500", "085343.822500", "085345.822500", "085347.822500", "085349.822500", "085351.822500", "085353.822500", "085355.822500", "085357.822500", "085359.822500", "085401.822500", "085403.822500", "085405.822500", "085407.822500", "085409.822500", "085411.822500", "085413.822500", "085415.822500", "085417.822500", "085419.822500", "085421.822500", "085423.822500", "085425.822500", "085427.822500", "085429.822500", "085431.822500", "085433.822500", "085435.822500", "085437.822500", "085439.822500", "085441.822500", "085443.822500", "085445.822500", "085447.822500", "085449.822500", "085451.822500", "085453.822500", "085455.822500", "085457.822500", "085459.822500", "085501.822500", "085503.822500", "085505.822500", "085507.822500", "085509.822500", "085511.822500", "085513.822500"],
      "ContentTime": ["084924.851000", "084924.854000", "084924.857000", "084924.860000", "084924.862000", "084924.883000", "084924.886000", "084924.888000", "084924.891000", "084924.894000", "084924.896000", "084924.899000", "084924.901000", "084924.904000", "084924.906000", "084924.909000", "084924.912000", "084924.914000", "084924.917000", "084924.919000", "084924.922000", "084924.925000", "084924.927000", "084924.930000", "084924.932000", "085004.846000", "085004.849000", "085004.852000", "085004.855000", "085004.857000", "085004.860000", "085004.863000", "085004.875000", "085004.877000", "085004.880000", "085004.882000", "085004.885000", "085004.888000", "085004.891000", "085004.893000", "085004.896000", "085004.899000", "085004.901000", "085004.904000", "085004.906000", "085044.845000", "085044.848000", "085044.851000", "085044.854000", "085044.857000", "085044.860000", "085044.866000", "085044.869000", "085044.871000", "085044.874000", "085044.876000", "085044.879000", "085044.882000", "085044.884000", "085044.887000", "085044.889000", "085044.892000", "085044.895000", "085044.897000", "085044.900000", "085124.845000", "085124.848000", "085124.851000", "085124.853000", "085124.856000", "085124.859000", "085124.862000", "085124.864000", "085124.867000", "085124.869000", "085124.872000", "085124.875000", "085124.877000", "085124.880000", "085124.883000", "085124.885000", "085124.888000", "085124.891000", "085124.893000", "085124.896000", "085204.855000", "085204.858000", "085204.861000", "085204.864000", "085204.866000", "085204.869000", "085204.871000", "085204.874000", "085204.876000", "085204.879000", "085204.882000", "085204.885000", "085204.887000", "085204.890000", "085204.893000", "085204.895000", "085204.898000", "085204.900000", "085204.903000", "085204.906000", "085244.845000", "085244.848000", "085244.851000", "085244.855000", "085244.857000", "085244.860000", "085244.862000", "085244.865000", "085244.867000", "085244.870000", "085244.873000", "085244.875000", "085244.878000", "085244.880000", "085244.883000", "085244.886000", "085244.888000", "085244.891000", "085244.894000", "085244.896000", "085324.846000", "085324.848000", "085324.851000", "085324.854000", "085324.857000", "085324.860000", "085324.863000", "085324.865000", "085324.868000", "085324.870000", "085324.873000", "085324.876000", "085324.878000", "085324.881000", "085324.884000", "085324.886000", "085324.889000", "085324.891000", "085324.894000", "085324.896000", "085404.845000", "085404.848000", "085404.851000", "085404.854000", "085404.858000", "085404.860000", "085404.863000", "085404.866000", "085404.868000", "085404.871000", "085404.873000", "085404.876000", "085404.879000", "085404.881000", "085404.884000", "085404.887000", "085404.889000", "085404.892000", "085404.894000", "085404.897000", "085444.847000", "085444.854000", "085444.857000", "085444.860000", "085444.862000", "085444.865000", "085444.867000", "085444.870000", "085444.873000", "085444.875000", "085444.878000", "085444.881000", "085444.883000", "085444.886000", "085444.888000", "085444.891000", "085444.893000", "085444.896000", "085444.899000", "085444.901000", "085514.860000", "085514.863000", "085514.865000", "085514.868000", "085514.871000", "085514.873000", "085514.876000", "085514.879000", "085514.881000", "085514.884000", "085514.887000", "085514.889000", "085514.892000", "085514.894000", "085514.906000"],
      "InstanceCreationTime": ["084924.851000", "084924.854000", "084924.857000", "084924.860000", "084924.862000", "084924.883000", "084924.886000", "084924.888000", "084924.891000", "084924.894000", "084924.896000", "084924.899000", "084924.901000", "084924.904000", "084924.906000", "084924.909000", "084924.912000", "084924.914000", "084924.917000", "084924.919000", "084924.922000", "084924.925000", "084924.927000", "084924.930000", "084924.932000", "085004.846000", "085004.849000", "085004.852000", "085004.855000", "085004.857000", "085004.860000", "085004.863000", "085004.875000", "085004.877000", "085004.880000", "085004.882000", "085004.885000", "085004.888000", "085004.891000", "085004.893000", "085004.896000", "085004.899000", "085004.901000", "085004.904000", "085004.906000", "085044.845000", "085044.848000", "085044.851000", "085044.854000", "085044.857000", "085044.860000", "085044.866000", "085044.869000", "085044.871000", "085044.874000", "085044.876000", "085044.879000", "085044.882000", "085044.884000", "085044.887000", "085044.889000", "085044.892000", "085044.895000", "085044.897000", "085044.900000", "085124.845000", "085124.848000", "085124.851000", "085124.853000", "085124.856000", "085124.859000", "085124.862000", "085124.864000", "085124.867000", "085124.869000", "085124.872000", "085124.875000", "085124.877000", "085124.880000", "085124.883000", "085124.885000", "085124.888000", "085124.891000", "085124.893000", "085124.896000", "085204.855000", "085204.858000", "085204.861000", "085204.864000", "085204.866000", "085204.869000", "085204.871000", "085204.874000", "085204.876000", "085204.879000", "085204.882000", "085204.885000", "085204.887000", "085204.890000", "085204.893000", "085204.895000", "085204.898000", "085204.900000", "085204.903000", "085204.906000", "085244.845000", "085244.848000", "085244.851000", "085244.855000", "085244.857000", "085244.860000", "085244.862000", "085244.865000", "085244.867000", "085244.870000", "085244.873000", "085244.875000", "085244.878000", "085244.880000", "085244.883000", "085244.886000", "085244.888000", "085244.891000", "085244.894000", "085244.896000", "085324.846000", "085324.848000", "085324.851000", "085324.854000", "085324.857000", "085324.860000", "085324.863000", "085324.865000", "085324.868000", "085324.870000", "085324.873000", "085324.876000", "085324.878000", "085324.881000", "085324.884000", "085324.886000", "085324.889000", "085324.891000", "085324.894000", "085324.896000", "085404.845000", "085404.848000", "085404.851000", "085404.854000", "085404.858000", "085404.860000", "085404.863000", "085404.866000", "085404.868000", "085404.871000", "085404.873000", "085404.876000", "085404.879000", "085404.881000", "085404.884000", "085404.887000", "085404.889000", "085404.892000", "085404.894000", "085404.897000", "085444.847000", "085444.854000", "085444.857000", "085444.860000", "085444.862000", "085444.865000", "085444.867000", "085444.870000", "085444.873000", "085444.875000", "085444.878000", "085444.881000", "085444.883000", "085444.886000", "085444.888000", "085444.891000", "085444.893000", "085444.896000", "085444.899000", "085444.901000", "085514.860000", "085514.863000", "085514.865000", "085514.868000", "085514.871000", "085514.873000", "085514.876000", "085514.879000", "085514.881000", "085514.884000", "085514.887000", "085514.889000", "085514.892000", "085514.894000", "085514.906000"],
      "InstanceNumber": [1, 2, 3, 4, 5, 6, 7, 8, 9, 10, 11, 12, 13, 14, 15, 16, 17, 18, 19, 20, 21, 22, 23, 24, 25, 26, 27, 28, 29, 30, 31, 32, 33, 34, 35, 36, 37, 38, 39, 40, 41, 42, 43, 44, 45, 46, 47, 48, 49, 50, 51, 52, 53, 54, 55, 56, 57, 58, 59, 60, 61, 62, 63, 64, 65, 66, 67, 68, 69, 70, 71, 72, 73, 74, 75, 76, 77, 78, 79, 80, 81, 82, 83, 84, 85, 86, 87, 88, 89, 90, 91, 92, 93, 94, 95, 96, 97, 98, 99, 100, 101, 102, 103, 104, 105, 106, 107, 108, 109, 110, 111, 112, 113, 114, 115, 116, 117, 118, 119, 120, 121, 122, 123, 124, 125, 126, 127, 128, 129, 130, 131, 132, 133, 134, 135, 136, 137, 138, 139, 140, 141, 142, 143, 144, 145, 146, 147, 148, 149, 150, 151, 152, 153, 154, 155, 156, 157, 158, 159, 160, 161, 162, 163, 164, 165, 166, 167, 168, 169, 170, 171, 172, 173, 174, 175, 176, 177, 178, 179, 180, 181, 182, 183, 184, 185, 186, 187, 188, 189, 190, 191, 192, 193, 194, 195, 196, 197, 198, 199, 200],
      "LargestImagePixelValue": [3758, 3746, 3757, 3750, 3746, 3753, 3747, 3767, 3766, 3761, 3753, 3751, 3745, 3749, 3753, 3751, 3747, 3751, 3744, 3747, 3741, 3747, 3746, 3744, 3727, 3738, 3731, 3746, 3746, 3746, 3747, 3749, 3742, 3737, 3732, 3743, 3743, 3739, 3731, 3748, 3737, 3738, 3747, 3730, 3742, 3740, 3743, 3739, 3733, 3737, 3744, 3751, 3731, 3728, 3734, 3752, 3728, 3735, 3736, 3751, 3729, 3732, 3737, 3722, 3741, 3729, 3735, 3733, 3731, 3742, 3733, 3729, 3735, 3748, 3740, 3741, 3741, 3748, 3763, 3767, 3760, 3780, 3774, 3773, 3770, 3778, 3755, 3765, 3754, 3742, 3737, 3733, 3736, 3728, 3738, 3734, 3733, 3730, 3726, 3735, 3734, 3717, 3741, 3727, 3744, 3737, 3722, 3722, 3732, 3728, 3742, 3730, 3731, 3735, 3737, 3740, 3718, 3733, 3734, 3729, 3733, 3729, 3721, 3722, 3736, 3729, 3730, 3734, 3732, 3730, 3723, 3732, 3723, 3734, 3729, 3728, 3725, 3724, 3727, 3732, 3732, 3737, 3731, 3735, 3735, 3723, 3733, 3729, 3726, 3728, 3724, 3725, 3732, 3727, 3735, 3738, 3738, 3732, 3725, 3736, 3734, 3727, 3729, 3720, 3725, 3726, 3723, 3731, 3728, 3731, 3732, 3735, 3724, 3739, 3726, 3732, 3731, 3724, 3718, 3734, 3732, 3721, 3720, 3729, 3719, 3724, 3726, 3720, 3723, 3733, 3712, 3711, 3719, 3729, 3720, 3731, 3719, 3731, 3730, 3727],
      "WindowCenter": [1412.0, 1412.0, 1411.0, 1411.0, 1411.0, 1410.0, 1410.0, 1411.0, 1411.0, 1410.0, 1410.0, 1410.0, 1410.0, 1410.0, 1410.0, 1410.0, 1410.0, 1411.0, 1410.0, 1410.0, 1410.0, 1410.0, 1410.0, 1410.0, 1410.0, 1411.0, 1409.0, 1409.0, 1410.0, 1410.0, 1410.0, 1410.0, 1409.0, 1409.0, 1409.0, 1409.0, 1410.0, 1409.0, 1409.0, 1409.0, 1409.0, 1408.0, 1408.0, 1408.0, 1409.0, 1409.0, 1408.0, 1409.0, 1409.0, 1408.0, 1408.0, 1407.0, 1408.0, 1407.0, 1408.0, 1408.0, 1408.0, 1407.0, 1408.0, 1407.0, 1407.0, 1407.0, 1408.0, 1408.0, 1407.0, 1408.0, 1408.0, 1408.0, 1407.0, 1408.0, 1407.0, 1407.0, 1407.0, 1407.0, 1407.0, 1407.0, 1407.0, 1407.0, 1407.0, 1408.0, 1407.0, 1407.0, 1407.0, 1407.0, 1407.0, 1407.0, 1407.0, 1407.0, 1406.0, 1406.0, 1406.0, 1407.0, 1406.0, 1407.0, 1407.0, 1407.0, 1407.0, 1407.0, 1407.0, 1406.0, 1406.0, 1406.0, 1407.0, 1407.0, 1407.0, 1406.0, 1407.0, 1406.0, 1407.0, 1407.0, 1406.0, 1405.0, 1406.0, 1406.0, 1406.0, 1406.0, 1406.0, 1406.0, 1406.0, 1406.0, 1405.0, 1406.0, 1406.0, 1406.0, 1406.0, 1405.0, 1405.0, 1405.0, 1406.0, 1406.0, 1406.0, 1405.0, 1405.0, 1405.0, 1405.0, 1405.0, 1405.0, 1406.0, 1405.0, 1405.0, 1405.0, 1405.0, 1406.0, 1405.0, 1405.0, 1405.0, 1405.0, 1405.0, 1405.0, 1404.0, 1404.0, 1405.0, 1405.0, 1404.0, 1405.0, 1405.0, 1404.0, 1405.0, 1404.0, 1404.0, 1404.0, 1404.0, 1405.0, 1404.0, 1404.0, 1404.0, 1404.0, 1403.0, 1404.0, 1404.0, 1405.0, 1404.0, 1404.0, 1403.0, 1404.0, 1403.0, 1404.0, 1404.0, 1403.0, 1403.0, 1403.0, 1404.0, 1404.0, 1403.0, 1404.0, 1403.0, 1403.0, 1403.0, 1404.0, 1403.0, 1403.0, 1403.0, 1404.0, 1403.0, 1404.0, 1404.0, 1403.0, 1403.0, 1404.0, 1404.0],
      "WindowWidth": [3261.0, 3259.0, 3259.0, 3259.0, 3259.0, 3259.0, 3259.0, 3259.0, 3259.0, 3259.0, 3259.0, 3259.0, 3259.0, 3258.0, 3259.0, 3259.0, 3259.0, 3259.0, 3258.0, 3258.0, 3258.0, 3258.0, 3258.0, 3258.0, 3258.0, 3258.0, 3258.0, 3258.0, 3258.0, 3258.0, 3259.0, 3258.0, 3258.0, 3258.0, 3259.0, 3258.0, 3257.0, 3258.0, 3258.0, 3258.0, 3258.0, 3258.0, 3258.0, 3258.0, 3257.0, 3258.0, 3258.0, 3258.0, 3257.0, 3257.0, 3257.0, 3258.0, 3258.0, 3258.0, 3258.0, 3258.0, 3258.0, 3258.0, 3257.0, 3258.0, 3258.0, 3258.0, 3257.0, 3257.0, 3257.0, 3257.0, 3257.0, 3258.0, 3257.0, 3257.0, 3257.0, 3257.0, 3257.0, 3257.0, 3257.0, 3257.0, 3257.0, 3257.0, 3257.0, 3256.0, 3257.0, 3257.0, 3257.0, 3257.0, 3257.0, 3257.0, 3257.0, 3257.0, 3257.0, 3257.0, 3257.0, 3257.0, 3257.0, 3257.0, 3257.0, 3257.0, 3257.0, 3257.0, 3256.0, 3257.0, 3257.0, 3257.0, 3257.0, 3256.0, 3256.0, 3257.0, 3256.0, 3257.0, 3256.0, 3256.0, 3256.0, 3257.0, 3256.0, 3256.0, 3256.0, 3256.0, 3256.0, 3256.0, 3256.0, 3256.0, 3256.0, 3256.0, 3256.0, 3256.0, 3256.0, 3256.0, 3256.0, 3256.0, 3255.0, 3255.0, 3255.0, 3256.0, 3255.0, 3255.0, 3256.0, 3256.0, 3256.0, 3255.0, 3255.0, 3256.0, 3256.0, 3256.0, 3255.0, 3256.0, 3256.0, 3256.0, 3256.0, 3256.0, 3255.0, 3255.0, 3255.0, 3255.0, 3255.0, 3255.0, 3255.0, 3255.0, 3255.0, 3254.0, 3255.0, 3255.0, 3255.0, 3255.0, 3254.0, 3255.0, 3255.0, 3254.0, 3254.0, 3254.0, 3254.0, 3255.0, 3255.0, 3255.0, 3255.0, 3255.0, 3255.0, 3255.0, 3255.0, 3255.0, 3255.0, 3254.0, 3255.0, 3255.0, 3255.0, 3255.0, 3255.0, 3255.0, 3255.0, 3254.0, 3255.0, 3254.0, 3254.0, 3255.0, 3255.0, 3254.0, 3255.0, 3255.0, 3255.0, 3255.0, 3255.0, 3255.0]
    },
    "slices": {}
  }
}