{
  "AcquisitionMatrixPE": 80,
  "AcquisitionNumber": 1,
  "AcquisitionTime": "09:02:13.522500",
  "BandwidthPerPixelPhaseEncode": 25,
  "BaseResolution": 80,
  "BodyPartExamined": "BRAIN",
  "CoilCombinationMethod": "Sum of Squares",
  "ConsistencyInfo": "N4_VE11C_LATEST_20160120",
  "ConversionSoftware": "dcm2niix",
  "ConversionSoftwareVersion": "v1.0.20220720",
  "DerivedVendorReportedEchoSpacing": 0.0005,
  "DeviceSerialNumber": "66112",
  "DwellTime": 2.7e-06,
  "EchoTime": 0.03,
  "EchoTrainLength": 80,
  "EffectiveEchoSpacing": 0.0005,
  "FlipAngle": 10,
  "HeudiconvVersion": "0.13.1",
  "ImageOrientationPatientDICOM": [0.991113, 0.132874, 0.00619594, -0.127668, 0.937133, 0.324782],
  "ImageOrientationText": "Tra>Cor(18.8)>Sag(-2.1)",
  "ImageType": [
    "ORIGINAL",
    "PRIMARY",
    "M",
    "ND",
    "NORM",
    "MOSAIC"
],
  "ImagingFrequency": 123.252,
  "InPlanePhaseEncodingDirectionDICOM": "COL",
  "InstitutionAddress": "Maynard 3,Hanover,NH,US,03755",
  "InstitutionName": "Dartmouth College - PBS",
  "InstitutionalDepartmentName": "Department",
  "MRAcquisitionType": "2D",
  "MagneticFieldStrength": 3,
  "Manufacturer": "Siemens",
  "ManufacturersModelName": "Prisma",
  "MatrixCoilMode": "SENSE",
  "Modality": "MR",
  "NonlinearGradientCorrection": false,
  "PartialFourier": 1,
  "PatientPosition": "HFS",
  "PercentPhaseFOV": 100,
  "PercentSampling": 100,
  "PhaseEncodingDirection": "j-",
  "PhaseEncodingSteps": 80,
  "PhaseResolution": 1,
  "PixelBandwidth": 2315,
  "ProcedureStepDescription": "dbic^QA",
  "ProtocolName": "func-bold_fa-10",
  "PulseSequenceDetails": "%SiemensSeq%\\ep2d_bold",
  "ReceiveCoilActiveElements": "HC1-7;NC1,2",
  "ReceiveCoilName": "HeadNeck_64",
  "ReconMatrixPE": 80,
  "RepetitionTime": 2,
  "SAR": 0.00757608,
  "ScanOptions": "FS",
  "ScanningSequence": "EP",
  "SequenceName": "*epfid2d1_80",
  "SequenceVariant": "SK",
  "SeriesDescription": "func-bold_fa-10",
  "SeriesNumber": 9,
  "ShimSetting": [4141, -7698, -7504, 159, -58, -208, -39, 80],
  "SliceThickness": 3.5,
  "SliceTiming": [0.99, 0, 1.0575, 0.0675, 1.1225, 0.1325, 1.1875, 0.1975, 1.255, 0.265, 1.32, 0.33, 1.3875, 0.3975, 1.4525, 0.4625, 1.5175, 0.5275, 1.585, 0.595, 1.65, 0.66, 1.7175, 0.7275, 1.7825, 0.7925, 1.8475, 0.8575, 1.915, 0.925],
  "SoftwareVersions": "syngo MR E11",
  "SpacingBetweenSlices": 3.99,
  "StationName": "AWP66112",
  "TotalReadoutTime": 0.0395,
  "TxRefAmp": 210.628,
  "dcmmeta_affine": [
    [-2.9733405113220215, -0.3830035626888275, -0.14902164041996002, 135.31179809570312],
    [-0.39862340688705444, 2.8113980293273926, 1.2875195741653442, -94.99530792236328],
    [0.018587831407785416, -0.9743452668190002, 3.7736170291900635, -20.19829750061035],
    [0.0, 0.0, 0.0, 1.0]
],
  "dcmmeta_reorient_transform": [
    [0.0, -1.0, 0.0, 79.0],
    [1.0, 0.0, 0.0, 0.0],
    [0.0, 0.0, 1.0, 0.0],
    [0.0, 0.0, 0.0, 1.0]
],
  "dcmmeta_shape": [80, 80, 30, 200],
  "dcmmeta_slice_dim": 2,
  "dcmmeta_version": 0.6,
  "global": {
    "const": {
      "AccessionNumber": "qa64",
      "AcquisitionMatrix": [80, 0, 0, 80],
      "AngioFlag": "N",
      "BitsAllocated": 16,
      "BitsStored": 12,
      "BodyPartExamined": "BRAIN",
      "Columns": 480,
      "EchoNumbers": 1,
      "EchoTime": 30.0,
      "EchoTrainLength": 80,
      "FlipAngle": 10.0,
      "HighBit": 11,
      "ImageOrientationPatient": [0.99111350828496, 0.1328744669823, 0.00619594377423, -0.1276678589863, 0.93713271576539, 0.32478175876122],
      "ImagePositionPatient": [-623.12190598435, -769.10945386212, -295.75819616122],
      "ImageType": [
        "ORIGINAL",
        "PRIMARY",
        "M",
        "ND",
        "NORM",
        "MOSAIC"
],
      "ImagedNucleus": "1H",
      "ImagingFrequency": 123.252384,
      "InPlanePhaseEncodingDirection": "COL",
      "MRAcquisitionType": "2D",
      "MagneticFieldStrength": 3.0,
      "Manufacturer": "SIEMENS",
      "ManufacturerModelName": "Prisma",
      "Modality": "MR",
      "NumberOfAverages": 1.0,
      "NumberOfPhaseEncodingSteps": 80,
      "PercentPhaseFieldOfView": 100.0,
      "PercentSampling": 100.0,
      "PerformedProcedureStepStartTime": "084632.855000",
      "PhotometricInterpretation": "MONOCHROME2",
      "PixelBandwidth": 2315.0,
      "PixelRepresentation": 0,
      "PixelSpacing": [3.0, 3.0],
      "ProtocolName": "func-bold_fa-10",
      "RepetitionTime": 2000.0,
      "Rows": 480,
      "SAR": 0.00757608411155,
      "SamplesPerPixel": 1,
      "ScanOptions": "FS",
      "ScanningSequence": "EP",
      "SequenceName": "*epfid2d1_80",
      "SequenceVariant": "SK",
      "SeriesDescription": "func-bold_fa-10",
      "SeriesNumber": 9,
      "SeriesTime": "090304.778000",
      "SliceLocation": -54.810363001343,
      "SliceThickness": 3.5,
      "SmallestImagePixelValue": 0,
      "SoftwareVersions": "syngo MR E11",
      "SpacingBetweenSlices": 3.9899999824991,
      "SpecificCharacterSet": "ISO_IR 100",
      "StudyID": "7",
      "StudyTime": "084632.775000",
      "TransmitCoilName": "Body",
      "VariableFlipAngleFlag": "N",
      "WindowCenterWidthExplanation": "Algo1",
      "dBdt": 0.0},
    "slices": {}
  },
  "time": {
    "samples": {
      "AcquisitionNumber": [1, 2, 3, 4, 5, 6, 7, 8, 9, 10, 11, 12, 13, 14, 15, 16, 17, 18, 19, 20, 21, 22, 23, 24, 25, 26, 27, 28, 29, 30, 31, 32, 33, 34, 35, 36, 37, 38, 39, 40, 41, 42, 43, 44, 45, 46, 47, 48, 49, 50, 51, 52, 53, 54, 55, 56, 57, 58, 59, 60, 61, 62, 63, 64, 65, 66, 67, 68, 69, 70, 71, 72, 73, 74, 75, 76, 77, 78, 79, 80, 81, 82, 83, 84, 85, 86, 87, 88, 89, 90, 91, 92, 93, 94, 95, 96, 97, 98, 99, 100, 101, 102, 103, 104, 105, 106, 107, 108, 109, 110, 111, 112, 113, 114, 115, 116, 117, 118, 119, 120, 121, 122, 123, 124, 125, 126, 127, 128, 129, 130, 131, 132, 133, 134, 135, 136, 137, 138, 139, 140, 141, 142, 143, 144, 145, 146, 147, 148, 149, 150, 151, 152, 153, 154, 155, 156, 157, 158, 159, 160, 161, 162, 163, 164, 165, 166, 167, 168, 169, 170, 171, 172, 173, 174, 175, 176, 177, 178, 179, 180, 181, 182, 183, 184, 185, 186, 187, 188, 189, 190, 191, 192, 193, 194, 195, 196, 197, 198, 199, 200],
      "AcquisitionTime": ["090213.522500", "090215.522500", "090217.522500", "090219.522500", "090221.522500", "090223.522500", "090225.522500", "090227.522500", "090229.522500", "090231.522500", "090233.522500", "090235.522500", "090237.522500", "090239.522500", "090241.522500", "090243.522500", "090245.522500", "090247.522500", "090249.522500", "090251.522500", "090253.522500", "090255.522500", "090257.522500", "090259.522500", "090301.522500", "090303.522500", "090305.522500", "090307.522500", "090309.522500", "090311.522500", "090313.522500", "090315.522500", "090317.522500", "090319.522500", "090321.522500", "090323.522500", "090325.522500", "090327.522500", "090329.522500", "090331.522500", "090333.522500", "090335.522500", "090337.522500", "090339.522500", "090341.522500", "090343.522500", "090345.522500", "090347.522500", "090349.522500", "090351.522500", "090353.522500", "090355.522500", "090357.522500", "090359.522500", "090401.522500", "090403.522500", "090405.522500", "090407.522500", "090409.522500", "090411.522500", "090413.522500", "090415.522500", "090417.522500", "090419.522500", "090421.522500", "090423.522500", "090425.522500", "090427.522500", "090429.522500", "090431.522500", "090433.522500", "090435.522500", "090437.522500", "090439.522500", "090441.522500", "090443.522500", "090445.522500", "090447.522500", "090449.522500", "090451.522500", "090453.522500", "090455.522500", "090457.522500", "090459.522500", "090501.522500", "090503.522500", "090505.522500", "090507.522500", "090509.522500", "090511.522500", "090513.522500", "090515.522500", "090517.522500", "090519.522500", "090521.522500", "090523.522500", "090525.522500", "090527.522500", "090529.522500", "090531.522500", "090533.522500", "090535.522500", "090537.522500", "090539.522500", "090541.522500", "090543.522500", "090545.522500", "090547.522500", "090549.522500", "090551.522500", "090553.522500", "090555.522500", "090557.522500", "090559.522500", "090601.522500", "090603.522500", "090605.522500", "090607.522500", "090609.522500", "090611.522500", "090613.522500", "090615.522500", "090617.522500", "090619.522500", "090621.522500", "090623.522500", "090625.522500", "090627.522500", "090629.522500", "090631.522500", "090633.522500", "090635.522500", "090637.522500", "090639.522500", "090641.522500", "090643.522500", "090645.522500", "090647.522500", "090649.522500", "090651.522500", "090653.522500", "090655.522500", "090657.522500", "090659.522500", "090701.522500", "090703.522500", "090705.522500", "090707.522500", "090709.522500", "090711.522500", "090713.522500", "090715.522500", "090717.522500", "090719.522500", "090721.522500", "090723.522500", "090725.522500", "090727.522500", "090729.522500", "090731.522500", "090733.522500", "090735.522500", "090737.522500", "090739.522500", "090741.522500", "090743.522500", "090745.522500", "090747.522500", "090749.522500", "090751.522500", "090753.522500", "090755.522500", "090757.522500", "090759.522500", "090801.522500", "090803.522500", "090805.522500", "090807.522500", "090809.522500", "090811.522500", "090813.522500", "090815.522500", "090817.522500", "090819.522500", "090821.522500", "090823.522500", "090825.522500", "090827.522500", "090829.522500", "090831.522500", "090833.522500", "090835.522500", "090837.522500", "090839.522500", "090841.522500", "090843.522500", "090845.522500", "090847.522500", "090849.522500", "090851.522500"],
      "ContentTime": ["090304.781000", "090304.784000", "090304.787000", "090304.789000", "090304.792000", "090304.795000", "090304.797000", "090304.800000", "090304.802000", "090304.805000", "090304.807000", "090304.810000", "090304.813000", "090304.815000", "090304.817000", "090304.820000", "090304.823000", "090304.826000", "090304.829000", "090304.831000", "090304.834000", "090304.836000", "090304.839000", "090304.841000", "090304.844000", "090344.776000", "090344.779000", "090344.782000", "090344.784000", "090344.787000", "090344.790000", "090344.792000", "090344.794000", "090344.797000", "090344.800000", "090344.802000", "090344.805000", "090344.807000", "090344.810000", "090344.812000", "090344.816000", "090344.819000", "090344.821000", "090344.825000", "090344.827000", "090424.776000", "090424.779000", "090424.782000", "090424.784000", "090424.787000", "090424.790000", "090424.792000", "090424.794000", "090424.797000", "090424.800000", "090424.802000", "090424.819000", "090424.822000", "090424.825000", "090424.828000", "090424.831000", "090424.833000", "090424.836000", "090424.838000", "090424.841000", "090504.776000", "090504.779000", "090504.782000", "090504.784000", "090504.789000", "090504.792000", "090504.794000", "090504.797000", "090504.800000", "090504.802000", "090504.805000", "090504.807000", "090504.810000", "090504.812000", "090504.815000", "090504.817000", "090504.820000", "090504.823000", "090504.826000", "090504.829000", "090544.777000", "090544.779000", "090544.782000", "090544.784000", "090544.787000", "090544.790000", "090544.792000", "090544.795000", "090544.797000", "090544.800000", "090544.802000", "090544.805000", "090544.808000", "090544.810000", "090544.813000", "090544.816000", "090544.819000", "090544.822000", "090544.825000", "090544.828000", "090624.777000", "090624.780000", "090624.783000", "090624.785000", "090624.788000", "090624.791000", "090624.793000", "090624.796000", "090624.798000", "090624.801000", "090624.803000", "090624.806000", "090624.808000", "090624.811000", "090624.814000", "090624.816000", "090624.819000", "090624.823000", "090624.825000", "090624.828000", "090704.777000", "090704.779000", "090704.782000", "090704.785000", "090704.787000", "090704.790000", "090704.792000", "090704.795000", "090704.798000", "090704.800000", "090704.803000", "090704.805000", "090704.808000", "090704.812000", "090704.815000", "090704.817000", "090704.821000", "090704.823000", "090704.826000", "090704.829000", "090744.776000", "090744.779000", "090744.782000", "090744.784000", "090744.787000", "090744.790000", "090744.792000", "090744.795000", "090744.797000", "090744.800000", "090744.802000", "090744.805000", "090744.808000", "090744.810000", "090744.813000", "090744.816000", "090744.819000", "090744.822000", "090744.825000", "090744.827000", "090824.777000", "090824.779000", "090824.782000", "090824.785000", "090824.787000", "090824.790000", "090824.792000", "090824.795000", "090824.798000", "090824.800000", "090824.802000", "090824.805000", "090824.808000", "090824.810000", "090824.813000", "090824.816000", "090824.844000", "090824.851000", "090824.854000", "090824.856000", "090852.868000", "090852.871000", "090852.873000", "090852.876000", "090852.879000", "090852.881000", "090852.884000", "090852.886000", "090852.889000", "090852.892000", "090852.894000", "090852.897000", "090852.899000", "090852.905000", "090852.908000"],
      "InstanceCreationTime": ["090304.781000", "090304.784000", "090304.787000", "090304.789000", "090304.792000", "090304.795000", "090304.797000", "090304.800000", "090304.802000", "090304.805000", "090304.807000", "090304.810000", "090304.813000", "090304.815000", "090304.817000", "090304.820000", "090304.823000", "090304.826000", "090304.829000", "090304.831000", "090304.834000", "090304.836000", "090304.839000", "090304.841000", "090304.844000", "090344.776000", "090344.779000", "090344.782000", "090344.784000", "090344.787000", "090344.790000", "090344.792000", "090344.794000", "090344.797000", "090344.800000", "090344.802000", "090344.805000", "090344.807000", "090344.810000", "090344.812000", "090344.816000", "090344.819000", "090344.821000", "090344.825000", "090344.827000", "090424.776000", "090424.779000", "090424.782000", "090424.784000", "090424.787000", "090424.790000", "090424.792000", "090424.794000", "090424.797000", "090424.800000", "090424.802000", "090424.819000", "090424.822000", "090424.825000", "090424.828000", "090424.831000", "090424.833000", "090424.836000", "090424.838000", "090424.841000", "090504.776000", "090504.779000", "090504.782000", "090504.784000", "090504.789000", "090504.792000", "090504.794000", "090504.797000", "090504.800000", "090504.802000", "090504.805000", "090504.807000", "090504.810000", "090504.812000", "090504.815000", "090504.817000", "090504.820000", "090504.823000", "090504.826000", "090504.829000", "090544.777000", "090544.779000", "090544.782000", "090544.784000", "090544.787000", "090544.790000", "090544.792000", "090544.795000", "090544.797000", "090544.800000", "090544.802000", "090544.805000", "090544.808000", "090544.810000", "090544.813000", "090544.816000", "090544.819000", "090544.822000", "090544.825000", "090544.828000", "090624.777000", "090624.780000", "090624.783000", "090624.785000", "090624.788000", "090624.791000", "090624.793000", "090624.796000", "090624.798000", "090624.801000", "090624.803000", "090624.806000", "090624.808000", "090624.811000", "090624.814000", "090624.816000", "090624.819000", "090624.823000", "090624.825000", "090624.828000", "090704.777000", "090704.779000", "090704.782000", "090704.785000", "090704.787000", "090704.790000", "090704.792000", "090704.795000", "090704.798000", "090704.800000", "090704.803000", "090704.805000", "090704.808000", "090704.812000", "090704.815000", "090704.817000", "090704.821000", "090704.823000", "090704.826000", "090704.829000", "090744.776000", "090744.779000", "090744.782000", "090744.784000", "090744.787000", "090744.790000", "090744.792000", "090744.795000", "090744.797000", "090744.800000", "090744.802000", "090744.805000", "090744.808000", "090744.810000", "090744.813000", "090744.816000", "090744.819000", "090744.822000", "090744.825000", "090744.827000", "090824.777000", "090824.779000", "090824.782000", "090824.785000", "090824.787000", "090824.790000", "090824.792000", "090824.795000", "090824.798000", "090824.800000", "090824.802000", "090824.805000", "090824.808000", "090824.810000", "090824.813000", "090824.816000", "090824.844000", "090824.851000", "090824.854000", "090824.856000", "090852.868000", "090852.871000", "090852.873000", "090852.876000", "090852.879000", "090852.881000", "090852.884000", "090852.886000", "090852.889000", "090852.892000", "090852.894000", "090852.897000", "090852.899000", "090852.905000", "090852.908000"],
      "InstanceNumber": [1, 2, 3, 4, 5, 6, 7, 8, 9, 10, 11, 12, 13, 14, 15, 16, 17, 18, 19, 20, 21, 22, 23, 24, 25, 26, 27, 28, 29, 30, 31, 32, 33, 34, 35, 36, 37, 38, 39, 40, 41, 42, 43, 44, 45, 46, 47, 48, 49, 50, 51, 52, 53, 54, 55, 56, 57, 58, 59, 60, 61, 62, 63, 64, 65, 66, 67, 68, 69, 70, 71, 72, 73, 74, 75, 76, 77, 78, 79, 80, 81, 82, 83, 84, 85, 86, 87, 88, 89, 90, 91, 92, 93, 94, 95, 96, 97, 98, 99, 100, 101, 102, 103, 104, 105, 106, 107, 108, 109, 110, 111, 112, 113, 114, 115, 116, 117, 118, 119, 120, 121, 122, 123, 124, 125, 126, 127, 128, 129, 130, 131, 132, 133, 134, 135, 136, 137, 138, 139, 140, 141, 142, 143, 144, 145, 146, 147, 148, 149, 150, 151, 152, 153, 154, 155, 156, 157, 158, 159, 160, 161, 162, 163, 164, 165, 166, 167, 168, 169, 170, 171, 172, 173, 174, 175, 176, 177, 178, 179, 180, 181, 182, 183, 184, 185, 186, 187, 188, 189, 190, 191, 192, 193, 194, 195, 196, 197, 198, 199, 200],
      "LargestImagePixelValue": [614, 620, 615, 617, 615, 618, 616, 608, 612, 609, 615, 613, 614, 616, 612, 609, 608, 608, 611, 606, 607, 605, 608, 604, 603, 608, 609, 609, 609, 604, 605, 605, 607, 607, 613, 606, 609, 605, 605, 605, 609, 605, 614, 614, 611, 612, 615, 613, 611, 613, 610, 614, 610, 607, 609, 613, 610, 609, 612, 610, 606, 608, 605, 611, 613, 609, 608, 609, 610, 612, 606, 613, 611, 607, 608, 613, 613, 611, 610, 609, 610, 605, 610, 608, 608, 609, 612, 607, 612, 613, 610, 610, 611, 609, 610, 613, 608, 607, 611, 616, 612, 611, 610, 609, 606, 610, 608, 607, 610, 611, 611, 611, 607, 608, 608, 610, 609, 612, 607, 609, 610, 609, 611, 613, 615, 612, 609, 614, 610, 612, 611, 609, 610, 611, 610, 609, 605, 608, 608, 610, 612, 613, 608, 610, 609, 609, 612, 612, 617, 616, 613, 610, 606, 612, 612, 611, 605, 606, 614, 608, 608, 605, 612, 610, 615, 607, 611, 608, 614, 612, 614, 610, 609, 612, 615, 612, 617, 614, 610, 610, 610, 613, 613, 609, 606, 606, 608, 609, 614, 609, 613, 618, 612, 613, 611, 612, 611, 607, 614, 608],
      "WindowCenter": [437.0, 437.0, 437.0, 437.0, 437.0, 437.0, 437.0, 436.0, 437.0, 436.0, 437.0, 437.0, 437.0, 437.0, 437.0, 436.0, 436.0, 436.0, 437.0, 435.0, 436.0, 436.0, 436.0, 436.0, 436.0, 436.0, 436.0, 436.0, 435.0, 435.0, 436.0, 436.0, 435.0, 436.0, 436.0, 435.0, 435.0, 435.0, 436.0, 435.0, 436.0, 435.0, 436.0, 436.0, 436.0, 436.0, 436.0, 436.0, 436.0, 436.0, 436.0, 436.0, 436.0, 435.0, 435.0, 436.0, 436.0, 435.0, 436.0, 436.0, 435.0, 435.0, 435.0, 436.0, 436.0, 435.0, 435.0, 435.0, 436.0, 436.0, 435.0, 436.0, 436.0, 435.0, 435.0, 436.0, 436.0, 436.0, 436.0, 435.0, 436.0, 435.0, 436.0, 435.0, 435.0, 435.0, 436.0, 435.0, 436.0, 436.0, 436.0, 436.0, 436.0, 435.0, 436.0, 436.0, 435.0, 435.0, 436.0, 436.0, 436.0, 436.0, 436.0, 435.0, 435.0, 436.0, 435.0, 435.0, 436.0, 436.0, 436.0, 436.0, 435.0, 435.0, 435.0, 436.0, 435.0, 436.0, 435.0, 435.0, 436.0, 435.0, 436.0, 436.0, 436.0, 436.0, 435.0, 436.0, 436.0, 436.0, 436.0, 435.0, 436.0, 436.0, 436.0, 435.0, 435.0, 435.0, 435.0, 436.0, 436.0, 436.0, 435.0, 436.0, 435.0, 435.0, 436.0, 436.0, 436.0, 436.0, 436.0, 436.0, 435.0, 436.0, 436.0, 436.0, 435.0, 435.0, 435.0, 435.0, 435.0, 435.0, 435.0, 436.0, 436.0, 435.0, 436.0, 435.0, 436.0, 436.0, 436.0, 436.0, 435.0, 435.0, 436.0, 435.0, 435.0, 435.0, 435.0, 435.0, 436.0, 435.0, 436.0, 434.0, 434.0, 435.0, 434.0, 434.0, 435.0, 434.0, 435.0, 435.0, 436.0, 435.0, 435.0, 435.0, 436.0, 434.0, 435.0, 434.0],
      "WindowWidth": [911.0, 911.0, 911.0, 910.0, 910.0, 910.0, 910.0, 909.0, 910.0, 909.0, 910.0, 910.0, 910.0, 910.0, 910.0, 909.0, 909.0, 909.0, 910.0, 908.0, 909.0, 909.0, 909.0, 909.0, 909.0, 909.0, 909.0, 909.0, 908.0, 908.0, 909.0, 909.0, 908.0, 909.0, 909.0, 908.0, 908.0, 908.0, 909.0, 908.0, 909.0, 908.0, 909.0, 909.0, 909.0, 909.0, 909.0, 909.0, 909.0, 909.0, 909.0, 909.0, 909.0, 908.0, 908.0, 909.0, 909.0, 908.0, 909.0, 909.0, 908.0, 908.0, 908.0, 909.0, 909.0, 908.0, 908.0, 908.0, 908.0, 909.0, 908.0, 909.0, 908.0, 908.0, 908.0, 908.0, 908.0, 908.0, 908.0, 908.0, 908.0, 908.0, 908.0, 908.0, 908.0, 908.0, 908.0, 908.0, 908.0, 908.0, 909.0, 909.0, 909.0, 908.0, 908.0, 908.0, 908.0, 908.0, 908.0, 908.0, 908.0, 908.0, 908.0, 908.0, 908.0, 908.0, 908.0, 908.0, 908.0, 908.0, 908.0, 908.0, 908.0, 908.0, 908.0, 908.0, 908.0, 908.0, 908.0, 908.0, 908.0, 907.0, 908.0, 908.0, 908.0, 908.0, 907.0, 908.0, 908.0, 908.0, 908.0, 907.0, 908.0, 908.0, 908.0, 907.0, 907.0, 907.0, 907.0, 908.0, 908.0, 908.0, 907.0, 908.0, 907.0, 907.0, 908.0, 908.0, 908.0, 908.0, 908.0, 908.0, 907.0, 908.0, 908.0, 908.0, 907.0, 907.0, 907.0, 906.0, 906.0, 906.0, 907.0, 908.0, 908.0, 906.0, 908.0, 906.0, 908.0, 908.0, 908.0, 908.0, 906.0, 907.0, 908.0, 907.0, 907.0, 907.0, 907.0, 907.0, 908.0, 907.0, 908.0, 906.0, 906.0, 906.0, 906.0, 906.0, 907.0, 906.0, 907.0, 907.0, 908.0, 907.0, 907.0, 907.0, 908.0, 906.0, 907.0, 906.0]
    },
    "slices": {}
  }
}