{
  "AcquisitionMatrixPE": 80,
  "AcquisitionNumber": 1,
  "AcquisitionTime": "08:55:26.537500",
  "BandwidthPerPixelPhaseEncode": 25,
  "BaseResolution": 80,
  "BodyPartExamined": "BRAIN",
  "CoilCombinationMethod": "Sum of Squares",
  "ConsistencyInfo": "N4_VE11C_LATEST_20160120",
  "ConversionSoftware": "dcm2niix",
  "ConversionSoftwareVersion": "v1.0.20220720",
  "DerivedVendorReportedEchoSpacing": 0.0005,
  "DeviceSerialNumber": "66112",
  "DwellTime": 2.7e-06,
  "EchoTime": 0.03,
  "EchoTrainLength": 80,
  "EffectiveEchoSpacing": 0.0005,
  "FlipAngle": 77,
  "HeudiconvVersion": "0.13.1",
  "ImageOrientationPatientDICOM": [0.991113, 0.132874, 0.00619594, -0.127668, 0.937133, 0.324782],
  "ImageOrientationText": "Tra>Cor(18.8)>Sag(-2.1)",
  "ImageType": [
    "ORIGINAL",
    "PRIMARY",
    "M",
    "ND",
    "NORM",
    "MOSAIC"
],
  "ImagingFrequency": 123.252,
  "InPlanePhaseEncodingDirectionDICOM": "COL",
  "InstitutionAddress": "Maynard 3,Hanover,NH,US,03755",
  "InstitutionName": "Dartmouth College - PBS",
  "InstitutionalDepartmentName": "Department",
  "MRAcquisitionType": "2D",
  "MagneticFieldStrength": 3,
  "Manufacturer": "Siemens",
  "ManufacturersModelName": "Prisma",
  "MatrixCoilMode": "SENSE",
  "Modality": "MR",
  "NonlinearGradientCorrection": false,
  "PartialFourier": 1,
  "PatientPosition": "HFS",
  "PercentPhaseFOV": 100,
  "PercentSampling": 100,
  "PhaseEncodingDirection": "j-",
  "PhaseEncodingSteps": 80,
  "PhaseResolution": 1,
  "PixelBandwidth": 2315,
  "ProcedureStepDescription": "dbic^QA",
  "ProtocolName": "func-bold_fa-77",
  "PulseSequenceDetails": "%SiemensSeq%\\ep2d_bold",
  "ReceiveCoilActiveElements": "HC1-7;NC1,2",
  "ReceiveCoilName": "HeadNeck_64",
  "ReconMatrixPE": 80,
  "RepetitionTime": 2,
  "SAR": 0.0282427,
  "ScanOptions": "FS",
  "ScanningSequence": "EP",
  "SequenceName": "*epfid2d1_80",
  "SequenceVariant": "SK",
  "SeriesDescription": "func-bold_fa-77",
  "SeriesNumber": 7,
  "ShimSetting": [4141, -7698, -7504, 159, -58, -208, -39, 80],
  "SliceThickness": 3.5,
  "SliceTiming": [0.99, 0, 1.0575, 0.0675, 1.1225, 0.1325, 1.19, 0.2, 1.255, 0.265, 1.32, 0.33, 1.3875, 0.3975, 1.4525, 0.4625, 1.52, 0.53, 1.585, 0.595, 1.65, 0.66, 1.7175, 0.7275, 1.7825, 0.7925, 1.85, 0.86, 1.915, 0.925],
  "SoftwareVersions": "syngo MR E11",
  "SpacingBetweenSlices": 3.99,
  "StationName": "AWP66112",
  "TotalReadoutTime": 0.0395,
  "TxRefAmp": 210.628,
  "dcmmeta_affine": [
    [-2.9733405113220215, -0.3830035626888275, -0.14902164041996002, 135.31179809570312],
    [-0.39862340688705444, 2.8113980293273926, 1.2875195741653442, -94.99530792236328],
    [0.018587831407785416, -0.9743452668190002, 3.7736170291900635, -20.19829750061035],
    [0.0, 0.0, 0.0, 1.0]
],
  "dcmmeta_reorient_transform": [
    [0.0, -1.0, 0.0, 79.0],
    [1.0, 0.0, 0.0, 0.0],
    [0.0, 0.0, 1.0, 0.0],
    [0.0, 0.0, 0.0, 1.0]
],
  "dcmmeta_shape": [80, 80, 30, 200],
  "dcmmeta_slice_dim": 2,
  "dcmmeta_version": 0.6,
  "global": {
    "const": {
      "AccessionNumber": "qa64",
      "AcquisitionMatrix": [80, 0, 0, 80],
      "AngioFlag": "N",
      "BitsAllocated": 16,
      "BitsStored": 12,
      "BodyPartExamined": "BRAIN",
      "Columns": 480,
      "EchoNumbers": 1,
      "EchoTime": 30.0,
      "EchoTrainLength": 80,
      "FlipAngle": 77.0,
      "HighBit": 11,
      "ImageOrientationPatient": [0.99111350828496, 0.1328744669823, 0.00619594377423, -0.1276678589863, 0.93713271576539, 0.32478175876122],
      "ImagePositionPatient": [-623.12190598435, -769.10945386212, -295.75819616122],
      "ImageType": [
        "ORIGINAL",
        "PRIMARY",
        "M",
        "ND",
        "NORM",
        "MOSAIC"
],
      "ImagedNucleus": "1H",
      "ImagingFrequency": 123.252384,
      "InPlanePhaseEncodingDirection": "COL",
      "MRAcquisitionType": "2D",
      "MagneticFieldStrength": 3.0,
      "Manufacturer": "SIEMENS",
      "ManufacturerModelName": "Prisma",
      "Modality": "MR",
      "NumberOfAverages": 1.0,
      "NumberOfPhaseEncodingSteps": 80,
      "PercentPhaseFieldOfView": 100.0,
      "PercentSampling": 100.0,
      "PerformedProcedureStepStartTime": "084632.855000",
      "PhotometricInterpretation": "MONOCHROME2",
      "PixelBandwidth": 2315.0,
      "PixelRepresentation": 0,
      "PixelSpacing": [3.0, 3.0],
      "ProtocolName": "func-bold_fa-77",
      "RepetitionTime": 2000.0,
      "Rows": 480,
      "SAR": 0.02824271592051,
      "SamplesPerPixel": 1,
      "ScanOptions": "FS",
      "ScanningSequence": "EP",
      "SequenceName": "*epfid2d1_80",
      "SequenceVariant": "SK",
      "SeriesDescription": "func-bold_fa-77",
      "SeriesNumber": 7,
      "SeriesTime": "085624.918000",
      "SliceLocation": -54.810363001343,
      "SliceThickness": 3.5,
      "SmallestImagePixelValue": 0,
      "SoftwareVersions": "syngo MR E11",
      "SpacingBetweenSlices": 3.9899999824991,
      "SpecificCharacterSet": "ISO_IR 100",
      "StudyID": "7",
      "StudyTime": "084632.775000",
      "TransmitCoilName": "Body",
      "VariableFlipAngleFlag": "N",
      "WindowCenterWidthExplanation": "Algo1",
      "dBdt": 0.0},
    "slices": {}
  },
  "time": {
    "samples": {
      "AcquisitionNumber": [1, 2, 3, 4, 5, 6, 7, 8, 9, 10, 11, 12, 13, 14, 15, 16, 17, 18, 19, 20, 21, 22, 23, 24, 25, 26, 27, 28, 29, 30, 31, 32, 33, 34, 35, 36, 37, 38, 39, 40, 41, 42, 43, 44, 45, 46, 47, 48, 49, 50, 51, 52, 53, 54, 55, 56, 57, 58, 59, 60, 61, 62, 63, 64, 65, 66, 67, 68, 69, 70, 71, 72, 73, 74, 75, 76, 77, 78, 79, 80, 81, 82, 83, 84, 85, 86, 87, 88, 89, 90, 91, 92, 93, 94, 95, 96, 97, 98, 99, 100, 101, 102, 103, 104, 105, 106, 107, 108, 109, 110, 111, 112, 113, 114, 115, 116, 117, 118, 119, 120, 121, 122, 123, 124, 125, 126, 127, 128, 129, 130, 131, 132, 133, 134, 135, 136, 137, 138, 139, 140, 141, 142, 143, 144, 145, 146, 147, 148, 149, 150, 151, 152, 153, 154, 155, 156, 157, 158, 159, 160, 161, 162, 163, 164, 165, 166, 167, 168, 169, 170, 171, 172, 173, 174, 175, 176, 177, 178, 179, 180, 181, 182, 183, 184, 185, 186, 187, 188, 189, 190, 191, 192, 193, 194, 195, 196, 197, 198, 199, 200],
      "AcquisitionTime": ["085526.537500", "085528.537500", "085530.537500", "085532.537500", "085534.537500", "085536.537500", "085538.537500", "085540.537500", "085542.537500", "085544.537500", "085546.537500", "085548.537500", "085550.537500", "085552.537500", "085554.537500", "085556.537500", "085558.537500", "085600.537500", "085602.537500", "085604.537500", "085606.537500", "085608.537500", "085610.537500", "085612.537500", "085614.537500", "085616.537500", "085618.537500", "085620.537500", "085622.537500", "085624.537500", "085626.537500", "085628.537500", "085630.537500", "085632.537500", "085634.537500", "085636.537500", "085638.537500", "085640.537500", "085642.537500", "085644.537500", "085646.537500", "085648.537500", "085650.537500", "085652.537500", "085654.537500", "085656.537500", "085658.537500", "085700.537500", "085702.537500", "085704.537500", "085706.537500", "085708.537500", "085710.537500", "085712.537500", "085714.537500", "085716.537500", "085718.537500", "085720.537500", "085722.537500", "085724.537500", "085726.537500", "085728.537500", "085730.537500", "085732.537500", "085734.537500", "085736.537500", "085738.537500", "085740.537500", "085742.537500", "085744.537500", "085746.537500", "085748.537500", "085750.537500", "085752.537500", "085754.537500", "085756.537500", "085758.537500", "085800.537500", "085802.537500", "085804.537500", "085806.537500", "085808.537500", "085810.537500", "085812.537500", "085814.537500", "085816.537500", "085818.537500", "085820.537500", "085822.537500", "085824.537500", "085826.537500", "085828.537500", "085830.537500", "085832.537500", "085834.537500", "085836.537500", "085838.537500", "085840.537500", "085842.537500", "085844.537500", "085846.537500", "085848.537500", "085850.537500", "085852.537500", "085854.537500", "085856.537500", "085858.537500", "085900.537500", "085902.537500", "085904.537500", "085906.537500", "085908.537500", "085910.537500", "085912.537500", "085914.537500", "085916.537500", "085918.537500", "085920.537500", "085922.537500", "085924.537500", "085926.537500", "085928.537500", "085930.537500", "085932.537500", "085934.537500", "085936.537500", "085938.537500", "085940.537500", "085942.537500", "085944.537500", "085946.537500", "085948.537500", "085950.537500", "085952.537500", "085954.537500", "085956.537500", "085958.537500", "090000.537500", "090002.537500", "090004.537500", "090006.537500", "090008.537500", "090010.537500", "090012.537500", "090014.537500", "090016.537500", "090018.537500", "090020.537500", "090022.537500", "090024.537500", "090026.537500", "090028.537500", "090030.537500", "090032.537500", "090034.537500", "090036.537500", "090038.537500", "090040.537500", "090042.537500", "090044.537500", "090046.537500", "090048.537500", "090050.537500", "090052.537500", "090054.537500", "090056.537500", "090058.537500", "090100.537500", "090102.537500", "090104.537500", "090106.537500", "090108.537500", "090110.537500", "090112.537500", "090114.537500", "090116.537500", "090118.537500", "090120.537500", "090122.537500", "090124.537500", "090126.537500", "090128.537500", "090130.537500", "090132.537500", "090134.537500", "090136.537500", "090138.537500", "090140.537500", "090142.537500", "090144.537500", "090146.537500", "090148.537500", "090150.537500", "090152.537500", "090154.537500", "090156.537500", "090158.537500", "090200.537500", "090202.537500", "090204.537500"],
      "ContentTime": ["085624.921000", "085624.925000", "085624.927000", "085624.930000", "085624.932000", "085624.935000", "085624.937000", "085624.940000", "085624.942000", "085624.945000", "085624.948000", "085624.950000", "085624.952000", "085624.955000", "085624.958000", "085624.960000", "085624.963000", "085624.965000", "085624.968000", "085624.970000", "085624.973000", "085624.976000", "085624.978000", "085624.981000", "085624.991000", "085624.994000", "085624.996000", "085625.000000", "085625.002000", "085704.917000", "085704.920000", "085704.923000", "085704.925000", "085704.928000", "085704.931000", "085704.933000", "085704.935000", "085704.938000", "085704.941000", "085704.943000", "085704.946000", "085704.948000", "085704.951000", "085704.953000", "085704.956000", "085704.958000", "085704.961000", "085704.963000", "085704.966000", "085744.917000", "085744.919000", "085744.922000", "085744.925000", "085744.927000", "085744.930000", "085744.932000", "085744.935000", "085744.938000", "085744.940000", "085744.943000", "085744.945000", "085744.953000", "085744.956000", "085744.958000", "085744.961000", "085744.963000", "085744.966000", "085744.968000", "085744.971000", "085824.916000", "085824.919000", "085824.922000", "085824.924000", "085824.927000", "085824.930000", "085824.932000", "085824.935000", "085824.937000", "085824.940000", "085824.942000", "085824.945000", "085824.948000", "085824.950000", "085824.953000", "085824.955000", "085824.958000", "085824.960000", "085824.963000", "085824.965000", "085904.916000", "085904.919000", "085904.922000", "085904.924000", "085904.927000", "085904.929000", "085904.932000", "085904.935000", "085904.937000", "085904.940000", "085904.942000", "085904.945000", "085904.948000", "085904.950000", "085904.953000", "085904.955000", "085904.958000", "085904.960000", "085904.963000", "085904.965000", "085944.917000", "085944.919000", "085944.922000", "085944.925000", "085944.927000", "085944.930000", "085944.932000", "085944.935000", "085944.938000", "085944.940000", "085944.943000", "085944.945000", "085944.948000", "085944.950000", "085944.953000", "085944.956000", "085944.958000", "085944.961000", "085944.963000", "085944.966000", "090024.916000", "090024.919000", "090024.922000", "090024.924000", "090024.927000", "090024.929000", "090024.932000", "090024.935000", "090024.937000", "090024.940000", "090024.942000", "090024.945000", "090024.947000", "090024.950000", "090024.952000", "090024.955000", "090024.958000", "090024.960000", "090024.963000", "090024.965000", "090104.916000", "090104.919000", "090104.922000", "090104.924000", "090104.927000", "090104.930000", "090104.932000", "090104.935000", "090104.937000", "090104.940000", "090104.942000", "090104.945000", "090104.948000", "090104.950000", "090104.952000", "090104.955000", "090104.958000", "090104.960000", "090104.963000", "090104.965000", "090144.918000", "090144.920000", "090144.923000", "090144.926000", "090144.928000", "090144.931000", "090144.933000", "090144.936000", "090144.939000", "090144.941000", "090144.944000", "090144.946000", "090144.949000", "090144.951000", "090144.954000", "090144.956000", "090144.959000", "090144.962000", "090144.964000", "090144.966000", "090206.307000", "090206.309000", "090206.312000", "090206.314000", "090206.317000", "090206.320000", "090206.322000", "090206.325000", "090206.328000", "090206.330000", "090206.333000"],
      "InstanceCreationTime": ["085624.921000", "085624.925000", "085624.927000", "085624.930000", "085624.932000", "085624.935000", "085624.937000", "085624.940000", "085624.942000", "085624.945000", "085624.948000", "085624.950000", "085624.952000", "085624.955000", "085624.958000", "085624.960000", "085624.963000", "085624.965000", "085624.968000", "085624.970000", "085624.973000", "085624.976000", "085624.978000", "085624.981000", "085624.991000", "085624.994000", "085624.996000", "085625.000000", "085625.002000", "085704.917000", "085704.920000", "085704.923000", "085704.925000", "085704.928000", "085704.931000", "085704.933000", "085704.935000", "085704.938000", "085704.941000", "085704.943000", "085704.946000", "085704.948000", "085704.951000", "085704.953000", "085704.956000", "085704.958000", "085704.961000", "085704.963000", "085704.966000", "085744.917000", "085744.919000", "085744.922000", "085744.925000", "085744.927000", "085744.930000", "085744.932000", "085744.935000", "085744.938000", "085744.940000", "085744.943000", "085744.945000", "085744.953000", "085744.956000", "085744.958000", "085744.961000", "085744.963000", "085744.966000", "085744.968000", "085744.971000", "085824.916000", "085824.919000", "085824.922000", "085824.924000", "085824.927000", "085824.930000", "085824.932000", "085824.935000", "085824.937000", "085824.940000", "085824.942000", "085824.945000", "085824.948000", "085824.950000", "085824.953000", "085824.955000", "085824.958000", "085824.960000", "085824.963000", "085824.965000", "085904.916000", "085904.919000", "085904.922000", "085904.924000", "085904.927000", "085904.929000", "085904.932000", "085904.935000", "085904.937000", "085904.940000", "085904.942000", "085904.945000", "085904.948000", "085904.950000", "085904.953000", "085904.955000", "085904.958000", "085904.960000", "085904.963000", "085904.965000", "085944.917000", "085944.919000", "085944.922000", "085944.925000", "085944.927000", "085944.930000", "085944.932000", "085944.935000", "085944.938000", "085944.940000", "085944.943000", "085944.945000", "085944.948000", "085944.950000", "085944.953000", "085944.956000", "085944.958000", "085944.961000", "085944.963000", "085944.966000", "090024.916000", "090024.919000", "090024.922000", "090024.924000", "090024.927000", "090024.929000", "090024.932000", "090024.935000", "090024.937000", "090024.940000", "090024.942000", "090024.945000", "090024.947000", "090024.950000", "090024.952000", "090024.955000", "090024.958000", "090024.960000", "090024.963000", "090024.965000", "090104.916000", "090104.919000", "090104.922000", "090104.924000", "090104.927000", "090104.930000", "090104.932000", "090104.935000", "090104.937000", "090104.940000", "090104.942000", "090104.945000", "090104.948000", "090104.950000", "090104.952000", "090104.955000", "090104.958000", "090104.960000", "090104.963000", "090104.965000", "090144.918000", "090144.920000", "090144.923000", "090144.926000", "090144.928000", "090144.931000", "090144.933000", "090144.936000", "090144.939000", "090144.941000", "090144.944000", "090144.946000", "090144.949000", "090144.951000", "090144.954000", "090144.956000", "090144.959000", "090144.962000", "090144.964000", "090144.966000", "090206.307000", "090206.309000", "090206.312000", "090206.314000", "090206.317000", "090206.320000", "090206.322000", "090206.325000", "090206.328000", "090206.330000", "090206.333000"],
      "InstanceNumber": [1, 2, 3, 4, 5, 6, 7, 8, 9, 10, 11, 12, 13, 14, 15, 16, 17, 18, 19, 20, 21, 22, 23, 24, 25, 26, 27, 28, 29, 30, 31, 32, 33, 34, 35, 36, 37, 38, 39, 40, 41, 42, 43, 44, 45, 46, 47, 48, 49, 50, 51, 52, 53, 54, 55, 56, 57, 58, 59, 60, 61, 62, 63, 64, 65, 66, 67, 68, 69, 70, 71, 72, 73, 74, 75, 76, 77, 78, 79, 80, 81, 82, 83, 84, 85, 86, 87, 88, 89, 90, 91, 92, 93, 94, 95, 96, 97, 98, 99, 100, 101, 102, 103, 104, 105, 106, 107, 108, 109, 110, 111, 112, 113, 114, 115, 116, 117, 118, 119, 120, 121, 122, 123, 124, 125, 126, 127, 128, 129, 130, 131, 132, 133, 134, 135, 136, 137, 138, 139, 140, 141, 142, 143, 144, 145, 146, 147, 148, 149, 150, 151, 152, 153, 154, 155, 156, 157, 158, 159, 160, 161, 162, 163, 164, 165, 166, 167, 168, 169, 170, 171, 172, 173, 174, 175, 176, 177, 178, 179, 180, 181, 182, 183, 184, 185, 186, 187, 188, 189, 190, 191, 192, 193, 194, 195, 196, 197, 198, 199, 200],
      "LargestImagePixelValue": [3669, 3665, 3660, 3660, 3663, 3666, 3668, 3663, 3667, 3669, 3676, 3675, 3674, 3672, 3673, 3668, 3673, 3674, 3677, 3678, 3674, 3672, 3679, 3690, 3688, 3689, 3691, 3686, 3677, 3679, 3679, 3683, 3691, 3692, 3695, 3699, 3704, 3710, 3714, 3714, 3709, 3702, 3691, 3681, 3669, 3663, 3661, 3666, 3664, 3666, 3676, 3687, 3694, 3695, 3692, 3692, 3692, 3691, 3682, 3677, 3680, 3685, 3684, 3689, 3688, 3690, 3697, 3701, 3702, 3704, 3706, 3703, 3708, 3703, 3699, 3704, 3700, 3701, 3698, 3698, 3706, 3710, 3713, 3715, 3713, 3715, 3710, 3702, 3701, 3698, 3697, 3705, 3706, 3705, 3706, 3710, 3699, 3696, 3690, 3692, 3691, 3690, 3686, 3684, 3687, 3691, 3694, 3700, 3707, 3714, 3710, 3702, 3698, 3702, 3705, 3706, 3715, 3720, 3724, 3718, 3716, 3704, 3709, 3714, 3718, 3722, 3723, 3722, 3721, 3720, 3711, 3708, 3707, 3701, 3706, 3707, 3714, 3716, 3707, 3708, 3710, 3706, 3706, 3696, 3698, 3699, 3705, 3702, 3702, 3699, 3699, 3711, 3718, 3724, 3734, 3728, 3724, 3715, 3707, 3700, 3700, 3705, 3700, 3691, 3696, 3701, 3704, 3706, 3711, 3712, 3717, 3713, 3710, 3713, 3716, 3709, 3712, 3704, 3706, 3708, 3704, 3695, 3691, 3694, 3688, 3696, 3699, 3712, 3714, 3715, 3718, 3720, 3711, 3705, 3701, 3700, 3711, 3726, 3725, 3731],
      "WindowCenter": [1342.0, 1342.0, 1342.0, 1342.0, 1342.0, 1342.0, 1342.0, 1341.0, 1342.0, 1342.0, 1341.0, 1341.0, 1341.0, 1341.0, 1341.0, 1341.0, 1341.0, 1341.0, 1341.0, 1341.0, 1341.0, 1341.0, 1341.0, 1341.0, 1341.0, 1341.0, 1340.0, 1340.0, 1340.0, 1339.0, 1339.0, 1339.0, 1339.0, 1340.0, 1340.0, 1339.0, 1339.0, 1339.0, 1339.0, 1339.0, 1339.0, 1339.0, 1339.0, 1339.0, 1340.0, 1339.0, 1340.0, 1339.0, 1339.0, 1340.0, 1340.0, 1339.0, 1339.0, 1339.0, 1339.0, 1339.0, 1339.0, 1339.0, 1339.0, 1339.0, 1338.0, 1338.0, 1339.0, 1338.0, 1339.0, 1338.0, 1338.0, 1338.0, 1338.0, 1339.0, 1338.0, 1338.0, 1339.0, 1338.0, 1338.0, 1338.0, 1338.0, 1338.0, 1338.0, 1338.0, 1338.0, 1337.0, 1338.0, 1338.0, 1338.0, 1338.0, 1338.0, 1338.0, 1338.0, 1338.0, 1338.0, 1337.0, 1337.0, 1337.0, 1338.0, 1338.0, 1338.0, 1338.0, 1337.0, 1338.0, 1338.0, 1338.0, 1338.0, 1338.0, 1338.0, 1338.0, 1338.0, 1337.0, 1337.0, 1337.0, 1337.0, 1337.0, 1337.0, 1337.0, 1337.0, 1337.0, 1337.0, 1337.0, 1337.0, 1337.0, 1337.0, 1337.0, 1337.0, 1337.0, 1337.0, 1337.0, 1337.0, 1337.0, 1336.0, 1336.0, 1337.0, 1337.0, 1337.0, 1337.0, 1337.0, 1337.0, 1337.0, 1337.0, 1336.0, 1337.0, 1337.0, 1336.0, 1336.0, 1336.0, 1336.0, 1336.0, 1337.0, 1336.0, 1336.0, 1336.0, 1336.0, 1336.0, 1336.0, 1336.0, 1336.0, 1337.0, 1336.0, 1336.0, 1337.0, 1336.0, 1336.0, 1336.0, 1335.0, 1336.0, 1336.0, 1336.0, 1336.0, 1336.0, 1336.0, 1336.0, 1336.0, 1336.0, 1336.0, 1336.0, 1336.0, 1336.0, 1336.0, 1336.0, 1336.0, 1336.0, 1336.0, 1335.0, 1335.0, 1336.0, 1335.0, 1335.0, 1336.0, 1335.0, 1335.0, 1335.0, 1336.0, 1335.0, 1336.0, 1335.0, 1336.0, 1335.0, 1335.0, 1335.0, 1335.0, 1335.0],
      "WindowWidth": [3215.0, 3215.0, 3214.0, 3214.0, 3215.0, 3214.0, 3214.0, 3214.0, 3214.0, 3215.0, 3215.0, 3214.0, 3215.0, 3215.0, 3215.0, 3214.0, 3214.0, 3215.0, 3215.0, 3215.0, 3215.0, 3214.0, 3215.0, 3214.0, 3214.0, 3214.0, 3214.0, 3214.0, 3214.0, 3212.0, 3212.0, 3212.0, 3212.0, 3212.0, 3212.0, 3212.0, 3212.0, 3212.0, 3212.0, 3211.0, 3212.0, 3211.0, 3211.0, 3211.0, 3212.0, 3211.0, 3211.0, 3211.0, 3211.0, 3211.0, 3211.0, 3211.0, 3211.0, 3212.0, 3212.0, 3211.0, 3211.0, 3211.0, 3211.0, 3211.0, 3211.0, 3211.0, 3211.0, 3211.0, 3211.0, 3211.0, 3211.0, 3211.0, 3212.0, 3211.0, 3211.0, 3211.0, 3211.0, 3211.0, 3211.0, 3212.0, 3211.0, 3211.0, 3211.0, 3211.0, 3211.0, 3211.0, 3211.0, 3211.0, 3211.0, 3211.0, 3211.0, 3211.0, 3211.0, 3211.0, 3211.0, 3211.0, 3211.0, 3211.0, 3211.0, 3211.0, 3210.0, 3210.0, 3211.0, 3210.0, 3210.0, 3210.0, 3210.0, 3210.0, 3210.0, 3210.0, 3210.0, 3210.0, 3210.0, 3210.0, 3210.0, 3210.0, 3210.0, 3210.0, 3210.0, 3210.0, 3210.0, 3210.0, 3210.0, 3210.0, 3210.0, 3210.0, 3210.0, 3210.0, 3210.0, 3210.0, 3210.0, 3210.0, 3210.0, 3210.0, 3209.0, 3209.0, 3209.0, 3209.0, 3209.0, 3209.0, 3209.0, 3209.0, 3210.0, 3209.0, 3209.0, 3209.0, 3209.0, 3209.0, 3209.0, 3209.0, 3209.0, 3209.0, 3209.0, 3209.0, 3209.0, 3209.0, 3209.0, 3209.0, 3209.0, 3208.0, 3209.0, 3209.0, 3208.0, 3208.0, 3208.0, 3208.0, 3209.0, 3209.0, 3208.0, 3208.0, 3208.0, 3208.0, 3208.0, 3208.0, 3208.0, 3208.0, 3208.0, 3208.0, 3208.0, 3208.0, 3208.0, 3208.0, 3208.0, 3208.0, 3208.0, 3208.0, 3208.0, 3208.0, 3208.0, 3208.0, 3208.0, 3208.0, 3208.0, 3208.0, 3208.0, 3208.0, 3207.0, 3208.0, 3207.0, 3207.0, 3207.0, 3207.0, 3207.0, 3208.0]
    },
    "slices": {}
  }
}