{
  "AcquisitionMatrixPE": 80,
  "AcquisitionNumber": 1,
  "AcquisitionTime": "09:52:27.172500",
  "BandwidthPerPixelPhaseEncode": 44.643,
  "BaseResolution": 80,
  "BodyPartExamined": "BRAIN",
  "CoilCombinationMethod": "Sum of Squares",
  "ConsistencyInfo": "N4_VE11C_LATEST_20160120",
  "ConversionSoftware": "dcm2niix",
  "ConversionSoftwareVersion": "v1.0.20220720",
  "DerivedVendorReportedEchoSpacing": 0.000559998,
  "DeviceSerialNumber": "66112",
  "DwellTime": 2.7e-06,
  "EchoTime": 0.035,
  "EchoTrainLength": 39,
  "EffectiveEchoSpacing": 0.000279999,
  "FlipAngle": 90,
  "HeudiconvVersion": "0.13.1",
  "ImageOrientationPatientDICOM": [0.984285, -0.176565, 0.00288307, 0.167363, 0.937947, 0.303718],
  "ImageOrientationText": "Tra>Cor(17.4)>Sag(3.2)",
  "ImageType": [
    "ORIGINAL",
    "PRIMARY",
    "M",
    "ND",
    "NORM",
    "MOSAIC"
],
  "ImagingFrequency": 123.252,
  "InPlanePhaseEncodingDirectionDICOM": "COL",
  "InstitutionAddress": "Maynard 3,Hanover,NH,US,03755",
  "InstitutionName": "Dartmouth College - PBS",
  "InstitutionalDepartmentName": "Department",
  "MRAcquisitionType": "2D",
  "MagneticFieldStrength": 3,
  "Manufacturer": "Siemens",
  "ManufacturersModelName": "Prisma",
  "Modality": "MR",
  "MultibandAccelerationFactor": 4,
  "NonlinearGradientCorrection": false,
  "ParallelReductionFactorInPlane": 2,
  "PartialFourier": 1,
  "PatientPosition": "HFS",
  "PercentPhaseFOV": 100,
  "PercentSampling": 100,
  "PhaseEncodingDirection": "j-",
  "PhaseEncodingSteps": 79,
  "PhaseResolution": 1,
  "PixelBandwidth": 2315,
  "ProcedureStepDescription": "dbic^QA",
  "ProtocolName": "func-bold_task-rest_acq-p2-s4-3.5mm",
  "PulseSequenceDetails": "%SiemensSeq%\\ep2d_bold",
  "ReceiveCoilActiveElements": "HEA;HEP",
  "ReceiveCoilName": "Head_32",
  "ReconMatrixPE": 80,
  "RefLinesPE": 24,
  "RepetitionTime": 2,
  "SAR": 0.0210011,
  "ScanOptions": "FS",
  "ScanningSequence": "EP",
  "SequenceName": "*epfid2d1_80",
  "SequenceVariant": "SK",
  "SeriesDescription": "func-bold_task-rest_acq-p2-s4-3.5mm",
  "SeriesNumber": 7,
  "ShimSetting": [4144, -7687, -7521, 265, -74, -127, -33, 58],
  "SliceThickness": 3.5,
  "SliceTiming": [1.485, 0, 0.99, 0.2475, 1.2375, 0.7425, 1.7325, 0.495, 1.485, 0, 0.99, 0.2475, 1.2375, 0.7425, 1.7325, 0.495, 1.485, 0, 0.99, 0.2475, 1.2375, 0.7425, 1.7325, 0.495, 1.485, 0, 0.99, 0.2475, 1.2375, 0.7425, 1.7325, 0.495],
  "SoftwareVersions": "syngo MR E11",
  "SpacingBetweenSlices": 3.99,
  "StationName": "AWP66112",
  "TaskName": "rest",
  "TotalReadoutTime": 0.0221199,
  "TxRefAmp": 232.243,
  "dcmmeta_affine": [
    [-2.9528543949127197, 0.5020889639854431, 0.22475671768188477, 94.12547302246094],
    [0.5296943783760071, 2.8138420581817627, 1.190863847732544, -148.96060180664062],
    [0.008649203926324844, -0.9111528992652893, 3.8015034198760986, -19.890134811401367],
    [0.0, 0.0, 0.0, 1.0]
],
  "dcmmeta_reorient_transform": [
    [0.0, -1.0, 0.0, 79.0],
    [1.0, 0.0, 0.0, 0.0],
    [0.0, 0.0, 1.0, 0.0],
    [0.0, 0.0, 0.0, 1.0]
],
  "dcmmeta_shape": [80, 80, 32, 200],
  "dcmmeta_slice_dim": 2,
  "dcmmeta_version": 0.6,
  "global": {
    "const": {
      "AccessionNumber": "qa",
      "AcquisitionMatrix": [80, 0, 0, 80],
      "AngioFlag": "N",
      "BitsAllocated": 16,
      "BitsStored": 12,
      "BodyPartExamined": "BRAIN",
      "Columns": 480,
      "EchoNumbers": 1,
      "EchoTime": 35.0,
      "EchoTrainLength": 39,
      "FlipAngle": 90.0,
      "HighBit": 11,
      "ImageOrientationPatient": [0.98428479722997, -0.1765647922453, 0.00288306804301, 0.16736298388648, 0.93794735144999, 0.30371762795821],
      "ImagePositionPatient": [-824.77916678144, -530.16245503279, -275.83162938626],
      "ImageType": [
        "ORIGINAL",
        "PRIMARY",
        "M",
        "ND",
        "NORM",
        "MOSAIC"
],
      "ImagedNucleus": "1H",
      "ImagingFrequency": 123.252446,
      "InPlanePhaseEncodingDirection": "COL",
      "MRAcquisitionType": "2D",
      "MagneticFieldStrength": 3.0,
      "Manufacturer": "SIEMENS",
      "ManufacturerModelName": "Prisma",
      "Modality": "MR",
      "NumberOfAverages": 1.0,
      "NumberOfPhaseEncodingSteps": 79,
      "PercentPhaseFieldOfView": 100.0,
      "PercentSampling": 100.0,
      "PerformedProcedureStepStartTime": "094401.044000",
      "PhotometricInterpretation": "MONOCHROME2",
      "PixelBandwidth": 2315.0,
      "PixelRepresentation": 0,
      "PixelSpacing": [3.0, 3.0],
      "ProtocolName": "func-bold_task-rest_acq-p2-s4-3.5mm",
      "RepetitionTime": 2000.0,
      "Rows": 480,
      "SAR": 0.02100114279291,
      "SamplesPerPixel": 1,
      "ScanOptions": "FS",
      "ScanningSequence": "EP",
      "SequenceName": "*epfid2d1_80",
      "SequenceVariant": "SK",
      "SeriesDescription": "func-bold_task-rest_acq-p2-s4-3.5mm",
      "SeriesNumber": 7,
      "SeriesTime": "095256.341000",
      "SliceLocation": -58.107488573595,
      "SliceThickness": 3.5,
      "SmallestImagePixelValue": 0,
      "SoftwareVersions": "syngo MR E11",
      "SpacingBetweenSlices": 3.9899999973393,
      "SpecificCharacterSet": "ISO_IR 100",
      "StudyID": "40",
      "StudyTime": "094400.955000",
      "TransmitCoilName": "Body",
      "VariableFlipAngleFlag": "N",
      "WindowCenterWidthExplanation": "Algo1",
      "dBdt": 0.0},
    "slices": {}
  },
  "time": {
    "samples": {
      "AcquisitionNumber": [1, 2, 3, 4, 5, 6, 7, 8, 9, 10, 11, 12, 13, 14, 15, 16, 17, 18, 19, 20, 21, 22, 23, 24, 25, 26, 27, 28, 29, 30, 31, 32, 33, 34, 35, 36, 37, 38, 39, 40, 41, 42, 43, 44, 45, 46, 47, 48, 49, 50, 51, 52, 53, 54, 55, 56, 57, 58, 59, 60, 61, 62, 63, 64, 65, 66, 67, 68, 69, 70, 71, 72, 73, 74, 75, 76, 77, 78, 79, 80, 81, 82, 83, 84, 85, 86, 87, 88, 89, 90, 91, 92, 93, 94, 95, 96, 97, 98, 99, 100, 101, 102, 103, 104, 105, 106, 107, 108, 109, 110, 111, 112, 113, 114, 115, 116, 117, 118, 119, 120, 121, 122, 123, 124, 125, 126, 127, 128, 129, 130, 131, 132, 133, 134, 135, 136, 137, 138, 139, 140, 141, 142, 143, 144, 145, 146, 147, 148, 149, 150, 151, 152, 153, 154, 155, 156, 157, 158, 159, 160, 161, 162, 163, 164, 165, 166, 167, 168, 169, 170, 171, 172, 173, 174, 175, 176, 177, 178, 179, 180, 181, 182, 183, 184, 185, 186, 187, 188, 189, 190, 191, 192, 193, 194, 195, 196, 197, 198, 199, 200],
      "AcquisitionTime": ["095227.172500", "095229.172500", "095231.172500", "095233.172500", "095235.172500", "095237.172500", "095239.172500", "095241.172500", "095243.172500", "095245.172500", "095247.172500", "095249.172500", "095251.172500", "095253.172500", "095255.172500", "095257.172500", "095259.172500", "095301.172500", "095303.172500", "095305.172500", "095307.172500", "095309.172500", "095311.172500", "095313.172500", "095315.172500", "095317.172500", "095319.172500", "095321.172500", "095323.172500", "095325.172500", "095327.172500", "095329.172500", "095331.172500", "095333.172500", "095335.172500", "095337.172500", "095339.172500", "095341.172500", "095343.172500", "095345.172500", "095347.172500", "095349.172500", "095351.172500", "095353.172500", "095355.172500", "095357.172500", "095359.172500", "095401.172500", "095403.172500", "095405.172500", "095407.172500", "095409.172500", "095411.172500", "095413.172500", "095415.172500", "095417.172500", "095419.172500", "095421.172500", "095423.172500", "095425.172500", "095427.172500", "095429.172500", "095431.172500", "095433.172500", "095435.172500", "095437.172500", "095439.172500", "095441.172500", "095443.172500", "095445.172500", "095447.172500", "095449.172500", "095451.172500", "095453.172500", "095455.172500", "095457.172500", "095459.172500", "095501.172500", "095503.172500", "095505.172500", "095507.172500", "095509.172500", "095511.172500", "095513.172500", "095515.172500", "095517.172500", "095519.172500", "095521.172500", "095523.172500", "095525.172500", "095527.172500", "095529.172500", "095531.172500", "095533.172500", "095535.172500", "095537.172500", "095539.172500", "095541.172500", "095543.172500", "095545.172500", "095547.172500", "095549.172500", "095551.172500", "095553.172500", "095555.172500", "095557.172500", "095559.172500", "095601.172500", "095603.172500", "095605.172500", "095607.172500", "095609.172500", "095611.172500", "095613.172500", "095615.172500", "095617.172500", "095619.172500", "095621.172500", "095623.172500", "095625.172500", "095627.172500", "095629.172500", "095631.172500", "095633.172500", "095635.172500", "095637.172500", "095639.172500", "095641.172500", "095643.172500", "095645.172500", "095647.172500", "095649.172500", "095651.172500", "095653.172500", "095655.172500", "095657.172500", "095659.172500", "095701.172500", "095703.172500", "095705.172500", "095707.172500", "095709.172500", "095711.172500", "095713.172500", "095715.172500", "095717.172500", "095719.172500", "095721.172500", "095723.172500", "095725.172500", "095727.172500", "095729.172500", "095731.172500", "095733.172500", "095735.172500", "095737.172500", "095739.172500", "095741.172500", "095743.172500", "095745.172500", "095747.172500", "095749.172500", "095751.172500", "095753.172500", "095755.172500", "095757.172500", "095759.172500", "095801.172500", "095803.172500", "095805.172500", "095807.172500", "095809.172500", "095811.172500", "095813.172500", "095815.172500", "095817.172500", "095819.172500", "095821.172500", "095823.172500", "095825.172500", "095827.172500", "095829.172500", "095831.172500", "095833.172500", "095835.172500", "095837.172500", "095839.172500", "095841.172500", "095843.172500", "095845.172500", "095847.172500", "095849.172500", "095851.172500", "095853.172500", "095855.172500", "095857.172500", "095859.172500", "095901.172500", "095903.172500", "095905.172500"],
      "ContentTime": ["095256.356000", "095256.371000", "095256.374000", "095256.376000", "095256.379000", "095256.381000", "095256.384000", "095256.387000", "095256.389000", "095256.394000", "095256.397000", "095256.399000", "095256.402000", "095256.404000", "095256.407000", "095336.339000", "095336.342000", "095336.351000", "095336.353000", "095336.356000", "095336.367000", "095336.369000", "095336.372000", "095336.374000", "095336.377000", "095336.379000", "095336.382000", "095336.385000", "095336.387000", "095336.390000", "095336.401000", "095336.403000", "095336.406000", "095336.408000", "095336.411000", "095416.340000", "095416.343000", "095416.346000", "095416.349000", "095416.358000", "095416.361000", "095416.363000", "095416.366000", "095416.369000", "095416.371000", "095416.374000", "095416.376000", "095416.379000", "095416.382000", "095416.384000", "095416.387000", "095416.389000", "095416.392000", "095416.395000", "095416.397000", "095456.339000", "095456.342000", "095456.345000", "095456.348000", "095456.350000", "095456.353000", "095456.355000", "095456.358000", "095456.361000", "095456.363000", "095456.366000", "095456.368000", "095456.371000", "095456.374000", "095456.376000", "095456.379000", "095456.381000", "095456.384000", "095456.387000", "095456.389000", "095536.339000", "095536.342000", "095536.345000", "095536.347000", "095536.350000", "095536.353000", "095536.355000", "095536.358000", "095536.360000", "095536.363000", "095536.366000", "095536.368000", "095536.371000", "095536.373000", "095536.376000", "095536.387000", "095536.390000", "095536.392000", "095536.395000", "095536.397000", "095616.340000", "095616.343000", "095616.346000", "095616.348000", "095616.351000", "095616.354000", "095616.356000", "095616.359000", "095616.362000", "095616.364000", "095616.367000", "095616.369000", "095616.372000", "095616.375000", "095616.377000", "095616.380000", "095616.382000", "095616.385000", "095616.388000", "095616.390000", "095656.339000", "095656.342000", "095656.345000", "095656.347000", "095656.350000", "095656.353000", "095656.355000", "095656.358000", "095656.360000", "095656.363000", "095656.366000", "095656.368000", "095656.371000", "095656.373000", "095656.376000", "095656.379000", "095656.381000", "095656.384000", "095656.386000", "095656.389000", "095736.340000", "095736.350000", "095736.352000", "095736.355000", "095736.357000", "095736.360000", "095736.363000", "095736.365000", "095736.368000", "095736.370000", "095736.373000", "095736.376000", "095736.378000", "095736.381000", "095736.383000", "095736.386000", "095736.388000", "095736.391000", "095736.393000", "095736.396000", "095816.339000", "095816.342000", "095816.345000", "095816.347000", "095816.350000", "095816.353000", "095816.355000", "095816.358000", "095816.360000", "095816.363000", "095816.366000", "095816.368000", "095816.371000", "095816.374000", "095816.376000", "095816.379000", "095816.381000", "095816.384000", "095816.387000", "095816.389000", "095856.340000", "095856.344000", "095856.346000", "095856.349000", "095856.351000", "095856.354000", "095856.356000", "095856.359000", "095856.362000", "095856.373000", "095856.375000", "095856.378000", "095856.381000", "095856.383000", "095856.386000", "095856.389000", "095856.391000", "095856.394000", "095856.396000", "095856.399000", "095905.706000", "095905.709000", "095905.711000", "095905.714000", "095905.717000"],
      "InstanceCreationTime": ["095256.356000", "095256.371000", "095256.374000", "095256.376000", "095256.379000", "095256.381000", "095256.384000", "095256.387000", "095256.389000", "095256.394000", "095256.397000", "095256.399000", "095256.402000", "095256.404000", "095256.407000", "095336.339000", "095336.342000", "095336.351000", "095336.353000", "095336.356000", "095336.367000", "095336.369000", "095336.372000", "095336.374000", "095336.377000", "095336.379000", "095336.382000", "095336.385000", "095336.387000", "095336.390000", "095336.401000", "095336.403000", "095336.406000", "095336.408000", "095336.411000", "095416.340000", "095416.343000", "095416.346000", "095416.349000", "095416.358000", "095416.361000", "095416.363000", "095416.366000", "095416.369000", "095416.371000", "095416.374000", "095416.376000", "095416.379000", "095416.382000", "095416.384000", "095416.387000", "095416.389000", "095416.392000", "095416.395000", "095416.397000", "095456.339000", "095456.342000", "095456.345000", "095456.348000", "095456.350000", "095456.353000", "095456.355000", "095456.358000", "095456.361000", "095456.363000", "095456.366000", "095456.368000", "095456.371000", "095456.374000", "095456.376000", "095456.379000", "095456.381000", "095456.384000", "095456.387000", "095456.389000", "095536.339000", "095536.342000", "095536.345000", "095536.347000", "095536.350000", "095536.353000", "095536.355000", "095536.358000", "095536.360000", "095536.363000", "095536.366000", "095536.368000", "095536.371000", "095536.373000", "095536.376000", "095536.387000", "095536.390000", "095536.392000", "095536.395000", "095536.397000", "095616.340000", "095616.343000", "095616.346000", "095616.348000", "095616.351000", "095616.354000", "095616.356000", "095616.359000", "095616.362000", "095616.364000", "095616.367000", "095616.369000", "095616.372000", "095616.375000", "095616.377000", "095616.380000", "095616.382000", "095616.385000", "095616.388000", "095616.390000", "095656.339000", "095656.342000", "095656.345000", "095656.347000", "095656.350000", "095656.353000", "095656.355000", "095656.358000", "095656.360000", "095656.363000", "095656.366000", "095656.368000", "095656.371000", "095656.373000", "095656.376000", "095656.379000", "095656.381000", "095656.384000", "095656.386000", "095656.389000", "095736.340000", "095736.350000", "095736.352000", "095736.355000", "095736.357000", "095736.360000", "095736.363000", "095736.365000", "095736.368000", "095736.370000", "095736.373000", "095736.376000", "095736.378000", "095736.381000", "095736.383000", "095736.386000", "095736.388000", "095736.391000", "095736.393000", "095736.396000", "095816.339000", "095816.342000", "095816.345000", "095816.347000", "095816.350000", "095816.353000", "095816.355000", "095816.358000", "095816.360000", "095816.363000", "095816.366000", "095816.368000", "095816.371000", "095816.374000", "095816.376000", "095816.379000", "095816.381000", "095816.384000", "095816.387000", "095816.389000", "095856.340000", "095856.344000", "095856.346000", "095856.349000", "095856.351000", "095856.354000", "095856.356000", "095856.359000", "095856.362000", "095856.373000", "095856.375000", "095856.378000", "095856.381000", "095856.383000", "095856.386000", "095856.389000", "095856.391000", "095856.394000", "095856.396000", "095856.399000", "095905.706000", "095905.709000", "095905.711000", "095905.714000", "095905.717000"],
      "InstanceNumber": [1, 2, 3, 4, 5, 6, 7, 8, 9, 10, 11, 12, 13, 14, 15, 16, 17, 18, 19, 20, 21, 22, 23, 24, 25, 26, 27, 28, 29, 30, 31, 32, 33, 34, 35, 36, 37, 38, 39, 40, 41, 42, 43, 44, 45, 46, 47, 48, 49, 50, 51, 52, 53, 54, 55, 56, 57, 58, 59, 60, 61, 62, 63, 64, 65, 66, 67, 68, 69, 70, 71, 72, 73, 74, 75, 76, 77, 78, 79, 80, 81, 82, 83, 84, 85, 86, 87, 88, 89, 90, 91, 92, 93, 94, 95, 96, 97, 98, 99, 100, 101, 102, 103, 104, 105, 106, 107, 108, 109, 110, 111, 112, 113, 114, 115, 116, 117, 118, 119, 120, 121, 122, 123, 124, 125, 126, 127, 128, 129, 130, 131, 132, 133, 134, 135, 136, 137, 138, 139, 140, 141, 142, 143, 144, 145, 146, 147, 148, 149, 150, 151, 152, 153, 154, 155, 156, 157, 158, 159, 160, 161, 162, 163, 164, 165, 166, 167, 168, 169, 170, 171, 172, 173, 174, 175, 176, 177, 178, 179, 180, 181, 182, 183, 184, 185, 186, 187, 188, 189, 190, 191, 192, 193, 194, 195, 196, 197, 198, 199, 200],
      "LargestImagePixelValue": [2128, 2126, 2127, 2129, 2135, 2124, 2126, 2126, 2128, 2127, 2125, 2127, 2130, 2126, 2125, 2132, 2127, 2126, 2126, 2130, 2128, 2128, 2129, 2128, 2117, 2118, 2132, 2122, 2135, 2126, 2123, 2127, 2123, 2123, 2121, 2120, 2125, 2133, 2120, 2123, 2121, 2120, 2119, 2127, 2126, 2122, 2125, 2124, 2127, 2127, 2126, 2123, 2122, 2123, 2127, 2128, 2126, 2126, 2122, 2124, 2120, 2122, 2122, 2118, 2119, 2125, 2121, 2125, 2126, 2120, 2124, 2128, 2133, 2125, 2131, 2122, 2126, 2129, 2121, 2124, 2123, 2127, 2124, 2127, 2123, 2124, 2127, 2122, 2131, 2130, 2124, 2123, 2120, 2123, 2123, 2123, 2122, 2131, 2128, 2121, 2124, 2122, 2125, 2122, 2118, 2124, 2119, 2124, 2122, 2124, 2122, 2120, 2124, 2126, 2129, 2126, 2127, 2127, 2123, 2121, 2122, 2125, 2125, 2123, 2131, 2121, 2129, 2122, 2116, 2124, 2120, 2123, 2127, 2125, 2129, 2126, 2132, 2124, 2123, 2130, 2120, 2118, 2131, 2122, 2125, 2129, 2126, 2124, 2125, 2125, 2125, 2121, 2129, 2131, 2127, 2124, 2124, 2129, 2128, 2122, 2124, 2125, 2130, 2128, 2124, 2127, 2127, 2125, 2122, 2130, 2121, 2122, 2129, 2122, 2121, 2126, 2127, 2121, 2125, 2121, 2120, 2123, 2124, 2121, 2124, 2122, 2125, 2122, 2120, 2125, 2120, 2125, 2126, 2119, 2126, 2126, 2127, 2124, 2123, 2126],
      "WindowCenter": [930.0, 930.0, 930.0, 930.0, 929.0, 930.0, 930.0, 930.0, 930.0, 930.0, 930.0, 929.0, 929.0, 930.0, 930.0, 930.0, 929.0, 930.0, 929.0, 929.0, 929.0, 929.0, 929.0, 929.0, 930.0, 929.0, 930.0, 929.0, 930.0, 930.0, 930.0, 930.0, 930.0, 930.0, 929.0, 930.0, 930.0, 930.0, 930.0, 930.0, 930.0, 930.0, 929.0, 929.0, 929.0, 929.0, 929.0, 930.0, 930.0, 929.0, 929.0, 929.0, 930.0, 929.0, 930.0, 929.0, 930.0, 930.0, 929.0, 929.0, 930.0, 930.0, 929.0, 930.0, 930.0, 929.0, 929.0, 929.0, 930.0, 930.0, 929.0, 929.0, 930.0, 930.0, 929.0, 930.0, 930.0, 930.0, 929.0, 930.0, 930.0, 930.0, 929.0, 930.0, 930.0, 930.0, 930.0, 930.0, 929.0, 930.0, 930.0, 929.0, 930.0, 929.0, 929.0, 930.0, 930.0, 930.0, 930.0, 929.0, 930.0, 930.0, 929.0, 929.0, 930.0, 930.0, 929.0, 929.0, 930.0, 929.0, 930.0, 930.0, 930.0, 929.0, 929.0, 929.0, 930.0, 930.0, 930.0, 930.0, 929.0, 930.0, 930.0, 930.0, 930.0, 930.0, 930.0, 930.0, 930.0, 930.0, 930.0, 930.0, 930.0, 930.0, 930.0, 930.0, 929.0, 929.0, 929.0, 929.0, 930.0, 929.0, 929.0, 929.0, 930.0, 930.0, 929.0, 930.0, 929.0, 930.0, 930.0, 930.0, 929.0, 930.0, 930.0, 930.0, 930.0, 930.0, 930.0, 930.0, 930.0, 930.0, 930.0, 930.0, 930.0, 930.0, 930.0, 930.0, 930.0, 930.0, 930.0, 930.0, 930.0, 930.0, 930.0, 930.0, 930.0, 930.0, 930.0, 930.0, 929.0, 930.0, 930.0, 929.0, 930.0, 930.0, 929.0, 930.0, 929.0, 930.0, 930.0, 929.0, 929.0, 929.0, 930.0, 930.0, 929.0, 929.0, 930.0, 929.0],
      "WindowWidth": [2133.0, 2133.0, 2133.0, 2133.0, 2133.0, 2133.0, 2133.0, 2132.0, 2132.0, 2133.0, 2133.0, 2132.0, 2133.0, 2133.0, 2132.0, 2132.0, 2133.0, 2133.0, 2132.0, 2132.0, 2132.0, 2132.0, 2133.0, 2132.0, 2132.0, 2133.0, 2133.0, 2133.0, 2133.0, 2133.0, 2133.0, 2133.0, 2133.0, 2133.0, 2132.0, 2133.0, 2133.0, 2133.0, 2133.0, 2133.0, 2133.0, 2133.0, 2132.0, 2132.0, 2133.0, 2133.0, 2132.0, 2133.0, 2133.0, 2132.0, 2132.0, 2133.0, 2133.0, 2133.0, 2132.0, 2132.0, 2133.0, 2133.0, 2132.0, 2132.0, 2133.0, 2133.0, 2133.0, 2133.0, 2133.0, 2132.0, 2133.0, 2132.0, 2132.0, 2133.0, 2132.0, 2132.0, 2132.0, 2132.0, 2133.0, 2132.0, 2132.0, 2132.0, 2132.0, 2133.0, 2132.0, 2132.0, 2132.0, 2133.0, 2133.0, 2132.0, 2132.0, 2132.0, 2132.0, 2133.0, 2132.0, 2132.0, 2132.0, 2132.0, 2132.0, 2132.0, 2132.0, 2132.0, 2132.0, 2132.0, 2132.0, 2133.0, 2132.0, 2133.0, 2132.0, 2132.0, 2132.0, 2132.0, 2132.0, 2132.0, 2132.0, 2132.0, 2132.0, 2132.0, 2132.0, 2132.0, 2132.0, 2132.0, 2132.0, 2132.0, 2132.0, 2132.0, 2132.0, 2132.0, 2133.0, 2132.0, 2132.0, 2132.0, 2132.0, 2132.0, 2132.0, 2132.0, 2132.0, 2132.0, 2132.0, 2132.0, 2132.0, 2132.0, 2132.0, 2132.0, 2132.0, 2133.0, 2132.0, 2132.0, 2132.0, 2132.0, 2132.0, 2132.0, 2132.0, 2132.0, 2132.0, 2132.0, 2132.0, 2132.0, 2132.0, 2132.0, 2132.0, 2132.0, 2132.0, 2132.0, 2132.0, 2132.0, 2132.0, 2132.0, 2132.0, 2132.0, 2132.0, 2132.0, 2133.0, 2133.0, 2131.0, 2132.0, 2132.0, 2132.0, 2132.0, 2132.0, 2132.0, 2132.0, 2131.0, 2132.0, 2132.0, 2132.0, 2132.0, 2132.0, 2132.0, 2132.0, 2132.0, 2132.0, 2132.0, 2132.0, 2132.0, 2132.0, 2132.0, 2132.0, 2132.0, 2132.0, 2132.0, 2132.0, 2131.0, 2132.0]
    },
    "slices": {}
  }
}