{
  "AcquisitionMatrixPE": 80,
  "AcquisitionNumber": 1,
  "AcquisitionTime": "09:44:33.157500",
  "BandwidthPerPixelPhaseEncode": 44.643,
  "BaseResolution": 80,
  "BodyPartExamined": "BRAIN",
  "CoilCombinationMethod": "Sum of Squares",
  "ConsistencyInfo": "N4_VE11C_LATEST_20160120",
  "ConversionSoftware": "dcm2niix",
  "ConversionSoftwareVersion": "v1.0.20220720",
  "DerivedVendorReportedEchoSpacing": 0.000559998,
  "DeviceSerialNumber": "66112",
  "DwellTime": 2.7e-06,
  "EchoTime": 0.035,
  "EchoTrainLength": 39,
  "EffectiveEchoSpacing": 0.000279999,
  "FlipAngle": 90,
  "HeudiconvVersion": "0.13.1",
  "ImageOrientationPatientDICOM": [0.99259, 0.120365, 0.0166514, -0.112565, 0.859224, 0.499063],
  "ImageOrientationText": "Tra>Cor(29.9)>Sag(-2.6)",
  "ImageType": [
    "ORIGINAL",
    "PRIMARY",
    "M",
    "ND",
    "NORM",
    "MOSAIC"
],
  "ImagingFrequency": 123.252,
  "InPlanePhaseEncodingDirectionDICOM": "COL",
  "InstitutionAddress": "Maynard 3,Hanover,NH,US,03755",
  "InstitutionName": "Dartmouth College - PBS",
  "InstitutionalDepartmentName": "Department",
  "MRAcquisitionType": "2D",
  "MagneticFieldStrength": 3,
  "Manufacturer": "Siemens",
  "ManufacturersModelName": "Prisma",
  "Modality": "MR",
  "MultibandAccelerationFactor": 4,
  "NonlinearGradientCorrection": false,
  "ParallelReductionFactorInPlane": 2,
  "PartialFourier": 1,
  "PatientPosition": "HFS",
  "PercentPhaseFOV": 100,
  "PercentSampling": 100,
  "PhaseEncodingDirection": "j-",
  "PhaseEncodingSteps": 79,
  "PhaseResolution": 1,
  "PixelBandwidth": 2315,
  "ProcedureStepDescription": "dbic^QA",
  "ProtocolName": "func-bold_task-rest_acq-p2-s4-3.5mm",
  "PulseSequenceDetails": "%SiemensSeq%\\ep2d_bold",
  "ReceiveCoilActiveElements": "HEA;HEP",
  "ReceiveCoilName": "Head_32",
  "ReconMatrixPE": 80,
  "RefLinesPE": 24,
  "RepetitionTime": 2,
  "SAR": 0.0247277,
  "ScanOptions": "FS",
  "ScanningSequence": "EP",
  "SequenceName": "*epfid2d1_80",
  "SequenceVariant": "SK",
  "SeriesDescription": "func-bold_task-rest_acq-p2-s4-3.5mm",
  "SeriesNumber": 7,
  "ShimSetting": [4148, -7706, -7516, 200, -53, -44, -25, 26],
  "SliceThickness": 3.5,
  "SliceTiming": [1.485, 0, 0.99, 0.2475, 1.2375, 0.7425, 1.7325, 0.495, 1.485, 0, 0.99, 0.2475, 1.2375, 0.7425, 1.7325, 0.495, 1.485, 0, 0.99, 0.2475, 1.2375, 0.7425, 1.7325, 0.495, 1.485, 0, 0.99, 0.2475, 1.2375, 0.7425, 1.7325, 0.495],
  "SoftwareVersions": "syngo MR E11",
  "SpacingBetweenSlices": 3.99,
  "StationName": "AWP66112",
  "TaskName": "rest",
  "TotalReadoutTime": 0.0221199,
  "TxRefAmp": 235.012,
  "dcmmeta_affine": [
    [-2.9777700901031494, -0.3376946747303009, -0.18259285390377045, 140.11642456054688],
    [-0.3610958755016327, 2.5776705741882324, 1.983985424041748, -107.39583587646484],
    [0.04995415732264519, -1.4971894025802612, 3.456958532333374, 19.731273651123047],
    [0.0, 0.0, 0.0, 1.0]
],
  "dcmmeta_reorient_transform": [
    [0.0, -1.0, 0.0, 79.0],
    [1.0, 0.0, 0.0, 0.0],
    [0.0, 0.0, 1.0, 0.0],
    [0.0, 0.0, 0.0, 1.0]
],
  "dcmmeta_shape": [80, 80, 32, 200],
  "dcmmeta_slice_dim": 2,
  "dcmmeta_version": 0.6,
  "global": {
    "const": {
      "AccessionNumber": "qa",
      "AcquisitionMatrix": [80, 0, 0, 80],
      "AngioFlag": "N",
      "BitsAllocated": 16,
      "BitsStored": 12,
      "BodyPartExamined": "BRAIN",
      "Columns": 480,
      "EchoNumbers": 1,
      "EchoTime": 35.0,
      "EchoTrainLength": 39,
      "FlipAngle": 90.0,
      "HighBit": 11,
      "ImageOrientationPatient": [0.99259000993804, 0.12036529206528, 0.01665138544486, -0.1125648915761, 0.85922355313291, 0.49906315324427],
      "ImagePositionPatient": [-641.45361168695, -683.99345409262, -407.9754175632],
      "ImageType": [
        "ORIGINAL",
        "PRIMARY",
        "M",
        "ND",
        "NORM",
        "MOSAIC"
],
      "ImagedNucleus": "1H",
      "ImagingFrequency": 123.252338,
      "InPlanePhaseEncodingDirection": "COL",
      "MRAcquisitionType": "2D",
      "MagneticFieldStrength": 3.0,
      "Manufacturer": "SIEMENS",
      "ManufacturerModelName": "Prisma",
      "Modality": "MR",
      "NumberOfAverages": 1.0,
      "NumberOfPhaseEncodingSteps": 79,
      "PercentPhaseFieldOfView": 100.0,
      "PercentSampling": 100.0,
      "PerformedProcedureStepStartTime": "092904.384000",
      "PhotometricInterpretation": "MONOCHROME2",
      "PixelBandwidth": 2315.0,
      "PixelRepresentation": 0,
      "PixelSpacing": [3.0, 3.0],
      "ProtocolName": "func-bold_task-rest_acq-p2-s4-3.5mm",
      "RepetitionTime": 2000.0,
      "Rows": 480,
      "SAR": 0.02472768933225,
      "SamplesPerPixel": 1,
      "ScanOptions": "FS",
      "ScanningSequence": "EP",
      "SequenceName": "*epfid2d1_80",
      "SequenceVariant": "SK",
      "SeriesDescription": "func-bold_task-rest_acq-p2-s4-3.5mm",
      "SeriesNumber": 7,
      "SeriesTime": "094525.575000",
      "SliceLocation": -42.71825585412,
      "SliceThickness": 3.5,
      "SmallestImagePixelValue": 0,
      "SoftwareVersions": "syngo MR E11",
      "SpacingBetweenSlices": 3.9899999861093,
      "SpecificCharacterSet": "ISO_IR 100",
      "StudyID": "1",
      "StudyTime": "092904.321000",
      "TransmitCoilName": "Body",
      "VariableFlipAngleFlag": "N",
      "WindowCenter": 917.0,
      "WindowCenterWidthExplanation": "Algo1",
      "dBdt": 0.0},
    "slices": {}
  },
  "time": {
    "samples": {
      "AcquisitionNumber": [1, 2, 3, 4, 5, 6, 7, 8, 9, 10, 11, 12, 13, 14, 15, 16, 17, 18, 19, 20, 21, 22, 23, 24, 25, 26, 27, 28, 29, 30, 31, 32, 33, 34, 35, 36, 37, 38, 39, 40, 41, 42, 43, 44, 45, 46, 47, 48, 49, 50, 51, 52, 53, 54, 55, 56, 57, 58, 59, 60, 61, 62, 63, 64, 65, 66, 67, 68, 69, 70, 71, 72, 73, 74, 75, 76, 77, 78, 79, 80, 81, 82, 83, 84, 85, 86, 87, 88, 89, 90, 91, 92, 93, 94, 95, 96, 97, 98, 99, 100, 101, 102, 103, 104, 105, 106, 107, 108, 109, 110, 111, 112, 113, 114, 115, 116, 117, 118, 119, 120, 121, 122, 123, 124, 125, 126, 127, 128, 129, 130, 131, 132, 133, 134, 135, 136, 137, 138, 139, 140, 141, 142, 143, 144, 145, 146, 147, 148, 149, 150, 151, 152, 153, 154, 155, 156, 157, 158, 159, 160, 161, 162, 163, 164, 165, 166, 167, 168, 169, 170, 171, 172, 173, 174, 175, 176, 177, 178, 179, 180, 181, 182, 183, 184, 185, 186, 187, 188, 189, 190, 191, 192, 193, 194, 195, 196, 197, 198, 199, 200],
      "AcquisitionTime": ["094433.157500", "094435.157500", "094437.157500", "094439.157500", "094441.157500", "094443.157500", "094445.157500", "094447.157500", "094449.157500", "094451.157500", "094453.157500", "094455.157500", "094457.157500", "094459.157500", "094501.157500", "094503.157500", "094505.157500", "094507.157500", "094509.157500", "094511.157500", "094513.157500", "094515.157500", "094517.157500", "094519.157500", "094521.157500", "094523.157500", "094525.157500", "094527.157500", "094529.157500", "094531.157500", "094533.157500", "094535.157500", "094537.157500", "094539.157500", "094541.157500", "094543.157500", "094545.157500", "094547.157500", "094549.157500", "094551.157500", "094553.157500", "094555.157500", "094557.157500", "094559.157500", "094601.157500", "094603.157500", "094605.157500", "094607.157500", "094609.157500", "094611.157500", "094613.157500", "094615.157500", "094617.157500", "094619.157500", "094621.157500", "094623.157500", "094625.157500", "094627.157500", "094629.157500", "094631.157500", "094633.157500", "094635.157500", "094637.157500", "094639.157500", "094641.157500", "094643.157500", "094645.157500", "094647.157500", "094649.157500", "094651.157500", "094653.157500", "094655.157500", "094657.157500", "094659.157500", "094701.157500", "094703.157500", "094705.157500", "094707.157500", "094709.157500", "094711.157500", "094713.157500", "094715.157500", "094717.157500", "094719.157500", "094721.157500", "094723.157500", "094725.157500", "094727.157500", "094729.157500", "094731.157500", "094733.157500", "094735.157500", "094737.157500", "094739.157500", "094741.157500", "094743.157500", "094745.157500", "094747.157500", "094749.157500", "094751.157500", "094753.157500", "094755.157500", "094757.157500", "094759.157500", "094801.157500", "094803.157500", "094805.157500", "094807.157500", "094809.157500", "094811.157500", "094813.157500", "094815.157500", "094817.157500", "094819.157500", "094821.157500", "094823.157500", "094825.157500", "094827.157500", "094829.157500", "094831.157500", "094833.157500", "094835.157500", "094837.157500", "094839.157500", "094841.157500", "094843.157500", "094845.157500", "094847.157500", "094849.157500", "094851.157500", "094853.157500", "094855.157500", "094857.157500", "094859.157500", "094901.157500", "094903.157500", "094905.157500", "094907.157500", "094909.157500", "094911.157500", "094913.157500", "094915.157500", "094917.157500", "094919.157500", "094921.157500", "094923.157500", "094925.157500", "094927.157500", "094929.157500", "094931.157500", "094933.157500", "094935.157500", "094937.157500", "094939.157500", "094941.157500", "094943.157500", "094945.157500", "094947.157500", "094949.157500", "094951.157500", "094953.157500", "094955.157500", "094957.157500", "094959.157500", "095001.157500", "095003.157500", "095005.157500", "095007.157500", "095009.157500", "095011.157500", "095013.157500", "095015.157500", "095017.157500", "095019.157500", "095021.157500", "095023.157500", "095025.157500", "095027.157500", "095029.157500", "095031.157500", "095033.157500", "095035.157500", "095037.157500", "095039.157500", "095041.157500", "095043.157500", "095045.157500", "095047.157500", "095049.157500", "095051.157500", "095053.157500", "095055.157500", "095057.157500", "095059.157500", "095101.157500", "095103.157500", "095105.157500", "095107.157500", "095109.157500", "095111.157500"],
      "ContentTime": ["094525.578000", "094525.582000", "094525.585000", "094525.587000", "094525.590000", "094525.599000", "094525.606000", "094525.609000", "094525.612000", "094525.614000", "094525.617000", "094525.619000", "094525.622000", "094525.624000", "094525.627000", "094525.630000", "094525.632000", "094525.635000", "094525.637000", "094525.640000", "094525.643000", "094525.645000", "094525.648000", "094525.650000", "094525.653000", "094525.656000", "094605.573000", "094605.575000", "094605.578000", "094605.581000", "094605.583000", "094605.586000", "094605.588000", "094605.591000", "094605.594000", "094605.596000", "094605.599000", "094605.601000", "094605.604000", "094605.606000", "094605.609000", "094605.612000", "094605.614000", "094605.617000", "094605.623000", "094605.626000", "094645.573000", "094645.576000", "094645.579000", "094645.582000", "094645.584000", "094645.587000", "094645.589000", "094645.592000", "094645.595000", "094645.597000", "094645.600000", "094645.602000", "094645.605000", "094645.608000", "094645.610000", "094645.613000", "094645.615000", "094645.618000", "094645.621000", "094645.623000", "094645.626000", "094745.574000", "094745.576000", "094745.579000", "094745.582000", "094745.584000", "094745.587000", "094745.590000", "094745.592000", "094745.595000", "094745.597000", "094745.600000", "094745.603000", "094745.605000", "094745.608000", "094745.610000", "094745.613000", "094745.616000", "094745.618000", "094745.621000", "094745.623000", "094745.626000", "094745.629000", "094745.631000", "094745.634000", "094745.636000", "094745.639000", "094745.641000", "094745.644000", "094745.647000", "094825.573000", "094825.575000", "094825.578000", "094825.581000", "094825.583000", "094825.586000", "094825.589000", "094825.591000", "094825.594000", "094825.596000", "094825.599000", "094825.602000", "094825.604000", "094825.607000", "094825.610000", "094825.612000", "094825.615000", "094825.617000", "094825.620000", "094825.622000", "094905.574000", "094905.576000", "094905.579000", "094905.582000", "094905.584000", "094905.587000", "094905.589000", "094905.592000", "094905.595000", "094905.597000", "094905.600000", "094905.602000", "094905.605000", "094905.608000", "094905.610000", "094905.613000", "094905.616000", "094905.618000", "094905.621000", "094905.623000", "094945.573000", "094945.576000", "094945.579000", "094945.581000", "094945.584000", "094945.587000", "094945.589000", "094945.592000", "094945.594000", "094945.597000", "094945.599000", "094945.602000", "094945.605000", "094945.607000", "094945.610000", "094945.613000", "094945.615000", "094945.618000", "094945.620000", "094945.623000", "094945.626000", "095045.573000", "095045.575000", "095045.583000", "095045.586000", "095045.588000", "095045.591000", "095045.593000", "095045.596000", "095045.598000", "095045.601000", "095045.604000", "095045.606000", "095045.609000", "095045.611000", "095045.614000", "095045.617000", "095045.619000", "095045.622000", "095045.624000", "095045.627000", "095045.630000", "095045.632000", "095045.635000", "095045.637000", "095045.640000", "095045.643000", "095045.645000", "095045.648000", "095045.651000", "095045.655000", "095111.694000", "095111.697000", "095111.699000", "095111.702000", "095111.705000", "095111.708000", "095111.710000", "095111.713000", "095111.715000", "095111.718000", "095111.721000", "095111.724000", "095111.730000"],
      "InstanceCreationTime": ["094525.578000", "094525.582000", "094525.585000", "094525.587000", "094525.590000", "094525.599000", "094525.606000", "094525.609000", "094525.612000", "094525.614000", "094525.617000", "094525.619000", "094525.622000", "094525.624000", "094525.627000", "094525.630000", "094525.632000", "094525.635000", "094525.637000", "094525.640000", "094525.643000", "094525.645000", "094525.648000", "094525.650000", "094525.653000", "094525.656000", "094605.573000", "094605.575000", "094605.578000", "094605.581000", "094605.583000", "094605.586000", "094605.588000", "094605.591000", "094605.594000", "094605.596000", "094605.599000", "094605.601000", "094605.604000", "094605.606000", "094605.609000", "094605.612000", "094605.614000", "094605.617000", "094605.623000", "094605.626000", "094645.573000", "094645.576000", "094645.579000", "094645.582000", "094645.584000", "094645.587000", "094645.589000", "094645.592000", "094645.595000", "094645.597000", "094645.600000", "094645.602000", "094645.605000", "094645.608000", "094645.610000", "094645.613000", "094645.615000", "094645.618000", "094645.621000", "094645.623000", "094645.626000", "094745.574000", "094745.576000", "094745.579000", "094745.582000", "094745.584000", "094745.587000", "094745.590000", "094745.592000", "094745.595000", "094745.597000", "094745.600000", "094745.603000", "094745.605000", "094745.608000", "094745.610000", "094745.613000", "094745.616000", "094745.618000", "094745.621000", "094745.623000", "094745.626000", "094745.629000", "094745.631000", "094745.634000", "094745.636000", "094745.639000", "094745.641000", "094745.644000", "094745.647000", "094825.573000", "094825.575000", "094825.578000", "094825.581000", "094825.583000", "094825.586000", "094825.589000", "094825.591000", "094825.594000", "094825.596000", "094825.599000", "094825.602000", "094825.604000", "094825.607000", "094825.610000", "094825.612000", "094825.615000", "094825.617000", "094825.620000", "094825.622000", "094905.574000", "094905.576000", "094905.579000", "094905.582000", "094905.584000", "094905.587000", "094905.589000", "094905.592000", "094905.595000", "094905.597000", "094905.600000", "094905.602000", "094905.605000", "094905.608000", "094905.610000", "094905.613000", "094905.616000", "094905.618000", "094905.621000", "094905.623000", "094945.573000", "094945.576000", "094945.579000", "094945.581000", "094945.584000", "094945.587000", "094945.589000", "094945.592000", "094945.594000", "094945.597000", "094945.599000", "094945.602000", "094945.605000", "094945.607000", "094945.610000", "094945.613000", "094945.615000", "094945.618000", "094945.620000", "094945.623000", "094945.626000", "095045.573000", "095045.575000", "095045.583000", "095045.586000", "095045.588000", "095045.591000", "095045.593000", "095045.596000", "095045.598000", "095045.601000", "095045.604000", "095045.606000", "095045.609000", "095045.611000", "095045.614000", "095045.617000", "095045.619000", "095045.622000", "095045.624000", "095045.627000", "095045.630000", "095045.632000", "095045.635000", "095045.637000", "095045.640000", "095045.643000", "095045.645000", "095045.648000", "095045.651000", "095045.655000", "095111.694000", "095111.697000", "095111.699000", "095111.702000", "095111.705000", "095111.708000", "095111.710000", "095111.713000", "095111.715000", "095111.718000", "095111.721000", "095111.724000", "095111.730000"],
      "InstanceNumber": [1, 2, 3, 4, 5, 6, 7, 8, 9, 10, 11, 12, 13, 14, 15, 16, 17, 18, 19, 20, 21, 22, 23, 24, 25, 26, 27, 28, 29, 30, 31, 32, 33, 34, 35, 36, 37, 38, 39, 40, 41, 42, 43, 44, 45, 46, 47, 48, 49, 50, 51, 52, 53, 54, 55, 56, 57, 58, 59, 60, 61, 62, 63, 64, 65, 66, 67, 68, 69, 70, 71, 72, 73, 74, 75, 76, 77, 78, 79, 80, 81, 82, 83, 84, 85, 86, 87, 88, 89, 90, 91, 92, 93, 94, 95, 96, 97, 98, 99, 100, 101, 102, 103, 104, 105, 106, 107, 108, 109, 110, 111, 112, 113, 114, 115, 116, 117, 118, 119, 120, 121, 122, 123, 124, 125, 126, 127, 128, 129, 130, 131, 132, 133, 134, 135, 136, 137, 138, 139, 140, 141, 142, 143, 144, 145, 146, 147, 148, 149, 150, 151, 152, 153, 154, 155, 156, 157, 158, 159, 160, 161, 162, 163, 164, 165, 166, 167, 168, 169, 170, 171, 172, 173, 174, 175, 176, 177, 178, 179, 180, 181, 182, 183, 184, 185, 186, 187, 188, 189, 190, 191, 192, 193, 194, 195, 196, 197, 198, 199, 200],
      "LargestImagePixelValue": [2035, 2033, 2032, 2027, 2034, 2031, 2033, 2034, 2029, 2027, 2032, 2038, 2031, 2026, 2034, 2030, 2029, 2031, 2029, 2030, 2029, 2029, 2029, 2033, 2028, 2030, 2031, 2029, 2030, 2027, 2029, 2032, 2034, 2030, 2035, 2031, 2028, 2033, 2035, 2033, 2037, 2033, 2031, 2035, 2036, 2034, 2031, 2032, 2033, 2029, 2034, 2037, 2031, 2034, 2026, 2037, 2032, 2032, 2034, 2035, 2035, 2034, 2031, 2034, 2034, 2034, 2031, 2036, 2033, 2034, 2034, 2037, 2041, 2039, 2031, 2031, 2035, 2038, 2033, 2037, 2037, 2039, 2030, 2032, 2034, 2034, 2034, 2030, 2036, 2035, 2031, 2031, 2033, 2038, 2039, 2033, 2033, 2038, 2033, 2036, 2027, 2031, 2035, 2032, 2036, 2039, 2033, 2033, 2033, 2037, 2034, 2033, 2030, 2033, 2039, 2043, 2034, 2035, 2038, 2037, 2033, 2035, 2030, 2037, 2031, 2033, 2039, 2033, 2040, 2034, 2035, 2033, 2035, 2041, 2032, 2039, 2037, 2036, 2040, 2037, 2037, 2034, 2039, 2034, 2032, 2038, 2033, 2039, 2033, 2036, 2040, 2032, 2036, 2034, 2036, 2037, 2039, 2036, 2034, 2041, 2039, 2034, 2034, 2039, 2037, 2039, 2039, 2037, 2033, 2036, 2042, 2035, 2034, 2039, 2040, 2038, 2041, 2034, 2036, 2040, 2037, 2037, 2036, 2037, 2032, 2031, 2040, 2036, 2034, 2035, 2036, 2038, 2037, 2036, 2037, 2038, 2039, 2038, 2038, 2030],
      "WindowWidth": [2077.0, 2077.0, 2077.0, 2077.0, 2077.0, 2077.0, 2077.0, 2077.0, 2077.0, 2077.0, 2077.0, 2077.0, 2077.0, 2077.0, 2077.0, 2077.0, 2077.0, 2077.0, 2077.0, 2078.0, 2077.0, 2077.0, 2077.0, 2077.0, 2077.0, 2077.0, 2077.0, 2077.0, 2077.0, 2077.0, 2077.0, 2078.0, 2077.0, 2077.0, 2078.0, 2077.0, 2077.0, 2078.0, 2078.0, 2078.0, 2078.0, 2078.0, 2078.0, 2078.0, 2077.0, 2077.0, 2077.0, 2077.0, 2077.0, 2077.0, 2077.0, 2077.0, 2077.0, 2077.0, 2077.0, 2077.0, 2077.0, 2077.0, 2077.0, 2077.0, 2077.0, 2077.0, 2077.0, 2077.0, 2077.0, 2077.0, 2078.0, 2077.0, 2078.0, 2077.0, 2078.0, 2078.0, 2078.0, 2077.0, 2077.0, 2078.0, 2078.0, 2077.0, 2078.0, 2078.0, 2078.0, 2078.0, 2078.0, 2077.0, 2077.0, 2077.0, 2077.0, 2078.0, 2077.0, 2077.0, 2078.0, 2077.0, 2077.0, 2077.0, 2077.0, 2078.0, 2077.0, 2077.0, 2077.0, 2078.0, 2078.0, 2077.0, 2078.0, 2078.0, 2077.0, 2078.0, 2078.0, 2077.0, 2077.0, 2078.0, 2077.0, 2078.0, 2077.0, 2077.0, 2077.0, 2077.0, 2078.0, 2078.0, 2078.0, 2078.0, 2078.0, 2078.0, 2078.0, 2078.0, 2078.0, 2078.0, 2078.0, 2078.0, 2078.0, 2078.0, 2078.0, 2078.0, 2078.0, 2078.0, 2078.0, 2078.0, 2078.0, 2078.0, 2078.0, 2078.0, 2078.0, 2078.0, 2078.0, 2078.0, 2078.0, 2078.0, 2078.0, 2078.0, 2077.0, 2078.0, 2077.0, 2077.0, 2078.0, 2078.0, 2077.0, 2078.0, 2078.0, 2077.0, 2078.0, 2078.0, 2078.0, 2078.0, 2078.0, 2078.0, 2078.0, 2078.0, 2078.0, 2077.0, 2078.0, 2078.0, 2078.0, 2078.0, 2078.0, 2078.0, 2078.0, 2078.0, 2078.0, 2078.0, 2078.0, 2078.0, 2078.0, 2078.0, 2078.0, 2078.0, 2078.0, 2078.0, 2078.0, 2078.0, 2078.0, 2077.0, 2077.0, 2077.0, 2078.0, 2078.0, 2077.0, 2077.0, 2077.0, 2077.0, 2078.0, 2078.0]
    },
    "slices": {}
  }
}