{
  "AcquisitionMatrixPE": 80,
  "AcquisitionNumber": 1,
  "AcquisitionTime": "10:23:39.480000",
  "BandwidthPerPixelPhaseEncode": 48.077,
  "BaseResolution": 80,
  "BodyPartExamined": "BRAIN",
  "CoilCombinationMethod": "Sum of Squares",
  "ConsistencyInfo": "N4_VE11C_LATEST_20160120",
  "ConversionSoftware": "dcm2niix",
  "ConversionSoftwareVersion": "v1.0.20220720",
  "DerivedVendorReportedEchoSpacing": 0.000519999,
  "DeviceSerialNumber": "66112",
  "DwellTime": 2.7e-06,
  "EchoTime": 0.035,
  "EchoTrainLength": 39,
  "EffectiveEchoSpacing": 0.00026,
  "FlipAngle": 90,
  "HeudiconvVersion": "0.13.1",
  "ImageOrientationPatientDICOM": [0.986715, 0.162192, 0.00938636, -0.15734, 0.939604, 0.303955],
  "ImageOrientationText": "Tra>Cor(17.6)>Sag(-2.3)",
  "ImageType": [
    "ORIGINAL",
    "PRIMARY",
    "M",
    "ND",
    "NORM",
    "MOSAIC"
],
  "ImagingFrequency": 123.252,
  "InPlanePhaseEncodingDirectionDICOM": "COL",
  "InstitutionAddress": "Maynard 3,Hanover,NH,US,03755",
  "InstitutionName": "Dartmouth College - PBS",
  "InstitutionalDepartmentName": "Department",
  "MRAcquisitionType": "2D",
  "MagneticFieldStrength": 3,
  "Manufacturer": "Siemens",
  "ManufacturersModelName": "Prisma",
  "MatrixCoilMode": "GRAPPA",
  "Modality": "MR",
  "NonlinearGradientCorrection": false,
  "ParallelReductionFactorInPlane": 2,
  "PartialFourier": 1,
  "PatientPosition": "HFS",
  "PercentPhaseFOV": 100,
  "PercentSampling": 100,
  "PhaseEncodingDirection": "j-",
  "PhaseEncodingSteps": 79,
  "PhaseResolution": 1,
  "PixelBandwidth": 2315,
  "ProcedureStepDescription": "dbic^QA",
  "ProtocolName": "func-bold_task-rest_acq-p2",
  "PulseSequenceDetails": "%SiemensSeq%\\ep2d_bold",
  "ReceiveCoilActiveElements": "HEA;HEP",
  "ReceiveCoilName": "Head_32",
  "ReconMatrixPE": 80,
  "RefLinesPE": 24,
  "RepetitionTime": 2,
  "SAR": 0.0476045,
  "ScanOptions": "FS",
  "ScanningSequence": "EP",
  "SequenceName": "*epfid2d1_80",
  "SequenceVariant": "SK",
  "SeriesDescription": "func-bold_task-rest_acq-p2",
  "SeriesNumber": 5,
  "ShimSetting": [4142, -7702, -7519, 267, -85, -61, -29, 53],
  "SliceThickness": 3.5,
  "SliceTiming": [0.99, 0, 1.055, 0.065, 1.12, 0.13, 1.1875, 0.1975, 1.2525, 0.2625, 1.32, 0.33, 1.385, 0.395, 1.45, 0.46, 1.5175, 0.5275, 1.5825, 0.5925, 1.65, 0.66, 1.715, 0.725, 1.78, 0.79, 1.8475, 0.8575, 1.9125, 0.9225],
  "SoftwareVersions": "syngo MR E11",
  "SpacingBetweenSlices": 3.99,
  "StationName": "AWP66112",
  "TaskName": "rest",
  "TotalReadoutTime": 0.02054,
  "TxRefAmp": 221.38,
  "dcmmeta_affine": [
    [-2.960143804550171, -0.47201892733573914, -0.161513552069664, 141.87713623046875],
    [-0.486576110124588, 2.818812131881714, 1.2025599479675293, -99.6859130859375],
    [0.02815907634794712, -0.9118643999099731, 3.801034450531006, -22.00467300415039],
    [0.0, 0.0, 0.0, 1.0]
],
  "dcmmeta_reorient_transform": [
    [0.0, -1.0, 0.0, 79.0],
    [1.0, 0.0, 0.0, 0.0],
    [0.0, 0.0, 1.0, 0.0],
    [0.0, 0.0, 0.0, 1.0]
],
  "dcmmeta_shape": [80, 80, 30, 200],
  "dcmmeta_slice_dim": 2,
  "dcmmeta_version": 0.6,
  "global": {
    "const": {
      "AccessionNumber": "qa",
      "AcquisitionMatrix": [80, 0, 0, 80],
      "AngioFlag": "N",
      "BitsAllocated": 16,
      "BitsStored": 12,
      "BodyPartExamined": "BRAIN",
      "Columns": 480,
      "EchoNumbers": 1,
      "EchoTime": 35.0,
      "EchoTrainLength": 39,
      "FlipAngle": 90.0,
      "HighBit": 11,
      "ImageOrientationPatient": [0.98671456791412, 0.16219203966192, 0.00938635905727, -0.1573396465845, 0.9396040201142, 0.30395480091273],
      "ImagePositionPatient": [-602.21259832938, -784.07787487657, -282.04665614398],
      "ImageType": [
        "ORIGINAL",
        "PRIMARY",
        "M",
        "ND",
        "NORM",
        "MOSAIC"
],
      "ImagedNucleus": "1H",
      "ImagingFrequency": 123.252373,
      "InPlanePhaseEncodingDirection": "COL",
      "MRAcquisitionType": "2D",
      "MagneticFieldStrength": 3.0,
      "Manufacturer": "SIEMENS",
      "ManufacturerModelName": "Prisma",
      "Modality": "MR",
      "NumberOfAverages": 1.0,
      "NumberOfPhaseEncodingSteps": 79,
      "PercentPhaseFieldOfView": 100.0,
      "PercentSampling": 100.0,
      "PerformedProcedureStepStartTime": "101737.225000",
      "PhotometricInterpretation": "MONOCHROME2",
      "PixelBandwidth": 2315.0,
      "PixelRepresentation": 0,
      "PixelSpacing": [3.0, 3.0],
      "ProtocolName": "func-bold_task-rest_acq-p2",
      "RepetitionTime": 2000.0,
      "Rows": 480,
      "SAR": 0.04760448561188,
      "SamplesPerPixel": 1,
      "ScanOptions": "FS",
      "ScanningSequence": "EP",
      "SequenceName": "*epfid2d1_80",
      "SequenceVariant": "SK",
      "SeriesDescription": "func-bold_task-rest_acq-p2",
      "SeriesNumber": 5,
      "SeriesTime": "102421.798000",
      "SliceLocation": -56.750348155301,
      "SliceThickness": 3.5,
      "SmallestImagePixelValue": 0,
      "SoftwareVersions": "syngo MR E11",
      "SpacingBetweenSlices": 3.990000013969,
      "SpecificCharacterSet": "ISO_IR 100",
      "StudyID": "18",
      "StudyTime": "101737.176000",
      "TransmitCoilName": "Body",
      "VariableFlipAngleFlag": "N",
      "WindowCenterWidthExplanation": "Algo1",
      "dBdt": 0.0},
    "slices": {}
  },
  "time": {
    "samples": {
      "AcquisitionNumber": [1, 2, 3, 4, 5, 6, 7, 8, 9, 10, 11, 12, 13, 14, 15, 16, 17, 18, 19, 20, 21, 22, 23, 24, 25, 26, 27, 28, 29, 30, 31, 32, 33, 34, 35, 36, 37, 38, 39, 40, 41, 42, 43, 44, 45, 46, 47, 48, 49, 50, 51, 52, 53, 54, 55, 56, 57, 58, 59, 60, 61, 62, 63, 64, 65, 66, 67, 68, 69, 70, 71, 72, 73, 74, 75, 76, 77, 78, 79, 80, 81, 82, 83, 84, 85, 86, 87, 88, 89, 90, 91, 92, 93, 94, 95, 96, 97, 98, 99, 100, 101, 102, 103, 104, 105, 106, 107, 108, 109, 110, 111, 112, 113, 114, 115, 116, 117, 118, 119, 120, 121, 122, 123, 124, 125, 126, 127, 128, 129, 130, 131, 132, 133, 134, 135, 136, 137, 138, 139, 140, 141, 142, 143, 144, 145, 146, 147, 148, 149, 150, 151, 152, 153, 154, 155, 156, 157, 158, 159, 160, 161, 162, 163, 164, 165, 166, 167, 168, 169, 170, 171, 172, 173, 174, 175, 176, 177, 178, 179, 180, 181, 182, 183, 184, 185, 186, 187, 188, 189, 190, 191, 192, 193, 194, 195, 196, 197, 198, 199, 200],
      "AcquisitionTime": ["102339.480000", "102341.480000", "102343.480000", "102345.480000", "102347.480000", "102349.480000", "102351.480000", "102353.480000", "102355.480000", "102357.480000", "102359.480000", "102401.480000", "102403.480000", "102405.480000", "102407.480000", "102409.480000", "102411.480000", "102413.480000", "102415.480000", "102417.480000", "102419.480000", "102421.480000", "102423.480000", "102425.480000", "102427.480000", "102429.480000", "102431.480000", "102433.480000", "102435.480000", "102437.480000", "102439.480000", "102441.480000", "102443.480000", "102445.480000", "102447.480000", "102449.480000", "102451.480000", "102453.480000", "102455.480000", "102457.480000", "102459.480000", "102501.480000", "102503.480000", "102505.480000", "102507.480000", "102509.480000", "102511.480000", "102513.480000", "102515.480000", "102517.480000", "102519.480000", "102521.480000", "102523.480000", "102525.480000", "102527.480000", "102529.480000", "102531.480000", "102533.480000", "102535.480000", "102537.480000", "102539.480000", "102541.480000", "102543.480000", "102545.480000", "102547.480000", "102549.480000", "102551.480000", "102553.480000", "102555.480000", "102557.480000", "102559.480000", "102601.480000", "102603.480000", "102605.480000", "102607.480000", "102609.480000", "102611.480000", "102613.480000", "102615.480000", "102617.480000", "102619.480000", "102621.480000", "102623.480000", "102625.480000", "102627.480000", "102629.480000", "102631.480000", "102633.480000", "102635.480000", "102637.480000", "102639.480000", "102641.480000", "102643.480000", "102645.480000", "102647.480000", "102649.480000", "102651.480000", "102653.480000", "102655.480000", "102657.480000", "102659.480000", "102701.480000", "102703.480000", "102705.480000", "102707.480000", "102709.480000", "102711.480000", "102713.480000", "102715.480000", "102717.480000", "102719.480000", "102721.480000", "102723.480000", "102725.480000", "102727.480000", "102729.480000", "102731.480000", "102733.480000", "102735.480000", "102737.480000", "102739.480000", "102741.480000", "102743.480000", "102745.480000", "102747.480000", "102749.480000", "102751.480000", "102753.480000", "102755.480000", "102757.480000", "102759.480000", "102801.480000", "102803.480000", "102805.480000", "102807.480000", "102809.480000", "102811.480000", "102813.480000", "102815.480000", "102817.480000", "102819.480000", "102821.480000", "102823.480000", "102825.480000", "102827.480000", "102829.480000", "102831.480000", "102833.480000", "102835.480000", "102837.480000", "102839.480000", "102841.480000", "102843.480000", "102845.480000", "102847.480000", "102849.480000", "102851.480000", "102853.480000", "102855.480000", "102857.480000", "102859.480000", "102901.480000", "102903.480000", "102905.480000", "102907.480000", "102909.480000", "102911.480000", "102913.480000", "102915.480000", "102917.480000", "102919.480000", "102921.480000", "102923.480000", "102925.480000", "102927.480000", "102929.480000", "102931.480000", "102933.480000", "102935.480000", "102937.480000", "102939.480000", "102941.480000", "102943.480000", "102945.480000", "102947.480000", "102949.480000", "102951.480000", "102953.480000", "102955.480000", "102957.480000", "102959.480000", "103001.480000", "103003.480000", "103005.480000", "103007.480000", "103009.480000", "103011.480000", "103013.480000", "103015.480000", "103017.480000"],
      "ContentTime": ["102421.801000", "102421.805000", "102421.813000", "102421.816000", "102421.818000", "102421.821000", "102421.823000", "102421.826000", "102421.828000", "102421.831000", "102421.833000", "102421.847000", "102421.850000", "102421.852000", "102421.855000", "102421.857000", "102421.860000", "102421.862000", "102421.865000", "102421.867000", "102421.870000", "102501.796000", "102501.799000", "102501.802000", "102501.804000", "102501.807000", "102501.809000", "102501.812000", "102501.814000", "102501.817000", "102501.819000", "102501.822000", "102501.824000", "102501.827000", "102501.830000", "102501.832000", "102501.835000", "102501.837000", "102501.840000", "102501.842000", "102501.845000", "102541.798000", "102541.800000", "102541.803000", "102541.806000", "102541.808000", "102541.811000", "102541.813000", "102541.816000", "102541.818000", "102541.821000", "102541.823000", "102541.826000", "102541.829000", "102541.831000", "102541.834000", "102541.836000", "102541.845000", "102541.847000", "102541.850000", "102541.852000", "102621.796000", "102621.799000", "102621.802000", "102621.805000", "102621.807000", "102621.810000", "102621.812000", "102621.815000", "102621.818000", "102621.820000", "102621.823000", "102621.825000", "102621.828000", "102621.830000", "102621.833000", "102621.835000", "102621.838000", "102621.840000", "102621.843000", "102621.845000", "102701.797000", "102701.799000", "102701.802000", "102701.804000", "102701.807000", "102701.809000", "102701.812000", "102701.814000", "102701.817000", "102701.819000", "102701.822000", "102701.824000", "102701.827000", "102701.829000", "102701.832000", "102701.834000", "102701.837000", "102701.839000", "102701.842000", "102701.845000", "102741.797000", "102741.800000", "102741.803000", "102741.805000", "102741.808000", "102741.811000", "102741.813000", "102741.816000", "102741.818000", "102741.821000", "102741.834000", "102741.837000", "102741.840000", "102741.842000", "102741.845000", "102741.847000", "102741.850000", "102741.852000", "102741.855000", "102741.857000", "102821.796000", "102821.799000", "102821.802000", "102821.804000", "102821.807000", "102821.810000", "102821.812000", "102821.815000", "102821.818000", "102821.820000", "102821.823000", "102821.825000", "102821.828000", "102821.830000", "102821.833000", "102821.835000", "102821.838000", "102821.840000", "102821.843000", "102821.845000", "102901.796000", "102901.799000", "102901.802000", "102901.804000", "102901.807000", "102901.809000", "102901.812000", "102901.814000", "102901.817000", "102901.819000", "102901.822000", "102901.825000", "102901.827000", "102901.830000", "102901.832000", "102901.835000", "102901.837000", "102901.840000", "102901.842000", "102901.845000", "102941.797000", "102941.799000", "102941.802000", "102941.804000", "102941.807000", "102941.810000", "102941.812000", "102941.815000", "102941.817000", "102941.820000", "102941.822000", "102941.825000", "102941.827000", "102941.830000", "102941.833000", "102941.843000", "102941.845000", "102941.848000", "102941.850000", "102941.853000", "103018.631000", "103018.634000", "103018.636000", "103018.639000", "103018.642000", "103018.644000", "103018.647000", "103018.650000", "103018.652000", "103018.655000", "103018.657000", "103018.660000", "103018.672000", "103018.675000", "103018.680000", "103018.683000", "103018.686000", "103018.689000", "103018.691000"],
      "InstanceCreationTime": ["102421.801000", "102421.805000", "102421.813000", "102421.816000", "102421.818000", "102421.821000", "102421.823000", "102421.826000", "102421.828000", "102421.831000", "102421.833000", "102421.847000", "102421.850000", "102421.852000", "102421.855000", "102421.857000", "102421.860000", "102421.862000", "102421.865000", "102421.867000", "102421.870000", "102501.796000", "102501.799000", "102501.802000", "102501.804000", "102501.807000", "102501.809000", "102501.812000", "102501.814000", "102501.817000", "102501.819000", "102501.822000", "102501.824000", "102501.827000", "102501.830000", "102501.832000", "102501.835000", "102501.837000", "102501.840000", "102501.842000", "102501.845000", "102541.798000", "102541.800000", "102541.803000", "102541.806000", "102541.808000", "102541.811000", "102541.813000", "102541.816000", "102541.818000", "102541.821000", "102541.823000", "102541.826000", "102541.829000", "102541.831000", "102541.834000", "102541.836000", "102541.845000", "102541.847000", "102541.850000", "102541.852000", "102621.796000", "102621.799000", "102621.802000", "102621.805000", "102621.807000", "102621.810000", "102621.812000", "102621.815000", "102621.818000", "102621.820000", "102621.823000", "102621.825000", "102621.828000", "102621.830000", "102621.833000", "102621.835000", "102621.838000", "102621.840000", "102621.843000", "102621.845000", "102701.797000", "102701.799000", "102701.802000", "102701.804000", "102701.807000", "102701.809000", "102701.812000", "102701.814000", "102701.817000", "102701.819000", "102701.822000", "102701.824000", "102701.827000", "102701.829000", "102701.832000", "102701.834000", "102701.837000", "102701.839000", "102701.842000", "102701.845000", "102741.797000", "102741.800000", "102741.803000", "102741.805000", "102741.808000", "102741.811000", "102741.813000", "102741.816000", "102741.818000", "102741.821000", "102741.834000", "102741.837000", "102741.840000", "102741.842000", "102741.845000", "102741.847000", "102741.850000", "102741.852000", "102741.855000", "102741.857000", "102821.796000", "102821.799000", "102821.802000", "102821.804000", "102821.807000", "102821.810000", "102821.812000", "102821.815000", "102821.818000", "102821.820000", "102821.823000", "102821.825000", "102821.828000", "102821.830000", "102821.833000", "102821.835000", "102821.838000", "102821.840000", "102821.843000", "102821.845000", "102901.796000", "102901.799000", "102901.802000", "102901.804000", "102901.807000", "102901.809000", "102901.812000", "102901.814000", "102901.817000", "102901.819000", "102901.822000", "102901.825000", "102901.827000", "102901.830000", "102901.832000", "102901.835000", "102901.837000", "102901.840000", "102901.842000", "102901.845000", "102941.797000", "102941.799000", "102941.802000", "102941.804000", "102941.807000", "102941.810000", "102941.812000", "102941.815000", "102941.817000", "102941.820000", "102941.822000", "102941.825000", "102941.827000", "102941.830000", "102941.833000", "102941.843000", "102941.845000", "102941.848000", "102941.850000", "102941.853000", "103018.631000", "103018.634000", "103018.636000", "103018.639000", "103018.642000", "103018.644000", "103018.647000", "103018.650000", "103018.652000", "103018.655000", "103018.657000", "103018.660000", "103018.672000", "103018.675000", "103018.680000", "103018.683000", "103018.686000", "103018.689000", "103018.691000"],
      "InstanceNumber": [1, 2, 3, 4, 5, 6, 7, 8, 9, 10, 11, 12, 13, 14, 15, 16, 17, 18, 19, 20, 21, 22, 23, 24, 25, 26, 27, 28, 29, 30, 31, 32, 33, 34, 35, 36, 37, 38, 39, 40, 41, 42, 43, 44, 45, 46, 47, 48, 49, 50, 51, 52, 53, 54, 55, 56, 57, 58, 59, 60, 61, 62, 63, 64, 65, 66, 67, 68, 69, 70, 71, 72, 73, 74, 75, 76, 77, 78, 79, 80, 81, 82, 83, 84, 85, 86, 87, 88, 89, 90, 91, 92, 93, 94, 95, 96, 97, 98, 99, 100, 101, 102, 103, 104, 105, 106, 107, 108, 109, 110, 111, 112, 113, 114, 115, 116, 117, 118, 119, 120, 121, 122, 123, 124, 125, 126, 127, 128, 129, 130, 131, 132, 133, 134, 135, 136, 137, 138, 139, 140, 141, 142, 143, 144, 145, 146, 147, 148, 149, 150, 151, 152, 153, 154, 155, 156, 157, 158, 159, 160, 161, 162, 163, 164, 165, 166, 167, 168, 169, 170, 171, 172, 173, 174, 175, 176, 177, 178, 179, 180, 181, 182, 183, 184, 185, 186, 187, 188, 189, 190, 191, 192, 193, 194, 195, 196, 197, 198, 199, 200],
      "LargestImagePixelValue": [2028, 2030, 2024, 2027, 2023, 2024, 2028, 2024, 2030, 2032, 2030, 2025, 2038, 2030, 2025, 2024, 2029, 2029, 2024, 2026, 2027, 2036, 2031, 2029, 2038, 2025, 2029, 2028, 2033, 2034, 2037, 2030, 2031, 2031, 2036, 2029, 2022, 2032, 2026, 2026, 2024, 2026, 2026, 2026, 2032, 2028, 2029, 2035, 2021, 2031, 2030, 2027, 2026, 2025, 2030, 2027, 2032, 2028, 2034, 2025, 2027, 2031, 2027, 2028, 2026, 2024, 2021, 2025, 2028, 2023, 2023, 2020, 2032, 2032, 2030, 2028, 2029, 2030, 2036, 2026, 2023, 2028, 2024, 2032, 2023, 2022, 2026, 2020, 2026, 2023, 2019, 2019, 2026, 2024, 2026, 2023, 2020, 2026, 2020, 2029, 2031, 2024, 2029, 2025, 2023, 2024, 2028, 2032, 2031, 2022, 2025, 2030, 2030, 2020, 2021, 2035, 2023, 2027, 2023, 2025, 2025, 2026, 2030, 2026, 2025, 2025, 2027, 2028, 2030, 2024, 2025, 2023, 2026, 2026, 2030, 2025, 2023, 2029, 2021, 2028, 2025, 2024, 2034, 2019, 2023, 2024, 2025, 2021, 2019, 2024, 2026, 2025, 2031, 2022, 2026, 2026, 2032, 2029, 2025, 2025, 2022, 2035, 2025, 2016, 2025, 2026, 2021, 2026, 2024, 2021, 2023, 2027, 2031, 2024, 2021, 2016, 2028, 2025, 2028, 2027, 2033, 2028, 2023, 2023, 2036, 2026, 2024, 2031, 2020, 2022, 2022, 2029, 2021, 2027, 2023, 2025, 2031, 2026, 2019, 2022],
      "WindowCenter": [1005.0, 1004.0, 1004.0, 1003.0, 1003.0, 1003.0, 1004.0, 1004.0, 1004.0, 1003.0, 1004.0, 1003.0, 1003.0, 1004.0, 1003.0, 1003.0, 1003.0, 1003.0, 1003.0, 1004.0, 1004.0, 1003.0, 1003.0, 1003.0, 1003.0, 1003.0, 1003.0, 1002.0, 1004.0, 1002.0, 1002.0, 1003.0, 1004.0, 1002.0, 1003.0, 1003.0, 1002.0, 1002.0, 1003.0, 1002.0, 1003.0, 1002.0, 1003.0, 1002.0, 1002.0, 1003.0, 1003.0, 1002.0, 1002.0, 1002.0, 1002.0, 1004.0, 1002.0, 1003.0, 1003.0, 1002.0, 1002.0, 1003.0, 1002.0, 1002.0, 1002.0, 1003.0, 1002.0, 1002.0, 1002.0, 1002.0, 1002.0, 1002.0, 1002.0, 1002.0, 1004.0, 1003.0, 1002.0, 1002.0, 1002.0, 1002.0, 1003.0, 1002.0, 1002.0, 1003.0, 1002.0, 1003.0, 1003.0, 1002.0, 1002.0, 1003.0, 1002.0, 1003.0, 1003.0, 1002.0, 1002.0, 1002.0, 1002.0, 1002.0, 1002.0, 1004.0, 1002.0, 1003.0, 1002.0, 1003.0, 1003.0, 1002.0, 1002.0, 1002.0, 1002.0, 1002.0, 1002.0, 1003.0, 1002.0, 1003.0, 1004.0, 1003.0, 1003.0, 1002.0, 1003.0, 1002.0, 1003.0, 1002.0, 1003.0, 1002.0, 1002.0, 1002.0, 1003.0, 1002.0, 1003.0, 1002.0, 1002.0, 1003.0, 1003.0, 1002.0, 1003.0, 1002.0, 1003.0, 1003.0, 1002.0, 1003.0, 1002.0, 1003.0, 1003.0, 1002.0, 1002.0, 1002.0, 1002.0, 1003.0, 1003.0, 1003.0, 1003.0, 1002.0, 1002.0, 1002.0, 1002.0, 1002.0, 1002.0, 1002.0, 1002.0, 1003.0, 1002.0, 1002.0, 1002.0, 1002.0, 1002.0, 1003.0, 1002.0, 1003.0, 1002.0, 1002.0, 1002.0, 1002.0, 1003.0, 1002.0, 1002.0, 1002.0, 1002.0, 1002.0, 1003.0, 1002.0, 1002.0, 1002.0, 1003.0, 1002.0, 1004.0, 1002.0, 1003.0, 1002.0, 1003.0, 1003.0, 1003.0, 1002.0, 1002.0, 1003.0, 1002.0, 1002.0, 1003.0, 1004.0, 1002.0, 1004.0, 1002.0, 1003.0, 1002.0, 1002.0],
      "WindowWidth": [2215.0, 2213.0, 2213.0, 2212.0, 2212.0, 2212.0, 2213.0, 2213.0, 2214.0, 2212.0, 2213.0, 2212.0, 2213.0, 2214.0, 2213.0, 2212.0, 2213.0, 2212.0, 2212.0, 2214.0, 2213.0, 2212.0, 2213.0, 2212.0, 2212.0, 2212.0, 2212.0, 2212.0, 2213.0, 2212.0, 2212.0, 2213.0, 2213.0, 2212.0, 2213.0, 2212.0, 2211.0, 2212.0, 2211.0, 2212.0, 2212.0, 2212.0, 2212.0, 2211.0, 2211.0, 2213.0, 2212.0, 2211.0, 2211.0, 2211.0, 2211.0, 2213.0, 2211.0, 2212.0, 2212.0, 2211.0, 2211.0, 2212.0, 2211.0, 2211.0, 2212.0, 2212.0, 2211.0, 2211.0, 2211.0, 2211.0, 2211.0, 2211.0, 2211.0, 2211.0, 2212.0, 2212.0, 2211.0, 2211.0, 2211.0, 2211.0, 2212.0, 2212.0, 2211.0, 2212.0, 2211.0, 2212.0, 2212.0, 2211.0, 2211.0, 2212.0, 2211.0, 2212.0, 2212.0, 2211.0, 2211.0, 2211.0, 2211.0, 2211.0, 2211.0, 2212.0, 2211.0, 2212.0, 2211.0, 2212.0, 2212.0, 2210.0, 2210.0, 2210.0, 2210.0, 2211.0, 2211.0, 2212.0, 2211.0, 2211.0, 2212.0, 2211.0, 2212.0, 2211.0, 2211.0, 2211.0, 2211.0, 2211.0, 2212.0, 2210.0, 2211.0, 2211.0, 2211.0, 2210.0, 2211.0, 2211.0, 2211.0, 2211.0, 2211.0, 2211.0, 2211.0, 2210.0, 2211.0, 2211.0, 2210.0, 2211.0, 2211.0, 2211.0, 2211.0, 2211.0, 2210.0, 2211.0, 2210.0, 2211.0, 2211.0, 2211.0, 2211.0, 2210.0, 2210.0, 2210.0, 2210.0, 2211.0, 2210.0, 2210.0, 2210.0, 2211.0, 2210.0, 2210.0, 2210.0, 2210.0, 2210.0, 2211.0, 2210.0, 2211.0, 2210.0, 2210.0, 2210.0, 2210.0, 2211.0, 2210.0, 2210.0, 2210.0, 2210.0, 2210.0, 2211.0, 2210.0, 2210.0, 2210.0, 2211.0, 2210.0, 2211.0, 2210.0, 2211.0, 2210.0, 2211.0, 2211.0, 2211.0, 2210.0, 2210.0, 2211.0, 2210.0, 2210.0, 2211.0, 2211.0, 2210.0, 2211.0, 2210.0, 2211.0, 2210.0, 2210.0]
    },
    "slices": {}
  }
}