{
  "AcquisitionMatrixPE": 80,
  "AcquisitionNumber": 1,
  "AcquisitionTime": "10:30:33.202500",
  "BandwidthPerPixelPhaseEncode": 44.643,
  "BaseResolution": 80,
  "BodyPartExamined": "BRAIN",
  "CoilCombinationMethod": "Sum of Squares",
  "ConsistencyInfo": "N4_VE11C_LATEST_20160120",
  "ConversionSoftware": "dcm2niix",
  "ConversionSoftwareVersion": "v1.0.20220720",
  "DerivedVendorReportedEchoSpacing": 0.000559998,
  "DeviceSerialNumber": "66112",
  "DwellTime": 2.7e-06,
  "EchoTime": 0.035,
  "EchoTrainLength": 39,
  "EffectiveEchoSpacing": 0.000279999,
  "FlipAngle": 90,
  "HeudiconvVersion": "0.13.1",
  "ImageOrientationPatientDICOM": [0.986715, 0.162192, 0.00938636, -0.15734, 0.939604, 0.303955],
  "ImageOrientationText": "Tra>Cor(17.6)>Sag(-2.3)",
  "ImageType": [
    "ORIGINAL",
    "PRIMARY",
    "M",
    "ND",
    "NORM",
    "MOSAIC"
],
  "ImagingFrequency": 123.252,
  "InPlanePhaseEncodingDirectionDICOM": "COL",
  "InstitutionAddress": "Maynard 3,Hanover,NH,US,03755",
  "InstitutionName": "Dartmouth College - PBS",
  "InstitutionalDepartmentName": "Department",
  "MRAcquisitionType": "2D",
  "MagneticFieldStrength": 3,
  "Manufacturer": "Siemens",
  "ManufacturersModelName": "Prisma",
  "Modality": "MR",
  "MultibandAccelerationFactor": 4,
  "NonlinearGradientCorrection": false,
  "ParallelReductionFactorInPlane": 2,
  "PartialFourier": 1,
  "PatientPosition": "HFS",
  "PercentPhaseFOV": 100,
  "PercentSampling": 100,
  "PhaseEncodingDirection": "j-",
  "PhaseEncodingSteps": 79,
  "PhaseResolution": 1,
  "PixelBandwidth": 2315,
  "ProcedureStepDescription": "dbic^QA",
  "ProtocolName": "func-bold_task-rest_acq-p2-s4-3.5mm",
  "PulseSequenceDetails": "%SiemensSeq%\\ep2d_bold",
  "ReceiveCoilActiveElements": "HEA;HEP",
  "ReceiveCoilName": "Head_32",
  "ReconMatrixPE": 80,
  "RefLinesPE": 24,
  "RepetitionTime": 2,
  "SAR": 0.0179007,
  "ScanOptions": "FS",
  "ScanningSequence": "EP",
  "SequenceName": "*epfid2d1_80",
  "SequenceVariant": "SK",
  "SeriesDescription": "func-bold_task-rest_acq-p2-s4-3.5mm",
  "SeriesNumber": 7,
  "ShimSetting": [4142, -7703, -7519, 270, -85, -65, -28, 53],
  "SliceThickness": 3.5,
  "SliceTiming": [1.485, 0, 0.99, 0.2475, 1.2375, 0.7425, 1.7325, 0.495, 1.485, 0, 0.99, 0.2475, 1.2375, 0.7425, 1.7325, 0.495, 1.485, 0, 0.99, 0.2475, 1.2375, 0.7425, 1.7325, 0.495, 1.485, 0, 0.99, 0.2475, 1.2375, 0.7425, 1.7325, 0.495],
  "SoftwareVersions": "syngo MR E11",
  "SpacingBetweenSlices": 3.99,
  "StationName": "AWP66112",
  "TaskName": "rest",
  "TotalReadoutTime": 0.0221199,
  "TxRefAmp": 221.38,
  "dcmmeta_affine": [
    [-2.960143804550171, -0.47201892733573914, -0.161513552069664, 142.0386505126953],
    [-0.486576110124588, 2.818812131881714, 1.2025599479675293, -100.88847351074219],
    [0.02815907634794712, -0.9118643999099731, 3.801034450531006, -25.805706024169922],
    [0.0, 0.0, 0.0, 1.0]
],
  "dcmmeta_reorient_transform": [
    [0.0, -1.0, 0.0, 79.0],
    [1.0, 0.0, 0.0, 0.0],
    [0.0, 0.0, 1.0, 0.0],
    [0.0, 0.0, 0.0, 1.0]
],
  "dcmmeta_shape": [80, 80, 32, 200],
  "dcmmeta_slice_dim": 2,
  "dcmmeta_version": 0.6,
  "global": {
    "const": {
      "AccessionNumber": "qa",
      "AcquisitionMatrix": [80, 0, 0, 80],
      "AngioFlag": "N",
      "BitsAllocated": 16,
      "BitsStored": 12,
      "BodyPartExamined": "BRAIN",
      "Columns": 480,
      "EchoNumbers": 1,
      "EchoTime": 35.0,
      "EchoTrainLength": 39,
      "FlipAngle": 90.0,
      "HighBit": 11,
      "ImageOrientationPatient": [0.98671456791412, 0.16219203966192, 0.00938635905727, -0.1573396465845, 0.9396040201142, 0.30395480091273],
      "ImagePositionPatient": [-602.37411165793, -782.87531540544, -285.847689164],
      "ImageType": [
        "ORIGINAL",
        "PRIMARY",
        "M",
        "ND",
        "NORM",
        "MOSAIC"
],
      "ImagedNucleus": "1H",
      "ImagingFrequency": 123.252374,
      "InPlanePhaseEncodingDirection": "COL",
      "MRAcquisitionType": "2D",
      "MagneticFieldStrength": 3.0,
      "Manufacturer": "SIEMENS",
      "ManufacturerModelName": "Prisma",
      "Modality": "MR",
      "NumberOfAverages": 1.0,
      "NumberOfPhaseEncodingSteps": 79,
      "PercentPhaseFieldOfView": 100.0,
      "PercentSampling": 100.0,
      "PerformedProcedureStepStartTime": "101737.225000",
      "PhotometricInterpretation": "MONOCHROME2",
      "PixelBandwidth": 2315.0,
      "PixelRepresentation": 0,
      "PixelSpacing": [3.0, 3.0],
      "ProtocolName": "func-bold_task-rest_acq-p2-s4-3.5mm",
      "RepetitionTime": 2000.0,
      "Rows": 480,
      "SAR": 0.01790067426202,
      "SamplesPerPixel": 1,
      "ScanOptions": "FS",
      "ScanningSequence": "EP",
      "SequenceName": "*epfid2d1_80",
      "SequenceVariant": "SK",
      "SeriesDescription": "func-bold_task-rest_acq-p2-s4-3.5mm",
      "SeriesNumber": 7,
      "SeriesTime": "103101.657000",
      "SliceLocation": -60.740346633519,
      "SliceThickness": 3.5,
      "SmallestImagePixelValue": 0,
      "SoftwareVersions": "syngo MR E11",
      "SpacingBetweenSlices": 3.9900000231156,
      "SpecificCharacterSet": "ISO_IR 100",
      "StudyID": "18",
      "StudyTime": "101737.176000",
      "TransmitCoilName": "Body",
      "VariableFlipAngleFlag": "N",
      "WindowCenterWidthExplanation": "Algo1",
      "dBdt": 0.0},
    "slices": {}
  },
  "time": {
    "samples": {
      "AcquisitionNumber": [1, 2, 3, 4, 5, 6, 7, 8, 9, 10, 11, 12, 13, 14, 15, 16, 17, 18, 19, 20, 21, 22, 23, 24, 25, 26, 27, 28, 29, 30, 31, 32, 33, 34, 35, 36, 37, 38, 39, 40, 41, 42, 43, 44, 45, 46, 47, 48, 49, 50, 51, 52, 53, 54, 55, 56, 57, 58, 59, 60, 61, 62, 63, 64, 65, 66, 67, 68, 69, 70, 71, 72, 73, 74, 75, 76, 77, 78, 79, 80, 81, 82, 83, 84, 85, 86, 87, 88, 89, 90, 91, 92, 93, 94, 95, 96, 97, 98, 99, 100, 101, 102, 103, 104, 105, 106, 107, 108, 109, 110, 111, 112, 113, 114, 115, 116, 117, 118, 119, 120, 121, 122, 123, 124, 125, 126, 127, 128, 129, 130, 131, 132, 133, 134, 135, 136, 137, 138, 139, 140, 141, 142, 143, 144, 145, 146, 147, 148, 149, 150, 151, 152, 153, 154, 155, 156, 157, 158, 159, 160, 161, 162, 163, 164, 165, 166, 167, 168, 169, 170, 171, 172, 173, 174, 175, 176, 177, 178, 179, 180, 181, 182, 183, 184, 185, 186, 187, 188, 189, 190, 191, 192, 193, 194, 195, 196, 197, 198, 199, 200],
      "AcquisitionTime": ["103033.202500", "103035.202500", "103037.202500", "103039.202500", "103041.202500", "103043.202500", "103045.202500", "103047.202500", "103049.202500", "103051.202500", "103053.202500", "103055.202500", "103057.202500", "103059.202500", "103101.202500", "103103.202500", "103105.202500", "103107.202500", "103109.202500", "103111.202500", "103113.202500", "103115.202500", "103117.202500", "103119.202500", "103121.202500", "103123.202500", "103125.202500", "103127.202500", "103129.202500", "103131.202500", "103133.202500", "103135.202500", "103137.202500", "103139.202500", "103141.202500", "103143.202500", "103145.202500", "103147.202500", "103149.202500", "103151.202500", "103153.202500", "103155.202500", "103157.202500", "103159.202500", "103201.202500", "103203.202500", "103205.202500", "103207.202500", "103209.202500", "103211.202500", "103213.202500", "103215.202500", "103217.202500", "103219.202500", "103221.202500", "103223.202500", "103225.202500", "103227.202500", "103229.202500", "103231.202500", "103233.202500", "103235.202500", "103237.202500", "103239.202500", "103241.202500", "103243.202500", "103245.202500", "103247.202500", "103249.202500", "103251.202500", "103253.202500", "103255.202500", "103257.202500", "103259.202500", "103301.202500", "103303.202500", "103305.202500", "103307.202500", "103309.202500", "103311.202500", "103313.202500", "103315.202500", "103317.202500", "103319.202500", "103321.202500", "103323.202500", "103325.202500", "103327.202500", "103329.202500", "103331.202500", "103333.202500", "103335.202500", "103337.202500", "103339.202500", "103341.202500", "103343.202500", "103345.202500", "103347.202500", "103349.202500", "103351.202500", "103353.202500", "103355.202500", "103357.202500", "103359.202500", "103401.202500", "103403.202500", "103405.202500", "103407.202500", "103409.202500", "103411.202500", "103413.202500", "103415.202500", "103417.202500", "103419.202500", "103421.202500", "103423.202500", "103425.202500", "103427.202500", "103429.202500", "103431.202500", "103433.202500", "103435.202500", "103437.202500", "103439.202500", "103441.202500", "103443.202500", "103445.202500", "103447.202500", "103449.202500", "103451.202500", "103453.202500", "103455.202500", "103457.202500", "103459.202500", "103501.202500", "103503.202500", "103505.202500", "103507.202500", "103509.202500", "103511.202500", "103513.202500", "103515.202500", "103517.202500", "103519.202500", "103521.202500", "103523.202500", "103525.202500", "103527.202500", "103529.202500", "103531.202500", "103533.202500", "103535.202500", "103537.202500", "103539.202500", "103541.202500", "103543.202500", "103545.202500", "103547.202500", "103549.202500", "103551.202500", "103553.202500", "103555.202500", "103557.202500", "103559.202500", "103601.202500", "103603.202500", "103605.202500", "103607.202500", "103609.202500", "103611.202500", "103613.202500", "103615.202500", "103617.202500", "103619.202500", "103621.202500", "103623.202500", "103625.202500", "103627.202500", "103629.202500", "103631.202500", "103633.202500", "103635.202500", "103637.202500", "103639.202500", "103641.202500", "103643.202500", "103645.202500", "103647.202500", "103649.202500", "103651.202500", "103653.202500", "103655.202500", "103657.202500", "103659.202500", "103701.202500", "103703.202500", "103705.202500", "103707.202500", "103709.202500", "103711.202500"],
      "ContentTime": ["103101.660000", "103101.664000", "103101.666000", "103101.669000", "103101.671000", "103101.674000", "103101.676000", "103101.679000", "103101.681000", "103101.690000", "103101.692000", "103101.699000", "103101.701000", "103101.704000", "103141.655000", "103141.658000", "103141.661000", "103141.663000", "103141.666000", "103141.668000", "103141.671000", "103141.686000", "103141.689000", "103141.691000", "103141.709000", "103141.721000", "103141.723000", "103141.726000", "103141.729000", "103141.731000", "103141.734000", "103141.737000", "103141.739000", "103141.742000", "103221.656000", "103221.659000", "103221.662000", "103221.664000", "103221.667000", "103221.670000", "103221.672000", "103221.674000", "103221.677000", "103221.687000", "103221.690000", "103221.693000", "103221.695000", "103221.698000", "103221.700000", "103221.703000", "103221.705000", "103221.708000", "103221.710000", "103221.713000", "103301.655000", "103301.658000", "103301.661000", "103301.663000", "103301.666000", "103301.668000", "103301.671000", "103301.673000", "103301.683000", "103301.685000", "103301.688000", "103301.690000", "103301.693000", "103301.695000", "103301.704000", "103301.706000", "103301.709000", "103301.711000", "103301.714000", "103301.716000", "103341.655000", "103341.658000", "103341.661000", "103341.663000", "103341.666000", "103341.673000", "103341.676000", "103341.678000", "103341.681000", "103341.683000", "103341.686000", "103341.688000", "103341.691000", "103341.693000", "103341.696000", "103341.698000", "103341.701000", "103341.704000", "103341.706000", "103341.708000", "103421.655000", "103421.658000", "103421.661000", "103421.663000", "103421.666000", "103421.668000", "103421.671000", "103421.673000", "103421.676000", "103421.678000", "103421.681000", "103421.683000", "103421.686000", "103421.689000", "103421.691000", "103421.694000", "103421.709000", "103421.712000", "103421.714000", "103421.717000", "103501.656000", "103501.658000", "103501.661000", "103501.663000", "103501.666000", "103501.668000", "103501.671000", "103501.673000", "103501.676000", "103501.678000", "103501.681000", "103501.683000", "103501.686000", "103501.689000", "103501.691000", "103501.694000", "103501.696000", "103501.699000", "103501.701000", "103501.704000", "103541.656000", "103541.658000", "103541.661000", "103541.663000", "103541.666000", "103541.669000", "103541.678000", "103541.680000", "103541.683000", "103541.685000", "103541.688000", "103541.691000", "103541.693000", "103541.696000", "103541.698000", "103541.701000", "103541.703000", "103541.706000", "103541.709000", "103541.711000", "103621.655000", "103621.658000", "103621.661000", "103621.663000", "103621.666000", "103621.668000", "103621.671000", "103621.673000", "103621.676000", "103621.678000", "103621.681000", "103621.684000", "103621.686000", "103621.689000", "103621.691000", "103621.694000", "103621.697000", "103621.699000", "103621.702000", "103621.704000", "103701.657000", "103701.659000", "103701.662000", "103701.664000", "103701.667000", "103701.670000", "103701.672000", "103701.675000", "103701.677000", "103701.680000", "103701.682000", "103701.685000", "103701.687000", "103701.690000", "103701.692000", "103701.695000", "103701.698000", "103701.700000", "103701.703000", "103701.705000", "103712.717000", "103712.720000", "103712.729000", "103712.732000", "103712.735000", "103712.737000"],
      "InstanceCreationTime": ["103101.660000", "103101.664000", "103101.666000", "103101.669000", "103101.671000", "103101.674000", "103101.676000", "103101.679000", "103101.681000", "103101.690000", "103101.692000", "103101.699000", "103101.701000", "103101.704000", "103141.655000", "103141.658000", "103141.661000", "103141.663000", "103141.666000", "103141.668000", "103141.671000", "103141.686000", "103141.689000", "103141.691000", "103141.709000", "103141.721000", "103141.723000", "103141.726000", "103141.729000", "103141.731000", "103141.734000", "103141.737000", "103141.739000", "103141.742000", "103221.656000", "103221.659000", "103221.662000", "103221.664000", "103221.667000", "103221.670000", "103221.672000", "103221.674000", "103221.677000", "103221.687000", "103221.690000", "103221.693000", "103221.695000", "103221.698000", "103221.700000", "103221.703000", "103221.705000", "103221.708000", "103221.710000", "103221.713000", "103301.655000", "103301.658000", "103301.661000", "103301.663000", "103301.666000", "103301.668000", "103301.671000", "103301.673000", "103301.683000", "103301.685000", "103301.688000", "103301.690000", "103301.693000", "103301.695000", "103301.704000", "103301.706000", "103301.709000", "103301.711000", "103301.714000", "103301.716000", "103341.655000", "103341.658000", "103341.661000", "103341.663000", "103341.666000", "103341.673000", "103341.676000", "103341.678000", "103341.681000", "103341.683000", "103341.686000", "103341.688000", "103341.691000", "103341.693000", "103341.696000", "103341.698000", "103341.701000", "103341.704000", "103341.706000", "103341.708000", "103421.655000", "103421.658000", "103421.661000", "103421.663000", "103421.666000", "103421.668000", "103421.671000", "103421.673000", "103421.676000", "103421.678000", "103421.681000", "103421.683000", "103421.686000", "103421.689000", "103421.691000", "103421.694000", "103421.709000", "103421.712000", "103421.714000", "103421.717000", "103501.656000", "103501.658000", "103501.661000", "103501.663000", "103501.666000", "103501.668000", "103501.671000", "103501.673000", "103501.676000", "103501.678000", "103501.681000", "103501.683000", "103501.686000", "103501.689000", "103501.691000", "103501.694000", "103501.696000", "103501.699000", "103501.701000", "103501.704000", "103541.656000", "103541.658000", "103541.661000", "103541.663000", "103541.666000", "103541.669000", "103541.678000", "103541.680000", "103541.683000", "103541.685000", "103541.688000", "103541.691000", "103541.693000", "103541.696000", "103541.698000", "103541.701000", "103541.703000", "103541.706000", "103541.709000", "103541.711000", "103621.655000", "103621.658000", "103621.661000", "103621.663000", "103621.666000", "103621.668000", "103621.671000", "103621.673000", "103621.676000", "103621.678000", "103621.681000", "103621.684000", "103621.686000", "103621.689000", "103621.691000", "103621.694000", "103621.697000", "103621.699000", "103621.702000", "103621.704000", "103701.657000", "103701.659000", "103701.662000", "103701.664000", "103701.667000", "103701.670000", "103701.672000", "103701.675000", "103701.677000", "103701.680000", "103701.682000", "103701.685000", "103701.687000", "103701.690000", "103701.692000", "103701.695000", "103701.698000", "103701.700000", "103701.703000", "103701.705000", "103712.717000", "103712.720000", "103712.729000", "103712.732000", "103712.735000", "103712.737000"],
      "InstanceNumber": [1, 2, 3, 4, 5, 6, 7, 8, 9, 10, 11, 12, 13, 14, 15, 16, 17, 18, 19, 20, 21, 22, 23, 24, 25, 26, 27, 28, 29, 30, 31, 32, 33, 34, 35, 36, 37, 38, 39, 40, 41, 42, 43, 44, 45, 46, 47, 48, 49, 50, 51, 52, 53, 54, 55, 56, 57, 58, 59, 60, 61, 62, 63, 64, 65, 66, 67, 68, 69, 70, 71, 72, 73, 74, 75, 76, 77, 78, 79, 80, 81, 82, 83, 84, 85, 86, 87, 88, 89, 90, 91, 92, 93, 94, 95, 96, 97, 98, 99, 100, 101, 102, 103, 104, 105, 106, 107, 108, 109, 110, 111, 112, 113, 114, 115, 116, 117, 118, 119, 120, 121, 122, 123, 124, 125, 126, 127, 128, 129, 130, 131, 132, 133, 134, 135, 136, 137, 138, 139, 140, 141, 142, 143, 144, 145, 146, 147, 148, 149, 150, 151, 152, 153, 154, 155, 156, 157, 158, 159, 160, 161, 162, 163, 164, 165, 166, 167, 168, 169, 170, 171, 172, 173, 174, 175, 176, 177, 178, 179, 180, 181, 182, 183, 184, 185, 186, 187, 188, 189, 190, 191, 192, 193, 194, 195, 196, 197, 198, 199, 200],
      "LargestImagePixelValue": [2009, 2011, 2006, 2013, 2005, 2006, 2007, 2009, 2007, 2007, 2013, 2005, 2005, 2009, 2010, 2006, 2009, 2019, 2015, 2007, 2011, 2013, 2016, 2020, 2011, 2021, 2015, 2011, 2005, 2010, 2015, 2013, 2008, 2008, 2011, 2009, 2009, 2007, 2013, 2015, 2019, 2010, 2014, 2004, 2010, 2004, 2010, 2013, 2012, 2014, 2009, 2013, 2009, 2008, 2014, 2009, 2018, 2015, 2014, 2011, 2012, 2009, 2022, 2007, 2015, 2010, 2008, 2011, 2010, 2009, 2011, 2011, 2008, 2010, 2014, 2011, 2014, 2009, 2015, 2012, 2014, 2011, 2013, 2015, 2017, 2010, 2014, 2014, 2014, 2010, 2008, 2013, 2012, 2014, 2023, 2016, 2011, 2011, 2016, 2012, 2012, 2017, 2012, 2007, 2010, 2011, 2011, 2012, 2011, 2013, 2012, 2017, 2013, 2015, 2018, 2013, 2017, 2013, 2017, 2023, 2009, 2017, 2010, 2016, 2017, 2011, 2010, 2012, 2017, 2014, 2014, 2008, 2007, 2012, 2007, 2009, 2005, 2009, 2008, 2013, 2015, 2009, 2017, 2011, 2013, 2019, 2013, 2013, 2011, 2009, 2018, 2006, 2018, 2012, 2013, 2012, 2015, 2013, 2011, 2016, 2007, 2009, 2010, 2009, 2016, 2004, 2010, 2010, 2014, 2009, 2023, 2016, 2007, 2006, 2006, 2005, 2005, 2013, 2001, 2006, 2010, 2008, 2008, 2011, 2013, 2011, 2012, 2010, 2010, 2013, 2017, 2011, 2017, 2007, 2012, 2005, 2007, 2018, 2010, 2010],
      "WindowCenter": [933.0, 933.0, 933.0, 933.0, 933.0, 933.0, 933.0, 934.0, 933.0, 933.0, 933.0, 933.0, 933.0, 933.0, 933.0, 933.0, 933.0, 933.0, 933.0, 933.0, 933.0, 933.0, 933.0, 933.0, 934.0, 933.0, 933.0, 933.0, 933.0, 933.0, 933.0, 933.0, 933.0, 934.0, 933.0, 933.0, 933.0, 933.0, 933.0, 933.0, 933.0, 933.0, 933.0, 933.0, 933.0, 933.0, 933.0, 933.0, 933.0, 933.0, 933.0, 933.0, 933.0, 933.0, 933.0, 933.0, 933.0, 933.0, 933.0, 933.0, 933.0, 933.0, 933.0, 933.0, 933.0, 933.0, 933.0, 933.0, 933.0, 933.0, 933.0, 933.0, 933.0, 933.0, 933.0, 933.0, 933.0, 933.0, 933.0, 933.0, 933.0, 934.0, 933.0, 933.0, 934.0, 933.0, 933.0, 933.0, 933.0, 933.0, 933.0, 933.0, 933.0, 933.0, 933.0, 933.0, 933.0, 933.0, 933.0, 933.0, 933.0, 933.0, 933.0, 933.0, 933.0, 933.0, 933.0, 933.0, 933.0, 933.0, 933.0, 933.0, 933.0, 933.0, 933.0, 933.0, 934.0, 933.0, 933.0, 933.0, 933.0, 933.0, 933.0, 933.0, 933.0, 933.0, 933.0, 933.0, 933.0, 933.0, 933.0, 933.0, 933.0, 933.0, 933.0, 934.0, 934.0, 933.0, 933.0, 933.0, 933.0, 933.0, 933.0, 933.0, 933.0, 933.0, 933.0, 933.0, 933.0, 933.0, 933.0, 933.0, 933.0, 933.0, 933.0, 933.0, 933.0, 933.0, 933.0, 933.0, 933.0, 933.0, 934.0, 933.0, 933.0, 933.0, 933.0, 933.0, 933.0, 933.0, 933.0, 933.0, 934.0, 933.0, 933.0, 933.0, 933.0, 933.0, 933.0, 933.0, 933.0, 933.0, 933.0, 933.0, 933.0, 933.0, 933.0, 933.0, 933.0, 933.0, 933.0, 933.0, 933.0, 933.0, 933.0, 933.0, 933.0, 933.0, 933.0, 933.0],
      "WindowWidth": [2145.0, 2145.0, 2145.0, 2145.0, 2145.0, 2145.0, 2145.0, 2146.0, 2145.0, 2145.0, 2145.0, 2145.0, 2145.0, 2145.0, 2145.0, 2145.0, 2145.0, 2145.0, 2146.0, 2146.0, 2145.0, 2145.0, 2146.0, 2145.0, 2147.0, 2145.0, 2145.0, 2146.0, 2145.0, 2145.0, 2146.0, 2145.0, 2145.0, 2146.0, 2145.0, 2145.0, 2145.0, 2146.0, 2146.0, 2145.0, 2145.0, 2146.0, 2146.0, 2146.0, 2146.0, 2146.0, 2146.0, 2146.0, 2145.0, 2146.0, 2146.0, 2146.0, 2145.0, 2145.0, 2146.0, 2146.0, 2146.0, 2146.0, 2146.0, 2146.0, 2146.0, 2146.0, 2146.0, 2145.0, 2146.0, 2146.0, 2146.0, 2146.0, 2146.0, 2146.0, 2146.0, 2146.0, 2146.0, 2146.0, 2146.0, 2146.0, 2146.0, 2146.0, 2146.0, 2146.0, 2146.0, 2147.0, 2146.0, 2146.0, 2147.0, 2146.0, 2146.0, 2146.0, 2146.0, 2146.0, 2146.0, 2146.0, 2146.0, 2146.0, 2146.0, 2146.0, 2146.0, 2146.0, 2146.0, 2146.0, 2146.0, 2146.0, 2146.0, 2146.0, 2146.0, 2146.0, 2146.0, 2146.0, 2146.0, 2146.0, 2146.0, 2146.0, 2146.0, 2146.0, 2146.0, 2146.0, 2147.0, 2146.0, 2146.0, 2146.0, 2146.0, 2146.0, 2146.0, 2146.0, 2146.0, 2146.0, 2146.0, 2146.0, 2146.0, 2146.0, 2146.0, 2146.0, 2146.0, 2146.0, 2146.0, 2147.0, 2146.0, 2146.0, 2146.0, 2146.0, 2146.0, 2146.0, 2146.0, 2146.0, 2146.0, 2146.0, 2146.0, 2146.0, 2146.0, 2146.0, 2146.0, 2146.0, 2146.0, 2146.0, 2146.0, 2146.0, 2146.0, 2146.0, 2146.0, 2146.0, 2146.0, 2146.0, 2147.0, 2146.0, 2146.0, 2146.0, 2146.0, 2146.0, 2146.0, 2146.0, 2146.0, 2146.0, 2146.0, 2146.0, 2146.0, 2146.0, 2146.0, 2146.0, 2146.0, 2146.0, 2146.0, 2146.0, 2146.0, 2146.0, 2146.0, 2146.0, 2146.0, 2146.0, 2146.0, 2146.0, 2146.0, 2146.0, 2146.0, 2146.0, 2146.0, 2146.0, 2146.0, 2146.0, 2146.0, 2146.0]
    },
    "slices": {}
  }
}