{
  "AcquisitionMatrixPE": 122,
  "AcquisitionNumber": 1,
  "AcquisitionTime": "09:36:59.052500",
  "BandwidthPerPixelPhaseEncode": 28.76,
  "BaseResolution": 122,
  "BodyPartExamined": "BRAIN",
  "CoilCombinationMethod": "Adaptive Combine",
  "ConsistencyInfo": "N4_VE11C_LATEST_20160120",
  "ConversionSoftware": "dcm2niix",
  "ConversionSoftwareVersion": "v1.0.20220720",
  "DerivedVendorReportedEchoSpacing": 0.000570008,
  "DeviceSerialNumber": "66112",
  "DiffusionScheme": "Monopolar",
  "DwellTime": 2e-06,
  "EchoTime": 0.075,
  "EchoTrainLength": 61,
  "EffectiveEchoSpacing": 0.000285004,
  "FlipAngle": 90,
  "HeudiconvVersion": "0.13.1",
  "ImageOrientationPatientDICOM": [0.983329, 0.181435, 0.0120723, -0.176397, 0.935699, 0.305536],
  "ImageOrientationText": "Tra>Cor(17.6)>Sag(-2.5)",
  "ImageType": [
    "ORIGINAL",
    "PRIMARY",
    "DIFFUSION",
    "NONE",
    "ND",
    "NORM"
],
  "ImagingFrequency": 123.252,
  "InPlanePhaseEncodingDirectionDICOM": "COL",
  "InstitutionAddress": "Maynard 3,Hanover,NH,US,03755",
  "InstitutionName": "Dartmouth College - PBS",
  "InstitutionalDepartmentName": "Department",
  "MRAcquisitionType": "2D",
  "MagneticFieldStrength": 3,
  "Manufacturer": "Siemens",
  "ManufacturersModelName": "Prisma",
  "MatrixCoilMode": "GRAPPA",
  "Modality": "MR",
  "NonlinearGradientCorrection": false,
  "ParallelReductionFactorInPlane": 2,
  "PartialFourier": 1,
  "PatientPosition": "HFS",
  "PercentPhaseFOV": 100,
  "PercentSampling": 100,
  "PhaseEncodingDirection": "j-",
  "PhaseEncodingSteps": 122,
  "PhaseResolution": 1,
  "PixelBandwidth": 2050,
  "ProcedureStepDescription": "dbic^QA",
  "ProtocolName": "dwi_acq-DTI-30-p2",
  "PulseSequenceDetails": "%SiemensSeq%\\ep2d_diff",
  "ReceiveCoilActiveElements": "HEA;HEP",
  "ReceiveCoilName": "Head_32",
  "ReconMatrixPE": 122,
  "RefLinesPE": 38,
  "RepetitionTime": 7.7,
  "SAR": 0.119877,
  "ScanOptions": "FS",
  "ScanningSequence": "EP",
  "SequenceName": "*ep_b0",
  "SequenceVariant": "SK\\SP",
  "SeriesDescription": "dwi_acq-DTI-30-p2",
  "SeriesNumber": 12,
  "ShimSetting": [4144, -7698, -7502, 253, -70, -151, -76, 34],
  "SliceThickness": 2,
  "SliceTiming": [3.84375, 0, 3.95312, 0.10938, 4.0625, 0.21875, 4.17188, 0.32812, 4.28125, 0.4375, 4.39062, 0.54688, 4.5, 0.65625, 4.60938, 0.76562, 4.71875, 0.88281, 4.82812, 0.99219, 4.9375, 1.10156, 5.04688, 1.21094, 5.15625, 1.32031, 5.26562, 1.42969, 5.375, 1.53906, 5.48438, 1.64844, 5.59375, 1.75781, 5.70312, 1.86719, 5.82031, 1.97656, 5.92969, 2.08594, 6.03125, 2.19531, 6.14062, 2.30469, 6.25781, 2.41406, 6.36719, 2.52344, 6.47656, 2.63281, 6.58594, 2.74219, 6.69531, 2.85156, 6.80469, 2.96094, 6.91406, 3.07031, 7.02344, 3.17969, 7.13281, 3.28906, 7.24219, 3.39844, 7.35156, 3.50781, 7.46094, 3.625, 7.57031, 3.73438],
  "SoftwareVersions": "syngo MR E11",
  "SpacingBetweenSlices": 2,
  "SpoilingState": true,
  "StationName": "AWP66112",
  "TotalReadoutTime": 0.0344855,
  "TxRefAmp": 242.251,
  "dcmmeta_affine": [
    [-1.9344176054000854, -0.3470110595226288, -0.08827751874923706, 145.67724609375],
    [-0.35692042112350464, 1.8407185077667236, 0.6051425933837891, -105.94197082519531],
    [0.02374877966940403, -0.6010544300079346, 1.904205322265625, -18.196531295776367],
    [0.0, 0.0, 0.0, 1.0]
],
  "dcmmeta_reorient_transform": [
    [0.0, -1.0, 0.0, 121.0],
    [1.0, 0.0, 0.0, 0.0],
    [0.0, 0.0, -1.0, 69.0],
    [0.0, 0.0, 0.0, 1.0]
],
  "dcmmeta_shape": [122, 122, 70, 31],
  "dcmmeta_slice_dim": 2,
  "dcmmeta_version": 0.6,
  "global": {
    "const": {
      "AccessionNumber": "qa",
      "AcquisitionMatrix": [122, 0, 0, 122],
      "AngioFlag": "N",
      "BitsAllocated": 16,
      "BitsStored": 12,
      "BodyPartExamined": "BRAIN",
      "Columns": 122,
      "EchoNumbers": 1,
      "EchoTime": 75.0,
      "EchoTrainLength": 61,
      "FlipAngle": 90.0,
      "HighBit": 11,
      "ImageOrientationPatient": [0.98332892143593, 0.18143453899672, 0.0120722958341, -0.1763972873066, 0.93569854142043, 0.30553598252014],
      "ImageType": [
        "ORIGINAL",
        "PRIMARY",
        "DIFFUSION",
        "NONE",
        "ND",
        "NORM"
],
      "ImagedNucleus": "1H",
      "ImagingFrequency": 123.252448,
      "InPlanePhaseEncodingDirection": "COL",
      "MRAcquisitionType": "2D",
      "MagneticFieldStrength": 3.0,
      "Manufacturer": "SIEMENS",
      "ManufacturerModelName": "Prisma",
      "Modality": "MR",
      "NumberOfAverages": 1.0,
      "NumberOfPhaseEncodingSteps": 122,
      "PercentPhaseFieldOfView": 100.0,
      "PercentSampling": 100.0,
      "PerformedProcedureStepStartTime": "090629.955000",
      "PhotometricInterpretation": "MONOCHROME2",
      "PixelBandwidth": 2050.0,
      "PixelRepresentation": 0,
      "PixelSpacing": [1.9672131538391, 1.9672131538391],
      "ProtocolName": "dwi_acq-DTI-30-p2",
      "RepetitionTime": 7700.0,
      "Rows": 122,
      "SAR": 0.11987709696736,
      "SamplesPerPixel": 1,
      "ScanOptions": "FS",
      "ScanningSequence": "EP",
      "SequenceVariant": [
        "SK",
        "SP"
],
      "SeriesDescription": "dwi_acq-DTI-30-p2",
      "SeriesNumber": 12,
      "SeriesTime": "093710.758000",
      "SliceThickness": 2.0,
      "SmallestImagePixelValue": 0,
      "SoftwareVersions": "syngo MR E11",
      "SpacingBetweenSlices": 2.0,
      "SpecificCharacterSet": "ISO_IR 100",
      "StudyID": "6",
      "StudyTime": "090629.818000",
      "TransmitCoilName": "Body",
      "VariableFlipAngleFlag": "N",
      "WindowCenterWidthExplanation": "Algo1",
      "dBdt": 0.0},
    "slices": {
      "AcquisitionTime": ["093659.052500", "093655.212500", "093659.162500", "093655.322500", "093659.272500", "093655.432500", "093659.380000", "093655.540000", "093659.490000", "093655.650000", "093659.600000", "093655.760000", "093659.710000", "093655.870000", "093659.820000", "093655.980000", "093659.930000", "093656.090000", "093700.040000", "093656.200000", "093700.150000", "093656.310000", "093700.257500", "093656.420000", "093700.367500", "093656.527500", "093700.477500", "093656.637500", "093700.587500", "093656.747500", "093700.697500", "093656.857500", "093700.807500", "093656.967500", "093700.917500", "093657.077500", "093701.027500", "093657.187500", "093701.137500", "093657.297500", "093701.245000", "093657.405000", "093701.355000", "093657.515000", "093701.465000", "093657.625000", "093701.575000", "093657.735000", "093701.685000", "093657.845000", "093701.795000", "093657.955000", "093701.905000", "093658.065000", "093702.015000", "093658.175000", "093702.122500", "093658.285000", "093702.232500", "093658.392500", "093702.342500", "093658.502500", "093702.452500", "093658.612500", "093702.562500", "093658.722500", "093702.672500", "093658.832500", "093702.782500", "093658.942500", "093706.752500", "093702.912500", "093706.862500", "093703.022500", "093706.972500", "093703.132500", "093707.080000", "093703.240000", "093707.190000", "093703.350000", "093707.300000", "093703.460000", "093707.410000", "093703.570000", "093707.520000", "093703.680000", "093707.630000", "093703.790000", "093707.740000", "093703.900000", "093707.850000", "093704.010000", "093707.957500", "093704.120000", "093708.067500", "093704.227500", "093708.177500", "093704.337500", "093708.287500", "093704.447500", "093708.397500", "093704.557500", "093708.507500", "093704.667500", "093708.617500", "093704.777500", "093708.727500", "093704.887500", "093708.837500", "093704.997500", "093708.945000", "093705.105000", "093709.055000", "093705.215000", "093709.165000", "093705.325000", "093709.275000", "093705.435000", "093709.385000", "093705.545000", "093709.495000", "093705.655000", "093709.605000", "093705.765000", "093709.715000", "093705.875000", "093709.822500", "093705.985000", "093709.932500", "093706.092500", "093710.042500", "093706.202500", "093710.152500", "093706.312500", "093710.262500", "093706.422500", "093710.372500", "093706.532500", "093710.482500", "093706.642500", "093714.452500", "093710.612500", "093714.562500", "093710.722500", "093714.672500", "093710.832500", "093714.780000", "093710.940000", "093714.890000", "093711.050000", "093715.000000", "093711.160000", "093715.110000", "093711.270000", "093715.220000", "093711.380000", "093715.330000", "093711.490000", "093715.440000", "093711.600000", "093715.550000", "093711.710000", "093715.657500", "093711.820000", "093715.767500", "093711.927500", "093715.877500", "093712.037500", "093715.987500", "093712.147500", "093716.097500", "093712.257500", "093716.207500", "093712.367500", "093716.317500", "093712.477500", "093716.427500", "093712.587500", "093716.537500", "093712.697500", "093716.645000", "093712.805000", "093716.755000", "093712.915000", "093716.865000", "093713.025000", "093716.975000", "093713.135000", "093717.085000", "093713.245000", "093717.195000", "093713.355000", "093717.305000", "093713.465000", "093717.415000", "093713.575000", "093717.522500", "093713.685000", "093717.632500", "093713.792500", "093717.742500", "093713.902500", "093717.852500", "093714.012500", "093717.962500", "093714.122500", "093718.072500", "093714.232500", "093718.182500", "093714.342500", "093722.152500", "093718.312500", "093722.262500", "093718.422500", "093722.372500", "093718.532500", "093722.480000", "093718.640000", "093722.590000", "093718.750000", "093722.700000", "093718.860000", "093722.810000", "093718.970000", "093722.920000", "093719.080000", "093723.030000", "093719.190000", "093723.140000", "093719.300000", "093723.250000", "093719.410000", "093723.357500", "093719.520000", "093723.467500", "093719.627500", "093723.577500", "093719.737500", "093723.687500", "093719.847500", "093723.797500", "093719.957500", "093723.907500", "093720.067500", "093724.017500", "093720.177500", "093724.127500", "093720.287500", "093724.237500", "093720.397500", "093724.345000", "093720.505000", "093724.455000", "093720.615000", "093724.565000", "093720.725000", "093724.675000", "093720.835000", "093724.785000", "093720.945000", "093724.895000", "093721.055000", "093725.005000", "093721.165000", "093725.115000", "093721.275000", "093725.222500", "093721.385000", "093725.332500", "093721.492500", "093725.442500", "093721.602500", "093725.552500", "093721.712500", "093725.662500", "093721.822500", "093725.772500", "093721.932500", "093725.882500", "093722.042500", "093729.852500", "093726.012500", "093729.962500", "093726.122500", "093730.072500", "093726.232500", "093730.180000", "093726.340000", "093730.290000", "093726.450000", "093730.400000", "093726.560000", "093730.510000", "093726.670000", "093730.620000", "093726.780000", "093730.730000", "093726.890000", "093730.840000", "093727.000000", "093730.950000", "093727.110000", "093731.057500", "093727.220000", "093731.167500", "093727.327500", "093731.277500", "093727.437500", "093731.387500", "093727.547500", "093731.497500", "093727.657500", "093731.607500", "093727.767500", "093731.717500", "093727.877500", "093731.827500", "093727.987500", "093731.937500", "093728.097500", "093732.045000", "093728.205000", "093732.155000", "093728.315000", "093732.265000", "093728.425000", "093732.375000", "093728.535000", "093732.485000", "093728.645000", "093732.595000", "093728.755000", "093732.705000", "093728.865000", "093732.815000", "093728.975000", "093732.922500", "093729.085000", "093733.032500", "093729.192500", "093733.142500", "093729.302500", "093733.252500", "093729.412500", "093733.362500", "093729.522500", "093733.472500", "093729.632500", "093733.582500", "093729.742500", "093737.552500", "093733.712500", "093737.662500", "093733.822500", "093737.772500", "093733.932500", "093737.880000", "093734.040000", "093737.990000", "093734.150000", "093738.100000", "093734.260000", "093738.210000", "093734.370000", "093738.320000", "093734.480000", "093738.430000", "093734.590000", "093738.540000", "093734.700000", "093738.650000", "093734.810000", "093738.757500", "093734.920000", "093738.867500", "093735.027500", "093738.977500", "093735.137500", "093739.087500", "093735.247500", "093739.197500", "093735.357500", "093739.307500", "093735.467500", "093739.417500", "093735.577500", "093739.527500", "093735.687500", "093739.637500", "093735.797500", "093739.745000", "093735.905000", "093739.855000", "093736.015000", "093739.965000", "093736.125000", "093740.075000", "093736.235000", "093740.185000", "093736.345000", "093740.295000", "093736.455000", "093740.405000", "093736.565000", "093740.515000", "093736.675000", "093740.622500", "093736.785000", "093740.732500", "093736.892500", "093740.842500", "093737.002500", "093740.952500", "093737.112500", "093741.062500", "093737.222500", "093741.172500", "093737.332500", "093741.282500", "093737.442500", "093745.252500", "093741.412500", "093745.362500", "093741.522500", "093745.472500", "093741.632500", "093745.580000", "093741.740000", "093745.690000", "093741.850000", "093745.800000", "093741.960000", "093745.910000", "093742.070000", "093746.020000", "093742.180000", "093746.130000", "093742.290000", "093746.240000", "093742.400000", "093746.350000", "093742.510000", "093746.457500", "093742.620000", "093746.567500", "093742.727500", "093746.677500", "093742.837500", "093746.787500", "093742.947500", "093746.897500", "093743.057500", "093747.007500", "093743.167500", "093747.117500", "093743.277500", "093747.227500", "093743.387500", "093747.337500", "093743.497500", "093747.445000", "093743.605000", "093747.555000", "093743.715000", "093747.665000", "093743.825000", "093747.775000", "093743.935000", "093747.885000", "093744.045000", "093747.995000", "093744.155000", "093748.105000", "093744.265000", "093748.215000", "093744.375000", "093748.322500", "093744.485000", "093748.432500", "093744.592500", "093748.542500", "093744.702500", "093748.652500", "093744.812500", "093748.762500", "093744.922500", "093748.872500", "093745.032500", "093748.982500", "093745.142500", "093752.952500", "093749.112500", "093753.062500", "093749.222500", "093753.172500", "093749.332500", "093753.280000", "093749.440000", "093753.390000", "093749.550000", "093753.500000", "093749.660000", "093753.610000", "093749.770000", "093753.720000", "093749.880000", "093753.830000", "093749.990000", "093753.940000", "093750.100000", "093754.050000", "093750.210000", "093754.157500", "093750.320000", "093754.267500", "093750.427500", "093754.377500", "093750.537500", "093754.487500", "093750.647500", "093754.597500", "093750.757500", "093754.707500", "093750.867500", "093754.817500", "093750.977500", "093754.927500", "093751.087500", "093755.037500", "093751.197500", "093755.145000", "093751.305000", "093755.255000", "093751.415000", "093755.365000", "093751.525000", "093755.475000", "093751.635000", "093755.585000", "093751.745000", "093755.695000", "093751.855000", "093755.805000", "093751.965000", "093755.915000", "093752.075000", "093756.022500", "093752.185000", "093756.132500", "093752.292500", "093756.242500", "093752.402500", "093756.352500", "093752.512500", "093756.462500", "093752.622500", "093756.572500", "093752.732500", "093756.682500", "093752.842500", "093800.652500", "093756.812500", "093800.762500", "093756.922500", "093800.872500", "093757.032500", "093800.980000", "093757.140000", "093801.090000", "093757.250000", "093801.200000", "093757.360000", "093801.310000", "093757.470000", "093801.420000", "093757.580000", "093801.530000", "093757.690000", "093801.640000", "093757.800000", "093801.750000", "093757.910000", "093801.857500", "093758.020000", "093801.967500", "093758.127500", "093802.077500", "093758.237500", "093802.187500", "093758.347500", "093802.297500", "093758.457500", "093802.407500", "093758.567500", "093802.517500", "093758.677500", "093802.627500", "093758.787500", "093802.737500", "093758.897500", "093802.845000", "093759.005000", "093802.955000", "093759.115000", "093803.065000", "093759.225000", "093803.175000", "093759.335000", "093803.285000", "093759.445000", "093803.395000", "093759.555000", "093803.505000", "093759.665000", "093803.615000", "093759.775000", "093803.722500", "093759.885000", "093803.832500", "093759.992500", "093803.942500", "093800.102500", "093804.052500", "093800.212500", "093804.162500", "093800.322500", "093804.272500", "093800.432500", "093804.382500", "093800.542500", "093808.352500", "093804.512500", "093808.462500", "093804.622500", "093808.572500", "093804.732500", "093808.680000", "093804.840000", "093808.790000", "093804.950000", "093808.900000", "093805.060000", "093809.010000", "093805.170000", "093809.120000", "093805.280000", "093809.230000", "093805.390000", "093809.340000", "093805.500000", "093809.450000", "093805.610000", "093809.557500", "093805.720000", "093809.667500", "093805.827500", "093809.777500", "093805.937500", "093809.887500", "093806.047500", "093809.997500", "093806.157500", "093810.107500", "093806.267500", "093810.217500", "093806.377500", "093810.327500", "093806.487500", "093810.437500", "093806.597500", "093810.545000", "093806.705000", "093810.655000", "093806.815000", "093810.765000", "093806.925000", "093810.875000", "093807.035000", "093810.985000", "093807.145000", "093811.095000", "093807.255000", "093811.205000", "093807.365000", "093811.315000", "093807.475000", "093811.422500", "093807.585000", "093811.532500", "093807.692500", "093811.642500", "093807.802500", "093811.752500", "093807.912500", "093811.862500", "093808.022500", "093811.972500", "093808.132500", "093812.082500", "093808.242500", "093816.052500", "093812.212500", "093816.162500", "093812.322500", "093816.272500", "093812.432500", "093816.380000", "093812.540000", "093816.490000", "093812.650000", "093816.600000", "093812.760000", "093816.710000", "093812.870000", "093816.820000", "093812.980000", "093816.930000", "093813.090000", "093817.040000", "093813.200000", "093817.150000", "093813.310000", "093817.257500", "093813.420000", "093817.367500", "093813.527500", "093817.477500", "093813.637500", "093817.587500", "093813.747500", "093817.697500", "093813.857500", "093817.807500", "093813.967500", "093817.917500", "093814.077500", "093818.027500", "093814.187500", "093818.137500", "093814.297500", "093818.245000", "093814.405000", "093818.355000", "093814.515000", "093818.465000", "093814.625000", "093818.575000", "093814.735000", "093818.685000", "093814.845000", "093818.795000", "093814.955000", "093818.905000", "093815.065000", "093819.015000", "093815.175000", "093819.122500", "093815.285000", "093819.232500", "093815.392500", "093819.342500", "093815.502500", "093819.452500", "093815.612500", "093819.562500", "093815.722500", "093819.672500", "093815.832500", "093819.782500", "093815.942500", "093823.752500", "093819.912500", "093823.862500", "093820.022500", "093823.972500", "093820.132500", "093824.080000", "093820.240000", "093824.190000", "093820.350000", "093824.300000", "093820.460000", "093824.410000", "093820.570000", "093824.520000", "093820.680000", "093824.630000", "093820.790000", "093824.740000", "093820.900000", "093824.850000", "093821.010000", "093824.957500", "093821.120000", "093825.067500", "093821.227500", "093825.177500", "093821.337500", "093825.287500", "093821.447500", "093825.397500", "093821.557500", "093825.507500", "093821.667500", "093825.617500", "093821.777500", "093825.727500", "093821.887500", "093825.837500", "093821.997500", "093825.945000", "093822.105000", "093826.055000", "093822.215000", "093826.165000", "093822.325000", "093826.275000", "093822.435000", "093826.385000", "093822.545000", "093826.495000", "093822.655000", "093826.605000", "093822.765000", "093826.715000", "093822.875000", "093826.822500", "093822.985000", "093826.932500", "093823.092500", "093827.042500", "093823.202500", "093827.152500", "093823.312500", "093827.262500", "093823.422500", "093827.372500", "093823.532500", "093827.482500", "093823.642500", "093831.452500", "093827.612500", "093831.562500", "093827.722500", "093831.672500", "093827.832500", "093831.780000", "093827.940000", "093831.890000", "093828.050000", "093832.000000", "093828.160000", "093832.110000", "093828.270000", "093832.220000", "093828.380000", "093832.330000", "093828.490000", "093832.440000", "093828.600000", "093832.550000", "093828.710000", "093832.657500", "093828.820000", "093832.767500", "093828.927500", "093832.877500", "093829.037500", "093832.987500", "093829.147500", "093833.097500", "093829.257500", "093833.207500", "093829.367500", "093833.317500", "093829.477500", "093833.427500", "093829.587500", "093833.537500", "093829.697500", "093833.645000", "093829.805000", "093833.755000", "093829.915000", "093833.865000", "093830.025000", "093833.975000", "093830.135000", "093834.085000", "093830.245000", "093834.195000", "093830.355000", "093834.305000", "093830.465000", "093834.415000", "093830.575000", "093834.522500", "093830.685000", "093834.632500", "093830.792500", "093834.742500", "093830.902500", "093834.852500", "093831.012500", "093834.962500", "093831.122500", "093835.072500", "093831.232500", "093835.182500", "093831.342500", "093839.152500", "093835.312500", "093839.262500", "093835.422500", "093839.372500", "093835.532500", "093839.480000", "093835.640000", "093839.590000", "093835.750000", "093839.700000", "093835.860000", "093839.810000", "093835.970000", "093839.920000", "093836.080000", "093840.030000", "093836.190000", "093840.140000", "093836.300000", "093840.250000", "093836.410000", "093840.357500", "093836.520000", "093840.467500", "093836.627500", "093840.577500", "093836.737500", "093840.687500", "093836.847500", "093840.797500", "093836.957500", "093840.907500", "093837.067500", "093841.017500", "093837.177500", "093841.127500", "093837.287500", "093841.237500", "093837.397500", "093841.345000", "093837.505000", "093841.455000", "093837.615000", "093841.565000", "093837.725000", "093841.675000", "093837.835000", "093841.785000", "093837.945000", "093841.895000", "093838.055000", "093842.005000", "093838.165000", "093842.115000", "093838.275000", "093842.222500", "093838.385000", "093842.332500", "093838.492500", "093842.442500", "093838.602500", "093842.552500", "093838.712500", "093842.662500", "093838.822500", "093842.772500", "093838.932500", "093842.882500", "093839.042500", "093846.852500", "093843.012500", "093846.962500", "093843.122500", "093847.072500", "093843.232500", "093847.180000", "093843.340000", "093847.290000", "093843.450000", "093847.400000", "093843.560000", "093847.510000", "093843.670000", "093847.620000", "093843.780000", "093847.730000", "093843.890000", "093847.840000", "093844.000000", "093847.950000", "093844.110000", "093848.057500", "093844.220000", "093848.167500", "093844.327500", "093848.277500", "093844.437500", "093848.387500", "093844.547500", "093848.497500", "093844.657500", "093848.607500", "093844.767500", "093848.717500", "093844.877500", "093848.827500", "093844.987500", "093848.937500", "093845.097500", "093849.045000", "093845.205000", "093849.155000", "093845.315000", "093849.265000", "093845.425000", "093849.375000", "093845.535000", "093849.485000", "093845.645000", "093849.595000", "093845.755000", "093849.705000", "093845.865000", "093849.815000", "093845.975000", "093849.922500", "093846.085000", "093850.032500", "093846.192500", "093850.142500", "093846.302500", "093850.252500", "093846.412500", "093850.362500", "093846.522500", "093850.472500", "093846.632500", "093850.582500", "093846.742500", "093854.552500", "093850.712500", "093854.662500", "093850.822500", "093854.772500", "093850.932500", "093854.880000", "093851.040000", "093854.990000", "093851.150000", "093855.100000", "093851.260000", "093855.210000", "093851.370000", "093855.320000", "093851.480000", "093855.430000", "093851.590000", "093855.540000", "093851.700000", "093855.650000", "093851.810000", "093855.757500", "093851.920000", "093855.867500", "093852.027500", "093855.977500", "093852.137500", "093856.087500", "093852.247500", "093856.197500", "093852.357500", "093856.307500", "093852.467500", "093856.417500", "093852.577500", "093856.527500", "093852.687500", "093856.637500", "093852.797500", "093856.745000", "093852.905000", "093856.855000", "093853.015000", "093856.965000", "093853.125000", "093857.075000", "093853.235000", "093857.185000", "093853.345000", "093857.295000", "093853.455000", "093857.405000", "093853.565000", "093857.515000", "093853.675000", "093857.622500", "093853.785000", "093857.732500", "093853.892500", "093857.842500", "093854.002500", "093857.952500", "093854.112500", "093858.062500", "093854.222500", "093858.172500", "093854.332500", "093858.282500", "093854.442500", "093902.252500", "093858.412500", "093902.362500", "093858.522500", "093902.472500", "093858.632500", "093902.580000", "093858.740000", "093902.690000", "093858.850000", "093902.800000", "093858.960000", "093902.910000", "093859.070000", "093903.020000", "093859.180000", "093903.130000", "093859.290000", "093903.240000", "093859.400000", "093903.350000", "093859.510000", "093903.457500", "093859.620000", "093903.567500", "093859.727500", "093903.677500", "093859.837500", "093903.787500", "093859.947500", "093903.897500", "093900.057500", "093904.007500", "093900.167500", "093904.117500", "093900.277500", "093904.227500", "093900.387500", "093904.337500", "093900.497500", "093904.445000", "093900.605000", "093904.555000", "093900.715000", "093904.665000", "093900.825000", "093904.775000", "093900.935000", "093904.885000", "093901.045000", "093904.995000", "093901.155000", "093905.105000", "093901.265000", "093905.215000", "093901.375000", "093905.322500", "093901.485000", "093905.432500", "093901.592500", "093905.542500", "093901.702500", "093905.652500", "093901.812500", "093905.762500", "093901.922500", "093905.872500", "093902.032500", "093905.982500", "093902.142500", "093909.952500", "093906.112500", "093910.062500", "093906.222500", "093910.172500", "093906.332500", "093910.280000", "093906.440000", "093910.390000", "093906.550000", "093910.500000", "093906.660000", "093910.610000", "093906.770000", "093910.720000", "093906.880000", "093910.830000", "093906.990000", "093910.940000", "093907.100000", "093911.050000", "093907.210000", "093911.157500", "093907.320000", "093911.267500", "093907.427500", "093911.377500", "093907.537500", "093911.487500", "093907.647500", "093911.597500", "093907.757500", "093911.707500", "093907.867500", "093911.817500", "093907.977500", "093911.927500", "093908.087500", "093912.037500", "093908.197500", "093912.145000", "093908.305000", "093912.255000", "093908.415000", "093912.365000", "093908.525000", "093912.475000", "093908.635000", "093912.585000", "093908.745000", "093912.695000", "093908.855000", "093912.805000", "093908.965000", "093912.915000", "093909.075000", "093913.022500", "093909.185000", "093913.132500", "093909.292500", "093913.242500", "093909.402500", "093913.352500", "093909.512500", "093913.462500", "093909.622500", "093913.572500", "093909.732500", "093913.682500", "093909.842500", "093917.652500", "093913.812500", "093917.762500", "093913.922500", "093917.872500", "093914.032500", "093917.980000", "093914.140000", "093918.090000", "093914.250000", "093918.200000", "093914.360000", "093918.310000", "093914.470000", "093918.420000", "093914.580000", "093918.530000", "093914.690000", "093918.640000", "093914.800000", "093918.750000", "093914.910000", "093918.857500", "093915.020000", "093918.967500", "093915.127500", "093919.077500", "093915.237500", "093919.187500", "093915.347500", "093919.297500", "093915.457500", "093919.407500", "093915.567500", "093919.517500", "093915.677500", "093919.627500", "093915.787500", "093919.737500", "093915.897500", "093919.845000", "093916.005000", "093919.955000", "093916.115000", "093920.065000", "093916.225000", "093920.175000", "093916.335000", "093920.285000", "093916.445000", "093920.395000", "093916.555000", "093920.505000", "093916.665000", "093920.615000", "093916.775000", "093920.722500", "093916.885000", "093920.832500", "093916.992500", "093920.942500", "093917.102500", "093921.052500", "093917.212500", "093921.162500", "093917.322500", "093921.272500", "093917.432500", "093921.382500", "093917.542500", "093925.352500", "093921.512500", "093925.462500", "093921.622500", "093925.572500", "093921.732500", "093925.680000", "093921.840000", "093925.790000", "093921.950000", "093925.900000", "093922.060000", "093926.010000", "093922.170000", "093926.120000", "093922.280000", "093926.230000", "093922.390000", "093926.340000", "093922.500000", "093926.450000", "093922.610000", "093926.557500", "093922.720000", "093926.667500", "093922.827500", "093926.777500", "093922.937500", "093926.887500", "093923.047500", "093926.997500", "093923.157500", "093927.107500", "093923.267500", "093927.217500", "093923.377500", "093927.327500", "093923.487500", "093927.437500", "093923.597500", "093927.545000", "093923.705000", "093927.655000", "093923.815000", "093927.765000", "093923.925000", "093927.875000", "093924.035000", "093927.985000", "093924.145000", "093928.095000", "093924.255000", "093928.205000", "093924.365000", "093928.315000", "093924.475000", "093928.422500", "093924.585000", "093928.532500", "093924.692500", "093928.642500", "093924.802500", "093928.752500", "093924.912500", "093928.862500", "093925.022500", "093928.972500", "093925.132500", "093929.082500", "093925.242500", "093933.052500", "093929.212500", "093933.162500", "093929.322500", "093933.272500", "093929.432500", "093933.380000", "093929.540000", "093933.490000", "093929.650000", "093933.600000", "093929.760000", "093933.710000", "093929.870000", "093933.820000", "093929.980000", "093933.930000", "093930.090000", "093934.040000", "093930.200000", "093934.150000", "093930.310000", "093934.257500", "093930.420000", "093934.367500", "093930.527500", "093934.477500", "093930.637500", "093934.587500", "093930.747500", "093934.697500", "093930.857500", "093934.807500", "093930.967500", "093934.91750