{
  "AcquisitionMatrixPE": 122,
  "AcquisitionNumber": 1,
  "AcquisitionTime": "11:25:53.452500",
  "BandwidthPerPixelPhaseEncode": 27.785,
  "BaseResolution": 122,
  "BodyPartExamined": "BRAIN",
  "CoilCombinationMethod": "Adaptive Combine",
  "ConsistencyInfo": "N4_VE11C_LATEST_20160120",
  "ConversionSoftware": "dcm2niix",
  "ConversionSoftwareVersion": "v1.0.20220720",
  "DerivedVendorReportedEchoSpacing": 0.000590011,
  "DeviceSerialNumber": "66112",
  "DiffusionScheme": "Monopolar",
  "DwellTime": 2e-06,
  "EchoTime": 0.068,
  "EchoTrainLength": 61,
  "EffectiveEchoSpacing": 0.000295005,
  "FlipAngle": 90,
  "HeudiconvVersion": "0.13.1",
  "ImageOrientationPatientDICOM": [0.979289, -0.202465, 0.000288458, 0.192484, 0.93145, 0.308788],
  "ImageOrientationText": "Tra>Cor(17.6)>Sag(3.6)",
  "ImageType": [
    "ORIGINAL",
    "PRIMARY",
    "DIFFUSION",
    "NONE",
    "ND",
    "NORM"
],
  "ImagingFrequency": 123.253,
  "InPlanePhaseEncodingDirectionDICOM": "COL",
  "InstitutionAddress": "Maynard 3,Hanover,NH,US,03755",
  "InstitutionName": "Dartmouth College - PBS",
  "InstitutionalDepartmentName": "Department",
  "MRAcquisitionType": "2D",
  "MagneticFieldStrength": 3,
  "Manufacturer": "Siemens",
  "ManufacturersModelName": "Prisma",
  "Modality": "MR",
  "MultibandAccelerationFactor": 4,
  "NonlinearGradientCorrection": false,
  "ParallelReductionFactorInPlane": 2,
  "PartialFourier": 1,
  "PatientPosition": "HFS",
  "PercentPhaseFOV": 100,
  "PercentSampling": 100,
  "PhaseEncodingDirection": "j-",
  "PhaseEncodingSteps": 122,
  "PhaseResolution": 1,
  "PixelBandwidth": 2050,
  "ProcedureStepDescription": "dbic^QA",
  "ProtocolName": "DTI_30_p2_s4",
  "PulseSequenceDetails": "%SiemensSeq%\\ep2d_diff",
  "ReceiveCoilActiveElements": "HEA;HEP",
  "ReceiveCoilName": "Head_32",
  "ReconMatrixPE": 122,
  "RefLinesPE": 38,
  "RepetitionTime": 3.6,
  "SAR": 0.160811,
  "ScanOptions": "FS",
  "ScanningSequence": "EP",
  "SequenceName": "*ep_b0",
  "SequenceVariant": "SK\\SP",
  "SeriesDescription": "DTI_30_p2_s4",
  "SeriesNumber": 9,
  "ShimSetting": [4145, -7666, -7494, 284, -4, 286, -141, 100],
  "SliceThickness": 2,
  "SliceTiming": [2.58594, 0, 1.78906, 0.19531, 1.98438, 0.39844, 2.1875, 0.59375, 2.38281, 0.99219, 2.78125, 1.19531, 2.98438, 1.39062, 3.17969, 1.59375, 3.38281, 0.79688, 2.58594, 0, 1.78906, 0.19531, 1.98438, 0.39844, 2.1875, 0.59375, 2.38281, 0.99219, 2.78125, 1.19531, 2.98438, 1.39062, 3.17969, 1.59375, 3.38281, 0.79688, 2.58594, 0, 1.78906, 0.19531, 1.98438, 0.39844, 2.1875, 0.59375, 2.38281, 0.99219, 2.78125, 1.19531, 2.98438, 1.39062, 3.17969, 1.59375, 3.38281, 0.79688, 2.58594, 0, 1.78906, 0.19531, 1.98438, 0.39844, 2.1875, 0.59375, 2.38281, 0.99219, 2.78125, 1.19531, 2.98438, 1.39062, 3.17969, 1.59375, 3.38281, 0.79688],
  "SoftwareVersions": "syngo MR E11",
  "SpacingBetweenSlices": 2,
  "SpoilingState": true,
  "StationName": "AWP66112",
  "TotalReadoutTime": 0.0356956,
  "TxRefAmp": 254.996,
  "dcmmeta_affine": [
    [-1.9264708757400513, 0.37865686416625977, 0.12557518482208252, 86.50004577636719],
    [0.3982926607131958, 1.8323615789413452, 0.60467529296875, -146.5533447265625],
    [0.0005674589774571359, -0.6074517965316772, 1.9022598266601562, -39.05408477783203],
    [0.0, 0.0, 0.0, 1.0]
],
  "dcmmeta_reorient_transform": [
    [0.0, -1.0, 0.0, 121.0],
    [1.0, 0.0, 0.0, 0.0],
    [0.0, 0.0, -1.0, 71.0],
    [0.0, 0.0, 0.0, 1.0]
],
  "dcmmeta_shape": [122, 122, 72, 31],
  "dcmmeta_slice_dim": 2,
  "dcmmeta_version": 0.6,
  "global": {
    "const": {
      "AccessionNumber": "qa",
      "AcquisitionMatrix": [122, 0, 0, 122],
      "AngioFlag": "N",
      "BitsAllocated": 16,
      "BitsStored": 12,
      "BodyPartExamined": "BRAIN",
      "Columns": 122,
      "EchoNumbers": 1,
      "EchoTime": 68.0,
      "EchoTrainLength": 61,
      "FlipAngle": 90.0,
      "HighBit": 11,
      "ImageOrientationPatient": [0.97928936761713, -0.2024654322689, 0.00028845830178, 0.19248390715308, 0.93145044098456, 0.30878798790877],
      "ImageType": [
        "ORIGINAL",
        "PRIMARY",
        "DIFFUSION",
        "NONE",
        "ND",
        "NORM"
],
      "ImagedNucleus": "1H",
      "ImagingFrequency": 123.252611,
      "InPlanePhaseEncodingDirection": "COL",
      "MRAcquisitionType": "2D",
      "MagneticFieldStrength": 3.0,
      "Manufacturer": "SIEMENS",
      "ManufacturerModelName": "Prisma",
      "Modality": "MR",
      "NumberOfAverages": 1.0,
      "NumberOfPhaseEncodingSteps": 122,
      "PercentPhaseFieldOfView": 100.0,
      "PercentSampling": 100.0,
      "PerformedProcedureStepStartTime": "111214.730000",
      "PhotometricInterpretation": "MONOCHROME2",
      "PixelBandwidth": 2050.0,
      "PixelRepresentation": 0,
      "PixelSpacing": [1.9672131538391, 1.9672131538391],
      "ProtocolName": "DTI_30_p2_s4",
      "RepetitionTime": 3600.0,
      "Rows": 122,
      "SAR": 0.16081086890702,
      "SamplesPerPixel": 1,
      "ScanOptions": "FS",
      "ScanningSequence": "EP",
      "SequenceVariant": [
        "SK",
        "SP"
],
      "SeriesDescription": "DTI_30_p2_s4",
      "SeriesNumber": 9,
      "SeriesTime": "112601.992000",
      "SliceThickness": 2.0,
      "SmallestImagePixelValue": 0,
      "SoftwareVersions": "syngo MR E11",
      "SpacingBetweenSlices": 2.0,
      "SpecificCharacterSet": "ISO_IR 100",
      "StudyID": "18",
      "StudyTime": "111214.649000",
      "TransmitCoilName": "Body",
      "VariableFlipAngleFlag": "N",
      "WindowCenterWidthExplanation": "Algo1",
      "dBdt": 0.0},
    "slices": {
      "AcquisitionTime": ["112553.452500", "112550.865000", "112552.655000", "112551.065000", "112552.855000", "112551.265000", "112553.055000", "112551.462500", "112553.252500", "112551.860000", "112553.650000", "112552.060000", "112553.850000", "112552.257500", "112554.047500", "112552.457500", "112554.247500", "112551.662500", "112553.452500", "112550.865000", "112552.655000", "112551.065000", "112552.855000", "112551.265000", "112553.055000", "112551.462500", "112553.252500", "112551.860000", "112553.650000", "112552.060000", "112553.850000", "112552.257500", "112554.047500", "112552.457500", "112554.247500", "112551.662500", "112553.452500", "112550.865000", "112552.655000", "112551.065000", "112552.855000", "112551.265000", "112553.055000", "112551.462500", "112553.252500", "112551.860000", "112553.650000", "112552.060000", "112553.850000", "112552.257500", "112554.047500", "112552.457500", "112554.247500", "112551.662500", "112553.452500", "112550.865000", "112552.655000", "112551.065000", "112552.855000", "112551.265000", "112553.055000", "112551.462500", "112553.252500", "112551.860000", "112553.650000", "112552.060000", "112553.850000", "112552.257500", "112554.047500", "112552.457500", "112554.247500", "112551.662500", "112557.052500", "112554.465000", "112556.255000", "112554.665000", "112556.455000", "112554.865000", "112556.655000", "112555.062500", "112556.852500", "112555.460000", "112557.250000", "112555.660000", "112557.450000", "112555.857500", "112557.647500", "112556.057500", "112557.847500", "112555.262500", "112557.052500", "112554.465000", "112556.255000", "112554.665000", "112556.455000", "112554.865000", "112556.655000", "112555.062500", "112556.852500", "112555.460000", "112557.250000", "112555.660000", "112557.450000", "112555.857500", "112557.647500", "112556.057500", "112557.847500", "112555.262500", "112557.052500", "112554.465000", "112556.255000", "112554.665000", "112556.455000", "112554.865000", "112556.655000", "112555.062500", "112556.852500", "112555.460000", "112557.250000", "112555.660000", "112557.450000", "112555.857500", "112557.647500", "112556.057500", "112557.847500", "112555.262500", "112557.052500", "112554.465000", "112556.255000", "112554.665000", "112556.455000", "112554.865000", "112556.655000", "112555.062500", "112556.852500", "112555.460000", "112557.250000", "112555.660000", "112557.450000", "112555.857500", "112557.647500", "112556.057500", "112557.847500", "112555.262500", "112600.652500", "112558.065000", "112559.855000", "112558.265000", "112600.055000", "112558.465000", "112600.255000", "112558.662500", "112600.452500", "112559.060000", "112600.850000", "112559.260000", "112601.050000", "112559.457500", "112601.247500", "112559.657500", "112601.447500", "112558.862500", "112600.652500", "112558.065000", "112559.855000", "112558.265000", "112600.055000", "112558.465000", "112600.255000", "112558.662500", "112600.452500", "112559.060000", "112600.850000", "112559.260000", "112601.050000", "112559.457500", "112601.247500", "112559.657500", "112601.447500", "112558.862500", "112600.652500", "112558.065000", "112559.855000", "112558.265000", "112600.055000", "112558.465000", "112600.255000", "112558.662500", "112600.452500", "112559.060000", "112600.850000", "112559.260000", "112601.050000", "112559.457500", "112601.247500", "112559.657500", "112601.447500", "112558.862500", "112600.652500", "112558.065000", "112559.855000", "112558.265000", "112600.055000", "112558.465000", "112600.255000", "112558.662500", "112600.452500", "112559.060000", "112600.850000", "112559.260000", "112601.050000", "112559.457500", "112601.247500", "112559.657500", "112601.447500", "112558.862500", "112604.252500", "112601.665000", "112603.455000", "112601.865000", "112603.655000", "112602.065000", "112603.855000", "112602.262500", "112604.052500", "112602.660000", "112604.450000", "112602.860000", "112604.650000", "112603.057500", "112604.847500", "112603.257500", "112605.047500", "112602.462500", "112604.252500", "112601.665000", "112603.455000", "112601.865000", "112603.655000", "112602.065000", "112603.855000", "112602.262500", "112604.052500", "112602.660000", "112604.450000", "112602.860000", "112604.650000", "112603.057500", "112604.847500", "112603.257500", "112605.047500", "112602.462500", "112604.252500", "112601.665000", "112603.455000", "112601.865000", "112603.655000", "112602.065000", "112603.855000", "112602.262500", "112604.052500", "112602.660000", "112604.450000", "112602.860000", "112604.650000", "112603.057500", "112604.847500", "112603.257500", "112605.047500", "112602.462500", "112604.252500", "112601.665000", "112603.455000", "112601.865000", "112603.655000", "112602.065000", "112603.855000", "112602.262500", "112604.052500", "112602.660000", "112604.450000", "112602.860000", "112604.650000", "112603.057500", "112604.847500", "112603.257500", "112605.047500", "112602.462500", "112607.852500", "112605.265000", "112607.055000", "112605.465000", "112607.255000", "112605.665000", "112607.455000", "112605.862500", "112607.652500", "112606.260000", "112608.050000", "112606.460000", "112608.250000", "112606.657500", "112608.447500", "112606.857500", "112608.647500", "112606.062500", "112607.852500", "112605.265000", "112607.055000", "112605.465000", "112607.255000", "112605.665000", "112607.455000", "112605.862500", "112607.652500", "112606.260000", "112608.050000", "112606.460000", "112608.250000", "112606.657500", "112608.447500", "112606.857500", "112608.647500", "112606.062500", "112607.852500", "112605.265000", "112607.055000", "112605.465000", "112607.255000", "112605.665000", "112607.455000", "112605.862500", "112607.652500", "112606.260000", "112608.050000", "112606.460000", "112608.250000", "112606.657500", "112608.447500", "112606.857500", "112608.647500", "112606.062500", "112607.852500", "112605.265000", "112607.055000", "112605.465000", "112607.255000", "112605.665000", "112607.455000", "112605.862500", "112607.652500", "112606.260000", "112608.050000", "112606.460000", "112608.250000", "112606.657500", "112608.447500", "112606.857500", "112608.647500", "112606.062500", "112611.452500", "112608.865000", "112610.655000", "112609.065000", "112610.855000", "112609.265000", "112611.055000", "112609.462500", "112611.252500", "112609.860000", "112611.650000", "112610.060000", "112611.850000", "112610.257500", "112612.047500", "112610.457500", "112612.247500", "112609.662500", "112611.452500", "112608.865000", "112610.655000", "112609.065000", "112610.855000", "112609.265000", "112611.055000", "112609.462500", "112611.252500", "112609.860000", "112611.650000", "112610.060000", "112611.850000", "112610.257500", "112612.047500", "112610.457500", "112612.247500", "112609.662500", "112611.452500", "112608.865000", "112610.655000", "112609.065000", "112610.855000", "112609.265000", "112611.055000", "112609.462500", "112611.252500", "112609.860000", "112611.650000", "112610.060000", "112611.850000", "112610.257500", "112612.047500", "112610.457500", "112612.247500", "112609.662500", "112611.452500", "112608.865000", "112610.655000", "112609.065000", "112610.855000", "112609.265000", "112611.055000", "112609.462500", "112611.252500", "112609.860000", "112611.650000", "112610.060000", "112611.850000", "112610.257500", "112612.047500", "112610.457500", "112612.247500", "112609.662500", "112615.052500", "112612.465000", "112614.255000", "112612.665000", "112614.455000", "112612.865000", "112614.655000", "112613.062500", "112614.852500", "112613.460000", "112615.250000", "112613.660000", "112615.450000", "112613.857500", "112615.647500", "112614.057500", "112615.847500", "112613.262500", "112615.052500", "112612.465000", "112614.255000", "112612.665000", "112614.455000", "112612.865000", "112614.655000", "112613.062500", "112614.852500", "112613.460000", "112615.250000", "112613.660000", "112615.450000", "112613.857500", "112615.647500", "112614.057500", "112615.847500", "112613.262500", "112615.052500", "112612.465000", "112614.255000", "112612.665000", "112614.455000", "112612.865000", "112614.655000", "112613.062500", "112614.852500", "112613.460000", "112615.250000", "112613.660000", "112615.450000", "112613.857500", "112615.647500", "112614.057500", "112615.847500", "112613.262500", "112615.052500", "112612.465000", "112614.255000", "112612.665000", "112614.455000", "112612.865000", "112614.655000", "112613.062500", "112614.852500", "112613.460000", "112615.250000", "112613.660000", "112615.450000", "112613.857500", "112615.647500", "112614.057500", "112615.847500", "112613.262500", "112618.652500", "112616.065000", "112617.855000", "112616.265000", "112618.055000", "112616.465000", "112618.255000", "112616.662500", "112618.452500", "112617.060000", "112618.850000", "112617.260000", "112619.050000", "112617.457500", "112619.247500", "112617.657500", "112619.447500", "112616.862500", "112618.652500", "112616.065000", "112617.855000", "112616.265000", "112618.055000", "112616.465000", "112618.255000", "112616.662500", "112618.452500", "112617.060000", "112618.850000", "112617.260000", "112619.050000", "112617.457500", "112619.247500", "112617.657500", "112619.447500", "112616.862500", "112618.652500", "112616.065000", "112617.855000", "112616.265000", "112618.055000", "112616.465000", "112618.255000", "112616.662500", "112618.452500", "112617.060000", "112618.850000", "112617.260000", "112619.050000", "112617.457500", "112619.247500", "112617.657500", "112619.447500", "112616.862500", "112618.652500", "112616.065000", "112617.855000", "112616.265000", "112618.055000", "112616.465000", "112618.255000", "112616.662500", "112618.452500", "112617.060000", "112618.850000", "112617.260000", "112619.050000", "112617.457500", "112619.247500", "112617.657500", "112619.447500", "112616.862500", "112622.252500", "112619.665000", "112621.455000", "112619.865000", "112621.655000", "112620.065000", "112621.855000", "112620.262500", "112622.052500", "112620.660000", "112622.450000", "112620.860000", "112622.650000", "112621.057500", "112622.847500", "112621.257500", "112623.047500", "112620.462500", "112622.252500", "112619.665000", "112621.455000", "112619.865000", "112621.655000", "112620.065000", "112621.855000", "112620.262500", "112622.052500", "112620.660000", "112622.450000", "112620.860000", "112622.650000", "112621.057500", "112622.847500", "112621.257500", "112623.047500", "112620.462500", "112622.252500", "112619.665000", "112621.455000", "112619.865000", "112621.655000", "112620.065000", "112621.855000", "112620.262500", "112622.052500", "112620.660000", "112622.450000", "112620.860000", "112622.650000", "112621.057500", "112622.847500", "112621.257500", "112623.047500", "112620.462500", "112622.252500", "112619.665000", "112621.455000", "112619.865000", "112621.655000", "112620.065000", "112621.855000", "112620.262500", "112622.052500", "112620.660000", "112622.450000", "112620.860000", "112622.650000", "112621.057500", "112622.847500", "112621.257500", "112623.047500", "112620.462500", "112625.852500", "112623.265000", "112625.055000", "112623.465000", "112625.255000", "112623.665000", "112625.455000", "112623.862500", "112625.652500", "112624.260000", "112626.050000", "112624.460000", "112626.250000", "112624.657500", "112626.447500", "112624.857500", "112626.647500", "112624.062500", "112625.852500", "112623.265000", "112625.055000", "112623.465000", "112625.255000", "112623.665000", "112625.455000", "112623.862500", "112625.652500", "112624.260000", "112626.050000", "112624.460000", "112626.250000", "112624.657500", "112626.447500", "112624.857500", "112626.647500", "112624.062500", "112625.852500", "112623.265000", "112625.055000", "112623.465000", "112625.255000", "112623.665000", "112625.455000", "112623.862500", "112625.652500", "112624.260000", "112626.050000", "112624.460000", "112626.250000", "112624.657500", "112626.447500", "112624.857500", "112626.647500", "112624.062500", "112625.852500", "112623.265000", "112625.055000", "112623.465000", "112625.255000", "112623.665000", "112625.455000", "112623.862500", "112625.652500", "112624.260000", "112626.050000", "112624.460000", "112626.250000", "112624.657500", "112626.447500", "112624.857500", "112626.647500", "112624.062500", "112629.452500", "112626.865000", "112628.655000", "112627.065000", "112628.855000", "112627.265000", "112629.055000", "112627.462500", "112629.252500", "112627.860000", "112629.650000", "112628.060000", "112629.850000", "112628.257500", "112630.047500", "112628.457500", "112630.247500", "112627.662500", "112629.452500", "112626.865000", "112628.655000", "112627.065000", "112628.855000", "112627.265000", "112629.055000", "112627.462500", "112629.252500", "112627.860000", "112629.650000", "112628.060000", "112629.850000", "112628.257500", "112630.047500", "112628.457500", "112630.247500", "112627.662500", "112629.452500", "112626.865000", "112628.655000", "112627.065000", "112628.855000", "112627.265000", "112629.055000", "112627.462500", "112629.252500", "112627.860000", "112629.650000", "112628.060000", "112629.850000", "112628.257500", "112630.047500", "112628.457500", "112630.247500", "112627.662500", "112629.452500", "112626.865000", "112628.655000", "112627.065000", "112628.855000", "112627.265000", "112629.055000", "112627.462500", "112629.252500", "112627.860000", "112629.650000", "112628.060000", "112629.850000", "112628.257500", "112630.047500", "112628.457500", "112630.247500", "112627.662500", "112633.052500", "112630.465000", "112632.255000", "112630.665000", "112632.455000", "112630.865000", "112632.655000", "112631.062500", "112632.852500", "112631.460000", "112633.250000", "112631.660000", "112633.450000", "112631.857500", "112633.647500", "112632.057500", "112633.847500", "112631.262500", "112633.052500", "112630.465000", "112632.255000", "112630.665000", "112632.455000", "112630.865000", "112632.655000", "112631.062500", "112632.852500", "112631.460000", "112633.250000", "112631.660000", "112633.450000", "112631.857500", "112633.647500", "112632.057500", "112633.847500", "112631.262500", "112633.052500", "112630.465000", "112632.255000", "112630.665000", "112632.455000", "112630.865000", "112632.655000", "112631.062500", "112632.852500", "112631.460000", "112633.250000", "112631.660000", "112633.450000", "112631.857500", "112633.647500", "112632.057500", "112633.847500", "112631.262500", "112633.052500", "112630.465000", "112632.255000", "112630.665000", "112632.455000", "112630.865000", "112632.655000", "112631.062500", "112632.852500", "112631.460000", "112633.250000", "112631.660000", "112633.450000", "112631.857500", "112633.647500", "112632.057500", "112633.847500", "112631.262500", "112636.652500", "112634.065000", "112635.855000", "112634.265000", "112636.055000", "112634.465000", "112636.255000", "112634.662500", "112636.452500", "112635.060000", "112636.850000", "112635.260000", "112637.050000", "112635.457500", "112637.247500", "112635.657500", "112637.447500", "112634.862500", "112636.652500", "112634.065000", "112635.855000", "112634.265000", "112636.055000", "112634.465000", "112636.255000", "112634.662500", "112636.452500", "112635.060000", "112636.850000", "112635.260000", "112637.050000", "112635.457500", "112637.247500", "112635.657500", "112637.447500", "112634.862500", "112636.652500", "112634.065000", "112635.855000", "112634.265000", "112636.055000", "112634.465000", "112636.255000", "112634.662500", "112636.452500", "112635.060000", "112636.850000", "112635.260000", "112637.050000", "112635.457500", "112637.247500", "112635.657500", "112637.447500", "112634.862500", "112636.652500", "112634.065000", "112635.855000", "112634.265000", "112636.055000", "112634.465000", "112636.255000", "112634.662500", "112636.452500", "112635.060000", "112636.850000", "112635.260000", "112637.050000", "112635.457500", "112637.247500", "112635.657500", "112637.447500", "112634.862500", "112640.252500", "112637.665000", "112639.455000", "112637.865000", "112639.655000", "112638.065000", "112639.855000", "112638.262500", "112640.052500", "112638.660000", "112640.450000", "112638.860000", "112640.650000", "112639.057500", "112640.847500", "112639.257500", "112641.047500", "112638.462500", "112640.252500", "112637.665000", "112639.455000", "112637.865000", "112639.655000", "112638.065000", "112639.855000", "112638.262500", "112640.052500", "112638.660000", "112640.450000", "112638.860000", "112640.650000", "112639.057500", "112640.847500", "112639.257500", "112641.047500", "112638.462500", "112640.252500", "112637.665000", "112639.455000", "112637.865000", "112639.655000", "112638.065000", "112639.855000", "112638.262500", "112640.052500", "112638.660000", "112640.450000", "112638.860000", "112640.650000", "112639.057500", "112640.847500", "112639.257500", "112641.047500", "112638.462500", "112640.252500", "112637.665000", "112639.455000", "112637.865000", "112639.655000", "112638.065000", "112639.855000", "112638.262500", "112640.052500", "112638.660000", "112640.450000", "112638.860000", "112640.650000", "112639.057500", "112640.847500", "112639.257500", "112641.047500", "112638.462500", "112643.852500", "112641.265000", "112643.055000", "112641.465000", "112643.255000", "112641.665000", "112643.455000", "112641.862500", "112643.652500", "112642.260000", "112644.050000", "112642.460000", "112644.250000", "112642.657500", "112644.447500", "112642.857500", "112644.647500", "112642.062500", "112643.852500", "112641.265000", "112643.055000", "112641.465000", "112643.255000", "112641.665000", "112643.455000", "112641.862500", "112643.652500", "112642.260000", "112644.050000", "112642.460000", "112644.250000", "112642.657500", "112644.447500", "112642.857500", "112644.647500", "112642.062500", "112643.852500", "112641.265000", "112643.055000", "112641.465000", "112643.255000", "112641.665000", "112643.455000", "112641.862500", "112643.652500", "112642.260000", "112644.050000", "112642.460000", "112644.250000", "112642.657500", "112644.447500", "112642.857500", "112644.647500", "112642.062500", "112643.852500", "112641.265000", "112643.055000", "112641.465000", "112643.255000", "112641.665000", "112643.455000", "112641.862500", "112643.652500", "112642.260000", "112644.050000", "112642.460000", "112644.250000", "112642.657500", "112644.447500", "112642.857500", "112644.647500", "112642.062500", "112647.452500", "112644.865000", "112646.655000", "112645.065000", "112646.855000", "112645.265000", "112647.055000", "112645.462500", "112647.252500", "112645.860000", "112647.650000", "112646.060000", "112647.850000", "112646.257500", "112648.047500", "112646.457500", "112648.247500", "112645.662500", "112647.452500", "112644.865000", "112646.655000", "112645.065000", "112646.855000", "112645.265000", "112647.055000", "112645.462500", "112647.252500", "112645.860000", "112647.650000", "112646.060000", "112647.850000", "112646.257500", "112648.047500", "112646.457500", "112648.247500", "112645.662500", "112647.452500", "112644.865000", "112646.655000", "112645.065000", "112646.855000", "112645.265000", "112647.055000", "112645.462500", "112647.252500", "112645.860000", "112647.650000", "112646.060000", "112647.850000", "112646.257500", "112648.047500", "112646.457500", "112648.247500", "112645.662500", "112647.452500", "112644.865000", "112646.655000", "112645.065000", "112646.855000", "112645.265000", "112647.055000", "112645.462500", "112647.252500", "112645.860000", "112647.650000", "112646.060000", "112647.850000", "112646.257500", "112648.047500", "112646.457500", "112648.247500", "112645.662500", "112651.052500", "112648.465000", "112650.255000", "112648.665000", "112650.455000", "112648.865000", "112650.655000", "112649.062500", "112650.852500", "112649.460000", "112651.250000", "112649.660000", "112651.450000", "112649.857500", "112651.647500", "112650.057500", "112651.847500", "112649.262500", "112651.052500", "112648.465000", "112650.255000", "112648.665000", "112650.455000", "112648.865000", "112650.655000", "112649.062500", "112650.852500", "112649.460000", "112651.250000", "112649.660000", "112651.450000", "112649.857500", "112651.647500", "112650.057500", "112651.847500", "112649.262500", "112651.052500", "112648.465000", "112650.255000", "112648.665000", "112650.455000", "112648.865000", "112650.655000", "112649.062500", "112650.852500", "112649.460000", "112651.250000", "112649.660000", "112651.450000", "112649.857500", "112651.647500", "112650.057500", "112651.847500", "112649.262500", "112651.052500", "112648.465000", "112650.255000", "112648.665000", "112650.455000", "112648.865000", "112650.655000", "112649.062500", "112650.852500", "112649.460000", "112651.250000", "112649.660000", "112651.450000", "112649.857500", "112651.647500", "112650.057500", "112651.847500", "112649.262500", "112654.652500", "112652.065000", "112653.855000", "112652.265000", "112654.055000", "112652.465000", "112654.255000", "112652.662500", "112654.452500", "112653.060000", "112654.850000", "112653.260000", "112655.050000", "112653.457500", "112655.247500", "112653.657500", "112655.447500", "112652.862500", "112654.652500", "112652.065000", "112653.855000", "112652.265000", "112654.055000", "112652.465000", "112654.255000", "112652.662500", "112654.452500", "112653.060000", "112654.850000", "112653.260000", "112655.050000", "112653.457500", "112655.247500", "112653.657500", "112655.447500", "112652.862500", "112654.652500", "112652.065000", "112653.855000", "112652.265000", "112654.055000", "112652.465000", "112654.255000", "112652.662500", "112654.452500", "112653.060000", "112654.850000", "112653.260000", "112655.050000", "112653.457500", "112655.247500", "112653.657500", "112655.447500", "112652.862500", "112654.652500", "112652.065000", "112653.855000", "112652.265000", "112654.055000", "112652.465000", "112654.255000", "112652.662500", "112654.452500", "112653.060000", "112654.850000", "112653.260000", "112655.050000", "112653.457500", "112655.247500", "112653.657500", "112655.447500", "112652.862500", "112658.252500", "112655.665000", "112657.455000", "112655.865000", "112657.655000", "112656.065000", "112657.855000", "112656.262500", "112658.052500", "112656.660000", "112658.450000", "112656.860000", "112658.650000", "112657.057500", "112658.847500", "112657.257500", "112659.047500", "112656.462500", "112658.252500", "112655.665000", "112657.455000", "112655.865000", "112657.655000", "112656.065000", "112657.855000", "112656.262500", "112658.052500", "112656.660000", "112658.450000", "112656.860000", "112658.650000", "112657.057500", "112658.847500", "112657.257500", "112659.047500", "112656.462500", "112658.252500", "112655.665000", "112657.455000", "112655.865000", "112657.655000", "112656.065000", "112657.855000", "112656.262500", "112658.052500", "112656.660000", "112658.450000", "112656.860000", "112658.650000", "112657.057500", "112658.847500", "112657.257500", "112659.047500", "112656.462500", "112658.252500", "112655.665000", "112657.455000", "112655.865000", "112657.655000", "112656.065000", "112657.855000", "112656.262500", "112658.052500", "112656.660000", "112658.450000", "112656.860000", "112658.650000", "112657.057500", "112658.847500", "112657.257500", "112659.047500", "112656.462500", "112701.852500", "112659.265000", "112701.055000", "112659.465000", "112701.255000", "112659.665000", "112701.455000", "112659.862500", "112701.652500", "112700.260000", "112702.050000", "112700.460000", "112702.250000", "112700.657500", "112702.447500", "112700.857500", "112702.647500", "112700.062500", "112701.852500", "112659.265000", "112701.055000", "112659.465000", "112701.255000", "112659.665000", "112701.455000", "112659.862500", "112701.652500", "112700.260000", "112702.050000", "112700.460000", "112702.250000", "112700.657500", "112702.447500", "112700.857500", "112702.647500", "112700.062500", "112701.852500", "112659.265000", "112701.055000", "112659.465000", "112701.255000", "112659.665000", "112701.455000", "112659.862500", "112701.652500", "112700.260000", "112702.050000", "112700.460000", "112702.250000", "112700.657500", "112702.447500", "112700.857500", "112702.647500", "112700.062500", "112701.852500", "112659.265000", "112701.055000", "112659.465000", "112701.255000", "112659.665000", "112701.455000", "112659.862500", "112701.652500", "112700.260000", "112702.050000", "112700.460000", "112702.250000", "112