{
  "AcquisitionMatrixPE": 80,
  "AcquisitionNumber": 1,
  "AcquisitionTime": "16:10:39.502500",
  "BandwidthPerPixelPhaseEncode": 48.077,
  "BaseResolution": 80,
  "BodyPartExamined": "BRAIN",
  "CoilCombinationMethod": "Sum of Squares",
  "ConsistencyInfo": "N4_VE11C_LATEST_20160120",
  "ConversionSoftware": "dcm2niix",
  "ConversionSoftwareVersion": "v1.0.20220720",
  "DerivedVendorReportedEchoSpacing": 0.000519999,
  "DeviceSerialNumber": "66112",
  "DwellTime": 2.7e-06,
  "EchoTime": 0.035,
  "EchoTrainLength": 39,
  "EffectiveEchoSpacing": 0.00026,
  "FlipAngle": 90,
  "HeudiconvVersion": "0.13.1",
  "ImageOrientationPatientDICOM": [0.974896, 0.222446, 0.00979729, -0.21488, 0.92838, 0.30321],
  "ImageOrientationText": "Tra>Cor(17.4)>Sag(-3.3)",
  "ImageType": [
    "ORIGINAL",
    "PRIMARY",
    "M",
    "ND",
    "NORM",
    "MOSAIC"
],
  "ImagingFrequency": 123.252,
  "InPlanePhaseEncodingDirectionDICOM": "COL",
  "InstitutionAddress": "Maynard 3,Hanover,NH,US,03755",
  "InstitutionName": "Dartmouth College - PBS",
  "InstitutionalDepartmentName": "Department",
  "MRAcquisitionType": "2D",
  "MagneticFieldStrength": 3,
  "Manufacturer": "Siemens",
  "ManufacturersModelName": "Prisma",
  "MatrixCoilMode": "GRAPPA",
  "Modality": "MR",
  "NonlinearGradientCorrection": false,
  "ParallelReductionFactorInPlane": 2,
  "PartialFourier": 1,
  "PatientPosition": "HFS",
  "PercentPhaseFOV": 100,
  "PercentSampling": 100,
  "PhaseEncodingDirection": "j-",
  "PhaseEncodingSteps": 79,
  "PhaseResolution": 1,
  "PixelBandwidth": 2315,
  "ProcedureStepDescription": "dbic^QA",
  "ProtocolName": "func-bold_task-rest_acq-p2",
  "PulseSequenceDetails": "%SiemensSeq%\\ep2d_bold",
  "ReceiveCoilActiveElements": "HEA;HEP",
  "ReceiveCoilName": "Head_32",
  "ReconMatrixPE": 80,
  "RefLinesPE": 24,
  "RepetitionTime": 2,
  "SAR": 0.0477064,
  "ScanOptions": "FS",
  "ScanningSequence": "EP",
  "SequenceName": "*epfid2d1_80",
  "SequenceVariant": "SK",
  "SeriesDescription": "func-bold_task-rest_acq-p2",
  "SeriesNumber": 5,
  "ShimSetting": [4146, -7696, -7524, 320, -19, -381, 44, 43],
  "SliceThickness": 3.5,
  "SliceTiming": [0.99, 0, 1.055, 0.0675, 1.1225, 0.1325, 1.1875, 0.1975, 1.255, 0.265, 1.32, 0.33, 1.385, 0.3975, 1.4525, 0.4625, 1.5175, 0.5275, 1.585, 0.595, 1.65, 0.66, 1.715, 0.725, 1.7825, 0.7925, 1.8475, 0.8575, 1.915, 0.925],
  "SoftwareVersions": "syngo MR E11",
  "SpacingBetweenSlices": 3.99,
  "StationName": "AWP66112",
  "TaskName": "rest",
  "TotalReadoutTime": 0.02054,
  "TxRefAmp": 237.711,
  "dcmmeta_affine": [
    [-2.924687147140503, -0.6446398496627808, -0.23282617330551147, 148.177001953125],
    [-0.6673392653465271, 2.7851412296295166, 1.1878374814987183, -93.40400695800781],
    [0.02939186990261078, -0.9096307754516602, 3.801964521408081, -15.764588356018066],
    [0.0, 0.0, 0.0, 1.0]
],
  "dcmmeta_reorient_transform": [
    [0.0, -1.0, 0.0, 79.0],
    [1.0, 0.0, 0.0, 0.0],
    [0.0, 0.0, 1.0, 0.0],
    [0.0, 0.0, 0.0, 1.0]
],
  "dcmmeta_shape": [80, 80, 30, 200],
  "dcmmeta_slice_dim": 2,
  "dcmmeta_version": 0.6,
  "global": {
    "const": {
      "AccessionNumber": "qa",
      "AcquisitionMatrix": [80, 0, 0, 80],
      "AngioFlag": "N",
      "BitsAllocated": 16,
      "BitsStored": 12,
      "BodyPartExamined": "BRAIN",
      "Columns": 480,
      "EchoNumbers": 1,
      "EchoTime": 35.0,
      "EchoTrainLength": 39,
      "FlipAngle": 90.0,
      "HighBit": 11,
      "ImageOrientationPatient": [0.97489568836358, 0.22244642032209, 0.00979729023743, -0.2148799460391, 0.92838038771833, 0.30321026448687],
      "ImagePositionPatient": [-553.25989652348, -817.11822716599, -275.42995356165],
      "ImageType": [
        "ORIGINAL",
        "PRIMARY",
        "M",
        "ND",
        "NORM",
        "MOSAIC"
],
      "ImagedNucleus": "1H",
      "ImagingFrequency": 123.252476,
      "InPlanePhaseEncodingDirection": "COL",
      "MRAcquisitionType": "2D",
      "MagneticFieldStrength": 3.0,
      "Manufacturer": "SIEMENS",
      "ManufacturerModelName": "Prisma",
      "Modality": "MR",
      "NumberOfAverages": 1.0,
      "NumberOfPhaseEncodingSteps": 79,
      "PercentPhaseFieldOfView": 100.0,
      "PercentSampling": 100.0,
      "PerformedProcedureStepStartTime": "160919.704000",
      "PhotometricInterpretation": "MONOCHROME2",
      "PixelBandwidth": 2315.0,
      "PixelRepresentation": 0,
      "PixelSpacing": [3.0, 3.0],
      "ProtocolName": "func-bold_task-rest_acq-p2",
      "RepetitionTime": 2000.0,
      "Rows": 480,
      "SAR": 0.04770638298089,
      "SamplesPerPixel": 1,
      "ScanOptions": "FS",
      "ScanningSequence": "EP",
      "SequenceName": "*epfid2d1_80",
      "SequenceVariant": "SK",
      "SeriesDescription": "func-bold_task-rest_acq-p2",
      "SeriesNumber": 5,
      "SeriesTime": "161131.687000",
      "SliceLocation": -51.474854357515,
      "SliceThickness": 3.5,
      "SmallestImagePixelValue": 0,
      "SoftwareVersions": "syngo MR E11",
      "SpacingBetweenSlices": 3.9899999467378,
      "SpecificCharacterSet": "ISO_IR 100",
      "StudyID": "47",
      "StudyTime": "160919.656000",
      "TransmitCoilName": "Body",
      "VariableFlipAngleFlag": "N",
      "WindowCenterWidthExplanation": "Algo1",
      "dBdt": 0.0},
    "slices": {}
  },
  "time": {
    "samples": {
      "AcquisitionNumber": [1, 2, 3, 4, 5, 6, 7, 8, 9, 10, 11, 12, 13, 14, 15, 16, 17, 18, 19, 20, 21, 22, 23, 24, 25, 26, 27, 28, 29, 30, 31, 32, 33, 34, 35, 36, 37, 38, 39, 40, 41, 42, 43, 44, 45, 46, 47, 48, 49, 50, 51, 52, 53, 54, 55, 56, 57, 58, 59, 60, 61, 62, 63, 64, 65, 66, 67, 68, 69, 70, 71, 72, 73, 74, 75, 76, 77, 78, 79, 80, 81, 82, 83, 84, 85, 86, 87, 88, 89, 90, 91, 92, 93, 94, 95, 96, 97, 98, 99, 100, 101, 102, 103, 104, 105, 106, 107, 108, 109, 110, 111, 112, 113, 114, 115, 116, 117, 118, 119, 120, 121, 122, 123, 124, 125, 126, 127, 128, 129, 130, 131, 132, 133, 134, 135, 136, 137, 138, 139, 140, 141, 142, 143, 144, 145, 146, 147, 148, 149, 150, 151, 152, 153, 154, 155, 156, 157, 158, 159, 160, 161, 162, 163, 164, 165, 166, 167, 168, 169, 170, 171, 172, 173, 174, 175, 176, 177, 178, 179, 180, 181, 182, 183, 184, 185, 186, 187, 188, 189, 190, 191, 192, 193, 194, 195, 196, 197, 198, 199, 200],
      "AcquisitionTime": ["161039.502500", "161041.502500", "161043.502500", "161045.502500", "161047.502500", "161049.502500", "161051.502500", "161053.502500", "161055.502500", "161057.502500", "161059.502500", "161101.502500", "161103.502500", "161105.502500", "161107.502500", "161109.502500", "161111.502500", "161113.502500", "161115.502500", "161117.502500", "161119.502500", "161121.502500", "161123.502500", "161125.502500", "161127.502500", "161129.502500", "161131.502500", "161133.502500", "161135.502500", "161137.502500", "161139.502500", "161141.502500", "161143.502500", "161145.502500", "161147.502500", "161149.502500", "161151.502500", "161153.502500", "161155.502500", "161157.502500", "161159.502500", "161201.502500", "161203.502500", "161205.502500", "161207.502500", "161209.502500", "161211.502500", "161213.502500", "161215.502500", "161217.502500", "161219.502500", "161221.502500", "161223.502500", "161225.502500", "161227.502500", "161229.502500", "161231.502500", "161233.502500", "161235.502500", "161237.502500", "161239.502500", "161241.502500", "161243.502500", "161245.502500", "161247.502500", "161249.502500", "161251.502500", "161253.502500", "161255.502500", "161257.502500", "161259.502500", "161301.502500", "161303.502500", "161305.502500", "161307.502500", "161309.502500", "161311.502500", "161313.502500", "161315.502500", "161317.502500", "161319.502500", "161321.502500", "161323.502500", "161325.502500", "161327.502500", "161329.502500", "161331.502500", "161333.502500", "161335.502500", "161337.502500", "161339.502500", "161341.502500", "161343.502500", "161345.502500", "161347.502500", "161349.502500", "161351.502500", "161353.502500", "161355.502500", "161357.502500", "161359.502500", "161401.502500", "161403.502500", "161405.502500", "161407.502500", "161409.502500", "161411.502500", "161413.502500", "161415.502500", "161417.502500", "161419.502500", "161421.502500", "161423.502500", "161425.502500", "161427.502500", "161429.502500", "161431.502500", "161433.502500", "161435.502500", "161437.502500", "161439.502500", "161441.502500", "161443.502500", "161445.502500", "161447.502500", "161449.502500", "161451.502500", "161453.502500", "161455.502500", "161457.502500", "161459.502500", "161501.502500", "161503.502500", "161505.502500", "161507.502500", "161509.502500", "161511.502500", "161513.502500", "161515.502500", "161517.502500", "161519.502500", "161521.502500", "161523.502500", "161525.502500", "161527.502500", "161529.502500", "161531.502500", "161533.502500", "161535.502500", "161537.502500", "161539.502500", "161541.502500", "161543.502500", "161545.502500", "161547.502500", "161549.502500", "161551.502500", "161553.502500", "161555.502500", "161557.502500", "161559.502500", "161601.502500", "161603.502500", "161605.502500", "161607.502500", "161609.502500", "161611.502500", "161613.502500", "161615.502500", "161617.502500", "161619.502500", "161621.502500", "161623.502500", "161625.502500", "161627.502500", "161629.502500", "161631.502500", "161633.502500", "161635.502500", "161637.502500", "161639.502500", "161641.502500", "161643.502500", "161645.502500", "161647.502500", "161649.502500", "161651.502500", "161653.502500", "161655.502500", "161657.502500", "161659.502500", "161701.502500", "161703.502500", "161705.502500", "161707.502500", "161709.502500", "161711.502500", "161713.502500", "161715.502500", "161717.502500"],
      "ContentTime": ["161131.690000", "161131.693000", "161131.696000", "161131.699000", "161131.701000", "161131.704000", "161131.706000", "161131.709000", "161131.711000", "161131.714000", "161131.716000", "161131.719000", "161131.721000", "161131.724000", "161131.726000", "161131.729000", "161131.731000", "161131.734000", "161131.736000", "161131.739000", "161131.742000", "161131.744000", "161131.747000", "161131.749000", "161131.752000", "161131.754000", "161211.686000", "161211.689000", "161211.692000", "161211.694000", "161211.697000", "161211.699000", "161211.702000", "161211.704000", "161211.707000", "161211.709000", "161211.712000", "161211.715000", "161211.717000", "161211.720000", "161211.722000", "161211.725000", "161211.727000", "161211.730000", "161211.732000", "161211.735000", "161251.685000", "161251.688000", "161251.691000", "161251.693000", "161251.696000", "161251.698000", "161251.701000", "161251.703000", "161251.706000", "161251.708000", "161251.711000", "161251.713000", "161251.716000", "161251.719000", "161251.721000", "161251.724000", "161251.726000", "161251.729000", "161251.731000", "161251.734000", "161331.685000", "161331.688000", "161331.691000", "161331.693000", "161331.696000", "161331.698000", "161331.701000", "161331.703000", "161331.706000", "161331.709000", "161331.711000", "161331.714000", "161331.716000", "161331.719000", "161331.721000", "161331.724000", "161331.726000", "161331.729000", "161331.731000", "161331.734000", "161411.686000", "161411.689000", "161411.692000", "161411.694000", "161411.697000", "161411.699000", "161411.702000", "161411.704000", "161411.707000", "161411.710000", "161411.712000", "161411.715000", "161411.717000", "161411.720000", "161411.722000", "161411.725000", "161411.727000", "161411.730000", "161411.732000", "161411.735000", "161451.685000", "161451.688000", "161451.691000", "161451.693000", "161451.696000", "161451.698000", "161451.701000", "161451.703000", "161451.706000", "161451.708000", "161451.711000", "161451.714000", "161451.716000", "161451.719000", "161451.721000", "161451.724000", "161451.726000", "161451.729000", "161451.731000", "161451.734000", "161531.685000", "161531.688000", "161531.691000", "161531.693000", "161531.696000", "161531.699000", "161531.701000", "161531.704000", "161531.706000", "161531.709000", "161531.711000", "161531.714000", "161531.716000", "161531.719000", "161531.721000", "161531.724000", "161531.726000", "161531.729000", "161531.731000", "161531.734000", "161611.685000", "161611.688000", "161611.691000", "161611.693000", "161611.696000", "161611.698000", "161611.701000", "161611.703000", "161611.706000", "161611.709000", "161611.711000", "161611.714000", "161611.716000", "161611.719000", "161611.721000", "161611.724000", "161611.726000", "161611.729000", "161611.731000", "161611.734000", "161651.686000", "161651.689000", "161651.692000", "161651.694000", "161651.697000", "161651.699000", "161651.702000", "161651.704000", "161651.707000", "161651.710000", "161651.712000", "161651.715000", "161651.717000", "161651.720000", "161651.722000", "161651.725000", "161651.727000", "161651.730000", "161651.732000", "161651.735000", "161719.381000", "161719.383000", "161719.386000", "161719.389000", "161719.391000", "161719.394000", "161719.397000", "161719.399000", "161719.402000", "161719.404000", "161719.407000", "161719.410000", "161719.415000", "161719.418000"],
      "InstanceCreationTime": ["161131.690000", "161131.693000", "161131.696000", "161131.699000", "161131.701000", "161131.704000", "161131.706000", "161131.709000", "161131.711000", "161131.714000", "161131.716000", "161131.719000", "161131.721000", "161131.724000", "161131.726000", "161131.729000", "161131.731000", "161131.734000", "161131.736000", "161131.739000", "161131.742000", "161131.744000", "161131.747000", "161131.749000", "161131.752000", "161131.754000", "161211.686000", "161211.689000", "161211.692000", "161211.694000", "161211.697000", "161211.699000", "161211.702000", "161211.704000", "161211.707000", "161211.709000", "161211.712000", "161211.715000", "161211.717000", "161211.720000", "161211.722000", "161211.725000", "161211.727000", "161211.730000", "161211.732000", "161211.735000", "161251.685000", "161251.688000", "161251.691000", "161251.693000", "161251.696000", "161251.698000", "161251.701000", "161251.703000", "161251.706000", "161251.708000", "161251.711000", "161251.713000", "161251.716000", "161251.719000", "161251.721000", "161251.724000", "161251.726000", "161251.729000", "161251.731000", "161251.734000", "161331.685000", "161331.688000", "161331.691000", "161331.693000", "161331.696000", "161331.698000", "161331.701000", "161331.703000", "161331.706000", "161331.709000", "161331.711000", "161331.714000", "161331.716000", "161331.719000", "161331.721000", "161331.724000", "161331.726000", "161331.729000", "161331.731000", "161331.734000", "161411.686000", "161411.689000", "161411.692000", "161411.694000", "161411.697000", "161411.699000", "161411.702000", "161411.704000", "161411.707000", "161411.710000", "161411.712000", "161411.715000", "161411.717000", "161411.720000", "161411.722000", "161411.725000", "161411.727000", "161411.730000", "161411.732000", "161411.735000", "161451.685000", "161451.688000", "161451.691000", "161451.693000", "161451.696000", "161451.698000", "161451.701000", "161451.703000", "161451.706000", "161451.708000", "161451.711000", "161451.714000", "161451.716000", "161451.719000", "161451.721000", "161451.724000", "161451.726000", "161451.729000", "161451.731000", "161451.734000", "161531.685000", "161531.688000", "161531.691000", "161531.693000", "161531.696000", "161531.699000", "161531.701000", "161531.704000", "161531.706000", "161531.709000", "161531.711000", "161531.714000", "161531.716000", "161531.719000", "161531.721000", "161531.724000", "161531.726000", "161531.729000", "161531.731000", "161531.734000", "161611.685000", "161611.688000", "161611.691000", "161611.693000", "161611.696000", "161611.698000", "161611.701000", "161611.703000", "161611.706000", "161611.709000", "161611.711000", "161611.714000", "161611.716000", "161611.719000", "161611.721000", "161611.724000", "161611.726000", "161611.729000", "161611.731000", "161611.734000", "161651.686000", "161651.689000", "161651.692000", "161651.694000", "161651.697000", "161651.699000", "161651.702000", "161651.704000", "161651.707000", "161651.710000", "161651.712000", "161651.715000", "161651.717000", "161651.720000", "161651.722000", "161651.725000", "161651.727000", "161651.730000", "161651.732000", "161651.735000", "161719.381000", "161719.383000", "161719.386000", "161719.389000", "161719.391000", "161719.394000", "161719.397000", "161719.399000", "161719.402000", "161719.404000", "161719.407000", "161719.410000", "161719.415000", "161719.418000"],
      "InstanceNumber": [1, 2, 3, 4, 5, 6, 7, 8, 9, 10, 11, 12, 13, 14, 15, 16, 17, 18, 19, 20, 21, 22, 23, 24, 25, 26, 27, 28, 29, 30, 31, 32, 33, 34, 35, 36, 37, 38, 39, 40, 41, 42, 43, 44, 45, 46, 47, 48, 49, 50, 51, 52, 53, 54, 55, 56, 57, 58, 59, 60, 61, 62, 63, 64, 65, 66, 67, 68, 69, 70, 71, 72, 73, 74, 75, 76, 77, 78, 79, 80, 81, 82, 83, 84, 85, 86, 87, 88, 89, 90, 91, 92, 93, 94, 95, 96, 97, 98, 99, 100, 101, 102, 103, 104, 105, 106, 107, 108, 109, 110, 111, 112, 113, 114, 115, 116, 117, 118, 119, 120, 121, 122, 123, 124, 125, 126, 127, 128, 129, 130, 131, 132, 133, 134, 135, 136, 137, 138, 139, 140, 141, 142, 143, 144, 145, 146, 147, 148, 149, 150, 151, 152, 153, 154, 155, 156, 157, 158, 159, 160, 161, 162, 163, 164, 165, 166, 167, 168, 169, 170, 171, 172, 173, 174, 175, 176, 177, 178, 179, 180, 181, 182, 183, 184, 185, 186, 187, 188, 189, 190, 191, 192, 193, 194, 195, 196, 197, 198, 199, 200],
      "LargestImagePixelValue": [2285, 2296, 2287, 2282, 2291, 2285, 2289, 2284, 2287, 2281, 2290, 2295, 2291, 2289, 2289, 2307, 2304, 2282, 2298, 2289, 2288, 2297, 2297, 2291, 2291, 2288, 2298, 2292, 2302, 2288, 2294, 2294, 2283, 2275, 2284, 2283, 2294, 2293, 2292, 2300, 2298, 2292, 2301, 2299, 2298, 2301, 2281, 2290, 2299, 2289, 2289, 2298, 2295, 2287, 2287, 2284, 2274, 2276, 2283, 2285, 2277, 2298, 2280, 2281, 2289, 2278, 2283, 2265, 2290, 2297, 2285, 2274, 2285, 2286, 2284, 2294, 2290, 2280, 2287, 2284, 2294, 2282, 2288, 2288, 2290, 2288, 2287, 2278, 2292, 2282, 2274, 2284, 2294, 2302, 2284, 2294, 2289, 2275, 2273, 2283, 2288, 2286, 2279, 2282, 2283, 2283, 2285, 2286, 2299, 2281, 2274, 2275, 2287, 2287, 2283, 2286, 2274, 2265, 2274, 2281, 2268, 2278, 2283, 2274, 2290, 2282, 2271, 2282, 2262, 2280, 2276, 2283, 2279, 2283, 2273, 2276, 2285, 2295, 2276, 2265, 2274, 2287, 2276, 2274, 2273, 2274, 2285, 2295, 2283, 2291, 2270, 2277, 2283, 2286, 2278, 2275, 2283, 2266, 2281, 2273, 2264, 2274, 2268, 2278, 2277, 2275, 2271, 2278, 2278, 2293, 2271, 2269, 2277, 2281, 2266, 2262, 2273, 2288, 2268, 2282, 2281, 2267, 2280, 2290, 2280, 2273, 2278, 2277, 2282, 2283, 2281, 2283, 2278, 2281, 2289, 2280, 2289, 2284, 2289, 2279],
      "WindowCenter": [1027.0, 1027.0, 1027.0, 1027.0, 1027.0, 1027.0, 1027.0, 1027.0, 1027.0, 1027.0, 1027.0, 1027.0, 1027.0, 1027.0, 1027.0, 1027.0, 1027.0, 1027.0, 1027.0, 1027.0, 1027.0, 1027.0, 1027.0, 1027.0, 1027.0, 1027.0, 1027.0, 1027.0, 1027.0, 1027.0, 1027.0, 1027.0, 1027.0, 1027.0, 1027.0, 1027.0, 1027.0, 1027.0, 1027.0, 1027.0, 1027.0, 1027.0, 1027.0, 1027.0, 1027.0, 1027.0, 1027.0, 1027.0, 1027.0, 1027.0, 1027.0, 1027.0, 1027.0, 1027.0, 1027.0, 1027.0, 1027.0, 1027.0, 1027.0, 1027.0, 1027.0, 1027.0, 1027.0, 1027.0, 1027.0, 1027.0, 1026.0, 1027.0, 1027.0, 1026.0, 1027.0, 1027.0, 1027.0, 1026.0, 1026.0, 1026.0, 1027.0, 1027.0, 1026.0, 1027.0, 1026.0, 1027.0, 1026.0, 1026.0, 1026.0, 1026.0, 1026.0, 1026.0, 1026.0, 1026.0, 1026.0, 1026.0, 1026.0, 1026.0, 1026.0, 1026.0, 1026.0, 1026.0, 1026.0, 1026.0, 1026.0, 1026.0, 1026.0, 1026.0, 1026.0, 1026.0, 1026.0, 1026.0, 1026.0, 1026.0, 1026.0, 1026.0, 1026.0, 1026.0, 1026.0, 1026.0, 1026.0, 1026.0, 1026.0, 1026.0, 1026.0, 1026.0, 1026.0, 1026.0, 1026.0, 1026.0, 1026.0, 1026.0, 1026.0, 1026.0, 1026.0, 1026.0, 1026.0, 1026.0, 1026.0, 1026.0, 1026.0, 1026.0, 1026.0, 1026.0, 1026.0, 1026.0, 1026.0, 1026.0, 1026.0, 1026.0, 1026.0, 1026.0, 1026.0, 1026.0, 1026.0, 1026.0, 1026.0, 1026.0, 1026.0, 1026.0, 1026.0, 1026.0, 1026.0, 1026.0, 1026.0, 1026.0, 1026.0, 1026.0, 1026.0, 1026.0, 1026.0, 1026.0, 1026.0, 1026.0, 1026.0, 1026.0, 1026.0, 1026.0, 1026.0, 1026.0, 1026.0, 1026.0, 1026.0, 1026.0, 1026.0, 1026.0, 1026.0, 1026.0, 1026.0, 1026.0, 1026.0, 1026.0, 1026.0, 1026.0, 1026.0, 1026.0, 1026.0, 1026.0, 1026.0, 1026.0, 1026.0, 1026.0, 1026.0, 1026.0],
      "WindowWidth": [2283.0, 2283.0, 2283.0, 2283.0, 2283.0, 2283.0, 2283.0, 2283.0, 2283.0, 2283.0, 2282.0, 2282.0, 2282.0, 2282.0, 2282.0, 2282.0, 2282.0, 2282.0, 2282.0, 2282.0, 2281.0, 2282.0, 2282.0, 2282.0, 2281.0, 2281.0, 2281.0, 2281.0, 2281.0, 2281.0, 2281.0, 2281.0, 2281.0, 2281.0, 2281.0, 2281.0, 2281.0, 2281.0, 2281.0, 2281.0, 2281.0, 2281.0, 2281.0, 2281.0, 2281.0, 2281.0, 2281.0, 2281.0, 2281.0, 2281.0, 2281.0, 2281.0, 2281.0, 2281.0, 2280.0, 2281.0, 2281.0, 2281.0, 2281.0, 2281.0, 2281.0, 2281.0, 2281.0, 2281.0, 2281.0, 2281.0, 2281.0, 2281.0, 2281.0, 2281.0, 2281.0, 2281.0, 2281.0, 2281.0, 2281.0, 2281.0, 2281.0, 2281.0, 2281.0, 2281.0, 2281.0, 2281.0, 2281.0, 2281.0, 2281.0, 2281.0, 2281.0, 2281.0, 2282.0, 2281.0, 2281.0, 2281.0, 2281.0, 2281.0, 2281.0, 2281.0, 2281.0, 2281.0, 2281.0, 2281.0, 2281.0, 2281.0, 2281.0, 2281.0, 2281.0, 2281.0, 2281.0, 2281.0, 2281.0, 2281.0, 2281.0, 2281.0, 2281.0, 2281.0, 2281.0, 2281.0, 2281.0, 2281.0, 2281.0, 2281.0, 2281.0, 2281.0, 2281.0, 2281.0, 2281.0, 2281.0, 2281.0, 2281.0, 2281.0, 2281.0, 2281.0, 2281.0, 2281.0, 2281.0, 2281.0, 2281.0, 2281.0, 2281.0, 2281.0, 2281.0, 2281.0, 2281.0, 2281.0, 2281.0, 2281.0, 2281.0, 2281.0, 2281.0, 2281.0, 2281.0, 2281.0, 2281.0, 2281.0, 2281.0, 2281.0, 2281.0, 2281.0, 2281.0, 2281.0, 2281.0, 2281.0, 2281.0, 2281.0, 2281.0, 2281.0, 2281.0, 2281.0, 2282.0, 2281.0, 2281.0, 2281.0, 2282.0, 2281.0, 2282.0, 2281.0, 2281.0, 2282.0, 2282.0, 2281.0, 2281.0, 2281.0, 2281.0, 2282.0, 2282.0, 2282.0, 2282.0, 2282.0, 2282.0, 2282.0, 2282.0, 2282.0, 2281.0, 2282.0, 2282.0, 2282.0, 2282.0, 2282.0, 2282.0, 2282.0, 2282.0]
    },
    "slices": {}
  }
}