{
  "AcquisitionMatrixPE": 80,
  "AcquisitionNumber": 1,
  "AcquisitionTime": "09:39:15.145000",
  "BandwidthPerPixelPhaseEncode": 44.643,
  "BaseResolution": 80,
  "BodyPartExamined": "BRAIN",
  "CoilCombinationMethod": "Sum of Squares",
  "ConsistencyInfo": "N4_VE11C_LATEST_20160120",
  "ConversionSoftware": "dcm2niix",
  "ConversionSoftwareVersion": "v1.0.20220720",
  "DerivedVendorReportedEchoSpacing": 0.000559998,
  "DeviceSerialNumber": "66112",
  "DwellTime": 2.7e-06,
  "EchoTime": 0.035,
  "EchoTrainLength": 39,
  "EffectiveEchoSpacing": 0.000279999,
  "FlipAngle": 90,
  "HeudiconvVersion": "0.13.1",
  "ImageOrientationPatientDICOM": [0.969541, 0.244375, 0.0164741, -0.237604, 0.922083, 0.305461],
  "ImageOrientationText": "Tra>Cor(17.5)>Sag(-3.4)",
  "ImageType": [
    "ORIGINAL",
    "PRIMARY",
    "M",
    "ND",
    "NORM",
    "MOSAIC"
],
  "ImagingFrequency": 123.252,
  "InPlanePhaseEncodingDirectionDICOM": "COL",
  "InstitutionAddress": "Maynard 3,Hanover,NH,US,03755",
  "InstitutionName": "Dartmouth College - PBS",
  "InstitutionalDepartmentName": "Department",
  "MRAcquisitionType": "2D",
  "MagneticFieldStrength": 3,
  "Manufacturer": "Siemens",
  "ManufacturersModelName": "Prisma",
  "Modality": "MR",
  "MultibandAccelerationFactor": 4,
  "NonlinearGradientCorrection": false,
  "ParallelReductionFactorInPlane": 2,
  "PartialFourier": 1,
  "PatientPosition": "HFS",
  "PercentPhaseFOV": 100,
  "PercentSampling": 100,
  "PhaseEncodingDirection": "j-",
  "PhaseEncodingSteps": 79,
  "PhaseResolution": 1,
  "PixelBandwidth": 2315,
  "ProcedureStepDescription": "dbic^QA",
  "ProtocolName": "func-bold_task-rest_acq-p2-s4-3.5mm",
  "PulseSequenceDetails": "%SiemensSeq%\\ep2d_bold",
  "ReceiveCoilActiveElements": "HEA;HEP",
  "ReceiveCoilName": "Head_32",
  "ReconMatrixPE": 80,
  "RefLinesPE": 24,
  "RepetitionTime": 2,
  "SAR": 0.0208645,
  "ScanOptions": "FS",
  "ScanningSequence": "EP",
  "SequenceName": "*epfid2d1_80",
  "SequenceVariant": "SK",
  "SeriesDescription": "func-bold_task-rest_acq-p2-s4-3.5mm",
  "SeriesNumber": 7,
  "ShimSetting": [4142, -7696, -7516, 304, -9, -156, -61, 32],
  "SliceThickness": 3.5,
  "SliceTiming": [1.485, 0, 0.99, 0.2475, 1.2375, 0.7425, 1.7325, 0.495, 1.485, 0, 0.99, 0.2475, 1.2375, 0.7425, 1.7325, 0.495, 1.485, 0, 0.99, 0.2475, 1.2375, 0.7425, 1.7325, 0.495, 1.485, 0, 0.99, 0.2475, 1.2375, 0.7425, 1.7325, 0.495],
  "SoftwareVersions": "syngo MR E11",
  "SpacingBetweenSlices": 3.99,
  "StationName": "AWP66112",
  "TaskName": "rest",
  "TotalReadoutTime": 0.0221199,
  "TxRefAmp": 234.098,
  "dcmmeta_affine": [
    [-2.9086222648620605, -0.7128114700317383, -0.23723208904266357, 156.59579467773438],
    [-0.7331258654594421, 2.7662506103515625, 1.19728422164917, -91.95172882080078],
    [0.04942217841744423, -0.9163830280303955, 3.7987277507781982, -28.741025924682617],
    [0.0, 0.0, 0.0, 1.0]
],
  "dcmmeta_reorient_transform": [
    [0.0, -1.0, 0.0, 79.0],
    [1.0, 0.0, 0.0, 0.0],
    [0.0, 0.0, 1.0, 0.0],
    [0.0, 0.0, 0.0, 1.0]
],
  "dcmmeta_shape": [80, 80, 32, 200],
  "dcmmeta_slice_dim": 2,
  "dcmmeta_version": 0.6,
  "global": {
    "const": {
      "AccessionNumber": "qa",
      "AcquisitionMatrix": [80, 0, 0, 80],
      "AngioFlag": "N",
      "BitsAllocated": 16,
      "BitsStored": 12,
      "BodyPartExamined": "BRAIN",
      "Columns": 480,
      "EchoNumbers": 1,
      "EchoTime": 35.0,
      "EchoTrainLength": 39,
      "FlipAngle": 90.0,
      "HighBit": 11,
      "ImageOrientationPatient": [0.96954078202122, 0.24437527974387, 0.01647405984527, -0.2376038241173, 0.92208350448045, 0.30546101802014],
      "ImagePositionPatient": [-539.44586548919, -826.45733166818, -294.29633452379],
      "ImageType": [
        "ORIGINAL",
        "PRIMARY",
        "M",
        "ND",
        "NORM",
        "MOSAIC"
],
      "ImagedNucleus": "1H",
      "ImagingFrequency": 123.252453,
      "InPlanePhaseEncodingDirection": "COL",
      "MRAcquisitionType": "2D",
      "MagneticFieldStrength": 3.0,
      "Manufacturer": "SIEMENS",
      "ManufacturerModelName": "Prisma",
      "Modality": "MR",
      "NumberOfAverages": 1.0,
      "NumberOfPhaseEncodingSteps": 79,
      "PercentPhaseFieldOfView": 100.0,
      "PercentSampling": 100.0,
      "PerformedProcedureStepStartTime": "092603.955000",
      "PhotometricInterpretation": "MONOCHROME2",
      "PixelBandwidth": 2315.0,
      "PixelRepresentation": 0,
      "PixelSpacing": [3.0, 3.0],
      "ProtocolName": "func-bold_task-rest_acq-p2-s4-3.5mm",
      "RepetitionTime": 2000.0,
      "Rows": 480,
      "SAR": 0.02086447177872,
      "SamplesPerPixel": 1,
      "ScanOptions": "FS",
      "ScanningSequence": "EP",
      "SequenceName": "*epfid2d1_80",
      "SequenceVariant": "SK",
      "SeriesDescription": "func-bold_task-rest_acq-p2-s4-3.5mm",
      "SeriesNumber": 7,
      "SeriesTime": "094004.335000",
      "SliceLocation": -64.265971601703,
      "SliceThickness": 3.5,
      "SmallestImagePixelValue": 0,
      "SoftwareVersions": "syngo MR E11",
      "SpacingBetweenSlices": 3.9900000875729,
      "SpecificCharacterSet": "ISO_IR 100",
      "StudyID": "73",
      "StudyTime": "092603.811000",
      "TransmitCoilName": "Body",
      "VariableFlipAngleFlag": "N",
      "WindowCenter": 929.0,
      "WindowCenterWidthExplanation": "Algo1",
      "dBdt": 0.0},
    "slices": {}
  },
  "time": {
    "samples": {
      "AcquisitionNumber": [1, 2, 3, 4, 5, 6, 7, 8, 9, 10, 11, 12, 13, 14, 15, 16, 17, 18, 19, 20, 21, 22, 23, 24, 25, 26, 27, 28, 29, 30, 31, 32, 33, 34, 35, 36, 37, 38, 39, 40, 41, 42, 43, 44, 45, 46, 47, 48, 49, 50, 51, 52, 53, 54, 55, 56, 57, 58, 59, 60, 61, 62, 63, 64, 65, 66, 67, 68, 69, 70, 71, 72, 73, 74, 75, 76, 77, 78, 79, 80, 81, 82, 83, 84, 85, 86, 87, 88, 89, 90, 91, 92, 93, 94, 95, 96, 97, 98, 99, 100, 101, 102, 103, 104, 105, 106, 107, 108, 109, 110, 111, 112, 113, 114, 115, 116, 117, 118, 119, 120, 121, 122, 123, 124, 125, 126, 127, 128, 129, 130, 131, 132, 133, 134, 135, 136, 137, 138, 139, 140, 141, 142, 143, 144, 145, 146, 147, 148, 149, 150, 151, 152, 153, 154, 155, 156, 157, 158, 159, 160, 161, 162, 163, 164, 165, 166, 167, 168, 169, 170, 171, 172, 173, 174, 175, 176, 177, 178, 179, 180, 181, 182, 183, 184, 185, 186, 187, 188, 189, 190, 191, 192, 193, 194, 195, 196, 197, 198, 199, 200],
      "AcquisitionTime": ["093915.145000", "093917.145000", "093919.145000", "093921.145000", "093923.145000", "093925.145000", "093927.145000", "093929.145000", "093931.145000", "093933.145000", "093935.145000", "093937.145000", "093939.145000", "093941.145000", "093943.145000", "093945.145000", "093947.145000", "093949.145000", "093951.145000", "093953.145000", "093955.145000", "093957.145000", "093959.145000", "094001.145000", "094003.145000", "094005.145000", "094007.145000", "094009.145000", "094011.145000", "094013.145000", "094015.145000", "094017.145000", "094019.145000", "094021.145000", "094023.145000", "094025.145000", "094027.145000", "094029.145000", "094031.145000", "094033.145000", "094035.145000", "094037.145000", "094039.145000", "094041.145000", "094043.145000", "094045.145000", "094047.145000", "094049.145000", "094051.145000", "094053.145000", "094055.145000", "094057.145000", "094059.145000", "094101.145000", "094103.145000", "094105.145000", "094107.145000", "094109.145000", "094111.145000", "094113.145000", "094115.145000", "094117.145000", "094119.145000", "094121.145000", "094123.145000", "094125.145000", "094127.145000", "094129.145000", "094131.145000", "094133.145000", "094135.145000", "094137.145000", "094139.145000", "094141.145000", "094143.145000", "094145.145000", "094147.145000", "094149.145000", "094151.145000", "094153.145000", "094155.145000", "094157.145000", "094159.145000", "094201.145000", "094203.145000", "094205.145000", "094207.145000", "094209.145000", "094211.145000", "094213.145000", "094215.145000", "094217.145000", "094219.145000", "094221.145000", "094223.145000", "094225.145000", "094227.145000", "094229.145000", "094231.145000", "094233.145000", "094235.145000", "094237.145000", "094239.145000", "094241.145000", "094243.145000", "094245.145000", "094247.145000", "094249.145000", "094251.145000", "094253.145000", "094255.145000", "094257.145000", "094259.145000", "094301.145000", "094303.145000", "094305.145000", "094307.145000", "094309.145000", "094311.145000", "094313.145000", "094315.145000", "094317.145000", "094319.145000", "094321.145000", "094323.145000", "094325.145000", "094327.145000", "094329.145000", "094331.145000", "094333.145000", "094335.145000", "094337.145000", "094339.145000", "094341.145000", "094343.145000", "094345.145000", "094347.145000", "094349.145000", "094351.145000", "094353.145000", "094355.145000", "094357.145000", "094359.145000", "094401.145000", "094403.145000", "094405.145000", "094407.145000", "094409.145000", "094411.145000", "094413.145000", "094415.145000", "094417.145000", "094419.145000", "094421.145000", "094423.145000", "094425.145000", "094427.145000", "094429.145000", "094431.145000", "094433.145000", "094435.145000", "094437.145000", "094439.145000", "094441.145000", "094443.145000", "094445.145000", "094447.145000", "094449.145000", "094451.145000", "094453.145000", "094455.145000", "094457.145000", "094459.145000", "094501.145000", "094503.145000", "094505.145000", "094507.145000", "094509.145000", "094511.145000", "094513.145000", "094515.145000", "094517.145000", "094519.145000", "094521.145000", "094523.145000", "094525.145000", "094527.145000", "094529.145000", "094531.145000", "094533.145000", "094535.145000", "094537.145000", "094539.145000", "094541.145000", "094543.145000", "094545.145000", "094547.145000", "094549.145000", "094551.145000", "094553.145000"],
      "ContentTime": ["094004.361000", "094004.365000", "094004.376000", "094004.379000", "094004.433000", "094004.453000", "094004.456000", "094004.459000", "094004.461000", "094004.464000", "094004.467000", "094004.469000", "094004.472000", "094004.475000", "094004.486000", "094004.489000", "094004.491000", "094004.512000", "094004.515000", "094004.517000", "094004.520000", "094004.523000", "094004.526000", "094004.528000", "094044.258000", "094044.267000", "094044.270000", "094044.273000", "094044.276000", "094044.279000", "094044.281000", "094044.284000", "094044.287000", "094044.290000", "094044.292000", "094044.295000", "094044.299000", "094044.314000", "094044.317000", "094044.320000", "094044.322000", "094044.334000", "094044.337000", "094044.340000", "094124.258000", "094124.285000", "094124.288000", "094124.291000", "094124.293000", "094124.296000", "094124.299000", "094124.302000", "094124.305000", "094124.314000", "094124.316000", "094124.319000", "094124.322000", "094124.325000", "094124.327000", "094124.330000", "094124.333000", "094124.336000", "094124.338000", "094124.348000", "094204.258000", "094204.263000", "094204.266000", "094204.269000", "094204.271000", "094204.274000", "094204.277000", "094204.279000", "094204.282000", "094204.285000", "094204.288000", "094204.290000", "094204.293000", "094204.296000", "094204.298000", "094204.301000", "094204.303000", "094204.306000", "094204.309000", "094204.312000", "094244.257000", "094244.267000", "094244.270000", "094244.272000", "094244.275000", "094244.278000", "094244.280000", "094244.283000", "094244.285000", "094244.296000", "094244.298000", "094244.301000", "094244.303000", "094244.306000", "094244.309000", "094244.311000", "094244.314000", "094244.322000", "094244.324000", "094244.327000", "094324.257000", "094324.266000", "094324.269000", "094324.272000", "094324.275000", "094324.278000", "094324.280000", "094324.283000", "094324.285000", "094324.288000", "094324.291000", "094324.294000", "094324.296000", "094324.299000", "094324.302000", "094324.305000", "094324.307000", "094324.310000", "094324.312000", "094324.315000", "094404.258000", "094404.265000", "094404.267000", "094404.270000", "094404.273000", "094404.276000", "094404.278000", "094404.281000", "094404.284000", "094404.286000", "094404.289000", "094404.292000", "094404.295000", "094404.297000", "094404.300000", "094404.303000", "094404.306000", "094404.308000", "094404.311000", "094404.314000", "094444.258000", "094444.269000", "094444.272000", "094444.274000", "094444.277000", "094444.280000", "094444.282000", "094444.285000", "094444.287000", "094444.290000", "094444.293000", "094444.296000", "094444.299000", "094444.302000", "094444.304000", "094444.307000", "094444.310000", "094444.313000", "094444.315000", "094444.318000", "094524.258000", "094524.274000", "094524.276000", "094524.279000", "094524.282000", "094524.291000", "094524.293000", "094524.296000", "094524.298000", "094524.301000", "094524.304000", "094524.307000", "094524.309000", "094524.312000", "094524.315000", "094524.317000", "094524.320000", "094524.322000", "094524.325000", "094524.328000", "094555.065000", "094555.072000", "094555.075000", "094555.077000", "094555.080000", "094555.083000", "094555.086000", "094555.089000", "094555.092000", "094555.095000", "094555.100000", "094555.103000", "094555.107000", "094555.109000", "094555.112000", "094555.121000"],
      "InstanceCreationTime": ["094004.361000", "094004.365000", "094004.376000", "094004.379000", "094004.433000", "094004.453000", "094004.456000", "094004.459000", "094004.461000", "094004.464000", "094004.467000", "094004.469000", "094004.472000", "094004.475000", "094004.486000", "094004.489000", "094004.491000", "094004.512000", "094004.515000", "094004.517000", "094004.520000", "094004.523000", "094004.526000", "094004.528000", "094044.258000", "094044.267000", "094044.270000", "094044.273000", "094044.276000", "094044.279000", "094044.281000", "094044.284000", "094044.287000", "094044.290000", "094044.292000", "094044.295000", "094044.299000", "094044.314000", "094044.317000", "094044.320000", "094044.322000", "094044.334000", "094044.337000", "094044.340000", "094124.258000", "094124.285000", "094124.288000", "094124.291000", "094124.293000", "094124.296000", "094124.299000", "094124.302000", "094124.305000", "094124.314000", "094124.316000", "094124.319000", "094124.322000", "094124.325000", "094124.327000", "094124.330000", "094124.333000", "094124.336000", "094124.338000", "094124.348000", "094204.258000", "094204.263000", "094204.266000", "094204.269000", "094204.271000", "094204.274000", "094204.277000", "094204.279000", "094204.282000", "094204.285000", "094204.288000", "094204.290000", "094204.293000", "094204.296000", "094204.298000", "094204.301000", "094204.303000", "094204.306000", "094204.309000", "094204.312000", "094244.257000", "094244.267000", "094244.270000", "094244.272000", "094244.275000", "094244.278000", "094244.280000", "094244.283000", "094244.285000", "094244.296000", "094244.298000", "094244.301000", "094244.303000", "094244.306000", "094244.309000", "094244.311000", "094244.314000", "094244.322000", "094244.324000", "094244.327000", "094324.257000", "094324.266000", "094324.269000", "094324.272000", "094324.275000", "094324.278000", "094324.280000", "094324.283000", "094324.285000", "094324.288000", "094324.291000", "094324.294000", "094324.296000", "094324.299000", "094324.302000", "094324.305000", "094324.307000", "094324.310000", "094324.312000", "094324.315000", "094404.258000", "094404.265000", "094404.267000", "094404.270000", "094404.273000", "094404.276000", "094404.278000", "094404.281000", "094404.284000", "094404.286000", "094404.289000", "094404.292000", "094404.295000", "094404.297000", "094404.300000", "094404.303000", "094404.306000", "094404.308000", "094404.311000", "094404.314000", "094444.258000", "094444.269000", "094444.272000", "094444.274000", "094444.277000", "094444.280000", "094444.282000", "094444.285000", "094444.287000", "094444.290000", "094444.293000", "094444.296000", "094444.299000", "094444.302000", "094444.304000", "094444.307000", "094444.310000", "094444.313000", "094444.315000", "094444.318000", "094524.258000", "094524.274000", "094524.276000", "094524.279000", "094524.282000", "094524.291000", "094524.293000", "094524.296000", "094524.298000", "094524.301000", "094524.304000", "094524.307000", "094524.309000", "094524.312000", "094524.315000", "094524.317000", "094524.320000", "094524.322000", "094524.325000", "094524.328000", "094555.065000", "094555.072000", "094555.075000", "094555.077000", "094555.080000", "094555.083000", "094555.086000", "094555.089000", "094555.092000", "094555.095000", "094555.100000", "094555.103000", "094555.107000", "094555.109000", "094555.112000", "094555.121000"],
      "InstanceNumber": [1, 2, 3, 4, 5, 6, 7, 8, 9, 10, 11, 12, 13, 14, 15, 16, 17, 18, 19, 20, 21, 22, 23, 24, 25, 26, 27, 28, 29, 30, 31, 32, 33, 34, 35, 36, 37, 38, 39, 40, 41, 42, 43, 44, 45, 46, 47, 48, 49, 50, 51, 52, 53, 54, 55, 56, 57, 58, 59, 60, 61, 62, 63, 64, 65, 66, 67, 68, 69, 70, 71, 72, 73, 74, 75, 76, 77, 78, 79, 80, 81, 82, 83, 84, 85, 86, 87, 88, 89, 90, 91, 92, 93, 94, 95, 96, 97, 98, 99, 100, 101, 102, 103, 104, 105, 106, 107, 108, 109, 110, 111, 112, 113, 114, 115, 116, 117, 118, 119, 120, 121, 122, 123, 124, 125, 126, 127, 128, 129, 130, 131, 132, 133, 134, 135, 136, 137, 138, 139, 140, 141, 142, 143, 144, 145, 146, 147, 148, 149, 150, 151, 152, 153, 154, 155, 156, 157, 158, 159, 160, 161, 162, 163, 164, 165, 166, 167, 168, 169, 170, 171, 172, 173, 174, 175, 176, 177, 178, 179, 180, 181, 182, 183, 184, 185, 186, 187, 188, 189, 190, 191, 192, 193, 194, 195, 196, 197, 198, 199, 200],
      "LargestImagePixelValue": [2263, 2268, 2266, 2267, 2272, 2269, 2263, 2268, 2263, 2266, 2264, 2262, 2261, 2269, 2267, 2269, 2268, 2269, 2266, 2267, 2267, 2266, 2262, 2266, 2265, 2266, 2268, 2264, 2275, 2270, 2265, 2272, 2272, 2269, 2264, 2266, 2267, 2265, 2263, 2263, 2268, 2265, 2271, 2265, 2277, 2259, 2270, 2266, 2266, 2268, 2269, 2262, 2266, 2270, 2267, 2270, 2270, 2265, 2270, 2266, 2273, 2270, 2271, 2271, 2269, 2264, 2265, 2269, 2265, 2267, 2273, 2274, 2265, 2270, 2267, 2267, 2270, 2270, 2262, 2265, 2270, 2269, 2270, 2265, 2265, 2269, 2264, 2270, 2268, 2267, 2271, 2265, 2268, 2270, 2269, 2264, 2268, 2267, 2272, 2271, 2268, 2268, 2267, 2271, 2266, 2270, 2271, 2267, 2270, 2265, 2268, 2267, 2270, 2271, 2269, 2267, 2269, 2268, 2270, 2271, 2267, 2267, 2261, 2267, 2264, 2273, 2264, 2264, 2269, 2266, 2264, 2266, 2262, 2267, 2266, 2264, 2267, 2268, 2272, 2267, 2267, 2266, 2265, 2264, 2269, 2263, 2264, 2269, 2264, 2272, 2270, 2264, 2271, 2268, 2270, 2270, 2268, 2260, 2272, 2269, 2266, 2269, 2266, 2270, 2262, 2269, 2266, 2267, 2268, 2269, 2263, 2259, 2263, 2263, 2272, 2266, 2270, 2265, 2263, 2269, 2266, 2274, 2271, 2267, 2270, 2269, 2271, 2268, 2268, 2269, 2269, 2274, 2274, 2270, 2267, 2265, 2268, 2269, 2266, 2266],
      "WindowWidth": [2124.0, 2125.0, 2125.0, 2125.0, 2124.0, 2124.0, 2124.0, 2125.0, 2124.0, 2125.0, 2124.0, 2124.0, 2124.0, 2124.0, 2124.0, 2124.0, 2125.0, 2125.0, 2125.0, 2125.0, 2124.0, 2125.0, 2124.0, 2124.0, 2124.0, 2124.0, 2124.0, 2124.0, 2125.0, 2124.0, 2125.0, 2125.0, 2124.0, 2125.0, 2124.0, 2124.0, 2125.0, 2125.0, 2125.0, 2125.0, 2124.0, 2124.0, 2125.0, 2125.0, 2125.0, 2125.0, 2125.0, 2125.0, 2125.0, 2124.0, 2124.0, 2125.0, 2125.0, 2125.0, 2125.0, 2125.0, 2125.0, 2125.0, 2125.0, 2125.0, 2125.0, 2125.0, 2125.0, 2125.0, 2125.0, 2125.0, 2125.0, 2125.0, 2125.0, 2125.0, 2125.0, 2125.0, 2125.0, 2125.0, 2125.0, 2125.0, 2125.0, 2125.0, 2125.0, 2125.0, 2125.0, 2125.0, 2125.0, 2125.0, 2125.0, 2125.0, 2125.0, 2125.0, 2125.0, 2125.0, 2125.0, 2125.0, 2125.0, 2125.0, 2125.0, 2125.0, 2125.0, 2125.0, 2125.0, 2125.0, 2125.0, 2125.0, 2126.0, 2125.0, 2125.0, 2125.0, 2126.0, 2125.0, 2126.0, 2125.0, 2125.0, 2125.0, 2125.0, 2125.0, 2125.0, 2125.0, 2125.0, 2125.0, 2125.0, 2125.0, 2125.0, 2125.0, 2125.0, 2125.0, 2125.0, 2125.0, 2125.0, 2125.0, 2125.0, 2125.0, 2125.0, 2125.0, 2125.0, 2125.0, 2125.0, 2125.0, 2125.0, 2125.0, 2125.0, 2125.0, 2125.0, 2126.0, 2126.0, 2126.0, 2125.0, 2125.0, 2125.0, 2125.0, 2125.0, 2125.0, 2125.0, 2125.0, 2125.0, 2125.0, 2126.0, 2125.0, 2125.0, 2125.0, 2125.0, 2125.0, 2125.0, 2125.0, 2125.0, 2125.0, 2125.0, 2125.0, 2125.0, 2125.0, 2125.0, 2125.0, 2125.0, 2125.0, 2125.0, 2125.0, 2125.0, 2125.0, 2125.0, 2125.0, 2125.0, 2125.0, 2125.0, 2125.0, 2125.0, 2125.0, 2125.0, 2125.0, 2125.0, 2125.0, 2125.0, 2125.0, 2125.0, 2125.0, 2125.0, 2125.0, 2125.0, 2125.0, 2125.0, 2125.0, 2125.0, 2125.0]
    },
    "slices": {}
  }
}