{
  "AcquisitionMatrixPE": 80,
  "AcquisitionNumber": 1,
  "AcquisitionTime": "09:32:20.200000",
  "BandwidthPerPixelPhaseEncode": 48.077,
  "BaseResolution": 80,
  "BodyPartExamined": "BRAIN",
  "CoilCombinationMethod": "Sum of Squares",
  "ConsistencyInfo": "N4_VE11C_LATEST_20160120",
  "ConversionSoftware": "dcm2niix",
  "ConversionSoftwareVersion": "v1.0.20220720",
  "DerivedVendorReportedEchoSpacing": 0.000519999,
  "DeviceSerialNumber": "66112",
  "DwellTime": 2.7e-06,
  "EchoTime": 0.035,
  "EchoTrainLength": 39,
  "EffectiveEchoSpacing": 0.00026,
  "FlipAngle": 90,
  "HeudiconvVersion": "0.13.1",
  "ImageOrientationPatientDICOM": [0.969541, 0.244375, 0.0164741, -0.237604, 0.922083, 0.305461],
  "ImageOrientationText": "Tra>Cor(17.5)>Sag(-3.4)",
  "ImageType": [
    "ORIGINAL",
    "PRIMARY",
    "M",
    "ND",
    "NORM",
    "MOSAIC"
],
  "ImagingFrequency": 123.252,
  "InPlanePhaseEncodingDirectionDICOM": "COL",
  "InstitutionAddress": "Maynard 3,Hanover,NH,US,03755",
  "InstitutionName": "Dartmouth College - PBS",
  "InstitutionalDepartmentName": "Department",
  "MRAcquisitionType": "2D",
  "MagneticFieldStrength": 3,
  "Manufacturer": "Siemens",
  "ManufacturersModelName": "Prisma",
  "MatrixCoilMode": "GRAPPA",
  "Modality": "MR",
  "NonlinearGradientCorrection": false,
  "ParallelReductionFactorInPlane": 2,
  "PartialFourier": 1,
  "PatientPosition": "HFS",
  "PercentPhaseFOV": 100,
  "PercentSampling": 100,
  "PhaseEncodingDirection": "j-",
  "PhaseEncodingSteps": 79,
  "PhaseResolution": 1,
  "PixelBandwidth": 2315,
  "ProcedureStepDescription": "dbic^QA",
  "ProtocolName": "func-bold_task-rest_acq-p2",
  "PulseSequenceDetails": "%SiemensSeq%\\ep2d_bold",
  "ReceiveCoilActiveElements": "HEA;HEP",
  "ReceiveCoilName": "Head_32",
  "ReconMatrixPE": 80,
  "RefLinesPE": 24,
  "RepetitionTime": 2,
  "SAR": 0.0554863,
  "ScanOptions": "FS",
  "ScanningSequence": "EP",
  "SequenceName": "*epfid2d1_80",
  "SequenceVariant": "SK",
  "SeriesDescription": "func-bold_task-rest_acq-p2",
  "SeriesNumber": 5,
  "ShimSetting": [4141, -7696, -7516, 308, -6, -154, -62, 32],
  "SliceThickness": 3.5,
  "SliceTiming": [0.9875, 0, 1.055, 0.065, 1.12, 0.13, 1.1875, 0.1975, 1.2525, 0.2625, 1.3175, 0.33, 1.385, 0.395, 1.45, 0.46, 1.5175, 0.5275, 1.5825, 0.5925, 1.6475, 0.66, 1.715, 0.725, 1.78, 0.79, 1.8475, 0.8575, 1.9125, 0.9225],
  "SoftwareVersions": "syngo MR E11",
  "SpacingBetweenSlices": 3.99,
  "StationName": "AWP66112",
  "TaskName": "rest",
  "TotalReadoutTime": 0.02054,
  "TxRefAmp": 234.098,
  "dcmmeta_affine": [
    [-2.9086222648620605, -0.7128114700317383, -0.23723208904266357, 156.3585662841797],
    [-0.7331258654594421, 2.7662506103515625, 1.1972841024398804, -90.75444793701172],
    [0.04942217841744423, -0.9163830280303955, 3.7987277507781982, -24.942296981811523],
    [0.0, 0.0, 0.0, 1.0]
],
  "dcmmeta_reorient_transform": [
    [0.0, -1.0, 0.0, 79.0],
    [1.0, 0.0, 0.0, 0.0],
    [0.0, 0.0, 1.0, 0.0],
    [0.0, 0.0, 0.0, 1.0]
],
  "dcmmeta_shape": [80, 80, 30, 200],
  "dcmmeta_slice_dim": 2,
  "dcmmeta_version": 0.6,
  "global": {
    "const": {
      "AccessionNumber": "qa",
      "AcquisitionMatrix": [80, 0, 0, 80],
      "AngioFlag": "N",
      "BitsAllocated": 16,
      "BitsStored": 12,
      "BodyPartExamined": "BRAIN",
      "Columns": 480,
      "EchoNumbers": 1,
      "EchoTime": 35.0,
      "EchoTrainLength": 39,
      "FlipAngle": 90.0,
      "HighBit": 11,
      "ImageOrientationPatient": [0.96954078202122, 0.24437527974387, 0.01647405984527, -0.2376038241173, 0.92208350448045, 0.30546101802014],
      "ImagePositionPatient": [-539.20863328094, -827.65461541299, -290.49760558092],
      "ImageType": [
        "ORIGINAL",
        "PRIMARY",
        "M",
        "ND",
        "NORM",
        "MOSAIC"
],
      "ImagedNucleus": "1H",
      "ImagingFrequency": 123.252453,
      "InPlanePhaseEncodingDirection": "COL",
      "MRAcquisitionType": "2D",
      "MagneticFieldStrength": 3.0,
      "Manufacturer": "SIEMENS",
      "ManufacturerModelName": "Prisma",
      "Modality": "MR",
      "NumberOfAverages": 1.0,
      "NumberOfPhaseEncodingSteps": 79,
      "PercentPhaseFieldOfView": 100.0,
      "PercentSampling": 100.0,
      "PerformedProcedureStepStartTime": "092603.955000",
      "PhotometricInterpretation": "MONOCHROME2",
      "PixelBandwidth": 2315.0,
      "PixelRepresentation": 0,
      "PixelSpacing": [3.0, 3.0],
      "ProtocolName": "func-bold_task-rest_acq-p2",
      "RepetitionTime": 2000.0,
      "Rows": 480,
      "SAR": 0.05548631740482,
      "SamplesPerPixel": 1,
      "ScanOptions": "FS",
      "ScanningSequence": "EP",
      "SequenceName": "*epfid2d1_80",
      "SequenceVariant": "SK",
      "SeriesDescription": "func-bold_task-rest_acq-p2",
      "SeriesNumber": 5,
      "SeriesTime": "093304.186000",
      "SliceLocation": -60.275970465409,
      "SliceThickness": 3.5,
      "SmallestImagePixelValue": 0,
      "SoftwareVersions": "syngo MR E11",
      "SpacingBetweenSlices": 3.9900000053794,
      "SpecificCharacterSet": "ISO_IR 100",
      "StudyID": "73",
      "StudyTime": "092603.811000",
      "TransmitCoilName": "Body",
      "VariableFlipAngleFlag": "N",
      "WindowCenterWidthExplanation": "Algo1",
      "dBdt": 0.0},
    "slices": {}
  },
  "time": {
    "samples": {
      "AcquisitionNumber": [1, 2, 3, 4, 5, 6, 7, 8, 9, 10, 11, 12, 13, 14, 15, 16, 17, 18, 19, 20, 21, 22, 23, 24, 25, 26, 27, 28, 29, 30, 31, 32, 33, 34, 35, 36, 37, 38, 39, 40, 41, 42, 43, 44, 45, 46, 47, 48, 49, 50, 51, 52, 53, 54, 55, 56, 57, 58, 59, 60, 61, 62, 63, 64, 65, 66, 67, 68, 69, 70, 71, 72, 73, 74, 75, 76, 77, 78, 79, 80, 81, 82, 83, 84, 85, 86, 87, 88, 89, 90, 91, 92, 93, 94, 95, 96, 97, 98, 99, 100, 101, 102, 103, 104, 105, 106, 107, 108, 109, 110, 111, 112, 113, 114, 115, 116, 117, 118, 119, 120, 121, 122, 123, 124, 125, 126, 127, 128, 129, 130, 131, 132, 133, 134, 135, 136, 137, 138, 139, 140, 141, 142, 143, 144, 145, 146, 147, 148, 149, 150, 151, 152, 153, 154, 155, 156, 157, 158, 159, 160, 161, 162, 163, 164, 165, 166, 167, 168, 169, 170, 171, 172, 173, 174, 175, 176, 177, 178, 179, 180, 181, 182, 183, 184, 185, 186, 187, 188, 189, 190, 191, 192, 193, 194, 195, 196, 197, 198, 199, 200],
      "AcquisitionTime": ["093220.200000", "093222.200000", "093224.200000", "093226.200000", "093228.200000", "093230.200000", "093232.200000", "093234.200000", "093236.200000", "093238.200000", "093240.200000", "093242.200000", "093244.200000", "093246.200000", "093248.200000", "093250.200000", "093252.200000", "093254.200000", "093256.200000", "093258.200000", "093300.200000", "093302.200000", "093304.200000", "093306.200000", "093308.200000", "093310.200000", "093312.200000", "093314.200000", "093316.200000", "093318.200000", "093320.200000", "093322.200000", "093324.200000", "093326.200000", "093328.200000", "093330.200000", "093332.200000", "093334.200000", "093336.200000", "093338.200000", "093340.200000", "093342.200000", "093344.200000", "093346.200000", "093348.200000", "093350.200000", "093352.200000", "093354.200000", "093356.200000", "093358.200000", "093400.200000", "093402.200000", "093404.200000", "093406.200000", "093408.200000", "093410.200000", "093412.200000", "093414.200000", "093416.200000", "093418.200000", "093420.200000", "093422.200000", "093424.200000", "093426.200000", "093428.200000", "093430.200000", "093432.200000", "093434.200000", "093436.200000", "093438.200000", "093440.200000", "093442.200000", "093444.200000", "093446.200000", "093448.200000", "093450.200000", "093452.200000", "093454.200000", "093456.200000", "093458.200000", "093500.200000", "093502.200000", "093504.200000", "093506.200000", "093508.200000", "093510.200000", "093512.200000", "093514.200000", "093516.200000", "093518.200000", "093520.200000", "093522.200000", "093524.200000", "093526.200000", "093528.200000", "093530.200000", "093532.200000", "093534.200000", "093536.200000", "093538.200000", "093540.200000", "093542.200000", "093544.200000", "093546.200000", "093548.200000", "093550.200000", "093552.200000", "093554.200000", "093556.200000", "093558.200000", "093600.200000", "093602.200000", "093604.200000", "093606.200000", "093608.200000", "093610.200000", "093612.200000", "093614.200000", "093616.200000", "093618.200000", "093620.200000", "093622.200000", "093624.200000", "093626.200000", "093628.200000", "093630.200000", "093632.200000", "093634.200000", "093636.200000", "093638.200000", "093640.200000", "093642.200000", "093644.200000", "093646.200000", "093648.200000", "093650.200000", "093652.200000", "093654.200000", "093656.200000", "093658.200000", "093700.200000", "093702.200000", "093704.200000", "093706.200000", "093708.200000", "093710.200000", "093712.200000", "093714.200000", "093716.200000", "093718.200000", "093720.200000", "093722.200000", "093724.200000", "093726.200000", "093728.200000", "093730.200000", "093732.200000", "093734.200000", "093736.200000", "093738.200000", "093740.200000", "093742.200000", "093744.200000", "093746.200000", "093748.200000", "093750.200000", "093752.200000", "093754.200000", "093756.200000", "093758.200000", "093800.200000", "093802.200000", "093804.200000", "093806.200000", "093808.200000", "093810.200000", "093812.200000", "093814.200000", "093816.200000", "093818.200000", "093820.200000", "093822.200000", "093824.200000", "093826.200000", "093828.200000", "093830.200000", "093832.200000", "093834.200000", "093836.200000", "093838.200000", "093840.200000", "093842.200000", "093844.200000", "093846.200000", "093848.200000", "093850.200000", "093852.200000", "093854.200000", "093856.200000", "093858.200000"],
      "ContentTime": ["093304.190000", "093304.193000", "093304.196000", "093304.199000", "093304.201000", "093304.204000", "093304.206000", "093304.209000", "093304.211000", "093304.214000", "093304.217000", "093304.219000", "093304.222000", "093304.231000", "093304.233000", "093304.236000", "093304.239000", "093304.242000", "093304.244000", "093304.247000", "093304.250000", "093344.184000", "093344.188000", "093344.190000", "093344.193000", "093344.195000", "093344.202000", "093344.205000", "093344.207000", "093344.215000", "093344.218000", "093344.221000", "093344.223000", "093344.226000", "093344.228000", "093344.231000", "093344.234000", "093344.236000", "093344.239000", "093344.241000", "093344.244000", "093424.184000", "093424.187000", "093424.190000", "093424.193000", "093424.195000", "093424.198000", "093424.200000", "093424.213000", "093424.215000", "093424.218000", "093424.220000", "093424.223000", "093424.225000", "093424.228000", "093424.231000", "093424.233000", "093424.236000", "093424.238000", "093424.241000", "093424.244000", "093504.184000", "093504.191000", "093504.194000", "093504.196000", "093504.199000", "093504.202000", "093504.204000", "093504.207000", "093504.209000", "093504.212000", "093504.215000", "093504.236000", "093504.238000", "093504.241000", "093504.244000", "093504.246000", "093504.249000", "093504.252000", "093504.254000", "093504.257000", "093544.185000", "093544.188000", "093544.190000", "093544.193000", "093544.203000", "093544.213000", "093544.220000", "093544.222000", "093544.225000", "093544.228000", "093544.230000", "093544.233000", "093544.236000", "093544.238000", "093544.241000", "093544.243000", "093544.246000", "093544.249000", "093544.251000", "093544.254000", "093624.185000", "093624.195000", "093624.198000", "093624.201000", "093624.204000", "093624.207000", "093624.209000", "093624.212000", "093624.215000", "093624.218000", "093624.225000", "093624.229000", "093624.231000", "093624.234000", "093624.237000", "093624.239000", "093624.242000", "093624.246000", "093624.249000", "093624.252000", "093704.185000", "093704.194000", "093704.219000", "093704.222000", "093704.225000", "093704.227000", "093704.230000", "093704.233000", "093704.235000", "093704.238000", "093704.241000", "093704.244000", "093704.246000", "093704.249000", "093704.252000", "093704.254000", "093704.257000", "093704.260000", "093704.262000", "093704.271000", "093744.185000", "093744.232000", "093744.235000", "093744.238000", "093744.240000", "093744.255000", "093744.258000", "093744.260000", "093744.263000", "093744.266000", "093744.268000", "093744.271000", "093744.274000", "093744.276000", "093744.279000", "093744.282000", "093744.284000", "093744.287000", "093744.290000", "093744.292000", "093824.185000", "093824.187000", "093824.190000", "093824.193000", "093824.195000", "093824.198000", "093824.201000", "093824.203000", "093824.206000", "093824.232000", "093824.235000", "093824.238000", "093824.240000", "093824.283000", "093824.286000", "093824.289000", "093824.358000", "093824.361000", "093824.364000", "093824.366000", "093900.890000", "093900.893000", "093900.895000", "093900.898000", "093900.901000", "093900.904000", "093900.907000", "093900.910000", "093900.912000", "093900.915000", "093900.919000", "093900.925000", "093900.934000", "093900.937000", "093900.940000", "093900.943000", "093900.947000", "093900.950000", "093900.954000"],
      "InstanceCreationTime": ["093304.190000", "093304.193000", "093304.196000", "093304.199000", "093304.201000", "093304.204000", "093304.206000", "093304.209000", "093304.211000", "093304.214000", "093304.217000", "093304.219000", "093304.222000", "093304.231000", "093304.233000", "093304.236000", "093304.239000", "093304.242000", "093304.244000", "093304.247000", "093304.250000", "093344.184000", "093344.188000", "093344.190000", "093344.193000", "093344.195000", "093344.202000", "093344.205000", "093344.207000", "093344.215000", "093344.218000", "093344.221000", "093344.223000", "093344.226000", "093344.228000", "093344.231000", "093344.234000", "093344.236000", "093344.239000", "093344.241000", "093344.244000", "093424.184000", "093424.187000", "093424.190000", "093424.193000", "093424.195000", "093424.198000", "093424.200000", "093424.213000", "093424.215000", "093424.218000", "093424.220000", "093424.223000", "093424.225000", "093424.228000", "093424.231000", "093424.233000", "093424.236000", "093424.238000", "093424.241000", "093424.244000", "093504.184000", "093504.191000", "093504.194000", "093504.196000", "093504.199000", "093504.202000", "093504.204000", "093504.207000", "093504.209000", "093504.212000", "093504.215000", "093504.236000", "093504.238000", "093504.241000", "093504.244000", "093504.246000", "093504.249000", "093504.252000", "093504.254000", "093504.257000", "093544.185000", "093544.188000", "093544.190000", "093544.193000", "093544.203000", "093544.213000", "093544.220000", "093544.222000", "093544.225000", "093544.228000", "093544.230000", "093544.233000", "093544.236000", "093544.238000", "093544.241000", "093544.243000", "093544.246000", "093544.249000", "093544.251000", "093544.254000", "093624.185000", "093624.195000", "093624.198000", "093624.201000", "093624.204000", "093624.207000", "093624.209000", "093624.212000", "093624.215000", "093624.218000", "093624.225000", "093624.229000", "093624.231000", "093624.234000", "093624.237000", "093624.239000", "093624.242000", "093624.246000", "093624.249000", "093624.252000", "093704.185000", "093704.194000", "093704.219000", "093704.222000", "093704.225000", "093704.227000", "093704.230000", "093704.233000", "093704.235000", "093704.238000", "093704.241000", "093704.244000", "093704.246000", "093704.249000", "093704.252000", "093704.254000", "093704.257000", "093704.260000", "093704.262000", "093704.271000", "093744.185000", "093744.232000", "093744.235000", "093744.238000", "093744.240000", "093744.255000", "093744.258000", "093744.260000", "093744.263000", "093744.266000", "093744.268000", "093744.271000", "093744.274000", "093744.276000", "093744.279000", "093744.282000", "093744.284000", "093744.287000", "093744.290000", "093744.292000", "093824.185000", "093824.187000", "093824.190000", "093824.193000", "093824.195000", "093824.198000", "093824.201000", "093824.203000", "093824.206000", "093824.232000", "093824.235000", "093824.238000", "093824.240000", "093824.283000", "093824.286000", "093824.289000", "093824.358000", "093824.361000", "093824.364000", "093824.366000", "093900.890000", "093900.893000", "093900.895000", "093900.898000", "093900.901000", "093900.904000", "093900.907000", "093900.910000", "093900.912000", "093900.915000", "093900.919000", "093900.925000", "093900.934000", "093900.937000", "093900.940000", "093900.943000", "093900.947000", "093900.950000", "093900.954000"],
      "InstanceNumber": [1, 2, 3, 4, 5, 6, 7, 8, 9, 10, 11, 12, 13, 14, 15, 16, 17, 18, 19, 20, 21, 22, 23, 24, 25, 26, 27, 28, 29, 30, 31, 32, 33, 34, 35, 36, 37, 38, 39, 40, 41, 42, 43, 44, 45, 46, 47, 48, 49, 50, 51, 52, 53, 54, 55, 56, 57, 58, 59, 60, 61, 62, 63, 64, 65, 66, 67, 68, 69, 70, 71, 72, 73, 74, 75, 76, 77, 78, 79, 80, 81, 82, 83, 84, 85, 86, 87, 88, 89, 90, 91, 92, 93, 94, 95, 96, 97, 98, 99, 100, 101, 102, 103, 104, 105, 106, 107, 108, 109, 110, 111, 112, 113, 114, 115, 116, 117, 118, 119, 120, 121, 122, 123, 124, 125, 126, 127, 128, 129, 130, 131, 132, 133, 134, 135, 136, 137, 138, 139, 140, 141, 142, 143, 144, 145, 146, 147, 148, 149, 150, 151, 152, 153, 154, 155, 156, 157, 158, 159, 160, 161, 162, 163, 164, 165, 166, 167, 168, 169, 170, 171, 172, 173, 174, 175, 176, 177, 178, 179, 180, 181, 182, 183, 184, 185, 186, 187, 188, 189, 190, 191, 192, 193, 194, 195, 196, 197, 198, 199, 200],
      "LargestImagePixelValue": [2247, 2254, 2246, 2252, 2252, 2246, 2252, 2248, 2247, 2245, 2247, 2256, 2248, 2247, 2245, 2250, 2251, 2259, 2249, 2253, 2252, 2246, 2252, 2244, 2252, 2251, 2246, 2249, 2252, 2247, 2248, 2256, 2249, 2245, 2255, 2246, 2256, 2256, 2254, 2255, 2249, 2245, 2248, 2247, 2253, 2252, 2250, 2256, 2257, 2251, 2251, 2247, 2252, 2256, 2247, 2256, 2251, 2249, 2248, 2246, 2253, 2258, 2247, 2253, 2248, 2260, 2250, 2247, 2248, 2250, 2246, 2252, 2249, 2246, 2247, 2247, 2251, 2248, 2255, 2245, 2248, 2251, 2253, 2254, 2254, 2255, 2246, 2256, 2243, 2250, 2253, 2250, 2252, 2244, 2250, 2247, 2244, 2249, 2249, 2247, 2256, 2250, 2249, 2249, 2247, 2249, 2253, 2256, 2251, 2245, 2247, 2253, 2253, 2249, 2245, 2253, 2249, 2246, 2250, 2246, 2248, 2248, 2253, 2252, 2247, 2250, 2247, 2244, 2246, 2245, 2250, 2245, 2248, 2244, 2247, 2243, 2249, 2250, 2253, 2247, 2247, 2249, 2252, 2249, 2252, 2243, 2244, 2251, 2253, 2244, 2244, 2246, 2247, 2248, 2250, 2246, 2252, 2244, 2247, 2248, 2246, 2245, 2247, 2249, 2245, 2248, 2245, 2247, 2253, 2241, 2245, 2242, 2246, 2251, 2251, 2250, 2246, 2249, 2251, 2250, 2239, 2243, 2249, 2242, 2251, 2244, 2247, 2247, 2250, 2243, 2243, 2252, 2248, 2250, 2254, 2250, 2253, 2253, 2245, 2246],
      "WindowCenter": [998.0, 997.0, 997.0, 997.0, 997.0, 997.0, 997.0, 997.0, 997.0, 997.0, 997.0, 997.0, 997.0, 997.0, 997.0, 997.0, 997.0, 997.0, 997.0, 997.0, 997.0, 997.0, 997.0, 997.0, 997.0, 997.0, 997.0, 997.0, 997.0, 997.0, 997.0, 997.0, 997.0, 997.0, 997.0, 997.0, 997.0, 997.0, 997.0, 997.0, 997.0, 997.0, 997.0, 997.0, 997.0, 997.0, 997.0, 997.0, 998.0, 997.0, 997.0, 997.0, 997.0, 997.0, 997.0, 997.0, 997.0, 997.0, 997.0, 997.0, 997.0, 997.0, 997.0, 997.0, 997.0, 997.0, 997.0, 997.0, 997.0, 997.0, 997.0, 997.0, 997.0, 997.0, 997.0, 997.0, 997.0, 997.0, 997.0, 998.0, 997.0, 997.0, 997.0, 997.0, 997.0, 997.0, 997.0, 997.0, 997.0, 997.0, 997.0, 997.0, 997.0, 997.0, 997.0, 997.0, 997.0, 997.0, 997.0, 997.0, 997.0, 997.0, 997.0, 997.0, 997.0, 997.0, 997.0, 997.0, 997.0, 997.0, 997.0, 997.0, 997.0, 997.0, 997.0, 997.0, 997.0, 997.0, 997.0, 997.0, 997.0, 997.0, 997.0, 996.0, 996.0, 997.0, 996.0, 996.0, 996.0, 996.0, 996.0, 997.0, 996.0, 996.0, 996.0, 996.0, 996.0, 996.0, 996.0, 996.0, 996.0, 996.0, 996.0, 996.0, 996.0, 996.0, 996.0, 996.0, 996.0, 997.0, 996.0, 996.0, 996.0, 996.0, 996.0, 996.0, 996.0, 996.0, 996.0, 996.0, 996.0, 996.0, 996.0, 996.0, 996.0, 996.0, 996.0, 996.0, 996.0, 996.0, 996.0, 996.0, 996.0, 996.0, 996.0, 996.0, 996.0, 996.0, 996.0, 996.0, 996.0, 996.0, 996.0, 996.0, 996.0, 996.0, 996.0, 996.0, 996.0, 996.0, 996.0, 996.0, 997.0, 996.0, 996.0, 996.0, 996.0, 996.0, 996.0, 996.0],
      "WindowWidth": [2190.0, 2189.0, 2189.0, 2189.0, 2189.0, 2189.0, 2189.0, 2189.0, 2189.0, 2189.0, 2189.0, 2189.0, 2189.0, 2189.0, 2189.0, 2189.0, 2189.0, 2188.0, 2189.0, 2189.0, 2188.0, 2189.0, 2189.0, 2189.0, 2189.0, 2189.0, 2189.0, 2189.0, 2189.0, 2189.0, 2189.0, 2188.0, 2188.0, 2189.0, 2188.0, 2188.0, 2188.0, 2189.0, 2189.0, 2189.0, 2189.0, 2189.0, 2188.0, 2188.0, 2189.0, 2189.0, 2188.0, 2188.0, 2189.0, 2188.0, 2188.0, 2188.0, 2189.0, 2189.0, 2188.0, 2189.0, 2188.0, 2188.0, 2188.0, 2188.0, 2188.0, 2188.0, 2188.0, 2188.0, 2188.0, 2188.0, 2188.0, 2188.0, 2188.0, 2188.0, 2188.0, 2188.0, 2188.0, 2188.0, 2188.0, 2188.0, 2188.0, 2188.0, 2188.0, 2189.0, 2188.0, 2188.0, 2188.0, 2188.0, 2188.0, 2188.0, 2188.0, 2188.0, 2188.0, 2188.0, 2188.0, 2188.0, 2188.0, 2188.0, 2188.0, 2188.0, 2188.0, 2188.0, 2188.0, 2188.0, 2188.0, 2188.0, 2188.0, 2187.0, 2187.0, 2187.0, 2187.0, 2187.0, 2187.0, 2187.0, 2188.0, 2188.0, 2188.0, 2187.0, 2187.0, 2187.0, 2187.0, 2187.0, 2187.0, 2187.0, 2187.0, 2187.0, 2187.0, 2187.0, 2188.0, 2187.0, 2187.0, 2187.0, 2187.0, 2187.0, 2187.0, 2187.0, 2187.0, 2187.0, 2187.0, 2187.0, 2187.0, 2187.0, 2187.0, 2187.0, 2187.0, 2187.0, 2187.0, 2187.0, 2187.0, 2187.0, 2187.0, 2187.0, 2187.0, 2188.0, 2187.0, 2187.0, 2187.0, 2187.0, 2187.0, 2187.0, 2187.0, 2187.0, 2187.0, 2187.0, 2187.0, 2187.0, 2187.0, 2187.0, 2187.0, 2187.0, 2187.0, 2187.0, 2187.0, 2187.0, 2187.0, 2187.0, 2187.0, 2187.0, 2187.0, 2187.0, 2187.0, 2187.0, 2187.0, 2187.0, 2187.0, 2187.0, 2187.0, 2187.0, 2187.0, 2187.0, 2186.0, 2187.0, 2187.0, 2187.0, 2186.0, 2186.0, 2188.0, 2187.0, 2187.0, 2187.0, 2187.0, 2186.0, 2187.0, 2186.0]
    },
    "slices": {}
  }
}