{
  "AcquisitionMatrixPE": 122,
  "AcquisitionNumber": 1,
  "AcquisitionTime": "09:55:31.182500",
  "BandwidthPerPixelPhaseEncode": 28.76,
  "BaseResolution": 122,
  "BodyPartExamined": "BRAIN",
  "CoilCombinationMethod": "Adaptive Combine",
  "ConsistencyInfo": "N4_VE11C_LATEST_20160120",
  "ConversionSoftware": "dcm2niix",
  "ConversionSoftwareVersion": "v1.0.20220720",
  "DerivedVendorReportedEchoSpacing": 0.000570008,
  "DeviceSerialNumber": "66112",
  "DiffusionScheme": "Monopolar",
  "DwellTime": 2e-06,
  "EchoTime": 0.075,
  "EchoTrainLength": 61,
  "EffectiveEchoSpacing": 0.000285004,
  "FlipAngle": 90,
  "HeudiconvVersion": "0.13.1",
  "ImageOrientationPatientDICOM": [0.981964, -0.188019, -0.019899, 0.186254, 0.943873, 0.272786],
  "ImageOrientationText": "Tra>Cor(15.8)>Sag(1.9)",
  "ImageType": [
    "ORIGINAL",
    "PRIMARY",
    "DIFFUSION",
    "NONE",
    "ND",
    "NORM"
],
  "ImagingFrequency": 123.252,
  "InPlanePhaseEncodingDirectionDICOM": "COL",
  "InstitutionAddress": "Maynard 3,Hanover,NH,US,03755",
  "InstitutionName": "Dartmouth College - PBS",
  "InstitutionalDepartmentName": "Department",
  "MRAcquisitionType": "2D",
  "MagneticFieldStrength": 3,
  "Manufacturer": "Siemens",
  "ManufacturersModelName": "Prisma",
  "MatrixCoilMode": "GRAPPA",
  "Modality": "MR",
  "NonlinearGradientCorrection": false,
  "ParallelReductionFactorInPlane": 2,
  "PartialFourier": 1,
  "PatientPosition": "HFS",
  "PercentPhaseFOV": 100,
  "PercentSampling": 100,
  "PhaseEncodingDirection": "j-",
  "PhaseEncodingSteps": 122,
  "PhaseResolution": 1,
  "PixelBandwidth": 2050,
  "ProcedureStepDescription": "dbic^QA",
  "ProtocolName": "dwi_acq-DTI-30-p2",
  "PulseSequenceDetails": "%SiemensSeq%\\ep2d_diff",
  "ReceiveCoilActiveElements": "HEA;HEP",
  "ReceiveCoilName": "Head_32",
  "ReconMatrixPE": 122,
  "RefLinesPE": 38,
  "RepetitionTime": 7.7,
  "SAR": 0.101776,
  "ScanOptions": "FS",
  "ScanningSequence": "EP",
  "SequenceName": "*ep_b0",
  "SequenceVariant": "SK\\SP",
  "SeriesDescription": "dwi_acq-DTI-30-p2",
  "SeriesNumber": 8,
  "ShimSetting": [4151, -7695, -7523, 285, -62, -174, -104, 132],
  "SliceThickness": 2,
  "SliceTiming": [3.83594, 0, 3.94531, 0.10938, 4.0625, 0.21875, 4.17188, 0.32812, 4.28125, 0.4375, 4.39062, 0.54688, 4.5, 0.65625, 4.60938, 0.76562, 4.71875, 0.875, 4.82812, 0.98438, 4.9375, 1.09375, 5.04688, 1.20312, 5.15625, 1.3125, 5.26562, 1.42969, 5.375, 1.53906, 5.48438, 1.64844, 5.59375, 1.75781, 5.70312, 1.86719, 5.8125, 1.97656, 5.92188, 2.08594, 6.03125, 2.19531, 6.14062, 2.30469, 6.25, 2.41406, 6.36719, 2.52344, 6.47656, 2.63281, 6.57812, 2.74219, 6.6875, 2.85156, 6.80469, 2.96094, 6.91406, 3.07031, 7.02344, 3.17969, 7.13281, 3.28906, 7.24219, 3.39844, 7.35156, 3.50781, 7.46094, 3.625, 7.57031, 3.73438],
  "SoftwareVersions": "syngo MR E11",
  "SpacingBetweenSlices": 2,
  "SpoilingState": true,
  "StationName": "AWP66112",
  "TotalReadoutTime": 0.0344855,
  "TxRefAmp": 236.93,
  "dcmmeta_affine": [
    [-1.931731939315796, 0.3664015233516693, 0.06501400470733643, 89.413818359375],
    [0.36987441778182983, 1.8568001985549927, 0.5431442260742188, -143.67391967773438],
    [-0.03914547711610794, -0.536628782749176, 1.923736572265625, -45.349456787109375],
    [0.0, 0.0, 0.0, 1.0]
],
  "dcmmeta_reorient_transform": [
    [0.0, -1.0, 0.0, 121.0],
    [1.0, 0.0, 0.0, 0.0],
    [0.0, 0.0, -1.0, 69.0],
    [0.0, 0.0, 0.0, 1.0]
],
  "dcmmeta_shape": [122, 122, 70, 31],
  "dcmmeta_slice_dim": 2,
  "dcmmeta_version": 0.6,
  "global": {
    "const": {
      "AccessionNumber": "qa",
      "AcquisitionMatrix": [122, 0, 0, 122],
      "AngioFlag": "N",
      "BitsAllocated": 16,
      "BitsStored": 12,
      "BodyPartExamined": "BRAIN",
      "Columns": 122,
      "EchoNumbers": 1,
      "EchoTime": 75.0,
      "EchoTrainLength": 61,
      "FlipAngle": 90.0,
      "HighBit": 11,
      "ImageOrientationPatient": [0.98196369711179, -0.1880194917849, -0.019898951316, 0.18625409838477, 0.94387342469375, 0.27278630645942],
      "ImageType": [
        "ORIGINAL",
        "PRIMARY",
        "DIFFUSION",
        "NONE",
        "ND",
        "NORM"
],
      "ImagedNucleus": "1H",
      "ImagingFrequency": 123.252466,
      "InPlanePhaseEncodingDirection": "COL",
      "MRAcquisitionType": "2D",
      "MagneticFieldStrength": 3.0,
      "Manufacturer": "SIEMENS",
      "ManufacturerModelName": "Prisma",
      "Modality": "MR",
      "NumberOfAverages": 1.0,
      "NumberOfPhaseEncodingSteps": 122,
      "PercentPhaseFieldOfView": 100.0,
      "PercentSampling": 100.0,
      "PerformedProcedureStepStartTime": "093028.258000",
      "PhotometricInterpretation": "MONOCHROME2",
      "PixelBandwidth": 2050.0,
      "PixelRepresentation": 0,
      "PixelSpacing": [1.9672131538391, 1.9672131538391],
      "ProtocolName": "dwi_acq-DTI-30-p2",
      "RepetitionTime": 7700.0,
      "Rows": 122,
      "SAR": 0.10177573349864,
      "SamplesPerPixel": 1,
      "ScanOptions": "FS",
      "ScanningSequence": "EP",
      "SequenceVariant": [
        "SK",
        "SP"
],
      "SeriesDescription": "dwi_acq-DTI-30-p2",
      "SeriesNumber": 8,
      "SeriesTime": "095538.023000",
      "SliceThickness": 2.0,
      "SmallestImagePixelValue": 0,
      "SoftwareVersions": "syngo MR E11",
      "SpacingBetweenSlices": 2.0,
      "SpecificCharacterSet": "ISO_IR 100",
      "StudyID": "52",
      "StudyTime": "093028.191000",
      "TransmitCoilName": "Body",
      "VariableFlipAngleFlag": "N",
      "WindowCenterWidthExplanation": "Algo1",
      "dBdt": 0.0},
    "slices": {
      "AcquisitionTime": ["095531.182500", "095527.342500", "095531.292500", "095527.452500", "095531.402500", "095527.562500", "095531.512500", "095527.672500", "095531.622500", "095527.782500", "095531.732500", "095527.892500", "095531.842500", "095528.002500", "095531.952500", "095528.112500", "095532.060000", "095528.222500", "095532.170000", "095528.330000", "095532.280000", "095528.440000", "095532.390000", "095528.550000", "095532.500000", "095528.660000", "095532.610000", "095528.770000", "095532.720000", "095528.880000", "095532.830000", "095528.990000", "095532.940000", "095529.100000", "095533.047500", "095529.207500", "095533.157500", "095529.317500", "095533.267500", "095529.427500", "095533.377500", "095529.537500", "095533.487500", "095529.647500", "095533.597500", "095529.757500", "095533.707500", "095529.867500", "095533.817500", "095529.977500", "095533.925000", "095530.087500", "095534.035000", "095530.195000", "095534.145000", "095530.305000", "095534.255000", "095530.415000", "095534.365000", "095530.525000", "095534.475000", "095530.635000", "095534.585000", "095530.745000", "095534.695000", "095530.855000", "095534.805000", "095530.965000", "095534.912500", "095531.075000", "095538.882500", "095535.042500", "095538.992500", "095535.152500", "095539.102500", "095535.262500", "095539.212500", "095535.372500", "095539.322500", "095535.482500", "095539.432500", "095535.592500", "095539.542500", "095535.702500", "095539.652500", "095535.812500", "095539.760000", "095535.922500", "095539.870000", "095536.030000", "095539.980000", "095536.140000", "095540.090000", "095536.250000", "095540.200000", "095536.360000", "095540.310000", "095536.470000", "095540.420000", "095536.580000", "095540.530000", "095536.690000", "095540.640000", "095536.800000", "095540.747500", "095536.907500", "095540.857500", "095537.017500", "095540.967500", "095537.127500", "095541.077500", "095537.237500", "095541.187500", "095537.347500", "095541.297500", "095537.457500", "095541.407500", "095537.567500", "095541.517500", "095537.677500", "095541.625000", "095537.787500", "095541.735000", "095537.895000", "095541.845000", "095538.005000", "095541.955000", "095538.115000", "095542.065000", "095538.225000", "095542.175000", "095538.335000", "095542.285000", "095538.445000", "095542.395000", "095538.555000", "095542.505000", "095538.665000", "095542.612500", "095538.775000", "095546.582500", "095542.742500", "095546.692500", "095542.852500", "095546.802500", "095542.962500", "095546.912500", "095543.072500", "095547.022500", "095543.182500", "095547.132500", "095543.292500", "095547.242500", "095543.402500", "095547.352500", "095543.512500", "095547.460000", "095543.622500", "095547.570000", "095543.730000", "095547.680000", "095543.840000", "095547.790000", "095543.950000", "095547.900000", "095544.060000", "095548.010000", "095544.170000", "095548.120000", "095544.280000", "095548.230000", "095544.390000", "095548.340000", "095544.500000", "095548.447500", "095544.607500", "095548.557500", "095544.717500", "095548.667500", "095544.827500", "095548.777500", "095544.937500", "095548.887500", "095545.047500", "095548.997500", "095545.157500", "095549.107500", "095545.267500", "095549.217500", "095545.377500", "095549.325000", "095545.487500", "095549.435000", "095545.595000", "095549.545000", "095545.705000", "095549.655000", "095545.815000", "095549.765000", "095545.925000", "095549.875000", "095546.035000", "095549.985000", "095546.145000", "095550.095000", "095546.255000", "095550.205000", "095546.365000", "095550.312500", "095546.475000", "095554.282500", "095550.442500", "095554.392500", "095550.552500", "095554.502500", "095550.662500", "095554.612500", "095550.772500", "095554.722500", "095550.882500", "095554.832500", "095550.992500", "095554.942500", "095551.102500", "095555.052500", "095551.212500", "095555.160000", "095551.322500", "095555.270000", "095551.430000", "095555.380000", "095551.540000", "095555.490000", "095551.650000", "095555.600000", "095551.760000", "095555.710000", "095551.870000", "095555.820000", "095551.980000", "095555.930000", "095552.090000", "095556.040000", "095552.200000", "095556.147500", "095552.307500", "095556.257500", "095552.417500", "095556.367500", "095552.527500", "095556.477500", "095552.637500", "095556.587500", "095552.747500", "095556.697500", "095552.857500", "095556.807500", "095552.967500", "095556.917500", "095553.077500", "095557.025000", "095553.187500", "095557.135000", "095553.295000", "095557.245000", "095553.405000", "095557.355000", "095553.515000", "095557.465000", "095553.625000", "095557.575000", "095553.735000", "095557.685000", "095553.845000", "095557.795000", "095553.955000", "095557.905000", "095554.065000", "095558.012500", "095554.175000", "095601.982500", "095558.142500", "095602.092500", "095558.252500", "095602.202500", "095558.362500", "095602.312500", "095558.472500", "095602.422500", "095558.582500", "095602.532500", "095558.692500", "095602.642500", "095558.802500", "095602.752500", "095558.912500", "095602.860000", "095559.022500", "095602.970000", "095559.130000", "095603.080000", "095559.240000", "095603.190000", "095559.350000", "095603.300000", "095559.460000", "095603.410000", "095559.570000", "095603.520000", "095559.680000", "095603.630000", "095559.790000", "095603.740000", "095559.900000", "095603.847500", "095600.007500", "095603.957500", "095600.117500", "095604.067500", "095600.227500", "095604.177500", "095600.337500", "095604.287500", "095600.447500", "095604.397500", "095600.557500", "095604.507500", "095600.667500", "095604.617500", "095600.777500", "095604.725000", "095600.887500", "095604.835000", "095600.995000", "095604.945000", "095601.105000", "095605.055000", "095601.215000", "095605.165000", "095601.325000", "095605.275000", "095601.435000", "095605.385000", "095601.545000", "095605.495000", "095601.655000", "095605.605000", "095601.765000", "095605.712500", "095601.875000", "095609.682500", "095605.842500", "095609.792500", "095605.952500", "095609.902500", "095606.062500", "095610.012500", "095606.172500", "095610.122500", "095606.282500", "095610.232500", "095606.392500", "095610.342500", "095606.502500", "095610.452500", "095606.612500", "095610.560000", "095606.722500", "095610.670000", "095606.830000", "095610.780000", "095606.940000", "095610.890000", "095607.050000", "095611.000000", "095607.160000", "095611.110000", "095607.270000", "095611.220000", "095607.380000", "095611.330000", "095607.490000", "095611.440000", "095607.600000", "095611.547500", "095607.707500", "095611.657500", "095607.817500", "095611.767500", "095607.927500", "095611.877500", "095608.037500", "095611.987500", "095608.147500", "095612.097500", "095608.257500", "095612.207500", "095608.367500", "095612.317500", "095608.477500", "095612.425000", "095608.587500", "095612.535000", "095608.695000", "095612.645000", "095608.805000", "095612.755000", "095608.915000", "095612.865000", "095609.025000", "095612.975000", "095609.135000", "095613.085000", "095609.245000", "095613.195000", "095609.355000", "095613.305000", "095609.465000", "095613.412500", "095609.575000", "095617.382500", "095613.542500", "095617.492500", "095613.652500", "095617.602500", "095613.762500", "095617.712500", "095613.872500", "095617.822500", "095613.982500", "095617.932500", "095614.092500", "095618.042500", "095614.202500", "095618.152500", "095614.312500", "095618.260000", "095614.422500", "095618.370000", "095614.530000", "095618.480000", "095614.640000", "095618.590000", "095614.750000", "095618.700000", "095614.860000", "095618.810000", "095614.970000", "095618.920000", "095615.080000", "095619.030000", "095615.190000", "095619.140000", "095615.300000", "095619.247500", "095615.407500", "095619.357500", "095615.517500", "095619.467500", "095615.627500", "095619.577500", "095615.737500", "095619.687500", "095615.847500", "095619.797500", "095615.957500", "095619.907500", "095616.067500", "095620.017500", "095616.177500", "095620.125000", "095616.287500", "095620.235000", "095616.395000", "095620.345000", "095616.505000", "095620.455000", "095616.615000", "095620.565000", "095616.725000", "095620.675000", "095616.835000", "095620.785000", "095616.945000", "095620.895000", "095617.055000", "095621.005000", "095617.165000", "095621.112500", "095617.275000", "095625.082500", "095621.242500", "095625.192500", "095621.352500", "095625.302500", "095621.462500", "095625.412500", "095621.572500", "095625.522500", "095621.682500", "095625.632500", "095621.792500", "095625.742500", "095621.902500", "095625.852500", "095622.012500", "095625.960000", "095622.122500", "095626.070000", "095622.230000", "095626.180000", "095622.340000", "095626.290000", "095622.450000", "095626.400000", "095622.560000", "095626.510000", "095622.670000", "095626.620000", "095622.780000", "095626.730000", "095622.890000", "095626.840000", "095623.000000", "095626.947500", "095623.107500", "095627.057500", "095623.217500", "095627.167500", "095623.327500", "095627.277500", "095623.437500", "095627.387500", "095623.547500", "095627.497500", "095623.657500", "095627.607500", "095623.767500", "095627.717500", "095623.877500", "095627.825000", "095623.987500", "095627.935000", "095624.095000", "095628.045000", "095624.205000", "095628.155000", "095624.315000", "095628.265000", "095624.425000", "095628.375000", "095624.535000", "095628.485000", "095624.645000", "095628.595000", "095624.755000", "095628.705000", "095624.865000", "095628.812500", "095624.975000", "095632.782500", "095628.942500", "095632.892500", "095629.052500", "095633.002500", "095629.162500", "095633.112500", "095629.272500", "095633.222500", "095629.382500", "095633.332500", "095629.492500", "095633.442500", "095629.602500", "095633.552500", "095629.712500", "095633.660000", "095629.822500", "095633.770000", "095629.930000", "095633.880000", "095630.040000", "095633.990000", "095630.150000", "095634.100000", "095630.260000", "095634.210000", "095630.370000", "095634.320000", "095630.480000", "095634.430000", "095630.590000", "095634.540000", "095630.700000", "095634.647500", "095630.807500", "095634.757500", "095630.917500", "095634.867500", "095631.027500", "095634.977500", "095631.137500", "095635.087500", "095631.247500", "095635.197500", "095631.357500", "095635.307500", "095631.467500", "095635.417500", "095631.577500", "095635.525000", "095631.687500", "095635.635000", "095631.795000", "095635.745000", "095631.905000", "095635.855000", "095632.015000", "095635.965000", "095632.125000", "095636.075000", "095632.235000", "095636.185000", "095632.345000", "095636.295000", "095632.455000", "095636.405000", "095632.565000", "095636.512500", "095632.675000", "095640.482500", "095636.642500", "095640.592500", "095636.752500", "095640.702500", "095636.862500", "095640.812500", "095636.972500", "095640.922500", "095637.082500", "095641.032500", "095637.192500", "095641.142500", "095637.302500", "095641.252500", "095637.412500", "095641.360000", "095637.522500", "095641.470000", "095637.630000", "095641.580000", "095637.740000", "095641.690000", "095637.850000", "095641.800000", "095637.960000", "095641.910000", "095638.070000", "095642.020000", "095638.180000", "095642.130000", "095638.290000", "095642.240000", "095638.400000", "095642.347500", "095638.507500", "095642.457500", "095638.617500", "095642.567500", "095638.727500", "095642.677500", "095638.837500", "095642.787500", "095638.947500", "095642.897500", "095639.057500", "095643.007500", "095639.167500", "095643.117500", "095639.277500", "095643.225000", "095639.387500", "095643.335000", "095639.495000", "095643.445000", "095639.605000", "095643.555000", "095639.715000", "095643.665000", "095639.825000", "095643.775000", "095639.935000", "095643.885000", "095640.045000", "095643.995000", "095640.155000", "095644.105000", "095640.265000", "095644.212500", "095640.375000", "095648.182500", "095644.342500", "095648.292500", "095644.452500", "095648.402500", "095644.562500", "095648.512500", "095644.672500", "095648.622500", "095644.782500", "095648.732500", "095644.892500", "095648.842500", "095645.002500", "095648.952500", "095645.112500", "095649.060000", "095645.222500", "095649.170000", "095645.330000", "095649.280000", "095645.440000", "095649.390000", "095645.550000", "095649.500000", "095645.660000", "095649.610000", "095645.770000", "095649.720000", "095645.880000", "095649.830000", "095645.990000", "095649.940000", "095646.100000", "095650.047500", "095646.207500", "095650.157500", "095646.317500", "095650.267500", "095646.427500", "095650.377500", "095646.537500", "095650.487500", "095646.647500", "095650.597500", "095646.757500", "095650.707500", "095646.867500", "095650.817500", "095646.977500", "095650.925000", "095647.087500", "095651.035000", "095647.195000", "095651.145000", "095647.305000", "095651.255000", "095647.415000", "095651.365000", "095647.525000", "095651.475000", "095647.635000", "095651.585000", "095647.745000", "095651.695000", "095647.855000", "095651.805000", "095647.965000", "095651.912500", "095648.075000", "095655.882500", "095652.042500", "095655.992500", "095652.152500", "095656.102500", "095652.262500", "095656.212500", "095652.372500", "095656.322500", "095652.482500", "095656.432500", "095652.592500", "095656.542500", "095652.702500", "095656.652500", "095652.812500", "095656.760000", "095652.922500", "095656.870000", "095653.030000", "095656.980000", "095653.140000", "095657.090000", "095653.250000", "095657.200000", "095653.360000", "095657.310000", "095653.470000", "095657.420000", "095653.580000", "095657.530000", "095653.690000", "095657.640000", "095653.800000", "095657.747500", "095653.907500", "095657.857500", "095654.017500", "095657.967500", "095654.127500", "095658.077500", "095654.237500", "095658.187500", "095654.347500", "095658.297500", "095654.457500", "095658.407500", "095654.567500", "095658.517500", "095654.677500", "095658.625000", "095654.787500", "095658.735000", "095654.895000", "095658.845000", "095655.005000", "095658.955000", "095655.115000", "095659.065000", "095655.225000", "095659.175000", "095655.335000", "095659.285000", "095655.445000", "095659.395000", "095655.555000", "095659.505000", "095655.665000", "095659.612500", "095655.775000", "095703.582500", "095659.742500", "095703.692500", "095659.852500", "095703.802500", "095659.962500", "095703.912500", "095700.072500", "095704.022500", "095700.182500", "095704.132500", "095700.292500", "095704.242500", "095700.402500", "095704.352500", "095700.512500", "095704.460000", "095700.622500", "095704.570000", "095700.730000", "095704.680000", "095700.840000", "095704.790000", "095700.950000", "095704.900000", "095701.060000", "095705.010000", "095701.170000", "095705.120000", "095701.280000", "095705.230000", "095701.390000", "095705.340000", "095701.500000", "095705.447500", "095701.607500", "095705.557500", "095701.717500", "095705.667500", "095701.827500", "095705.777500", "095701.937500", "095705.887500", "095702.047500", "095705.997500", "095702.157500", "095706.107500", "095702.267500", "095706.217500", "095702.377500", "095706.325000", "095702.487500", "095706.435000", "095702.595000", "095706.545000", "095702.705000", "095706.655000", "095702.815000", "095706.765000", "095702.925000", "095706.875000", "095703.035000", "095706.985000", "095703.145000", "095707.095000", "095703.255000", "095707.205000", "095703.365000", "095707.312500", "095703.475000", "095711.282500", "095707.442500", "095711.392500", "095707.552500", "095711.502500", "095707.662500", "095711.612500", "095707.772500", "095711.722500", "095707.882500", "095711.832500", "095707.992500", "095711.942500", "095708.102500", "095712.052500", "095708.212500", "095712.160000", "095708.322500", "095712.270000", "095708.430000", "095712.380000", "095708.540000", "095712.490000", "095708.650000", "095712.600000", "095708.760000", "095712.710000", "095708.870000", "095712.820000", "095708.980000", "095712.930000", "095709.090000", "095713.040000", "095709.200000", "095713.147500", "095709.307500", "095713.257500", "095709.417500", "095713.367500", "095709.527500", "095713.477500", "095709.637500", "095713.587500", "095709.747500", "095713.697500", "095709.857500", "095713.807500", "095709.967500", "095713.917500", "095710.077500", "095714.025000", "095710.187500", "095714.135000", "095710.295000", "095714.245000", "095710.405000", "095714.355000", "095710.515000", "095714.465000", "095710.625000", "095714.575000", "095710.735000", "095714.685000", "095710.845000", "095714.795000", "095710.955000", "095714.905000", "095711.065000", "095715.012500", "095711.175000", "095718.982500", "095715.142500", "095719.092500", "095715.252500", "095719.202500", "095715.362500", "095719.312500", "095715.472500", "095719.422500", "095715.582500", "095719.532500", "095715.692500", "095719.642500", "095715.802500", "095719.752500", "095715.912500", "095719.860000", "095716.022500", "095719.970000", "095716.130000", "095720.080000", "095716.240000", "095720.190000", "095716.350000", "095720.300000", "095716.460000", "095720.410000", "095716.570000", "095720.520000", "095716.680000", "095720.630000", "095716.790000", "095720.740000", "095716.900000", "095720.847500", "095717.007500", "095720.957500", "095717.117500", "095721.067500", "095717.227500", "095721.177500", "095717.337500", "095721.287500", "095717.447500", "095721.397500", "095717.557500", "095721.507500", "095717.667500", "095721.617500", "095717.777500", "095721.725000", "095717.887500", "095721.835000", "095717.995000", "095721.945000", "095718.105000", "095722.055000", "095718.215000", "095722.165000", "095718.325000", "095722.275000", "095718.435000", "095722.385000", "095718.545000", "095722.495000", "095718.655000", "095722.605000", "095718.765000", "095722.712500", "095718.875000", "095726.682500", "095722.842500", "095726.792500", "095722.952500", "095726.902500", "095723.062500", "095727.012500", "095723.172500", "095727.122500", "095723.282500", "095727.232500", "095723.392500", "095727.342500", "095723.502500", "095727.452500", "095723.612500", "095727.560000", "095723.722500", "095727.670000", "095723.830000", "095727.780000", "095723.940000", "095727.890000", "095724.050000", "095728.000000", "095724.160000", "095728.110000", "095724.270000", "095728.220000", "095724.380000", "095728.330000", "095724.490000", "095728.440000", "095724.600000", "095728.547500", "095724.707500", "095728.657500", "095724.817500", "095728.767500", "095724.927500", "095728.877500", "095725.037500", "095728.987500", "095725.147500", "095729.097500", "095725.257500", "095729.207500", "095725.367500", "095729.317500", "095725.477500", "095729.425000", "095725.587500", "095729.535000", "095725.695000", "095729.645000", "095725.805000", "095729.755000", "095725.915000", "095729.865000", "095726.025000", "095729.975000", "095726.135000", "095730.085000", "095726.245000", "095730.195000", "095726.355000", "095730.305000", "095726.465000", "095730.412500", "095726.575000", "095734.382500", "095730.542500", "095734.492500", "095730.652500", "095734.602500", "095730.762500", "095734.712500", "095730.872500", "095734.822500", "095730.982500", "095734.932500", "095731.092500", "095735.042500", "095731.202500", "095735.152500", "095731.312500", "095735.260000", "095731.422500", "095735.370000", "095731.530000", "095735.480000", "095731.640000", "095735.590000", "095731.750000", "095735.700000", "095731.860000", "095735.810000", "095731.970000", "095735.920000", "095732.080000", "095736.030000", "095732.190000", "095736.140000", "095732.300000", "095736.247500", "095732.407500", "095736.357500", "095732.517500", "095736.467500", "095732.627500", "095736.577500", "095732.737500", "095736.687500", "095732.847500", "095736.797500", "095732.957500", "095736.907500", "095733.067500", "095737.017500", "095733.177500", "095737.125000", "095733.287500", "095737.235000", "095733.395000", "095737.345000", "095733.505000", "095737.455000", "095733.615000", "095737.565000", "095733.725000", "095737.675000", "095733.835000", "095737.785000", "095733.945000", "095737.895000", "095734.055000", "095738.005000", "095734.165000", "095738.112500", "095734.275000", "095742.082500", "095738.242500", "095742.192500", "095738.352500", "095742.302500", "095738.462500", "095742.412500", "095738.572500", "095742.522500", "095738.682500", "095742.632500", "095738.792500", "095742.742500", "095738.902500", "095742.852500", "095739.012500", "095742.960000", "095739.122500", "095743.070000", "095739.230000", "095743.180000", "095739.340000", "095743.290000", "095739.450000", "095743.400000", "095739.560000", "095743.510000", "095739.670000", "095743.620000", "095739.780000", "095743.730000", "095739.890000", "095743.840000", "095740.000000", "095743.947500", "095740.107500", "095744.057500", "095740.217500", "095744.167500", "095740.327500", "095744.277500", "095740.437500", "095744.387500", "095740.547500", "095744.497500", "095740.657500", "095744.607500", "095740.767500", "095744.717500", "095740.877500", "095744.825000", "095740.987500", "095744.935000", "095741.095000", "095745.045000", "095741.205000", "095745.155000", "095741.315000", "095745.265000", "095741.425000", "095745.375000", "095741.535000", "095745.485000", "095741.645000", "095745.595000", "095741.755000", "095745.705000", "095741.865000", "095745.812500", "095741.975000", "095749.782500", "095745.942500", "095749.892500", "095746.052500", "095750.002500", "095746.162500", "095750.112500", "095746.272500", "095750.222500", "095746.382500", "095750.332500", "095746.492500", "095750.442500", "095746.602500", "095750.552500", "095746.712500", "095750.660000", "095746.822500", "095750.770000", "095746.930000", "095750.880000", "095747.040000", "095750.990000", "095747.150000", "095751.100000", "095747.260000", "095751.210000", "095747.370000", "095751.320000", "095747.480000", "095751.430000", "095747.590000", "095751.540000", "095747.700000", "095751.647500", "095747.807500", "095751.757500", "095747.917500", "095751.867500", "095748.027500", "095751.977500", "095748.137500", "095752.087500", "095748.247500", "095752.197500", "095748.357500", "095752.307500", "095748.467500", "095752.417500", "095748.577500", "095752.525000", "095748.687500", "095752.635000", "095748.795000", "095752.745000", "095748.905000", "095752.855000", "095749.015000", "095752.965000", "095749.125000", "095753.075000", "095749.235000", "095753.185000", "095749.345000", "095753.295000", "095749.455000", "095753.405000", "095749.565000", "095753.512500", "095749.675000", "095757.482500", "095753.642500", "095757.592500", "095753.752500", "095757.702500", "095753.862500", "095757.812500", "095753.972500", "095757.922500", "095754.082500", "095758.032500", "095754.192500", "095758.142500", "095754.302500", "095758.252500", "095754.412500", "095758.360000", "095754.522500", "095758.470000", "095754.630000", "095758.580000", "095754.740000", "095758.690000", "095754.850000", "095758.800000", "095754.960000", "095758.910000", "095755.070000", "095759.020000", "095755.180000", "095759.130000", "095755.290000", "095759.240000", "095755.400000", "095759.347500", "095755.507500", "095759.457500", "095755.617500", "095759.567500", "095755.727500", "095759.677500", "095755.837500", "095759.787500", "095755.947500", "095759.897500", "095756.057500", "095800.007500", "095756.167500", "095800.117500", "095756.277500", "095800.225000", "095756.387500", "095800.335000", "095756.495000", "095800.445000", "095756.605000", "095800.555000", "095756.715000", "095800.665000", "095756.825000", "095800.775000", "095756.935000", "095800.885000", "095757.045000", "095800.995000", "095757.155000", "095801.105000", "095757.265000", "095801.212500", "095757.375000", "095805.182500", "095801.342500", "095805.292500", "095801.452500", "095805.402500", "095801.562500", "095805.512500", "095801.672500", "095805.622500", "095801.782500", "095805.732500", "095801.892500", "095805.842500", "095802.002500", "095805.952500", "095802.112500", "095806.060000", "095802.222500", "095806.170000", "095802.330000", "095806.280000", "095802.440000", "095806.390000", "095802.550000", "095806.500000", "095802.660000", "095806.610000", "095802.770000", "095806.720000", "095802.880000", "095806.830000", "095802.990000", "095806.940000", "095803.100000", "095807.047500", "095803.2