{
  "AcquisitionMatrixPE": 80,
  "AcquisitionNumber": 1,
  "AcquisitionTime": "08:56:3.487500",
  "BandwidthPerPixelPhaseEncode": 25,
  "BaseResolution": 80,
  "BodyPartExamined": "BRAIN",
  "CoilCombinationMethod": "Sum of Squares",
  "ConsistencyInfo": "N4_VE11E_LATEST_20181129",
  "ConversionSoftware": "dcm2niix",
  "ConversionSoftwareVersion": "v1.0.20220720",
  "DerivedVendorReportedEchoSpacing": 0.0005,
  "DeviceSerialNumber": "66112",
  "DwellTime": 2.7e-06,
  "EchoTime": 0.03,
  "EchoTrainLength": 80,
  "EffectiveEchoSpacing": 0.0005,
  "FlipAngle": 10,
  "HeudiconvVersion": "0.13.1",
  "ImageOrientationPatientDICOM": [0.999952, 0.00979369, 0.000854703, -0.00959914, 0.953913, 0.299931],
  "ImageOrientationText": "Tra>Cor(17.5)>Sag(-0.1)",
  "ImageType": [
    "ORIGINAL",
    "PRIMARY",
    "M",
    "ND",
    "NORM",
    "MOSAIC"
],
  "ImagingFrequency": 123.261,
  "InPlanePhaseEncodingDirectionDICOM": "COL",
  "InstitutionAddress": "Maynard 3,Hanover,NH,US,03755",
  "InstitutionName": "Dartmouth College - PBS",
  "InstitutionalDepartmentName": "Department",
  "MRAcquisitionType": "2D",
  "MagneticFieldStrength": 3,
  "Manufacturer": "Siemens",
  "ManufacturersModelName": "Prisma",
  "MatrixCoilMode": "SENSE",
  "Modality": "MR",
  "NonlinearGradientCorrection": false,
  "PartialFourier": 1,
  "PatientPosition": "HFS",
  "PercentPhaseFOV": 100,
  "PercentSampling": 100,
  "PhaseEncodingDirection": "j-",
  "PhaseEncodingSteps": 80,
  "PhaseResolution": 1,
  "PixelBandwidth": 2315,
  "ProcedureStepDescription": "dbic^QA",
  "ProtocolName": "func-bold_fa-10",
  "PulseSequenceDetails": "%SiemensSeq%\\ep2d_bold",
  "ReceiveCoilActiveElements": "HC1-7;NC1,2",
  "ReceiveCoilName": "HeadNeck_64",
  "ReconMatrixPE": 80,
  "RepetitionTime": 2,
  "SAR": 0.00755484,
  "ScanOptions": "FS",
  "ScanningSequence": "EP",
  "SequenceName": "*epfid2d1_80",
  "SequenceVariant": "SK",
  "SeriesDescription": "func-bold_fa-10",
  "SeriesNumber": 7,
  "ShimSetting": [4243, -7732, -7483, -124, -171, -249, -57, 102],
  "SliceThickness": 3.5,
  "SliceTiming": [0.99, 0, 1.0575, 0.0675, 1.1225, 0.1325, 1.1875, 0.1975, 1.255, 0.265, 1.32, 0.33, 1.3875, 0.3975, 1.4525, 0.4625, 1.5175, 0.5275, 1.585, 0.595, 1.65, 0.66, 1.7175, 0.7275, 1.7825, 0.7925, 1.8475, 0.8575, 1.915, 0.925],
  "SoftwareVersions": "syngo MR E11",
  "SpacingBetweenSlices": 3.99,
  "StationName": "AWP66112",
  "TotalReadoutTime": 0.0395,
  "TxRefAmp": 208.52,
  "dcmmeta_affine": [
    [-2.9998550415039062, -0.02879740670323372, -0.008467253297567368, 120.6655502319336],
    [-0.029381055384874344, 2.8617377281188965, 1.1966999769210815, -123.66334533691406],
    [0.0025641098618507385, -0.8997933268547058, 3.806302309036255, -22.18815040588379],
    [0.0, 0.0, 0.0, 1.0]
],
  "dcmmeta_reorient_transform": [
    [0.0, -1.0, 0.0, 79.0],
    [1.0, 0.0, 0.0, 0.0],
    [0.0, 0.0, 1.0, 0.0],
    [0.0, 0.0, 0.0, 1.0]
],
  "dcmmeta_shape": [80, 80, 30, 200],
  "dcmmeta_slice_dim": 2,
  "dcmmeta_version": 0.6,
  "global": {
    "const": {
      "AccessionNumber": "qa64",
      "AcquisitionMatrix": [80, 0, 0, 80],
      "AngioFlag": "N",
      "BitsAllocated": 16,
      "BitsStored": 12,
      "BodyPartExamined": "BRAIN",
      "Columns": 480,
      "EchoNumbers": 1,
      "EchoTime": 30.0,
      "EchoTrainLength": 80,
      "FlipAngle": 10.0,
      "HighBit": 11,
      "ImageOrientationPatient": [0.99995167543665, 0.00979368539806, 0.00085470331666, -0.0095991355796, 0.9539125687134, 0.29993110516706],
      "ImagePositionPatient": [-712.60207657084, -680.6376870728, -273.74330667493],
      "ImageType": [
        "ORIGINAL",
        "PRIMARY",
        "M",
        "ND",
        "NORM",
        "MOSAIC"
],
      "ImagedNucleus": "1H",
      "ImagingFrequency": 123.261273,
      "InPlanePhaseEncodingDirection": "COL",
      "MRAcquisitionType": "2D",
      "MagneticFieldStrength": 3.0,
      "Manufacturer": "SIEMENS",
      "ManufacturerModelName": "Prisma",
      "Modality": "MR",
      "NumberOfAverages": 1.0,
      "NumberOfPhaseEncodingSteps": 80,
      "PercentPhaseFieldOfView": 100.0,
      "PercentSampling": 100.0,
      "PerformedProcedureStepStartTime": "083357.175000",
      "PhotometricInterpretation": "MONOCHROME2",
      "PixelBandwidth": 2315.0,
      "PixelRepresentation": 0,
      "PixelSpacing": [3.0, 3.0],
      "ProtocolName": "func-bold_fa-10",
      "RepetitionTime": 2000.0,
      "Rows": 480,
      "SAR": 0.00755484390016,
      "SamplesPerPixel": 1,
      "ScanOptions": "FS",
      "ScanningSequence": "EP",
      "SequenceName": "*epfid2d1_80",
      "SequenceVariant": "SK",
      "SeriesDescription": "func-bold_fa-10",
      "SeriesNumber": 7,
      "SeriesTime": "085644.635000",
      "SliceLocation": -58.512390250571,
      "SliceThickness": 3.5,
      "SmallestImagePixelValue": 0,
      "SoftwareVersions": "syngo MR E11",
      "SpacingBetweenSlices": 3.9899999925892,
      "SpecificCharacterSet": "ISO_IR 100",
      "StudyID": "18",
      "StudyTime": "083357.092000",
      "TransmitCoilName": "Body",
      "VariableFlipAngleFlag": "N",
      "WindowCenterWidthExplanation": "Algo1"
    },
    "slices": {}
  },
  "time": {
    "samples": {
      "AcquisitionNumber": [1, 2, 3, 4, 5, 6, 7, 8, 9, 10, 11, 12, 13, 14, 15, 16, 17, 18, 19, 20, 21, 22, 23, 24, 25, 26, 27, 28, 29, 30, 31, 32, 33, 34, 35, 36, 37, 38, 39, 40, 41, 42, 43, 44, 45, 46, 47, 48, 49, 50, 51, 52, 53, 54, 55, 56, 57, 58, 59, 60, 61, 62, 63, 64, 65, 66, 67, 68, 69, 70, 71, 72, 73, 74, 75, 76, 77, 78, 79, 80, 81, 82, 83, 84, 85, 86, 87, 88, 89, 90, 91, 92, 93, 94, 95, 96, 97, 98, 99, 100, 101, 102, 103, 104, 105, 106, 107, 108, 109, 110, 111, 112, 113, 114, 115, 116, 117, 118, 119, 120, 121, 122, 123, 124, 125, 126, 127, 128, 129, 130, 131, 132, 133, 134, 135, 136, 137, 138, 139, 140, 141, 142, 143, 144, 145, 146, 147, 148, 149, 150, 151, 152, 153, 154, 155, 156, 157, 158, 159, 160, 161, 162, 163, 164, 165, 166, 167, 168, 169, 170, 171, 172, 173, 174, 175, 176, 177, 178, 179, 180, 181, 182, 183, 184, 185, 186, 187, 188, 189, 190, 191, 192, 193, 194, 195, 196, 197, 198, 199, 200],
      "AcquisitionTime": ["085603.487500", "085605.487500", "085607.487500", "085609.487500", "085611.487500", "085613.487500", "085615.487500", "085617.487500", "085619.487500", "085621.487500", "085623.487500", "085625.487500", "085627.487500", "085629.487500", "085631.487500", "085633.487500", "085635.487500", "085637.487500", "085639.487500", "085641.487500", "085643.487500", "085645.487500", "085647.487500", "085649.487500", "085651.487500", "085653.487500", "085655.487500", "085657.487500", "085659.487500", "085701.487500", "085703.487500", "085705.487500", "085707.487500", "085709.487500", "085711.487500", "085713.487500", "085715.487500", "085717.487500", "085719.487500", "085721.487500", "085723.487500", "085725.487500", "085727.487500", "085729.487500", "085731.487500", "085733.487500", "085735.487500", "085737.487500", "085739.487500", "085741.487500", "085743.487500", "085745.487500", "085747.487500", "085749.487500", "085751.487500", "085753.487500", "085755.487500", "085757.487500", "085759.487500", "085801.487500", "085803.487500", "085805.487500", "085807.487500", "085809.487500", "085811.487500", "085813.487500", "085815.487500", "085817.487500", "085819.487500", "085821.487500", "085823.487500", "085825.487500", "085827.487500", "085829.487500", "085831.487500", "085833.487500", "085835.487500", "085837.487500", "085839.487500", "085841.487500", "085843.487500", "085845.487500", "085847.487500", "085849.487500", "085851.487500", "085853.487500", "085855.487500", "085857.487500", "085859.487500", "085901.487500", "085903.487500", "085905.487500", "085907.487500", "085909.487500", "085911.487500", "085913.487500", "085915.487500", "085917.487500", "085919.487500", "085921.487500", "085923.487500", "085925.487500", "085927.487500", "085929.487500", "085931.487500", "085933.487500", "085935.487500", "085937.487500", "085939.487500", "085941.487500", "085943.487500", "085945.487500", "085947.487500", "085949.487500", "085951.487500", "085953.487500", "085955.487500", "085957.487500", "085959.487500", "090001.487500", "090003.487500", "090005.487500", "090007.487500", "090009.487500", "090011.487500", "090013.487500", "090015.487500", "090017.487500", "090019.487500", "090021.487500", "090023.487500", "090025.487500", "090027.487500", "090029.487500", "090031.487500", "090033.487500", "090035.487500", "090037.487500", "090039.487500", "090041.487500", "090043.487500", "090045.487500", "090047.487500", "090049.487500", "090051.487500", "090053.487500", "090055.487500", "090057.487500", "090059.487500", "090101.487500", "090103.487500", "090105.487500", "090107.487500", "090109.487500", "090111.487500", "090113.487500", "090115.487500", "090117.487500", "090119.487500", "090121.487500", "090123.487500", "090125.487500", "090127.487500", "090129.487500", "090131.487500", "090133.487500", "090135.487500", "090137.487500", "090139.487500", "090141.487500", "090143.487500", "090145.487500", "090147.487500", "090149.487500", "090151.487500", "090153.487500", "090155.487500", "090157.487500", "090159.487500", "090201.487500", "090203.487500", "090205.487500", "090207.487500", "090209.487500", "090211.487500", "090213.487500", "090215.487500", "090217.487500", "090219.487500", "090221.487500", "090223.487500", "090225.487500", "090227.487500", "090229.487500", "090231.487500", "090233.487500", "090235.487500", "090237.487500", "090239.487500", "090241.487500"],
      "ContentTime": ["085644.638000", "085644.641000", "085644.643000", "085644.646000", "085644.648000", "085644.654000", "085644.656000", "085644.659000", "085644.661000", "085644.663000", "085644.666000", "085644.673000", "085644.675000", "085644.677000", "085644.680000", "085644.682000", "085644.684000", "085644.689000", "085644.691000", "085644.694000", "085724.634000", "085724.637000", "085724.639000", "085724.641000", "085724.644000", "085724.646000", "085724.648000", "085724.650000", "085724.653000", "085724.655000", "085724.657000", "085724.660000", "085724.662000", "085724.664000", "085724.666000", "085724.669000", "085724.671000", "085724.673000", "085724.676000", "085724.678000", "085804.633000", "085804.636000", "085804.638000", "085804.640000", "085804.643000", "085804.645000", "085804.647000", "085804.650000", "085804.652000", "085804.654000", "085804.657000", "085804.659000", "085804.661000", "085804.663000", "085804.666000", "085804.668000", "085804.670000", "085804.673000", "085804.675000", "085804.677000", "085844.633000", "085844.636000", "085844.638000", "085844.640000", "085844.642000", "085844.645000", "085844.647000", "085844.649000", "085844.652000", "085844.654000", "085844.656000", "085844.659000", "085844.661000", "085844.663000", "085844.665000", "085844.668000", "085844.670000", "085844.672000", "085844.674000", "085844.677000", "085924.633000", "085924.636000", "085924.638000", "085924.640000", "085924.643000", "085924.645000", "085924.647000", "085924.649000", "085924.652000", "085924.654000", "085924.656000", "085924.658000", "085924.661000", "085924.663000", "085924.666000", "085924.668000", "085924.670000", "085924.673000", "085924.675000", "085924.677000", "090004.634000", "090004.637000", "090004.639000", "090004.641000", "090004.644000", "090004.646000", "090004.648000", "090004.650000", "090004.653000", "090004.655000", "090004.657000", "090004.660000", "090004.662000", "090004.664000", "090004.667000", "090004.669000", "090004.671000", "090004.674000", "090004.676000", "090004.678000", "090044.633000", "090044.636000", "090044.638000", "090044.640000", "090044.643000", "090044.645000", "090044.647000", "090044.650000", "090044.652000", "090044.654000", "090044.657000", "090044.659000", "090044.661000", "090044.664000", "090044.666000", "090044.673000", "090044.675000", "090044.677000", "090044.680000", "090044.682000", "090124.633000", "090124.636000", "090124.638000", "090124.640000", "090124.643000", "090124.645000", "090124.647000", "090124.649000", "090124.652000", "090124.654000", "090124.656000", "090124.659000", "090124.661000", "090124.663000", "090124.665000", "090124.668000", "090124.670000", "090124.672000", "090124.674000", "090124.677000", "090204.634000", "090204.637000", "090204.639000", "090204.641000", "090204.644000", "090204.646000", "090204.648000", "090204.651000", "090204.653000", "090204.655000", "090204.658000", "090204.660000", "090204.662000", "090204.665000", "090204.667000", "090204.669000", "090204.671000", "090204.674000", "090204.676000", "090204.678000", "090243.247000", "090243.250000", "090243.252000", "090243.254000", "090243.257000", "090243.259000", "090243.261000", "090243.264000", "090243.266000", "090243.268000", "090243.271000", "090243.273000", "090243.275000", "090243.278000", "090243.287000", "090243.290000", "090243.292000", "090243.295000", "090243.300000", "090243.303000"],
      "InstanceCreationTime": ["085644.638000", "085644.641000", "085644.643000", "085644.646000", "085644.648000", "085644.654000", "085644.656000", "085644.659000", "085644.661000", "085644.663000", "085644.666000", "085644.673000", "085644.675000", "085644.677000", "085644.680000", "085644.682000", "085644.684000", "085644.689000", "085644.691000", "085644.694000", "085724.634000", "085724.637000", "085724.639000", "085724.641000", "085724.644000", "085724.646000", "085724.648000", "085724.650000", "085724.653000", "085724.655000", "085724.657000", "085724.660000", "085724.662000", "085724.664000", "085724.666000", "085724.669000", "085724.671000", "085724.673000", "085724.676000", "085724.678000", "085804.633000", "085804.636000", "085804.638000", "085804.640000", "085804.643000", "085804.645000", "085804.647000", "085804.650000", "085804.652000", "085804.654000", "085804.657000", "085804.659000", "085804.661000", "085804.663000", "085804.666000", "085804.668000", "085804.670000", "085804.673000", "085804.675000", "085804.677000", "085844.633000", "085844.636000", "085844.638000", "085844.640000", "085844.642000", "085844.645000", "085844.647000", "085844.649000", "085844.652000", "085844.654000", "085844.656000", "085844.659000", "085844.661000", "085844.663000", "085844.665000", "085844.668000", "085844.670000", "085844.672000", "085844.674000", "085844.677000", "085924.633000", "085924.636000", "085924.638000", "085924.640000", "085924.643000", "085924.645000", "085924.647000", "085924.649000", "085924.652000", "085924.654000", "085924.656000", "085924.658000", "085924.661000", "085924.663000", "085924.666000", "085924.668000", "085924.670000", "085924.673000", "085924.675000", "085924.677000", "090004.634000", "090004.637000", "090004.639000", "090004.641000", "090004.644000", "090004.646000", "090004.648000", "090004.650000", "090004.653000", "090004.655000", "090004.657000", "090004.660000", "090004.662000", "090004.664000", "090004.667000", "090004.669000", "090004.671000", "090004.674000", "090004.676000", "090004.678000", "090044.633000", "090044.636000", "090044.638000", "090044.640000", "090044.643000", "090044.645000", "090044.647000", "090044.650000", "090044.652000", "090044.654000", "090044.657000", "090044.659000", "090044.661000", "090044.664000", "090044.666000", "090044.673000", "090044.675000", "090044.677000", "090044.680000", "090044.682000", "090124.633000", "090124.636000", "090124.638000", "090124.640000", "090124.643000", "090124.645000", "090124.647000", "090124.649000", "090124.652000", "090124.654000", "090124.656000", "090124.659000", "090124.661000", "090124.663000", "090124.665000", "090124.668000", "090124.670000", "090124.672000", "090124.674000", "090124.677000", "090204.634000", "090204.637000", "090204.639000", "090204.641000", "090204.644000", "090204.646000", "090204.648000", "090204.651000", "090204.653000", "090204.655000", "090204.658000", "090204.660000", "090204.662000", "090204.665000", "090204.667000", "090204.669000", "090204.671000", "090204.674000", "090204.676000", "090204.678000", "090243.247000", "090243.250000", "090243.252000", "090243.254000", "090243.257000", "090243.259000", "090243.261000", "090243.264000", "090243.266000", "090243.268000", "090243.271000", "090243.273000", "090243.275000", "090243.278000", "090243.287000", "090243.290000", "090243.292000", "090243.295000", "090243.300000", "090243.303000"],
      "InstanceNumber": [1, 2, 3, 4, 5, 6, 7, 8, 9, 10, 11, 12, 13, 14, 15, 16, 17, 18, 19, 20, 21, 22, 23, 24, 25, 26, 27, 28, 29, 30, 31, 32, 33, 34, 35, 36, 37, 38, 39, 40, 41, 42, 43, 44, 45, 46, 47, 48, 49, 50, 51, 52, 53, 54, 55, 56, 57, 58, 59, 60, 61, 62, 63, 64, 65, 66, 67, 68, 69, 70, 71, 72, 73, 74, 75, 76, 77, 78, 79, 80, 81, 82, 83, 84, 85, 86, 87, 88, 89, 90, 91, 92, 93, 94, 95, 96, 97, 98, 99, 100, 101, 102, 103, 104, 105, 106, 107, 108, 109, 110, 111, 112, 113, 114, 115, 116, 117, 118, 119, 120, 121, 122, 123, 124, 125, 126, 127, 128, 129, 130, 131, 132, 133, 134, 135, 136, 137, 138, 139, 140, 141, 142, 143, 144, 145, 146, 147, 148, 149, 150, 151, 152, 153, 154, 155, 156, 157, 158, 159, 160, 161, 162, 163, 164, 165, 166, 167, 168, 169, 170, 171, 172, 173, 174, 175, 176, 177, 178, 179, 180, 181, 182, 183, 184, 185, 186, 187, 188, 189, 190, 191, 192, 193, 194, 195, 196, 197, 198, 199, 200],
      "LargestImagePixelValue": [668, 673, 669, 669, 665, 669, 670, 671, 669, 669, 672, 669, 668, 667, 670, 668, 669, 670, 667, 668, 668, 673, 671, 669, 668, 665, 669, 671, 668, 669, 667, 671, 667, 669, 669, 670, 667, 667, 667, 669, 667, 668, 670, 673, 668, 667, 668, 670, 670, 671, 674, 668, 666, 671, 668, 669, 670, 669, 666, 669, 667, 669, 667, 667, 665, 669, 671, 671, 668, 665, 671, 667, 669, 671, 671, 668, 664, 665, 666, 669, 669, 667, 670, 667, 667, 666, 667, 670, 668, 672, 666, 667, 670, 669, 669, 668, 665, 666, 668, 672, 669, 667, 672, 668, 665, 667, 671, 670, 667, 667, 671, 669, 669, 669, 670, 670, 667, 670, 667, 667, 671, 669, 666, 669, 671, 671, 667, 668, 668, 669, 667, 670, 673, 670, 672, 667, 671, 668, 669, 669, 668, 672, 670, 669, 665, 669, 666, 667, 669, 673, 668, 671, 667, 674, 668, 665, 668, 666, 668, 667, 668, 670, 670, 673, 668, 668, 669, 672, 670, 669, 665, 664, 666, 670, 672, 666, 665, 669, 669, 668, 672, 667, 671, 669, 667, 668, 669, 671, 672, 671, 667, 672, 663, 670, 667, 672, 665, 666, 667, 665],
      "WindowCenter": [464.0, 465.0, 464.0, 464.0, 464.0, 464.0, 465.0, 465.0, 464.0, 464.0, 465.0, 464.0, 464.0, 464.0, 465.0, 464.0, 464.0, 465.0, 464.0, 464.0, 464.0, 464.0, 465.0, 464.0, 464.0, 464.0, 464.0, 465.0, 463.0, 464.0, 464.0, 465.0, 464.0, 464.0, 464.0, 465.0, 464.0, 464.0, 464.0, 464.0, 464.0, 463.0, 464.0, 465.0, 464.0, 463.0, 463.0, 465.0, 465.0, 464.0, 464.0, 464.0, 463.0, 464.0, 463.0, 464.0, 464.0, 463.0, 463.0, 463.0, 463.0, 463.0, 463.0, 463.0, 463.0, 463.0, 464.0, 464.0, 463.0, 463.0, 464.0, 463.0, 463.0, 464.0, 464.0, 463.0, 463.0, 463.0, 463.0, 463.0, 463.0, 463.0, 464.0, 463.0, 463.0, 463.0, 463.0, 464.0, 463.0, 464.0, 463.0, 463.0, 464.0, 463.0, 463.0, 463.0, 463.0, 463.0, 463.0, 464.0, 463.0, 463.0, 464.0, 463.0, 463.0, 463.0, 464.0, 464.0, 463.0, 463.0, 464.0, 463.0, 463.0, 463.0, 464.0, 464.0, 463.0, 464.0, 463.0, 463.0, 464.0, 463.0, 463.0, 463.0, 464.0, 464.0, 463.0, 463.0, 463.0, 463.0, 463.0, 464.0, 464.0, 464.0, 464.0, 463.0, 464.0, 463.0, 463.0, 463.0, 463.0, 464.0, 464.0, 463.0, 463.0, 463.0, 463.0, 463.0, 463.0, 464.0, 463.0, 464.0, 463.0, 464.0, 463.0, 463.0, 463.0, 463.0, 463.0, 463.0, 463.0, 464.0, 464.0, 464.0, 463.0, 463.0, 463.0, 464.0, 464.0, 463.0, 463.0, 463.0, 463.0, 464.0, 464.0, 463.0, 463.0, 463.0, 463.0, 463.0, 464.0, 463.0, 464.0, 463.0, 462.0, 463.0, 463.0, 464.0, 464.0, 464.0, 463.0, 464.0, 463.0, 464.0, 463.0, 463.0, 463.0, 463.0, 462.0, 462.0],
      "WindowWidth": [964.0, 966.0, 964.0, 963.0, 964.0, 964.0, 965.0, 965.0, 964.0, 964.0, 965.0, 963.0, 964.0, 963.0, 965.0, 964.0, 964.0, 965.0, 964.0, 964.0, 964.0, 964.0, 965.0, 964.0, 964.0, 964.0, 964.0, 965.0, 963.0, 964.0, 963.0, 965.0, 964.0, 963.0, 963.0, 964.0, 963.0, 964.0, 963.0, 963.0, 963.0, 963.0, 964.0, 965.0, 964.0, 963.0, 963.0, 964.0, 965.0, 964.0, 964.0, 964.0, 963.0, 964.0, 963.0, 963.0, 964.0, 963.0, 963.0, 963.0, 963.0, 963.0, 963.0, 963.0, 963.0, 963.0, 964.0, 964.0, 963.0, 963.0, 964.0, 963.0, 963.0, 964.0, 964.0, 963.0, 963.0, 963.0, 963.0, 963.0, 963.0, 963.0, 964.0, 963.0, 963.0, 962.0, 963.0, 964.0, 962.0, 964.0, 963.0, 963.0, 964.0, 963.0, 963.0, 962.0, 963.0, 963.0, 963.0, 964.0, 963.0, 963.0, 964.0, 962.0, 963.0, 963.0, 964.0, 964.0, 963.0, 962.0, 964.0, 963.0, 963.0, 962.0, 964.0, 964.0, 962.0, 964.0, 962.0, 962.0, 963.0, 962.0, 963.0, 962.0, 964.0, 964.0, 962.0, 962.0, 962.0, 962.0, 962.0, 963.0, 963.0, 963.0, 963.0, 962.0, 963.0, 962.0, 962.0, 962.0, 962.0, 963.0, 963.0, 962.0, 962.0, 961.0, 961.0, 962.0, 961.0, 963.0, 962.0, 964.0, 962.0, 963.0, 962.0, 961.0, 961.0, 961.0, 962.0, 961.0, 961.0, 963.0, 963.0, 963.0, 961.0, 962.0, 961.0, 963.0, 963.0, 961.0, 961.0, 961.0, 961.0, 963.0, 963.0, 961.0, 961.0, 961.0, 961.0, 961.0, 963.0, 961.0, 963.0, 961.0, 961.0, 961.0, 962.0, 962.0, 962.0, 963.0, 962.0, 962.0, 961.0, 963.0, 961.0, 962.0, 961.0, 961.0, 961.0, 961.0]
    },
    "slices": {}
  }
}