{
  "AcquisitionMatrixPE": 80,
  "AcquisitionNumber": 1,
  "AcquisitionTime": "08:42:28.747500",
  "BandwidthPerPixelPhaseEncode": 48.077,
  "BaseResolution": 80,
  "BodyPartExamined": "BRAIN",
  "CoilCombinationMethod": "Sum of Squares",
  "ConsistencyInfo": "N4_VE11E_LATEST_20181129",
  "ConversionSoftware": "dcm2niix",
  "ConversionSoftwareVersion": "v1.0.20220720",
  "DerivedVendorReportedEchoSpacing": 0.000519999,
  "DeviceSerialNumber": "66112",
  "DwellTime": 2.7e-06,
  "EchoTime": 0.035,
  "EchoTrainLength": 39,
  "EffectiveEchoSpacing": 0.00026,
  "FlipAngle": 90,
  "HeudiconvVersion": "0.13.1",
  "ImageOrientationPatientDICOM": [0.999952, 0.00979369, 0.000854703, -0.00959914, 0.953913, 0.299931],
  "ImageOrientationText": "Tra>Cor(17.5)>Sag(-0.1)",
  "ImageType": [
    "ORIGINAL",
    "PRIMARY",
    "M",
    "ND",
    "NORM",
    "MOSAIC"
],
  "ImagingFrequency": 123.261,
  "InPlanePhaseEncodingDirectionDICOM": "COL",
  "InstitutionAddress": "Maynard 3,Hanover,NH,US,03755",
  "InstitutionName": "Dartmouth College - PBS",
  "InstitutionalDepartmentName": "Department",
  "MRAcquisitionType": "2D",
  "MagneticFieldStrength": 3,
  "Manufacturer": "Siemens",
  "ManufacturersModelName": "Prisma",
  "MatrixCoilMode": "GRAPPA",
  "Modality": "MR",
  "NonlinearGradientCorrection": false,
  "ParallelReductionFactorInPlane": 2,
  "PartialFourier": 1,
  "PatientPosition": "HFS",
  "PercentPhaseFOV": 100,
  "PercentSampling": 100,
  "PhaseEncodingDirection": "j-",
  "PhaseEncodingSteps": 79,
  "PhaseResolution": 1,
  "PixelBandwidth": 2315,
  "ProcedureStepDescription": "dbic^QA",
  "ProtocolName": "func-bold_task-rest_acq-p2",
  "PulseSequenceDetails": "%SiemensSeq%\\ep2d_bold",
  "ReceiveCoilActiveElements": "HC1-7;NC1,2",
  "ReceiveCoilName": "HeadNeck_64",
  "ReconMatrixPE": 80,
  "RefLinesPE": 24,
  "RepetitionTime": 2,
  "SAR": 0.0358383,
  "ScanOptions": "FS",
  "ScanningSequence": "EP",
  "SequenceName": "*epfid2d1_80",
  "SequenceVariant": "SK",
  "SeriesDescription": "func-bold_task-rest_acq-p2",
  "SeriesNumber": 5,
  "ShimSetting": [4243, -7732, -7483, -126, -171, -249, -57, 102],
  "SliceThickness": 3.5,
  "SliceTiming": [0.99, 0, 1.0575, 0.0675, 1.1225, 0.1325, 1.1875, 0.1975, 1.255, 0.265, 1.32, 0.33, 1.3875, 0.3975, 1.4525, 0.4625, 1.5175, 0.5275, 1.585, 0.595, 1.65, 0.66, 1.7175, 0.7275, 1.7825, 0.7925, 1.8475, 0.8575, 1.915, 0.925],
  "SoftwareVersions": "syngo MR E11",
  "SpacingBetweenSlices": 3.99,
  "StationName": "AWP66112",
  "TaskName": "rest",
  "TotalReadoutTime": 0.02054,
  "TxRefAmp": 208.52,
  "dcmmeta_affine": [
    [-2.9998550415039062, -0.02879740670323372, -0.008467253297567368, 122.60677337646484],
    [-0.029381055384874344, 2.8617377281188965, 1.1966999769210815, -125.86034393310547],
    [0.0025641098618507385, -0.8997933268547058, 3.806302309036255, -22.833162307739258],
    [0.0, 0.0, 0.0, 1.0]
],
  "dcmmeta_reorient_transform": [
    [0.0, -1.0, 0.0, 79.0],
    [1.0, 0.0, 0.0, 0.0],
    [0.0, 0.0, 1.0, 0.0],
    [0.0, 0.0, 0.0, 1.0]
],
  "dcmmeta_shape": [80, 80, 30, 200],
  "dcmmeta_slice_dim": 2,
  "dcmmeta_version": 0.6,
  "global": {
    "const": {
      "AccessionNumber": "qa64",
      "AcquisitionMatrix": [80, 0, 0, 80],
      "AngioFlag": "N",
      "BitsAllocated": 16,
      "BitsStored": 12,
      "BodyPartExamined": "BRAIN",
      "Columns": 480,
      "EchoNumbers": 1,
      "EchoTime": 35.0,
      "EchoTrainLength": 39,
      "FlipAngle": 90.0,
      "HighBit": 11,
      "ImageOrientationPatient": [0.99995167543665, 0.00979368539806, 0.00085470331666, -0.0095991355796, 0.9539125687134, 0.29993110516706],
      "ImagePositionPatient": [-714.54329905972, -678.44068847661, -274.38831857678],
      "ImageType": [
        "ORIGINAL",
        "PRIMARY",
        "M",
        "ND",
        "NORM",
        "MOSAIC"
],
      "ImagedNucleus": "1H",
      "ImagingFrequency": 123.261273,
      "InPlanePhaseEncodingDirection": "COL",
      "MRAcquisitionType": "2D",
      "MagneticFieldStrength": 3.0,
      "Manufacturer": "SIEMENS",
      "ManufacturerModelName": "Prisma",
      "Modality": "MR",
      "NumberOfAverages": 1.0,
      "NumberOfPhaseEncodingSteps": 79,
      "PercentPhaseFieldOfView": 100.0,
      "PercentSampling": 100.0,
      "PerformedProcedureStepStartTime": "083357.175000",
      "PhotometricInterpretation": "MONOCHROME2",
      "PixelBandwidth": 2315.0,
      "PixelRepresentation": 0,
      "PixelSpacing": [3.0, 3.0],
      "ProtocolName": "func-bold_task-rest_acq-p2",
      "RepetitionTime": 2000.0,
      "Rows": 480,
      "SAR": 0.03583832036054,
      "SamplesPerPixel": 1,
      "ScanOptions": "FS",
      "ScanningSequence": "EP",
      "SequenceName": "*epfid2d1_80",
      "SequenceVariant": "SK",
      "SeriesDescription": "func-bold_task-rest_acq-p2",
      "SeriesNumber": 5,
      "SeriesTime": "084324.721000",
      "SliceLocation": -59.790760018653,
      "SliceThickness": 3.5,
      "SmallestImagePixelValue": 0,
      "SoftwareVersions": "syngo MR E11",
      "SpacingBetweenSlices": 3.9899999925936,
      "SpecificCharacterSet": "ISO_IR 100",
      "StudyID": "18",
      "StudyTime": "083357.092000",
      "TransmitCoilName": "Body",
      "VariableFlipAngleFlag": "N",
      "WindowCenterWidthExplanation": "Algo1"
    },
    "slices": {}
  },
  "time": {
    "samples": {
      "AcquisitionNumber": [1, 2, 3, 4, 5, 6, 7, 8, 9, 10, 11, 12, 13, 14, 15, 16, 17, 18, 19, 20, 21, 22, 23, 24, 25, 26, 27, 28, 29, 30, 31, 32, 33, 34, 35, 36, 37, 38, 39, 40, 41, 42, 43, 44, 45, 46, 47, 48, 49, 50, 51, 52, 53, 54, 55, 56, 57, 58, 59, 60, 61, 62, 63, 64, 65, 66, 67, 68, 69, 70, 71, 72, 73, 74, 75, 76, 77, 78, 79, 80, 81, 82, 83, 84, 85, 86, 87, 88, 89, 90, 91, 92, 93, 94, 95, 96, 97, 98, 99, 100, 101, 102, 103, 104, 105, 106, 107, 108, 109, 110, 111, 112, 113, 114, 115, 116, 117, 118, 119, 120, 121, 122, 123, 124, 125, 126, 127, 128, 129, 130, 131, 132, 133, 134, 135, 136, 137, 138, 139, 140, 141, 142, 143, 144, 145, 146, 147, 148, 149, 150, 151, 152, 153, 154, 155, 156, 157, 158, 159, 160, 161, 162, 163, 164, 165, 166, 167, 168, 169, 170, 171, 172, 173, 174, 175, 176, 177, 178, 179, 180, 181, 182, 183, 184, 185, 186, 187, 188, 189, 190, 191, 192, 193, 194, 195, 196, 197, 198, 199, 200],
      "AcquisitionTime": ["084228.747500", "084230.747500", "084232.747500", "084234.747500", "084236.747500", "084238.747500", "084240.747500", "084242.747500", "084244.747500", "084246.747500", "084248.747500", "084250.747500", "084252.747500", "084254.747500", "084256.747500", "084258.747500", "084300.747500", "084302.747500", "084304.747500", "084306.747500", "084308.747500", "084310.747500", "084312.747500", "084314.747500", "084316.747500", "084318.747500", "084320.747500", "084322.747500", "084324.747500", "084326.747500", "084328.747500", "084330.747500", "084332.747500", "084334.747500", "084336.747500", "084338.747500", "084340.747500", "084342.747500", "084344.747500", "084346.747500", "084348.747500", "084350.747500", "084352.747500", "084354.747500", "084356.747500", "084358.747500", "084400.747500", "084402.747500", "084404.747500", "084406.747500", "084408.747500", "084410.747500", "084412.747500", "084414.747500", "084416.747500", "084418.747500", "084420.747500", "084422.747500", "084424.747500", "084426.747500", "084428.747500", "084430.747500", "084432.747500", "084434.747500", "084436.747500", "084438.747500", "084440.747500", "084442.747500", "084444.747500", "084446.747500", "084448.747500", "084450.747500", "084452.747500", "084454.747500", "084456.747500", "084458.747500", "084500.747500", "084502.747500", "084504.747500", "084506.747500", "084508.747500", "084510.747500", "084512.747500", "084514.747500", "084516.747500", "084518.747500", "084520.747500", "084522.747500", "084524.747500", "084526.747500", "084528.747500", "084530.747500", "084532.747500", "084534.747500", "084536.747500", "084538.747500", "084540.747500", "084542.747500", "084544.747500", "084546.747500", "084548.747500", "084550.747500", "084552.747500", "084554.747500", "084556.747500", "084558.747500", "084600.747500", "084602.747500", "084604.747500", "084606.747500", "084608.747500", "084610.747500", "084612.747500", "084614.747500", "084616.747500", "084618.747500", "084620.747500", "084622.747500", "084624.747500", "084626.747500", "084628.747500", "084630.747500", "084632.747500", "084634.747500", "084636.747500", "084638.747500", "084640.747500", "084642.747500", "084644.747500", "084646.747500", "084648.747500", "084650.747500", "084652.747500", "084654.747500", "084656.747500", "084658.747500", "084700.747500", "084702.747500", "084704.747500", "084706.747500", "084708.747500", "084710.747500", "084712.747500", "084714.747500", "084716.747500", "084718.747500", "084720.747500", "084722.747500", "084724.747500", "084726.747500", "084728.747500", "084730.747500", "084732.747500", "084734.747500", "084736.747500", "084738.747500", "084740.747500", "084742.747500", "084744.747500", "084746.747500", "084748.747500", "084750.747500", "084752.747500", "084754.747500", "084756.747500", "084758.747500", "084800.747500", "084802.747500", "084804.747500", "084806.747500", "084808.747500", "084810.747500", "084812.747500", "084814.747500", "084816.747500", "084818.747500", "084820.747500", "084822.747500", "084824.747500", "084826.747500", "084828.747500", "084830.747500", "084832.747500", "084834.747500", "084836.747500", "084838.747500", "084840.747500", "084842.747500", "084844.747500", "084846.747500", "084848.747500", "084850.747500", "084852.747500", "084854.747500", "084856.747500", "084858.747500", "084900.747500", "084902.747500", "084904.747500", "084906.747500"],
      "ContentTime": ["084324.725000", "084324.728000", "084324.748000", "084324.750000", "084324.753000", "084324.755000", "084324.757000", "084324.760000", "084324.762000", "084324.764000", "084324.766000", "084324.769000", "084324.771000", "084324.773000", "084324.776000", "084324.778000", "084324.792000", "084324.795000", "084324.797000", "084324.799000", "084324.802000", "084324.811000", "084324.814000", "084324.816000", "084324.818000", "084324.821000", "084324.823000", "084324.825000", "084404.718000", "084404.721000", "084404.723000", "084404.725000", "084404.728000", "084404.730000", "084404.733000", "084404.735000", "084404.737000", "084404.740000", "084404.742000", "084404.744000", "084404.746000", "084404.749000", "084404.751000", "084404.754000", "084404.756000", "084404.758000", "084404.760000", "084404.763000", "084444.718000", "084444.721000", "084444.723000", "084444.726000", "084444.728000", "084444.730000", "084444.732000", "084444.735000", "084444.737000", "084444.739000", "084444.742000", "084444.744000", "084444.746000", "084444.749000", "084444.751000", "084444.753000", "084444.756000", "084444.758000", "084444.760000", "084444.763000", "084524.718000", "084524.721000", "084524.723000", "084524.726000", "084524.728000", "084524.730000", "084524.732000", "084524.735000", "084524.737000", "084524.739000", "084524.742000", "084524.744000", "084524.746000", "084524.748000", "084524.751000", "084524.753000", "084524.755000", "084524.758000", "084524.760000", "084524.762000", "084544.719000", "084544.722000", "084544.724000", "084544.726000", "084544.729000", "084544.731000", "084544.733000", "084544.736000", "084544.738000", "084544.740000", "084624.718000", "084624.726000", "084624.729000", "084624.731000", "084624.733000", "084624.736000", "084624.738000", "084624.740000", "084624.742000", "084624.745000", "084624.747000", "084624.749000", "084624.752000", "084624.754000", "084624.756000", "084624.759000", "084624.761000", "084624.763000", "084624.765000", "084624.768000", "084704.718000", "084704.721000", "084704.723000", "084704.725000", "084704.728000", "084704.730000", "084704.739000", "084704.742000", "084704.744000", "084704.746000", "084704.749000", "084704.751000", "084704.753000", "084704.756000", "084704.758000", "084704.760000", "084704.763000", "084704.765000", "084704.767000", "084704.770000", "084744.718000", "084744.721000", "084744.723000", "084744.725000", "084744.727000", "084744.730000", "084744.732000", "084744.734000", "084744.737000", "084744.739000", "084744.742000", "084744.744000", "084744.746000", "084744.749000", "084744.751000", "084744.753000", "084744.756000", "084744.758000", "084744.760000", "084744.762000", "084824.719000", "084824.722000", "084824.724000", "084824.726000", "084824.729000", "084824.731000", "084824.734000", "084824.736000", "084824.738000", "084824.741000", "084824.743000", "084824.746000", "084824.748000", "084824.750000", "084824.753000", "084824.755000", "084824.777000", "084824.780000", "084824.782000", "084824.784000", "084904.718000", "084904.721000", "084904.723000", "084904.726000", "084904.728000", "084904.731000", "084904.733000", "084904.735000", "084904.738000", "084904.740000", "084904.742000", "084904.745000", "084904.747000", "084904.750000", "084904.752000", "084904.754000", "084904.757000", "084904.759000", "084904.761000", "084904.763000", "084907.840000", "084907.843000"],
      "InstanceCreationTime": ["084324.725000", "084324.728000", "084324.748000", "084324.750000", "084324.753000", "084324.755000", "084324.757000", "084324.760000", "084324.762000", "084324.764000", "084324.766000", "084324.769000", "084324.771000", "084324.773000", "084324.776000", "084324.778000", "084324.792000", "084324.795000", "084324.797000", "084324.799000", "084324.802000", "084324.811000", "084324.814000", "084324.816000", "084324.818000", "084324.821000", "084324.823000", "084324.825000", "084404.718000", "084404.721000", "084404.723000", "084404.725000", "084404.728000", "084404.730000", "084404.733000", "084404.735000", "084404.737000", "084404.740000", "084404.742000", "084404.744000", "084404.746000", "084404.749000", "084404.751000", "084404.754000", "084404.756000", "084404.758000", "084404.760000", "084404.763000", "084444.718000", "084444.721000", "084444.723000", "084444.726000", "084444.728000", "084444.730000", "084444.732000", "084444.735000", "084444.737000", "084444.739000", "084444.742000", "084444.744000", "084444.746000", "084444.749000", "084444.751000", "084444.753000", "084444.756000", "084444.758000", "084444.760000", "084444.763000", "084524.718000", "084524.721000", "084524.723000", "084524.726000", "084524.728000", "084524.730000", "084524.732000", "084524.735000", "084524.737000", "084524.739000", "084524.742000", "084524.744000", "084524.746000", "084524.748000", "084524.751000", "084524.753000", "084524.755000", "084524.758000", "084524.760000", "084524.762000", "084544.719000", "084544.722000", "084544.724000", "084544.726000", "084544.729000", "084544.731000", "084544.733000", "084544.736000", "084544.738000", "084544.740000", "084624.718000", "084624.726000", "084624.729000", "084624.731000", "084624.733000", "084624.736000", "084624.738000", "084624.740000", "084624.742000", "084624.745000", "084624.747000", "084624.749000", "084624.752000", "084624.754000", "084624.756000", "084624.759000", "084624.761000", "084624.763000", "084624.765000", "084624.768000", "084704.718000", "084704.721000", "084704.723000", "084704.725000", "084704.728000", "084704.730000", "084704.739000", "084704.742000", "084704.744000", "084704.746000", "084704.749000", "084704.751000", "084704.753000", "084704.756000", "084704.758000", "084704.760000", "084704.763000", "084704.765000", "084704.767000", "084704.770000", "084744.718000", "084744.721000", "084744.723000", "084744.725000", "084744.727000", "084744.730000", "084744.732000", "084744.734000", "084744.737000", "084744.739000", "084744.742000", "084744.744000", "084744.746000", "084744.749000", "084744.751000", "084744.753000", "084744.756000", "084744.758000", "084744.760000", "084744.762000", "084824.719000", "084824.722000", "084824.724000", "084824.726000", "084824.729000", "084824.731000", "084824.734000", "084824.736000", "084824.738000", "084824.741000", "084824.743000", "084824.746000", "084824.748000", "084824.750000", "084824.753000", "084824.755000", "084824.777000", "084824.780000", "084824.782000", "084824.784000", "084904.718000", "084904.721000", "084904.723000", "084904.726000", "084904.728000", "084904.731000", "084904.733000", "084904.735000", "084904.738000", "084904.740000", "084904.742000", "084904.745000", "084904.747000", "084904.750000", "084904.752000", "084904.754000", "084904.757000", "084904.759000", "084904.761000", "084904.763000", "084907.840000", "084907.843000"],
      "InstanceNumber": [1, 2, 3, 4, 5, 6, 7, 8, 9, 10, 11, 12, 13, 14, 15, 16, 17, 18, 19, 20, 21, 22, 23, 24, 25, 26, 27, 28, 29, 30, 31, 32, 33, 34, 35, 36, 37, 38, 39, 40, 41, 42, 43, 44, 45, 46, 47, 48, 49, 50, 51, 52, 53, 54, 55, 56, 57, 58, 59, 60, 61, 62, 63, 64, 65, 66, 67, 68, 69, 70, 71, 72, 73, 74, 75, 76, 77, 78, 79, 80, 81, 82, 83, 84, 85, 86, 87, 88, 89, 90, 91, 92, 93, 94, 95, 96, 97, 98, 99, 100, 101, 102, 103, 104, 105, 106, 107, 108, 109, 110, 111, 112, 113, 114, 115, 116, 117, 118, 119, 120, 121, 122, 123, 124, 125, 126, 127, 128, 129, 130, 131, 132, 133, 134, 135, 136, 137, 138, 139, 140, 141, 142, 143, 144, 145, 146, 147, 148, 149, 150, 151, 152, 153, 154, 155, 156, 157, 158, 159, 160, 161, 162, 163, 164, 165, 166, 167, 168, 169, 170, 171, 172, 173, 174, 175, 176, 177, 178, 179, 180, 181, 182, 183, 184, 185, 186, 187, 188, 189, 190, 191, 192, 193, 194, 195, 196, 197, 198, 199, 200],
      "LargestImagePixelValue": [4021, 4010, 4028, 4022, 4016, 4014, 4015, 4017, 4023, 4025, 4016, 4026, 4026, 4020, 4019, 4021, 4018, 4015, 4025, 4025, 4028, 4024, 4030, 4026, 4015, 4020, 4017, 4029, 4024, 4027, 4026, 4027, 4020, 4017, 4017, 4032, 4030, 4033, 4022, 4024, 4035, 4032, 4031, 4025, 4033, 4034, 4034, 4029, 4031, 4020, 4033, 4032, 4042, 4024, 4033, 4043, 4043, 4026, 4037, 4030, 4033, 4037, 4033, 4036, 4030, 4035, 4034, 4039, 4039, 4034, 4041, 4036, 4038, 4045, 4043, 4037, 4036, 4030, 4035, 4035, 4039, 4047, 4042, 4037, 4046, 4095, 4095, 4095, 4095, 4095, 4095, 4095, 4095, 4095, 4095, 4095, 4095, 4095, 4095, 4095, 4095, 4095, 4095, 4095, 4095, 4095, 4095, 4095, 4095, 4095, 4095, 4095, 4095, 4095, 4095, 4095, 4095, 4095, 4095, 4095, 4095, 4095, 4095, 4095, 4095, 4095, 4095, 4095, 4095, 4095, 4095, 4095, 4095, 4095, 4095, 4095, 4095, 4095, 4095, 4095, 4095, 4095, 4095, 4095, 4095, 4095, 4095, 4095, 4095, 4095, 4095, 4095, 4095, 4095, 4095, 4095, 4095, 4095, 4095, 4095, 4095, 4095, 4095, 4095, 4095, 4095, 4095, 4095, 4095, 4095, 4095, 4095, 4095, 4095, 4095, 4095, 4095, 4095, 4095, 4095, 4095, 4095, 4095, 4095, 4095, 4095, 4095, 4095, 4095, 4095, 4095, 4095, 4095, 4095, 4095, 4095, 4095, 4095, 4095, 4095],
      "WindowCenter": [1499.0, 1498.0, 1498.0, 1499.0, 1498.0, 1498.0, 1498.0, 1498.0, 1498.0, 1498.0, 1497.0, 1498.0, 1497.0, 1498.0, 1498.0, 1498.0, 1498.0, 1498.0, 1498.0, 1498.0, 1498.0, 1497.0, 1498.0, 1497.0, 1498.0, 1498.0, 1498.0, 1498.0, 1497.0, 1498.0, 1498.0, 1498.0, 1497.0, 1498.0, 1498.0, 1497.0, 1498.0, 1497.0, 1497.0, 1497.0, 1497.0, 1497.0, 1498.0, 1497.0, 1498.0, 1497.0, 1496.0, 1497.0, 1496.0, 1497.0, 1497.0, 1497.0, 1496.0, 1497.0, 1498.0, 1497.0, 1498.0, 1497.0, 1496.0, 1496.0, 1497.0, 1497.0, 1496.0, 1497.0, 1496.0, 1496.0, 1496.0, 1496.0, 1495.0, 1497.0, 1496.0, 1495.0, 1496.0, 1496.0, 1497.0, 1496.0, 1496.0, 1495.0, 1495.0, 1496.0, 1496.0, 1496.0, 1496.0, 1495.0, 1495.0, 1500.0, 1500.0, 1500.0, 1500.0, 1500.0, 1499.0, 1500.0, 1500.0, 1500.0, 1500.0, 1499.0, 1499.0, 1500.0, 1499.0, 1500.0, 1500.0, 1499.0, 1500.0, 1500.0, 1499.0, 1499.0, 1500.0, 1500.0, 1500.0, 1500.0, 1500.0, 1500.0, 1500.0, 1500.0, 1500.0, 1500.0, 1499.0, 1499.0, 1499.0, 1500.0, 1499.0, 1499.0, 1499.0, 1500.0, 1499.0, 1499.0, 1499.0, 1499.0, 1499.0, 1498.0, 1499.0, 1499.0, 1498.0, 1499.0, 1499.0, 1499.0, 1499.0, 1499.0, 1500.0, 1499.0, 1499.0, 1499.0, 1499.0, 1499.0, 1498.0, 1499.0, 1499.0, 1499.0, 1499.0, 1499.0, 1499.0, 1499.0, 1499.0, 1499.0, 1499.0, 1499.0, 1499.0, 1499.0, 1499.0, 1499.0, 1499.0, 1499.0, 1499.0, 1499.0, 1498.0, 1498.0, 1499.0, 1498.0, 1499.0, 1499.0, 1499.0, 1498.0, 1498.0, 1498.0, 1498.0, 1498.0, 1498.0, 1498.0, 1498.0, 1499.0, 1499.0, 1499.0, 1498.0, 1498.0, 1498.0, 1498.0, 1498.0, 1498.0, 1498.0, 1498.0, 1498.0, 1497.0, 1497.0, 1498.0, 1498.0, 1498.0, 1498.0, 1498.0, 1498.0, 1498.0],
      "WindowWidth": [3401.0, 3400.0, 3400.0, 3400.0, 3400.0, 3400.0, 3400.0, 3400.0, 3400.0, 3400.0, 3400.0, 3400.0, 3400.0, 3400.0, 3400.0, 3400.0, 3400.0, 3400.0, 3400.0, 3400.0, 3400.0, 3400.0, 3399.0, 3400.0, 3400.0, 3400.0, 3400.0, 3400.0, 3400.0, 3400.0, 3400.0, 3400.0, 3400.0, 3400.0, 3400.0, 3400.0, 3400.0, 3400.0, 3400.0, 3400.0, 3400.0, 3400.0, 3400.0, 3400.0, 3400.0, 3400.0, 3400.0, 3400.0, 3400.0, 3400.0, 3400.0, 3400.0, 3400.0, 3400.0, 3400.0, 3400.0, 3400.0, 3400.0, 3400.0, 3400.0, 3400.0, 3400.0, 3400.0, 3400.0, 3400.0, 3400.0, 3400.0, 3400.0, 3400.0, 3400.0, 3400.0, 3400.0, 3400.0, 3400.0, 3400.0, 3400.0, 3400.0, 3401.0, 3400.0, 3400.0, 3400.0, 3400.0, 3400.0, 3400.0, 3400.0, 3410.0, 3410.0, 3410.0, 3409.0, 3409.0, 3410.0, 3410.0, 3410.0, 3410.0, 3410.0, 3410.0, 3410.0, 3410.0, 3410.0, 3410.0, 3410.0, 3410.0, 3410.0, 3410.0, 3410.0, 3410.0, 3410.0, 3410.0, 3410.0, 3410.0, 3410.0, 3410.0, 3409.0, 3409.0, 3410.0, 3410.0, 3410.0, 3410.0, 3410.0, 3409.0, 3409.0, 3409.0, 3410.0, 3410.0, 3409.0, 3410.0, 3409.0, 3409.0, 3409.0, 3410.0, 3409.0, 3409.0, 3410.0, 3409.0, 3409.0, 3409.0, 3410.0, 3410.0, 3410.0, 3410.0, 3410.0, 3410.0, 3409.0, 3409.0, 3410.0, 3410.0, 3409.0, 3409.0, 3409.0, 3409.0, 3409.0, 3409.0, 3409.0, 3409.0, 3409.0, 3409.0, 3409.0, 3409.0, 3409.0, 3409.0, 3409.0, 3409.0, 3409.0, 3409.0, 3409.0, 3409.0, 3409.0, 3409.0, 3409.0, 3409.0, 3409.0, 3409.0, 3409.0, 3409.0, 3409.0, 3409.0, 3409.0, 3409.0, 3409.0, 3409.0, 3409.0, 3409.0, 3409.0, 3409.0, 3409.0, 3409.0, 3409.0, 3409.0, 3409.0, 3409.0, 3409.0, 3409.0, 3409.0, 3409.0, 3409.0, 3409.0, 3409.0, 3409.0, 3409.0, 3409.0]
    },
    "slices": {}
  }
}