{
  "AcquisitionMatrixPE": 80,
  "AcquisitionNumber": 1,
  "AcquisitionTime": "09:27:32.505000",
  "BandwidthPerPixelPhaseEncode": 48.077,
  "BaseResolution": 80,
  "BodyPartExamined": "BRAIN",
  "CoilCombinationMethod": "Sum of Squares",
  "ConsistencyInfo": "N4_VE11C_LATEST_20160120",
  "ConversionSoftware": "dcm2niix",
  "ConversionSoftwareVersion": "v1.0.20220720",
  "DerivedVendorReportedEchoSpacing": 0.000519999,
  "DeviceSerialNumber": "66112",
  "DwellTime": 2.7e-06,
  "EchoTime": 0.035,
  "EchoTrainLength": 39,
  "EffectiveEchoSpacing": 0.00026,
  "FlipAngle": 90,
  "HeudiconvVersion": "0.13.1",
  "ImageOrientationPatientDICOM": [0.986591, 0.163006, 0.00823029, -0.157673, 0.938863, 0.306066],
  "ImageOrientationText": "Tra>Cor(17.7)>Sag(-2.4)",
  "ImageType": [
    "ORIGINAL",
    "PRIMARY",
    "M",
    "ND",
    "NORM",
    "MOSAIC"
],
  "ImagingFrequency": 123.252,
  "InPlanePhaseEncodingDirectionDICOM": "COL",
  "InstitutionAddress": "Maynard 3,Hanover,NH,US,03755",
  "InstitutionName": "Dartmouth College - PBS",
  "InstitutionalDepartmentName": "Department",
  "MRAcquisitionType": "2D",
  "MagneticFieldStrength": 3,
  "Manufacturer": "Siemens",
  "ManufacturersModelName": "Prisma",
  "MatrixCoilMode": "GRAPPA",
  "Modality": "MR",
  "NonlinearGradientCorrection": false,
  "ParallelReductionFactorInPlane": 2,
  "PartialFourier": 1,
  "PatientPosition": "HFS",
  "PercentPhaseFOV": 100,
  "PercentSampling": 100,
  "PhaseEncodingDirection": "j-",
  "PhaseEncodingSteps": 79,
  "PhaseResolution": 1,
  "PixelBandwidth": 2315,
  "ProcedureStepDescription": "dbic^QA",
  "ProtocolName": "func-bold_task-rest_acq-p2",
  "PulseSequenceDetails": "%SiemensSeq%\\ep2d_bold",
  "ReceiveCoilActiveElements": "HEA;HEP",
  "ReceiveCoilName": "Head_32",
  "ReconMatrixPE": 80,
  "RefLinesPE": 24,
  "RepetitionTime": 2,
  "SAR": 0.0475836,
  "ScanOptions": "FS",
  "ScanningSequence": "EP",
  "SequenceName": "*epfid2d1_80",
  "SequenceVariant": "SK",
  "SeriesDescription": "func-bold_task-rest_acq-p2",
  "SeriesNumber": 5,
  "ShimSetting": [4142, -7697, -7521, 234, -82, -78, 7, 65],
  "SliceThickness": 3.5,
  "SliceTiming": [0.99, 0, 1.055, 0.065, 1.1225, 0.1325, 1.1875, 0.1975, 1.255, 0.265, 1.32, 0.33, 1.385, 0.395, 1.4525, 0.4625, 1.5175, 0.5275, 1.585, 0.595, 1.65, 0.66, 1.715, 0.725, 1.7825, 0.7925, 1.8475, 0.8575, 1.915, 0.925],
  "SoftwareVersions": "syngo MR E11",
  "SpacingBetweenSlices": 3.99,
  "StationName": "AWP66112",
  "TaskName": "rest",
  "TotalReadoutTime": 0.02054,
  "TxRefAmp": 225.964,
  "dcmmeta_affine": [
    [-2.9597723484039307, -0.4730192720890045, -0.1682317703962326, 139.6085968017578],
    [-0.48901668190956116, 2.816587448120117, 1.2100058794021606, -94.91282653808594],
    [0.02469087392091751, -0.9181980490684509, 3.7983789443969727, -21.61379051208496],
    [0.0, 0.0, 0.0, 1.0]
],
  "dcmmeta_reorient_transform": [
    [0.0, -1.0, 0.0, 79.0],
    [1.0, 0.0, 0.0, 0.0],
    [0.0, 0.0, 1.0, 0.0],
    [0.0, 0.0, 0.0, 1.0]
],
  "dcmmeta_shape": [80, 80, 30, 200],
  "dcmmeta_slice_dim": 2,
  "dcmmeta_version": 0.6,
  "global": {
    "const": {
      "AccessionNumber": "qa",
      "AcquisitionMatrix": [80, 0, 0, 80],
      "AngioFlag": "N",
      "BitsAllocated": 16,
      "BitsStored": 12,
      "BodyPartExamined": "BRAIN",
      "Columns": 480,
      "EchoNumbers": 1,
      "EchoTime": 35.0,
      "EchoTrainLength": 39,
      "FlipAngle": 90.0,
      "HighBit": 11,
      "ImageOrientationPatient": [0.98659082179699, 0.16300556019789, 0.00823029103487, -0.1576730866377, 0.93886250002401, 0.30606601215882],
      "ImagePositionPatient": [-599.59071231357, -788.71842502877, -282.72921705312],
      "ImageType": [
        "ORIGINAL",
        "PRIMARY",
        "M",
        "ND",
        "NORM",
        "MOSAIC"
],
      "ImagedNucleus": "1H",
      "ImagingFrequency": 123.252353,
      "InPlanePhaseEncodingDirection": "COL",
      "MRAcquisitionType": "2D",
      "MagneticFieldStrength": 3.0,
      "Manufacturer": "SIEMENS",
      "ManufacturerModelName": "Prisma",
      "Modality": "MR",
      "NumberOfAverages": 1.0,
      "NumberOfPhaseEncodingSteps": 79,
      "PercentPhaseFieldOfView": 100.0,
      "PercentSampling": 100.0,
      "PerformedProcedureStepStartTime": "092538.384000",
      "PhotometricInterpretation": "MONOCHROME2",
      "PixelBandwidth": 2315.0,
      "PixelRepresentation": 0,
      "PixelSpacing": [3.0, 3.0],
      "ProtocolName": "func-bold_task-rest_acq-p2",
      "RepetitionTime": 2000.0,
      "Rows": 480,
      "SAR": 0.04758364272459,
      "SamplesPerPixel": 1,
      "ScanOptions": "FS",
      "ScanningSequence": "EP",
      "SequenceName": "*epfid2d1_80",
      "SequenceVariant": "SK",
      "SeriesDescription": "func-bold_task-rest_acq-p2",
      "SeriesNumber": 5,
      "SeriesTime": "092823.036000",
      "SliceLocation": -55.245374042124,
      "SliceThickness": 3.5,
      "SmallestImagePixelValue": 0,
      "SoftwareVersions": "syngo MR E11",
      "SpacingBetweenSlices": 3.9899999427145,
      "SpecificCharacterSet": "ISO_IR 100",
      "StudyID": "60",
      "StudyTime": "092538.328000",
      "TransmitCoilName": "Body",
      "VariableFlipAngleFlag": "N",
      "WindowCenterWidthExplanation": "Algo1",
      "dBdt": 0.0},
    "slices": {}
  },
  "time": {
    "samples": {
      "AcquisitionNumber": [1, 2, 3, 4, 5, 6, 7, 8, 9, 10, 11, 12, 13, 14, 15, 16, 17, 18, 19, 20, 21, 22, 23, 24, 25, 26, 27, 28, 29, 30, 31, 32, 33, 34, 35, 36, 37, 38, 39, 40, 41, 42, 43, 44, 45, 46, 47, 48, 49, 50, 51, 52, 53, 54, 55, 56, 57, 58, 59, 60, 61, 62, 63, 64, 65, 66, 67, 68, 69, 70, 71, 72, 73, 74, 75, 76, 77, 78, 79, 80, 81, 82, 83, 84, 85, 86, 87, 88, 89, 90, 91, 92, 93, 94, 95, 96, 97, 98, 99, 100, 101, 102, 103, 104, 105, 106, 107, 108, 109, 110, 111, 112, 113, 114, 115, 116, 117, 118, 119, 120, 121, 122, 123, 124, 125, 126, 127, 128, 129, 130, 131, 132, 133, 134, 135, 136, 137, 138, 139, 140, 141, 142, 143, 144, 145, 146, 147, 148, 149, 150, 151, 152, 153, 154, 155, 156, 157, 158, 159, 160, 161, 162, 163, 164, 165, 166, 167, 168, 169, 170, 171, 172, 173, 174, 175, 176, 177, 178, 179, 180, 181, 182, 183, 184, 185, 186, 187, 188, 189, 190, 191, 192, 193, 194, 195, 196, 197, 198, 199, 200],
      "AcquisitionTime": ["092732.505000", "092734.505000", "092736.505000", "092738.505000", "092740.505000", "092742.505000", "092744.505000", "092746.505000", "092748.505000", "092750.505000", "092752.505000", "092754.505000", "092756.505000", "092758.505000", "092800.505000", "092802.505000", "092804.505000", "092806.505000", "092808.505000", "092810.505000", "092812.505000", "092814.505000", "092816.505000", "092818.505000", "092820.505000", "092822.505000", "092824.505000", "092826.505000", "092828.505000", "092830.505000", "092832.505000", "092834.505000", "092836.505000", "092838.505000", "092840.505000", "092842.505000", "092844.505000", "092846.505000", "092848.505000", "092850.505000", "092852.505000", "092854.505000", "092856.505000", "092858.505000", "092900.505000", "092902.505000", "092904.505000", "092906.505000", "092908.505000", "092910.505000", "092912.505000", "092914.505000", "092916.505000", "092918.505000", "092920.505000", "092922.505000", "092924.505000", "092926.505000", "092928.505000", "092930.505000", "092932.505000", "092934.505000", "092936.505000", "092938.505000", "092940.505000", "092942.505000", "092944.505000", "092946.505000", "092948.505000", "092950.505000", "092952.505000", "092954.505000", "092956.505000", "092958.505000", "093000.505000", "093002.505000", "093004.505000", "093006.505000", "093008.505000", "093010.505000", "093012.505000", "093014.505000", "093016.505000", "093018.505000", "093020.505000", "093022.505000", "093024.505000", "093026.505000", "093028.505000", "093030.505000", "093032.505000", "093034.505000", "093036.505000", "093038.505000", "093040.505000", "093042.505000", "093044.505000", "093046.505000", "093048.505000", "093050.505000", "093052.505000", "093054.505000", "093056.505000", "093058.505000", "093100.505000", "093102.505000", "093104.505000", "093106.505000", "093108.505000", "093110.505000", "093112.505000", "093114.505000", "093116.505000", "093118.505000", "093120.505000", "093122.505000", "093124.505000", "093126.505000", "093128.505000", "093130.505000", "093132.505000", "093134.505000", "093136.505000", "093138.505000", "093140.505000", "093142.505000", "093144.505000", "093146.505000", "093148.505000", "093150.505000", "093152.505000", "093154.505000", "093156.505000", "093158.505000", "093200.505000", "093202.505000", "093204.505000", "093206.505000", "093208.505000", "093210.505000", "093212.505000", "093214.505000", "093216.505000", "093218.505000", "093220.505000", "093222.505000", "093224.505000", "093226.505000", "093228.505000", "093230.505000", "093232.505000", "093234.505000", "093236.505000", "093238.505000", "093240.505000", "093242.505000", "093244.505000", "093246.505000", "093248.505000", "093250.505000", "093252.505000", "093254.505000", "093256.505000", "093258.505000", "093300.505000", "093302.505000", "093304.505000", "093306.505000", "093308.505000", "093310.505000", "093312.505000", "093314.505000", "093316.505000", "093318.505000", "093320.505000", "093322.505000", "093324.505000", "093326.505000", "093328.505000", "093330.505000", "093332.505000", "093334.505000", "093336.505000", "093338.505000", "093340.505000", "093342.505000", "093344.505000", "093346.505000", "093348.505000", "093350.505000", "093352.505000", "093354.505000", "093356.505000", "093358.505000", "093400.505000", "093402.505000", "093404.505000", "093406.505000", "093408.505000", "093410.505000"],
      "ContentTime": ["092823.039000", "092823.043000", "092823.045000", "092823.048000", "092823.051000", "092823.053000", "092823.056000", "092823.058000", "092823.061000", "092823.063000", "092823.066000", "092823.069000", "092823.071000", "092823.074000", "092823.076000", "092823.079000", "092823.081000", "092823.084000", "092823.087000", "092823.089000", "092823.092000", "092823.094000", "092823.097000", "092823.100000", "092823.102000", "092903.035000", "092903.037000", "092903.040000", "092903.043000", "092903.045000", "092903.048000", "092903.050000", "092903.053000", "092903.055000", "092903.058000", "092903.060000", "092903.063000", "092903.066000", "092903.068000", "092903.071000", "092903.073000", "092903.076000", "092903.079000", "092903.081000", "092903.084000", "092943.035000", "092943.038000", "092943.041000", "092943.044000", "092943.046000", "092943.049000", "092943.052000", "092943.054000", "092943.057000", "092943.059000", "092943.062000", "092943.065000", "092943.067000", "092943.070000", "092943.072000", "092943.075000", "092943.078000", "092943.080000", "092943.083000", "092943.085000", "093023.035000", "093023.037000", "093023.040000", "093023.043000", "093023.045000", "093023.048000", "093023.050000", "093023.053000", "093023.055000", "093023.058000", "093023.060000", "093023.063000", "093023.065000", "093023.068000", "093023.071000", "093023.073000", "093023.076000", "093023.078000", "093023.081000", "093023.084000", "093103.035000", "093103.037000", "093103.040000", "093103.043000", "093103.045000", "093103.048000", "093103.050000", "093103.053000", "093103.056000", "093103.058000", "093103.061000", "093103.064000", "093103.066000", "093103.069000", "093103.071000", "093103.074000", "093103.077000", "093103.079000", "093103.082000", "093103.084000", "093143.036000", "093143.039000", "093143.041000", "093143.044000", "093143.047000", "093143.049000", "093143.052000", "093143.055000", "093143.057000", "093143.060000", "093143.062000", "093143.065000", "093143.068000", "093143.070000", "093143.073000", "093143.075000", "093143.078000", "093143.081000", "093143.083000", "093143.086000", "093223.036000", "093223.038000", "093223.041000", "093223.044000", "093223.046000", "093223.049000", "093223.051000", "093223.054000", "093223.057000", "093223.059000", "093223.062000", "093223.064000", "093223.067000", "093223.069000", "093223.072000", "093223.075000", "093223.077000", "093223.080000", "093223.082000", "093223.085000", "093303.035000", "093303.037000", "093303.040000", "093303.043000", "093303.045000", "093303.048000", "093303.050000", "093303.053000", "093303.056000", "093303.058000", "093303.061000", "093303.063000", "093303.066000", "093303.068000", "093303.071000", "093303.074000", "093303.076000", "093303.079000", "093303.081000", "093303.084000", "093343.035000", "093343.038000", "093343.040000", "093343.043000", "093343.046000", "093343.059000", "093343.062000", "093343.065000", "093343.067000", "093343.070000", "093343.073000", "093343.075000", "093343.078000", "093343.081000", "093343.083000", "093343.086000", "093343.088000", "093343.091000", "093343.094000", "093343.096000", "093412.419000", "093412.422000", "093412.424000", "093412.427000", "093412.430000", "093412.432000", "093412.435000", "093412.445000", "093412.450000", "093412.454000", "093412.457000", "093412.461000", "093412.465000", "093412.468000", "093412.472000"],
      "InstanceCreationTime": ["092823.039000", "092823.043000", "092823.045000", "092823.048000", "092823.051000", "092823.053000", "092823.056000", "092823.058000", "092823.061000", "092823.063000", "092823.066000", "092823.069000", "092823.071000", "092823.074000", "092823.076000", "092823.079000", "092823.081000", "092823.084000", "092823.087000", "092823.089000", "092823.092000", "092823.094000", "092823.097000", "092823.100000", "092823.102000", "092903.035000", "092903.037000", "092903.040000", "092903.043000", "092903.045000", "092903.048000", "092903.050000", "092903.053000", "092903.055000", "092903.058000", "092903.060000", "092903.063000", "092903.066000", "092903.068000", "092903.071000", "092903.073000", "092903.076000", "092903.079000", "092903.081000", "092903.084000", "092943.035000", "092943.038000", "092943.041000", "092943.044000", "092943.046000", "092943.049000", "092943.052000", "092943.054000", "092943.057000", "092943.059000", "092943.062000", "092943.065000", "092943.067000", "092943.070000", "092943.072000", "092943.075000", "092943.078000", "092943.080000", "092943.083000", "092943.085000", "093023.035000", "093023.037000", "093023.040000", "093023.043000", "093023.045000", "093023.048000", "093023.050000", "093023.053000", "093023.055000", "093023.058000", "093023.060000", "093023.063000", "093023.065000", "093023.068000", "093023.071000", "093023.073000", "093023.076000", "093023.078000", "093023.081000", "093023.084000", "093103.035000", "093103.037000", "093103.040000", "093103.043000", "093103.045000", "093103.048000", "093103.050000", "093103.053000", "093103.056000", "093103.058000", "093103.061000", "093103.064000", "093103.066000", "093103.069000", "093103.071000", "093103.074000", "093103.077000", "093103.079000", "093103.082000", "093103.084000", "093143.036000", "093143.039000", "093143.041000", "093143.044000", "093143.047000", "093143.049000", "093143.052000", "093143.055000", "093143.057000", "093143.060000", "093143.062000", "093143.065000", "093143.068000", "093143.070000", "093143.073000", "093143.075000", "093143.078000", "093143.081000", "093143.083000", "093143.086000", "093223.036000", "093223.038000", "093223.041000", "093223.044000", "093223.046000", "093223.049000", "093223.051000", "093223.054000", "093223.057000", "093223.059000", "093223.062000", "093223.064000", "093223.067000", "093223.069000", "093223.072000", "093223.075000", "093223.077000", "093223.080000", "093223.082000", "093223.085000", "093303.035000", "093303.037000", "093303.040000", "093303.043000", "093303.045000", "093303.048000", "093303.050000", "093303.053000", "093303.056000", "093303.058000", "093303.061000", "093303.063000", "093303.066000", "093303.068000", "093303.071000", "093303.074000", "093303.076000", "093303.079000", "093303.081000", "093303.084000", "093343.035000", "093343.038000", "093343.040000", "093343.043000", "093343.046000", "093343.059000", "093343.062000", "093343.065000", "093343.067000", "093343.070000", "093343.073000", "093343.075000", "093343.078000", "093343.081000", "093343.083000", "093343.086000", "093343.088000", "093343.091000", "093343.094000", "093343.096000", "093412.419000", "093412.422000", "093412.424000", "093412.427000", "093412.430000", "093412.432000", "093412.435000", "093412.445000", "093412.450000", "093412.454000", "093412.457000", "093412.461000", "093412.465000", "093412.468000", "093412.472000"],
      "InstanceNumber": [1, 2, 3, 4, 5, 6, 7, 8, 9, 10, 11, 12, 13, 14, 15, 16, 17, 18, 19, 20, 21, 22, 23, 24, 25, 26, 27, 28, 29, 30, 31, 32, 33, 34, 35, 36, 37, 38, 39, 40, 41, 42, 43, 44, 45, 46, 47, 48, 49, 50, 51, 52, 53, 54, 55, 56, 57, 58, 59, 60, 61, 62, 63, 64, 65, 66, 67, 68, 69, 70, 71, 72, 73, 74, 75, 76, 77, 78, 79, 80, 81, 82, 83, 84, 85, 86, 87, 88, 89, 90, 91, 92, 93, 94, 95, 96, 97, 98, 99, 100, 101, 102, 103, 104, 105, 106, 107, 108, 109, 110, 111, 112, 113, 114, 115, 116, 117, 118, 119, 120, 121, 122, 123, 124, 125, 126, 127, 128, 129, 130, 131, 132, 133, 134, 135, 136, 137, 138, 139, 140, 141, 142, 143, 144, 145, 146, 147, 148, 149, 150, 151, 152, 153, 154, 155, 156, 157, 158, 159, 160, 161, 162, 163, 164, 165, 166, 167, 168, 169, 170, 171, 172, 173, 174, 175, 176, 177, 178, 179, 180, 181, 182, 183, 184, 185, 186, 187, 188, 189, 190, 191, 192, 193, 194, 195, 196, 197, 198, 199, 200],
      "LargestImagePixelValue": [2056, 2054, 2050, 2060, 2053, 2064, 2048, 2055, 2050, 2060, 2057, 2057, 2053, 2053, 2052, 2054, 2058, 2053, 2052, 2059, 2059, 2051, 2060, 2054, 2054, 2056, 2056, 2056, 2050, 2054, 2056, 2052, 2054, 2061, 2054, 2054, 2053, 2052, 2055, 2062, 2056, 2054, 2060, 2051, 2051, 2053, 2050, 2057, 2052, 2051, 2053, 2051, 2056, 2051, 2053, 2055, 2051, 2060, 2053, 2049, 2054, 2054, 2063, 2048, 2054, 2056, 2050, 2059, 2057, 2052, 2057, 2056, 2054, 2057, 2052, 2060, 2052, 2055, 2049, 2056, 2056, 2049, 2056, 2060, 2056, 2054, 2051, 2060, 2053, 2055, 2050, 2052, 2052, 2050, 2055, 2056, 2050, 2059, 2054, 2053, 2053, 2058, 2048, 2057, 2053, 2049, 2052, 2053, 2056, 2051, 2057, 2049, 2051, 2060, 2055, 2053, 2054, 2051, 2051, 2052, 2051, 2049, 2056, 2056, 2051, 2059, 2051, 2056, 2057, 2051, 2053, 2053, 2056, 2055, 2048, 2050, 2052, 2044, 2054, 2060, 2054, 2052, 2052, 2053, 2055, 2052, 2050, 2051, 2056, 2052, 2052, 2049, 2062, 2058, 2047, 2056, 2052, 2056, 2046, 2045, 2053, 2053, 2049, 2053, 2052, 2054, 2059, 2052, 2055, 2048, 2049, 2057, 2055, 2051, 2056, 2048, 2051, 2047, 2051, 2053, 2049, 2054, 2056, 2056, 2049, 2060, 2052, 2048, 2053, 2048, 2051, 2053, 2056, 2052, 2053, 2049, 2050, 2052, 2048, 2054],
      "WindowCenter": [998.0, 998.0, 998.0, 999.0, 998.0, 998.0, 998.0, 998.0, 997.0, 997.0, 998.0, 997.0, 997.0, 997.0, 997.0, 997.0, 997.0, 997.0, 997.0, 997.0, 998.0, 998.0, 997.0, 998.0, 997.0, 998.0, 997.0, 997.0, 997.0, 997.0, 997.0, 997.0, 997.0, 997.0, 997.0, 997.0, 997.0, 998.0, 997.0, 997.0, 997.0, 997.0, 998.0, 997.0, 997.0, 997.0, 998.0, 997.0, 997.0, 997.0, 997.0, 998.0, 997.0, 998.0, 997.0, 997.0, 997.0, 997.0, 997.0, 997.0, 997.0, 997.0, 997.0, 997.0, 997.0, 997.0, 997.0, 998.0, 997.0, 997.0, 996.0, 997.0, 997.0, 997.0, 997.0, 997.0, 997.0, 997.0, 998.0, 996.0, 996.0, 996.0, 996.0, 996.0, 997.0, 996.0, 996.0, 997.0, 996.0, 996.0, 997.0, 997.0, 996.0, 996.0, 996.0, 996.0, 996.0, 997.0, 996.0, 996.0, 996.0, 996.0, 996.0, 996.0, 996.0, 996.0, 997.0, 996.0, 996.0, 997.0, 996.0, 996.0, 996.0, 997.0, 996.0, 996.0, 996.0, 996.0, 996.0, 996.0, 996.0, 996.0, 996.0, 996.0, 996.0, 996.0, 996.0, 997.0, 996.0, 996.0, 997.0, 996.0, 996.0, 996.0, 996.0, 997.0, 996.0, 996.0, 996.0, 996.0, 997.0, 996.0, 996.0, 996.0, 997.0, 996.0, 997.0, 997.0, 996.0, 997.0, 996.0, 996.0, 996.0, 996.0, 996.0, 996.0, 996.0, 996.0, 997.0, 996.0, 996.0, 997.0, 996.0, 996.0, 996.0, 996.0, 996.0, 996.0, 996.0, 996.0, 997.0, 996.0, 997.0, 996.0, 998.0, 996.0, 997.0, 996.0, 996.0, 997.0, 996.0, 996.0, 996.0, 996.0, 996.0, 996.0, 996.0, 996.0, 996.0, 997.0, 997.0, 996.0, 996.0, 996.0, 996.0, 996.0, 997.0, 996.0, 996.0, 996.0],
      "WindowWidth": [2198.0, 2197.0, 2197.0, 2198.0, 2197.0, 2197.0, 2197.0, 2197.0, 2197.0, 2197.0, 2197.0, 2197.0, 2196.0, 2197.0, 2196.0, 2196.0, 2196.0, 2196.0, 2197.0, 2196.0, 2197.0, 2197.0, 2196.0, 2197.0, 2196.0, 2197.0, 2196.0, 2196.0, 2196.0, 2196.0, 2196.0, 2196.0, 2196.0, 2196.0, 2196.0, 2196.0, 2195.0, 2196.0, 2195.0, 2195.0, 2195.0, 2195.0, 2195.0, 2195.0, 2195.0, 2195.0, 2195.0, 2195.0, 2195.0, 2195.0, 2195.0, 2195.0, 2195.0, 2195.0, 2195.0, 2195.0, 2195.0, 2194.0, 2195.0, 2195.0, 2195.0, 2194.0, 2195.0, 2194.0, 2194.0, 2194.0, 2194.0, 2196.0, 2195.0, 2194.0, 2194.0, 2195.0, 2195.0, 2194.0, 2194.0, 2194.0, 2195.0, 2195.0, 2195.0, 2194.0, 2194.0, 2194.0, 2194.0, 2194.0, 2194.0, 2194.0, 2194.0, 2194.0, 2194.0, 2194.0, 2194.0, 2194.0, 2194.0, 2194.0, 2194.0, 2194.0, 2194.0, 2194.0, 2194.0, 2194.0, 2194.0, 2194.0, 2194.0, 2194.0, 2194.0, 2194.0, 2195.0, 2194.0, 2193.0, 2194.0, 2194.0, 2194.0, 2194.0, 2194.0, 2194.0, 2194.0, 2194.0, 2194.0, 2193.0, 2193.0, 2193.0, 2193.0, 2193.0, 2193.0, 2193.0, 2193.0, 2193.0, 2194.0, 2193.0, 2193.0, 2194.0, 2193.0, 2193.0, 2193.0, 2193.0, 2194.0, 2193.0, 2193.0, 2193.0, 2193.0, 2194.0, 2193.0, 2193.0, 2193.0, 2194.0, 2193.0, 2194.0, 2194.0, 2193.0, 2194.0, 2193.0, 2193.0, 2193.0, 2193.0, 2193.0, 2193.0, 2193.0, 2193.0, 2193.0, 2193.0, 2193.0, 2193.0, 2193.0, 2193.0, 2192.0, 2192.0, 2193.0, 2192.0, 2192.0, 2192.0, 2193.0, 2192.0, 2193.0, 2192.0, 2194.0, 2192.0, 2193.0, 2193.0, 2192.0, 2193.0, 2192.0, 2192.0, 2192.0, 2192.0, 2192.0, 2193.0, 2192.0, 2192.0, 2192.0, 2193.0, 2193.0, 2192.0, 2192.0, 2192.0, 2192.0, 2192.0, 2193.0, 2192.0, 2192.0, 2192.0]
    },
    "slices": {}
  }
}