{
  "AcquisitionMatrixPE": 80,
  "AcquisitionNumber": 1,
  "AcquisitionTime": "09:41:17.487500",
  "BandwidthPerPixelPhaseEncode": 25,
  "BaseResolution": 80,
  "BodyPartExamined": "BRAIN",
  "CoilCombinationMethod": "Sum of Squares",
  "ConsistencyInfo": "N4_VE11C_LATEST_20160120",
  "ConversionSoftware": "dcm2niix",
  "ConversionSoftwareVersion": "v1.0.20220720",
  "DerivedVendorReportedEchoSpacing": 0.0005,
  "DeviceSerialNumber": "66112",
  "DwellTime": 2.7e-06,
  "EchoTime": 0.03,
  "EchoTrainLength": 80,
  "EffectiveEchoSpacing": 0.0005,
  "FlipAngle": 77,
  "HeudiconvVersion": "0.13.1",
  "ImageOrientationPatientDICOM": [0.986591, 0.163006, 0.00823029, -0.157673, 0.938863, 0.306066],
  "ImageOrientationText": "Tra>Cor(17.7)>Sag(-2.4)",
  "ImageType": [
    "ORIGINAL",
    "PRIMARY",
    "M",
    "ND",
    "NORM",
    "MOSAIC"
],
  "ImagingFrequency": 123.252,
  "InPlanePhaseEncodingDirectionDICOM": "COL",
  "InstitutionAddress": "Maynard 3,Hanover,NH,US,03755",
  "InstitutionName": "Dartmouth College - PBS",
  "InstitutionalDepartmentName": "Department",
  "MRAcquisitionType": "2D",
  "MagneticFieldStrength": 3,
  "Manufacturer": "Siemens",
  "ManufacturersModelName": "Prisma",
  "MatrixCoilMode": "SENSE",
  "Modality": "MR",
  "NonlinearGradientCorrection": false,
  "PartialFourier": 1,
  "PatientPosition": "HFS",
  "PercentPhaseFOV": 100,
  "PercentSampling": 100,
  "PhaseEncodingDirection": "j-",
  "PhaseEncodingSteps": 80,
  "PhaseResolution": 1,
  "PixelBandwidth": 2315,
  "ProcedureStepDescription": "dbic^QA",
  "ProtocolName": "func-bold_fa-77",
  "PulseSequenceDetails": "%SiemensSeq%\\ep2d_bold",
  "ReceiveCoilActiveElements": "HEA;HEP",
  "ReceiveCoilName": "Head_32",
  "ReconMatrixPE": 80,
  "RepetitionTime": 2,
  "SAR": 0.0373936,
  "ScanOptions": "FS",
  "ScanningSequence": "EP",
  "SequenceName": "*epfid2d1_80",
  "SequenceVariant": "SK",
  "SeriesDescription": "func-bold_fa-77",
  "SeriesNumber": 8,
  "ShimSetting": [4142, -7697, -7521, 233, -83, -75, 8, 66],
  "SliceThickness": 3.5,
  "SliceTiming": [0.99, 0, 1.0575, 0.0675, 1.1225, 0.1325, 1.19, 0.2, 1.255, 0.265, 1.32, 0.33, 1.3875, 0.3975, 1.4525, 0.4625, 1.52, 0.53, 1.585, 0.595, 1.65, 0.66, 1.7175, 0.7275, 1.7825, 0.7925, 1.85, 0.86, 1.915, 0.925],
  "SoftwareVersions": "syngo MR E11",
  "SpacingBetweenSlices": 3.99,
  "StationName": "AWP66112",
  "TotalReadoutTime": 0.0395,
  "TxRefAmp": 225.964,
  "dcmmeta_affine": [
    [-2.9597723484039307, -0.4730192720890045, -0.1682317703962326, 139.93145751953125],
    [-0.48901668190956116, 2.816587448120117, 1.2100058794021606, -96.73409271240234],
    [0.02469087392091751, -0.9181980490684509, 3.7983791828155518, -19.001821517944336],
    [0.0, 0.0, 0.0, 1.0]
],
  "dcmmeta_reorient_transform": [
    [0.0, -1.0, 0.0, 79.0],
    [1.0, 0.0, 0.0, 0.0],
    [0.0, 0.0, 1.0, 0.0],
    [0.0, 0.0, 0.0, 1.0]
],
  "dcmmeta_shape": [80, 80, 30, 200],
  "dcmmeta_slice_dim": 2,
  "dcmmeta_version": 0.6,
  "global": {
    "const": {
      "AccessionNumber": "qa",
      "AcquisitionMatrix": [80, 0, 0, 80],
      "AngioFlag": "N",
      "BitsAllocated": 16,
      "BitsStored": 12,
      "BodyPartExamined": "BRAIN",
      "Columns": 480,
      "EchoNumbers": 1,
      "EchoTime": 30.0,
      "EchoTrainLength": 80,
      "FlipAngle": 77.0,
      "HighBit": 11,
      "ImageOrientationPatient": [0.98659082179699, 0.16300556019789, 0.00823029103487, -0.1576730866377, 0.93886250002401, 0.30606601215882],
      "ImagePositionPatient": [-599.91357660763, -786.89715360925, -280.11724805898],
      "ImageType": [
        "ORIGINAL",
        "PRIMARY",
        "M",
        "ND",
        "NORM",
        "MOSAIC"
],
      "ImagedNucleus": "1H",
      "ImagingFrequency": 123.252353,
      "InPlanePhaseEncodingDirection": "COL",
      "MRAcquisitionType": "2D",
      "MagneticFieldStrength": 3.0,
      "Manufacturer": "SIEMENS",
      "ManufacturerModelName": "Prisma",
      "Modality": "MR",
      "NumberOfAverages": 1.0,
      "NumberOfPhaseEncodingSteps": 80,
      "PercentPhaseFieldOfView": 100.0,
      "PercentSampling": 100.0,
      "PerformedProcedureStepStartTime": "092538.384000",
      "PhotometricInterpretation": "MONOCHROME2",
      "PixelBandwidth": 2315.0,
      "PixelRepresentation": 0,
      "PixelSpacing": [3.0, 3.0],
      "ProtocolName": "func-bold_fa-77",
      "RepetitionTime": 2000.0,
      "Rows": 480,
      "SAR": 0.03739360094089,
      "SamplesPerPixel": 1,
      "ScanOptions": "FS",
      "ScanningSequence": "EP",
      "SequenceName": "*epfid2d1_80",
      "SequenceVariant": "SK",
      "SeriesDescription": "func-bold_fa-77",
      "SeriesNumber": 8,
      "SeriesTime": "094202.965000",
      "SliceLocation": -53.324776710322,
      "SliceThickness": 3.5,
      "SmallestImagePixelValue": 0,
      "SoftwareVersions": "syngo MR E11",
      "SpacingBetweenSlices": 3.9900000627788,
      "SpecificCharacterSet": "ISO_IR 100",
      "StudyID": "60",
      "StudyTime": "092538.328000",
      "TransmitCoilName": "Body",
      "VariableFlipAngleFlag": "N",
      "WindowCenterWidthExplanation": "Algo1",
      "dBdt": 0.0},
    "slices": {}
  },
  "time": {
    "samples": {
      "AcquisitionNumber": [1, 2, 3, 4, 5, 6, 7, 8, 9, 10, 11, 12, 13, 14, 15, 16, 17, 18, 19, 20, 21, 22, 23, 24, 25, 26, 27, 28, 29, 30, 31, 32, 33, 34, 35, 36, 37, 38, 39, 40, 41, 42, 43, 44, 45, 46, 47, 48, 49, 50, 51, 52, 53, 54, 55, 56, 57, 58, 59, 60, 61, 62, 63, 64, 65, 66, 67, 68, 69, 70, 71, 72, 73, 74, 75, 76, 77, 78, 79, 80, 81, 82, 83, 84, 85, 86, 87, 88, 89, 90, 91, 92, 93, 94, 95, 96, 97, 98, 99, 100, 101, 102, 103, 104, 105, 106, 107, 108, 109, 110, 111, 112, 113, 114, 115, 116, 117, 118, 119, 120, 121, 122, 123, 124, 125, 126, 127, 128, 129, 130, 131, 132, 133, 134, 135, 136, 137, 138, 139, 140, 141, 142, 143, 144, 145, 146, 147, 148, 149, 150, 151, 152, 153, 154, 155, 156, 157, 158, 159, 160, 161, 162, 163, 164, 165, 166, 167, 168, 169, 170, 171, 172, 173, 174, 175, 176, 177, 178, 179, 180, 181, 182, 183, 184, 185, 186, 187, 188, 189, 190, 191, 192, 193, 194, 195, 196, 197, 198, 199, 200],
      "AcquisitionTime": ["094117.487500", "094119.487500", "094121.487500", "094123.487500", "094125.487500", "094127.487500", "094129.487500", "094131.487500", "094133.487500", "094135.487500", "094137.487500", "094139.487500", "094141.487500", "094143.487500", "094145.487500", "094147.487500", "094149.487500", "094151.487500", "094153.487500", "094155.487500", "094157.487500", "094159.487500", "094201.487500", "094203.487500", "094205.487500", "094207.487500", "094209.487500", "094211.487500", "094213.487500", "094215.487500", "094217.487500", "094219.487500", "094221.487500", "094223.487500", "094225.487500", "094227.487500", "094229.487500", "094231.487500", "094233.487500", "094235.487500", "094237.487500", "094239.487500", "094241.487500", "094243.487500", "094245.487500", "094247.487500", "094249.487500", "094251.487500", "094253.487500", "094255.487500", "094257.487500", "094259.487500", "094301.487500", "094303.487500", "094305.487500", "094307.487500", "094309.487500", "094311.487500", "094313.487500", "094315.487500", "094317.487500", "094319.487500", "094321.487500", "094323.487500", "094325.487500", "094327.487500", "094329.487500", "094331.487500", "094333.487500", "094335.487500", "094337.487500", "094339.487500", "094341.487500", "094343.487500", "094345.487500", "094347.487500", "094349.487500", "094351.487500", "094353.487500", "094355.487500", "094357.487500", "094359.487500", "094401.487500", "094403.487500", "094405.487500", "094407.487500", "094409.487500", "094411.487500", "094413.487500", "094415.487500", "094417.487500", "094419.487500", "094421.487500", "094423.487500", "094425.487500", "094427.487500", "094429.487500", "094431.487500", "094433.487500", "094435.487500", "094437.487500", "094439.487500", "094441.487500", "094443.487500", "094445.487500", "094447.487500", "094449.487500", "094451.487500", "094453.487500", "094455.487500", "094457.487500", "094459.487500", "094501.487500", "094503.487500", "094505.487500", "094507.487500", "094509.487500", "094511.487500", "094513.487500", "094515.487500", "094517.487500", "094519.487500", "094521.487500", "094523.487500", "094525.487500", "094527.487500", "094529.487500", "094531.487500", "094533.487500", "094535.487500", "094537.487500", "094539.487500", "094541.487500", "094543.487500", "094545.487500", "094547.487500", "094549.487500", "094551.487500", "094553.487500", "094555.487500", "094557.487500", "094559.487500", "094601.487500", "094603.487500", "094605.487500", "094607.487500", "094609.487500", "094611.487500", "094613.487500", "094615.487500", "094617.487500", "094619.487500", "094621.487500", "094623.487500", "094625.487500", "094627.487500", "094629.487500", "094631.487500", "094633.487500", "094635.487500", "094637.487500", "094639.487500", "094641.487500", "094643.487500", "094645.487500", "094647.487500", "094649.487500", "094651.487500", "094653.487500", "094655.487500", "094657.487500", "094659.487500", "094701.487500", "094703.487500", "094705.487500", "094707.487500", "094709.487500", "094711.487500", "094713.487500", "094715.487500", "094717.487500", "094719.487500", "094721.487500", "094723.487500", "094725.487500", "094727.487500", "094729.487500", "094731.487500", "094733.487500", "094735.487500", "094737.487500", "094739.487500", "094741.487500", "094743.487500", "094745.487500", "094747.487500", "094749.487500", "094751.487500", "094753.487500", "094755.487500"],
      "ContentTime": ["094202.968000", "094202.972000", "094202.974000", "094202.977000", "094202.979000", "094202.982000", "094202.984000", "094202.987000", "094202.989000", "094202.992000", "094202.994000", "094202.997000", "094203.001000", "094203.003000", "094203.006000", "094203.008000", "094203.011000", "094203.013000", "094203.016000", "094203.018000", "094203.021000", "094203.023000", "094203.026000", "094242.963000", "094242.966000", "094242.969000", "094242.971000", "094242.974000", "094242.976000", "094242.979000", "094242.982000", "094242.984000", "094242.987000", "094242.989000", "094242.992000", "094242.994000", "094242.997000", "094243.000000", "094243.003000", "094243.006000", "094243.008000", "094243.011000", "094243.013000", "094322.964000", "094322.967000", "094322.970000", "094322.972000", "094322.975000", "094322.978000", "094322.980000", "094322.983000", "094322.985000", "094322.988000", "094322.990000", "094322.993000", "094322.995000", "094322.998000", "094323.001000", "094323.004000", "094323.007000", "094323.009000", "094323.012000", "094323.014000", "094402.964000", "094402.967000", "094402.970000", "094402.972000", "094402.983000", "094402.985000", "094402.988000", "094402.990000", "094402.993000", "094402.995000", "094402.998000", "094403.001000", "094403.004000", "094403.007000", "094403.009000", "094403.012000", "094403.014000", "094403.017000", "094403.019000", "094403.022000", "094442.963000", "094442.966000", "094442.969000", "094442.971000", "094442.974000", "094442.977000", "094442.979000", "094442.982000", "094442.984000", "094442.987000", "094442.989000", "094442.992000", "094442.994000", "094442.997000", "094443.000000", "094443.003000", "094443.005000", "094443.008000", "094443.011000", "094443.013000", "094522.963000", "094522.966000", "094522.969000", "094522.971000", "094522.974000", "094522.977000", "094522.979000", "094522.982000", "094522.984000", "094522.987000", "094522.989000", "094522.992000", "094522.994000", "094522.997000", "094523.001000", "094523.003000", "094523.006000", "094523.008000", "094523.011000", "094523.013000", "094602.965000", "094602.967000", "094602.970000", "094602.972000", "094602.975000", "094602.977000", "094602.980000", "094602.983000", "094602.985000", "094602.988000", "094602.990000", "094602.993000", "094602.995000", "094602.998000", "094603.001000", "094603.004000", "094603.007000", "094603.009000", "094603.012000", "094603.014000", "094642.963000", "094642.966000", "094642.969000", "094642.971000", "094642.974000", "094642.976000", "094642.979000", "094642.981000", "094642.984000", "094642.987000", "094642.989000", "094643.004000", "094643.007000", "094643.010000", "094643.012000", "094643.015000", "094643.017000", "094643.020000", "094643.022000", "094643.025000", "094722.964000", "094722.966000", "094722.969000", "094722.971000", "094722.974000", "094722.977000", "094722.979000", "094722.982000", "094722.984000", "094722.987000", "094722.989000", "094722.992000", "094722.994000", "094722.997000", "094723.001000", "094723.003000", "094723.006000", "094723.008000", "094723.011000", "094723.013000", "094756.691000", "094756.694000", "094756.696000", "094756.699000", "094756.701000", "094756.704000", "094756.707000", "094756.709000", "094756.712000", "094756.714000", "094756.717000", "094756.720000", "094756.726000", "094756.730000", "094756.733000", "094756.737000", "094756.741000"],
      "InstanceCreationTime": ["094202.968000", "094202.972000", "094202.974000", "094202.977000", "094202.979000", "094202.982000", "094202.984000", "094202.987000", "094202.989000", "094202.992000", "094202.994000", "094202.997000", "094203.001000", "094203.003000", "094203.006000", "094203.008000", "094203.011000", "094203.013000", "094203.016000", "094203.018000", "094203.021000", "094203.023000", "094203.026000", "094242.963000", "094242.966000", "094242.969000", "094242.971000", "094242.974000", "094242.976000", "094242.979000", "094242.982000", "094242.984000", "094242.987000", "094242.989000", "094242.992000", "094242.994000", "094242.997000", "094243.000000", "094243.003000", "094243.006000", "094243.008000", "094243.011000", "094243.013000", "094322.964000", "094322.967000", "094322.970000", "094322.972000", "094322.975000", "094322.978000", "094322.980000", "094322.983000", "094322.985000", "094322.988000", "094322.990000", "094322.993000", "094322.995000", "094322.998000", "094323.001000", "094323.004000", "094323.007000", "094323.009000", "094323.012000", "094323.014000", "094402.964000", "094402.967000", "094402.970000", "094402.972000", "094402.983000", "094402.985000", "094402.988000", "094402.990000", "094402.993000", "094402.995000", "094402.998000", "094403.001000", "094403.004000", "094403.007000", "094403.009000", "094403.012000", "094403.014000", "094403.017000", "094403.019000", "094403.022000", "094442.963000", "094442.966000", "094442.969000", "094442.971000", "094442.974000", "094442.977000", "094442.979000", "094442.982000", "094442.984000", "094442.987000", "094442.989000", "094442.992000", "094442.994000", "094442.997000", "094443.000000", "094443.003000", "094443.005000", "094443.008000", "094443.011000", "094443.013000", "094522.963000", "094522.966000", "094522.969000", "094522.971000", "094522.974000", "094522.977000", "094522.979000", "094522.982000", "094522.984000", "094522.987000", "094522.989000", "094522.992000", "094522.994000", "094522.997000", "094523.001000", "094523.003000", "094523.006000", "094523.008000", "094523.011000", "094523.013000", "094602.965000", "094602.967000", "094602.970000", "094602.972000", "094602.975000", "094602.977000", "094602.980000", "094602.983000", "094602.985000", "094602.988000", "094602.990000", "094602.993000", "094602.995000", "094602.998000", "094603.001000", "094603.004000", "094603.007000", "094603.009000", "094603.012000", "094603.014000", "094642.963000", "094642.966000", "094642.969000", "094642.971000", "094642.974000", "094642.976000", "094642.979000", "094642.981000", "094642.984000", "094642.987000", "094642.989000", "094643.004000", "094643.007000", "094643.010000", "094643.012000", "094643.015000", "094643.017000", "094643.020000", "094643.022000", "094643.025000", "094722.964000", "094722.966000", "094722.969000", "094722.971000", "094722.974000", "094722.977000", "094722.979000", "094722.982000", "094722.984000", "094722.987000", "094722.989000", "094722.992000", "094722.994000", "094722.997000", "094723.001000", "094723.003000", "094723.006000", "094723.008000", "094723.011000", "094723.013000", "094756.691000", "094756.694000", "094756.696000", "094756.699000", "094756.701000", "094756.704000", "094756.707000", "094756.709000", "094756.712000", "094756.714000", "094756.717000", "094756.720000", "094756.726000", "094756.730000", "094756.733000", "094756.737000", "094756.741000"],
      "InstanceNumber": [1, 2, 3, 4, 5, 6, 7, 8, 9, 10, 11, 12, 13, 14, 15, 16, 17, 18, 19, 20, 21, 22, 23, 24, 25, 26, 27, 28, 29, 30, 31, 32, 33, 34, 35, 36, 37, 38, 39, 40, 41, 42, 43, 44, 45, 46, 47, 48, 49, 50, 51, 52, 53, 54, 55, 56, 57, 58, 59, 60, 61, 62, 63, 64, 65, 66, 67, 68, 69, 70, 71, 72, 73, 74, 75, 76, 77, 78, 79, 80, 81, 82, 83, 84, 85, 86, 87, 88, 89, 90, 91, 92, 93, 94, 95, 96, 97, 98, 99, 100, 101, 102, 103, 104, 105, 106, 107, 108, 109, 110, 111, 112, 113, 114, 115, 116, 117, 118, 119, 120, 121, 122, 123, 124, 125, 126, 127, 128, 129, 130, 131, 132, 133, 134, 135, 136, 137, 138, 139, 140, 141, 142, 143, 144, 145, 146, 147, 148, 149, 150, 151, 152, 153, 154, 155, 156, 157, 158, 159, 160, 161, 162, 163, 164, 165, 166, 167, 168, 169, 170, 171, 172, 173, 174, 175, 176, 177, 178, 179, 180, 181, 182, 183, 184, 185, 186, 187, 188, 189, 190, 191, 192, 193, 194, 195, 196, 197, 198, 199, 200],
      "LargestImagePixelValue": [2021, 2022, 2023, 2024, 2022, 2022, 2024, 2023, 2027, 2031, 2031, 2032, 2032, 2032, 2032, 2035, 2032, 2031, 2030, 2029, 2030, 2029, 2027, 2029, 2026, 2028, 2021, 2021, 2023, 2023, 2026, 2025, 2025, 2026, 2025, 2024, 2024, 2026, 2023, 2024, 2023, 2024, 2026, 2027, 2028, 2027, 2029, 2027, 2026, 2026, 2023, 2025, 2025, 2026, 2026, 2026, 2029, 2029, 2029, 2025, 2026, 2024, 2021, 2022, 2022, 2023, 2022, 2024, 2024, 2026, 2024, 2023, 2024, 2025, 2027, 2024, 2027, 2027, 2026, 2027, 2026, 2026, 2026, 2022, 2022, 2019, 2016, 2016, 2014, 2013, 2013, 2017, 2017, 2017, 2020, 2020, 2022, 2022, 2025, 2023, 2027, 2024, 2025, 2024, 2023, 2016, 2016, 2014, 2017, 2019, 2020, 2023, 2023, 2027, 2025, 2025, 2021, 2019, 2021, 2017, 2018, 2018, 2018, 2015, 2017, 2015, 2018, 2018, 2018, 2016, 2018, 2018, 2019, 2019, 2018, 2019, 2017, 2018, 2018, 2020, 2022, 2022, 2021, 2018, 2019, 2020, 2021, 2021, 2022, 2019, 2020, 2017, 2018, 2013, 2014, 2012, 2012, 2008, 2011, 2012, 2009, 2011, 2010, 2011, 2013, 2015, 2018, 2019, 2019, 2018, 2018, 2019, 2016, 2016, 2016, 2017, 2019, 2016, 2013, 2014, 2012, 2014, 2011, 2011, 2011, 2012, 2016, 2020, 2024, 2025, 2024, 2024, 2020, 2019, 2018, 2016, 2014, 2014, 2014, 2015],
      "WindowCenter": [987.0, 986.0, 987.0, 987.0, 987.0, 987.0, 987.0, 987.0, 987.0, 986.0, 987.0, 987.0, 987.0, 987.0, 987.0, 988.0, 987.0, 987.0, 987.0, 987.0, 987.0, 987.0, 987.0, 987.0, 987.0, 987.0, 987.0, 985.0, 987.0, 987.0, 986.0, 987.0, 987.0, 987.0, 987.0, 987.0, 987.0, 987.0, 987.0, 984.0, 987.0, 987.0, 987.0, 987.0, 987.0, 985.0, 987.0, 987.0, 987.0, 987.0, 985.0, 987.0, 987.0, 987.0, 987.0, 987.0, 987.0, 987.0, 987.0, 987.0, 987.0, 987.0, 987.0, 987.0, 987.0, 988.0, 987.0, 987.0, 987.0, 986.0, 987.0, 987.0, 987.0, 987.0, 987.0, 987.0, 987.0, 987.0, 987.0, 987.0, 987.0, 987.0, 986.0, 987.0, 987.0, 987.0, 987.0, 987.0, 987.0, 987.0, 987.0, 987.0, 987.0, 987.0, 987.0, 987.0, 987.0, 985.0, 987.0, 987.0, 987.0, 987.0, 987.0, 987.0, 987.0, 987.0, 984.0, 987.0, 987.0, 987.0, 987.0, 987.0, 986.0, 986.0, 986.0, 986.0, 986.0, 986.0, 986.0, 987.0, 987.0, 986.0, 986.0, 986.0, 986.0, 986.0, 986.0, 986.0, 986.0, 986.0, 986.0, 986.0, 986.0, 985.0, 987.0, 986.0, 986.0, 985.0, 986.0, 986.0, 986.0, 986.0, 985.0, 986.0, 985.0, 986.0, 986.0, 986.0, 986.0, 986.0, 986.0, 986.0, 986.0, 986.0, 986.0, 985.0, 985.0, 986.0, 985.0, 985.0, 986.0, 985.0, 986.0, 986.0, 986.0, 986.0, 986.0, 985.0, 986.0, 986.0, 986.0, 986.0, 986.0, 986.0, 986.0, 985.0, 987.0, 986.0, 986.0, 986.0, 986.0, 986.0, 986.0, 986.0, 987.0, 986.0, 986.0, 985.0, 986.0, 986.0, 986.0, 986.0, 986.0, 986.0, 986.0, 986.0, 986.0, 987.0, 986.0, 985.0],
      "WindowWidth": [2176.0, 2176.0, 2177.0, 2176.0, 2176.0, 2176.0, 2176.0, 2176.0, 2176.0, 2176.0, 2176.0, 2176.0, 2176.0, 2176.0, 2176.0, 2177.0, 2176.0, 2176.0, 2177.0, 2176.0, 2176.0, 2177.0, 2176.0, 2177.0, 2176.0, 2176.0, 2176.0, 2175.0, 2176.0, 2176.0, 2176.0, 2176.0, 2176.0, 2176.0, 2176.0, 2177.0, 2176.0, 2176.0, 2176.0, 2174.0, 2176.0, 2176.0, 2176.0, 2176.0, 2176.0, 2175.0, 2176.0, 2177.0, 2176.0, 2176.0, 2175.0, 2176.0, 2176.0, 2176.0, 2176.0, 2176.0, 2176.0, 2176.0, 2176.0, 2176.0, 2176.0, 2176.0, 2176.0, 2176.0, 2176.0, 2177.0, 2176.0, 2176.0, 2176.0, 2176.0, 2176.0, 2176.0, 2176.0, 2176.0, 2176.0, 2176.0, 2176.0, 2176.0, 2176.0, 2176.0, 2176.0, 2176.0, 2175.0, 2176.0, 2176.0, 2176.0, 2176.0, 2177.0, 2176.0, 2176.0, 2176.0, 2176.0, 2176.0, 2176.0, 2176.0, 2176.0, 2176.0, 2175.0, 2176.0, 2176.0, 2176.0, 2176.0, 2176.0, 2176.0, 2176.0, 2175.0, 2174.0, 2176.0, 2176.0, 2176.0, 2176.0, 2177.0, 2176.0, 2176.0, 2176.0, 2176.0, 2176.0, 2176.0, 2176.0, 2176.0, 2176.0, 2176.0, 2175.0, 2175.0, 2176.0, 2176.0, 2175.0, 2175.0, 2176.0, 2175.0, 2175.0, 2175.0, 2175.0, 2174.0, 2176.0, 2175.0, 2175.0, 2174.0, 2175.0, 2175.0, 2175.0, 2175.0, 2174.0, 2175.0, 2174.0, 2175.0, 2175.0, 2175.0, 2175.0, 2175.0, 2175.0, 2175.0, 2175.0, 2175.0, 2175.0, 2174.0, 2174.0, 2175.0, 2174.0, 2174.0, 2175.0, 2174.0, 2175.0, 2175.0, 2175.0, 2175.0, 2175.0, 2174.0, 2175.0, 2175.0, 2175.0, 2175.0, 2175.0, 2175.0, 2175.0, 2174.0, 2176.0, 2175.0, 2175.0, 2175.0, 2175.0, 2175.0, 2175.0, 2175.0, 2175.0, 2175.0, 2175.0, 2174.0, 2175.0, 2175.0, 2175.0, 2175.0, 2175.0, 2175.0, 2175.0, 2175.0, 2175.0, 2175.0, 2175.0, 2174.0]
    },
    "slices": {}
  }
}