{
  "AcquisitionMatrixPE": 80,
  "AcquisitionNumber": 1,
  "AcquisitionTime": "09:48:3.515000",
  "BandwidthPerPixelPhaseEncode": 25,
  "BaseResolution": 80,
  "BodyPartExamined": "BRAIN",
  "CoilCombinationMethod": "Sum of Squares",
  "ConsistencyInfo": "N4_VE11C_LATEST_20160120",
  "ConversionSoftware": "dcm2niix",
  "ConversionSoftwareVersion": "v1.0.20220720",
  "DerivedVendorReportedEchoSpacing": 0.0005,
  "DeviceSerialNumber": "66112",
  "DwellTime": 2.7e-06,
  "EchoTime": 0.03,
  "EchoTrainLength": 80,
  "EffectiveEchoSpacing": 0.0005,
  "FlipAngle": 10,
  "HeudiconvVersion": "0.13.1",
  "ImageOrientationPatientDICOM": [0.986591, 0.163006, 0.00823029, -0.157673, 0.938863, 0.306066],
  "ImageOrientationText": "Tra>Cor(17.7)>Sag(-2.4)",
  "ImageType": [
    "ORIGINAL",
    "PRIMARY",
    "M",
    "ND",
    "NORM",
    "MOSAIC"
],
  "ImagingFrequency": 123.252,
  "InPlanePhaseEncodingDirectionDICOM": "COL",
  "InstitutionAddress": "Maynard 3,Hanover,NH,US,03755",
  "InstitutionName": "Dartmouth College - PBS",
  "InstitutionalDepartmentName": "Department",
  "MRAcquisitionType": "2D",
  "MagneticFieldStrength": 3,
  "Manufacturer": "Siemens",
  "ManufacturersModelName": "Prisma",
  "MatrixCoilMode": "SENSE",
  "Modality": "MR",
  "NonlinearGradientCorrection": false,
  "PartialFourier": 1,
  "PatientPosition": "HFS",
  "PercentPhaseFOV": 100,
  "PercentSampling": 100,
  "PhaseEncodingDirection": "j-",
  "PhaseEncodingSteps": 80,
  "PhaseResolution": 1,
  "PixelBandwidth": 2315,
  "ProcedureStepDescription": "dbic^QA",
  "ProtocolName": "func-bold_fa-10",
  "PulseSequenceDetails": "%SiemensSeq%\\ep2d_bold",
  "ReceiveCoilActiveElements": "HEA;HEP",
  "ReceiveCoilName": "Head_32",
  "ReconMatrixPE": 80,
  "RepetitionTime": 2,
  "SAR": 0.0100308,
  "ScanOptions": "FS",
  "ScanningSequence": "EP",
  "SequenceName": "*epfid2d1_80",
  "SequenceVariant": "SK",
  "SeriesDescription": "func-bold_fa-10",
  "SeriesNumber": 10,
  "ShimSetting": [4142, -7697, -7521, 233, -83, -75, 8, 66],
  "SliceThickness": 3.5,
  "SliceTiming": [0.99, 0, 1.0575, 0.0675, 1.1225, 0.1325, 1.1875, 0.2, 1.255, 0.265, 1.32, 0.33, 1.3875, 0.3975, 1.4525, 0.4625, 1.5175, 0.5275, 1.585, 0.595, 1.65, 0.66, 1.7175, 0.7275, 1.7825, 0.7925, 1.8475, 0.8575, 1.915, 0.925],
  "SoftwareVersions": "syngo MR E11",
  "SpacingBetweenSlices": 3.99,
  "StationName": "AWP66112",
  "TotalReadoutTime": 0.0395,
  "TxRefAmp": 225.964,
  "dcmmeta_affine": [
    [-2.9597723484039307, -0.4730192720890045, -0.1682317703962326, 139.93145751953125],
    [-0.48901668190956116, 2.816587448120117, 1.2100058794021606, -96.73409271240234],
    [0.02469087392091751, -0.9181980490684509, 3.7983791828155518, -19.001821517944336],
    [0.0, 0.0, 0.0, 1.0]
],
  "dcmmeta_reorient_transform": [
    [0.0, -1.0, 0.0, 79.0],
    [1.0, 0.0, 0.0, 0.0],
    [0.0, 0.0, 1.0, 0.0],
    [0.0, 0.0, 0.0, 1.0]
],
  "dcmmeta_shape": [80, 80, 30, 200],
  "dcmmeta_slice_dim": 2,
  "dcmmeta_version": 0.6,
  "global": {
    "const": {
      "AccessionNumber": "qa",
      "AcquisitionMatrix": [80, 0, 0, 80],
      "AngioFlag": "N",
      "BitsAllocated": 16,
      "BitsStored": 12,
      "BodyPartExamined": "BRAIN",
      "Columns": 480,
      "EchoNumbers": 1,
      "EchoTime": 30.0,
      "EchoTrainLength": 80,
      "FlipAngle": 10.0,
      "HighBit": 11,
      "ImageOrientationPatient": [0.98659082179699, 0.16300556019789, 0.00823029103487, -0.1576730866377, 0.93886250002401, 0.30606601215882],
      "ImagePositionPatient": [-599.91357660763, -786.89715360925, -280.11724805898],
      "ImageType": [
        "ORIGINAL",
        "PRIMARY",
        "M",
        "ND",
        "NORM",
        "MOSAIC"
],
      "ImagedNucleus": "1H",
      "ImagingFrequency": 123.252354,
      "InPlanePhaseEncodingDirection": "COL",
      "MRAcquisitionType": "2D",
      "MagneticFieldStrength": 3.0,
      "Manufacturer": "SIEMENS",
      "ManufacturerModelName": "Prisma",
      "Modality": "MR",
      "NumberOfAverages": 1.0,
      "NumberOfPhaseEncodingSteps": 80,
      "PercentPhaseFieldOfView": 100.0,
      "PercentSampling": 100.0,
      "PerformedProcedureStepStartTime": "092538.384000",
      "PhotometricInterpretation": "MONOCHROME2",
      "PixelBandwidth": 2315.0,
      "PixelRepresentation": 0,
      "PixelSpacing": [3.0, 3.0],
      "ProtocolName": "func-bold_fa-10",
      "RepetitionTime": 2000.0,
      "Rows": 480,
      "SAR": 0.01003080018364,
      "SamplesPerPixel": 1,
      "ScanOptions": "FS",
      "ScanningSequence": "EP",
      "SequenceName": "*epfid2d1_80",
      "SequenceVariant": "SK",
      "SeriesDescription": "func-bold_fa-10",
      "SeriesNumber": 10,
      "SeriesTime": "094843.037000",
      "SliceLocation": -53.324776710322,
      "SliceThickness": 3.5,
      "SmallestImagePixelValue": 0,
      "SoftwareVersions": "syngo MR E11",
      "SpacingBetweenSlices": 3.9900000627788,
      "SpecificCharacterSet": "ISO_IR 100",
      "StudyID": "60",
      "StudyTime": "092538.328000",
      "TransmitCoilName": "Body",
      "VariableFlipAngleFlag": "N",
      "WindowCenterWidthExplanation": "Algo1",
      "dBdt": 0.0},
    "slices": {}
  },
  "time": {
    "samples": {
      "AcquisitionNumber": [1, 2, 3, 4, 5, 6, 7, 8, 9, 10, 11, 12, 13, 14, 15, 16, 17, 18, 19, 20, 21, 22, 23, 24, 25, 26, 27, 28, 29, 30, 31, 32, 33, 34, 35, 36, 37, 38, 39, 40, 41, 42, 43, 44, 45, 46, 47, 48, 49, 50, 51, 52, 53, 54, 55, 56, 57, 58, 59, 60, 61, 62, 63, 64, 65, 66, 67, 68, 69, 70, 71, 72, 73, 74, 75, 76, 77, 78, 79, 80, 81, 82, 83, 84, 85, 86, 87, 88, 89, 90, 91, 92, 93, 94, 95, 96, 97, 98, 99, 100, 101, 102, 103, 104, 105, 106, 107, 108, 109, 110, 111, 112, 113, 114, 115, 116, 117, 118, 119, 120, 121, 122, 123, 124, 125, 126, 127, 128, 129, 130, 131, 132, 133, 134, 135, 136, 137, 138, 139, 140, 141, 142, 143, 144, 145, 146, 147, 148, 149, 150, 151, 152, 153, 154, 155, 156, 157, 158, 159, 160, 161, 162, 163, 164, 165, 166, 167, 168, 169, 170, 171, 172, 173, 174, 175, 176, 177, 178, 179, 180, 181, 182, 183, 184, 185, 186, 187, 188, 189, 190, 191, 192, 193, 194, 195, 196, 197, 198, 199, 200],
      "AcquisitionTime": ["094803.515000", "094805.515000", "094807.515000", "094809.515000", "094811.515000", "094813.515000", "094815.515000", "094817.515000", "094819.515000", "094821.515000", "094823.515000", "094825.515000", "094827.515000", "094829.515000", "094831.515000", "094833.515000", "094835.515000", "094837.515000", "094839.515000", "094841.515000", "094843.515000", "094845.515000", "094847.515000", "094849.515000", "094851.515000", "094853.515000", "094855.515000", "094857.515000", "094859.515000", "094901.515000", "094903.515000", "094905.515000", "094907.515000", "094909.515000", "094911.515000", "094913.515000", "094915.515000", "094917.515000", "094919.515000", "094921.515000", "094923.515000", "094925.515000", "094927.515000", "094929.515000", "094931.515000", "094933.515000", "094935.515000", "094937.515000", "094939.515000", "094941.515000", "094943.515000", "094945.515000", "094947.515000", "094949.515000", "094951.515000", "094953.515000", "094955.515000", "094957.515000", "094959.515000", "095001.515000", "095003.515000", "095005.515000", "095007.515000", "095009.515000", "095011.515000", "095013.515000", "095015.515000", "095017.515000", "095019.515000", "095021.515000", "095023.515000", "095025.515000", "095027.515000", "095029.515000", "095031.515000", "095033.515000", "095035.515000", "095037.515000", "095039.515000", "095041.515000", "095043.515000", "095045.515000", "095047.515000", "095049.515000", "095051.515000", "095053.515000", "095055.515000", "095057.515000", "095059.515000", "095101.515000", "095103.515000", "095105.515000", "095107.515000", "095109.515000", "095111.515000", "095113.515000", "095115.515000", "095117.515000", "095119.515000", "095121.515000", "095123.515000", "095125.515000", "095127.515000", "095129.515000", "095131.515000", "095133.515000", "095135.515000", "095137.515000", "095139.515000", "095141.515000", "095143.515000", "095145.515000", "095147.515000", "095149.515000", "095151.515000", "095153.515000", "095155.515000", "095157.515000", "095159.515000", "095201.515000", "095203.515000", "095205.515000", "095207.515000", "095209.515000", "095211.515000", "095213.515000", "095215.515000", "095217.515000", "095219.515000", "095221.515000", "095223.515000", "095225.515000", "095227.515000", "095229.515000", "095231.515000", "095233.515000", "095235.515000", "095237.515000", "095239.515000", "095241.515000", "095243.515000", "095245.515000", "095247.515000", "095249.515000", "095251.515000", "095253.515000", "095255.515000", "095257.515000", "095259.515000", "095301.515000", "095303.515000", "095305.515000", "095307.515000", "095309.515000", "095311.515000", "095313.515000", "095315.515000", "095317.515000", "095319.515000", "095321.515000", "095323.515000", "095325.515000", "095327.515000", "095329.515000", "095331.515000", "095333.515000", "095335.515000", "095337.515000", "095339.515000", "095341.515000", "095343.515000", "095345.515000", "095347.515000", "095349.515000", "095351.515000", "095353.515000", "095355.515000", "095357.515000", "095359.515000", "095401.515000", "095403.515000", "095405.515000", "095407.515000", "095409.515000", "095411.515000", "095413.515000", "095415.515000", "095417.515000", "095419.515000", "095421.515000", "095423.515000", "095425.515000", "095427.515000", "095429.515000", "095431.515000", "095433.515000", "095435.515000", "095437.515000", "095439.515000", "095441.515000"],
      "ContentTime": ["094843.040000", "094843.046000", "094843.049000", "094843.051000", "094843.054000", "094843.056000", "094843.059000", "094843.061000", "094843.064000", "094843.066000", "094843.069000", "094843.071000", "094843.074000", "094843.076000", "094843.079000", "094843.081000", "094843.084000", "094843.087000", "094843.089000", "094843.092000", "094923.034000", "094923.037000", "094923.040000", "094923.042000", "094923.045000", "094923.048000", "094923.050000", "094923.053000", "094923.055000", "094923.058000", "094923.060000", "094923.063000", "094923.065000", "094923.068000", "094923.070000", "094923.073000", "094923.075000", "094923.078000", "094923.083000", "094923.086000", "095003.034000", "095003.037000", "095003.040000", "095003.042000", "095003.045000", "095003.047000", "095003.050000", "095003.052000", "095003.055000", "095003.058000", "095003.060000", "095003.063000", "095003.065000", "095003.068000", "095003.070000", "095003.073000", "095003.076000", "095003.078000", "095003.081000", "095003.083000", "095043.035000", "095043.038000", "095043.041000", "095043.043000", "095043.046000", "095043.048000", "095043.051000", "095043.053000", "095043.056000", "095043.060000", "095043.063000", "095043.066000", "095043.068000", "095043.071000", "095043.073000", "095043.076000", "095043.078000", "095043.081000", "095043.084000", "095043.086000", "095123.035000", "095123.037000", "095123.040000", "095123.042000", "095123.045000", "095123.047000", "095123.050000", "095123.052000", "095123.055000", "095123.058000", "095123.060000", "095123.063000", "095123.065000", "095123.068000", "095123.070000", "095123.073000", "095123.075000", "095123.078000", "095123.081000", "095123.083000", "095203.034000", "095203.037000", "095203.040000", "095203.042000", "095203.045000", "095203.047000", "095203.050000", "095203.052000", "095203.055000", "095203.057000", "095203.060000", "095203.062000", "095203.065000", "095203.067000", "095203.070000", "095203.073000", "095203.075000", "095203.078000", "095203.080000", "095203.083000", "095243.035000", "095243.038000", "095243.041000", "095243.043000", "095243.046000", "095243.049000", "095243.051000", "095243.054000", "095243.056000", "095243.059000", "095243.061000", "095243.064000", "095243.066000", "095243.069000", "095243.071000", "095243.074000", "095243.077000", "095243.079000", "095243.082000", "095243.084000", "095323.035000", "095323.038000", "095323.041000", "095323.043000", "095323.046000", "095323.048000", "095323.051000", "095323.055000", "095323.058000", "095323.060000", "095323.063000", "095323.066000", "095323.068000", "095323.071000", "095323.073000", "095323.076000", "095323.079000", "095323.081000", "095323.084000", "095323.086000", "095403.035000", "095403.037000", "095403.040000", "095403.042000", "095403.045000", "095403.047000", "095403.050000", "095403.052000", "095403.055000", "095403.057000", "095403.060000", "095403.063000", "095403.065000", "095403.068000", "095403.071000", "095403.073000", "095403.076000", "095403.078000", "095403.081000", "095403.083000", "095443.039000", "095443.041000", "095443.044000", "095443.047000", "095443.049000", "095443.052000", "095443.054000", "095443.057000", "095443.060000", "095443.070000", "095443.073000", "095443.076000", "095443.078000", "095443.081000", "095443.084000", "095443.086000", "095443.089000", "095443.100000", "095443.103000", "095443.108000"],
      "InstanceCreationTime": ["094843.040000", "094843.046000", "094843.049000", "094843.051000", "094843.054000", "094843.056000", "094843.059000", "094843.061000", "094843.064000", "094843.066000", "094843.069000", "094843.071000", "094843.074000", "094843.076000", "094843.079000", "094843.081000", "094843.084000", "094843.087000", "094843.089000", "094843.092000", "094923.034000", "094923.037000", "094923.040000", "094923.042000", "094923.045000", "094923.048000", "094923.050000", "094923.053000", "094923.055000", "094923.058000", "094923.060000", "094923.063000", "094923.065000", "094923.068000", "094923.070000", "094923.073000", "094923.075000", "094923.078000", "094923.083000", "094923.086000", "095003.034000", "095003.037000", "095003.040000", "095003.042000", "095003.045000", "095003.047000", "095003.050000", "095003.052000", "095003.055000", "095003.058000", "095003.060000", "095003.063000", "095003.065000", "095003.068000", "095003.070000", "095003.073000", "095003.076000", "095003.078000", "095003.081000", "095003.083000", "095043.035000", "095043.038000", "095043.041000", "095043.043000", "095043.046000", "095043.048000", "095043.051000", "095043.053000", "095043.056000", "095043.060000", "095043.063000", "095043.066000", "095043.068000", "095043.071000", "095043.073000", "095043.076000", "095043.078000", "095043.081000", "095043.084000", "095043.086000", "095123.035000", "095123.037000", "095123.040000", "095123.042000", "095123.045000", "095123.047000", "095123.050000", "095123.052000", "095123.055000", "095123.058000", "095123.060000", "095123.063000", "095123.065000", "095123.068000", "095123.070000", "095123.073000", "095123.075000", "095123.078000", "095123.081000", "095123.083000", "095203.034000", "095203.037000", "095203.040000", "095203.042000", "095203.045000", "095203.047000", "095203.050000", "095203.052000", "095203.055000", "095203.057000", "095203.060000", "095203.062000", "095203.065000", "095203.067000", "095203.070000", "095203.073000", "095203.075000", "095203.078000", "095203.080000", "095203.083000", "095243.035000", "095243.038000", "095243.041000", "095243.043000", "095243.046000", "095243.049000", "095243.051000", "095243.054000", "095243.056000", "095243.059000", "095243.061000", "095243.064000", "095243.066000", "095243.069000", "095243.071000", "095243.074000", "095243.077000", "095243.079000", "095243.082000", "095243.084000", "095323.035000", "095323.038000", "095323.041000", "095323.043000", "095323.046000", "095323.048000", "095323.051000", "095323.055000", "095323.058000", "095323.060000", "095323.063000", "095323.066000", "095323.068000", "095323.071000", "095323.073000", "095323.076000", "095323.079000", "095323.081000", "095323.084000", "095323.086000", "095403.035000", "095403.037000", "095403.040000", "095403.042000", "095403.045000", "095403.047000", "095403.050000", "095403.052000", "095403.055000", "095403.057000", "095403.060000", "095403.063000", "095403.065000", "095403.068000", "095403.071000", "095403.073000", "095403.076000", "095403.078000", "095403.081000", "095403.083000", "095443.039000", "095443.041000", "095443.044000", "095443.047000", "095443.049000", "095443.052000", "095443.054000", "095443.057000", "095443.060000", "095443.070000", "095443.073000", "095443.076000", "095443.078000", "095443.081000", "095443.084000", "095443.086000", "095443.089000", "095443.100000", "095443.103000", "095443.108000"],
      "InstanceNumber": [1, 2, 3, 4, 5, 6, 7, 8, 9, 10, 11, 12, 13, 14, 15, 16, 17, 18, 19, 20, 21, 22, 23, 24, 25, 26, 27, 28, 29, 30, 31, 32, 33, 34, 35, 36, 37, 38, 39, 40, 41, 42, 43, 44, 45, 46, 47, 48, 49, 50, 51, 52, 53, 54, 55, 56, 57, 58, 59, 60, 61, 62, 63, 64, 65, 66, 67, 68, 69, 70, 71, 72, 73, 74, 75, 76, 77, 78, 79, 80, 81, 82, 83, 84, 85, 86, 87, 88, 89, 90, 91, 92, 93, 94, 95, 96, 97, 98, 99, 100, 101, 102, 103, 104, 105, 106, 107, 108, 109, 110, 111, 112, 113, 114, 115, 116, 117, 118, 119, 120, 121, 122, 123, 124, 125, 126, 127, 128, 129, 130, 131, 132, 133, 134, 135, 136, 137, 138, 139, 140, 141, 142, 143, 144, 145, 146, 147, 148, 149, 150, 151, 152, 153, 154, 155, 156, 157, 158, 159, 160, 161, 162, 163, 164, 165, 166, 167, 168, 169, 170, 171, 172, 173, 174, 175, 176, 177, 178, 179, 180, 181, 182, 183, 184, 185, 186, 187, 188, 189, 190, 191, 192, 193, 194, 195, 196, 197, 198, 199, 200],
      "LargestImagePixelValue": [342, 341, 344, 341, 340, 341, 339, 341, 339, 339, 339, 339, 340, 339, 343, 339, 341, 342, 341, 343, 341, 339, 340, 344, 342, 342, 341, 340, 340, 339, 341, 339, 338, 341, 339, 339, 339, 340, 338, 342, 338, 337, 339, 339, 339, 339, 340, 341, 341, 341, 338, 340, 342, 343, 342, 340, 339, 340, 340, 340, 342, 340, 340, 338, 340, 338, 340, 340, 339, 339, 338, 339, 342, 341, 343, 339, 343, 339, 344, 341, 339, 339, 338, 342, 340, 340, 342, 340, 339, 339, 339, 337, 338, 340, 345, 340, 340, 340, 338, 340, 339, 338, 343, 340, 339, 339, 338, 340, 338, 340, 341, 340, 340, 341, 339, 341, 339, 338, 338, 338, 339, 340, 340, 339, 341, 338, 340, 339, 339, 339, 338, 340, 338, 339, 338, 339, 339, 338, 340, 339, 341, 341, 340, 337, 340, 339, 338, 340, 338, 337, 338, 338, 341, 338, 338, 338, 338, 342, 339, 339, 339, 339, 340, 339, 340, 341, 339, 339, 339, 340, 340, 340, 340, 342, 338, 339, 339, 338, 338, 341, 339, 339, 338, 339, 340, 340, 338, 339, 340, 340, 339, 337, 340, 340, 338, 338, 339, 340, 337, 339],
      "WindowCenter": [285.0, 285.0, 286.0, 286.0, 285.0, 286.0, 286.0, 286.0, 285.0, 286.0, 285.0, 285.0, 286.0, 286.0, 285.0, 286.0, 285.0, 285.0, 286.0, 286.0, 285.0, 285.0, 286.0, 286.0, 285.0, 286.0, 285.0, 286.0, 286.0, 286.0, 285.0, 285.0, 286.0, 286.0, 285.0, 286.0, 285.0, 285.0, 286.0, 285.0, 285.0, 285.0, 286.0, 286.0, 286.0, 286.0, 286.0, 286.0, 286.0, 285.0, 285.0, 286.0, 286.0, 286.0, 285.0, 285.0, 285.0, 285.0, 285.0, 285.0, 285.0, 285.0, 285.0, 285.0, 285.0, 285.0, 285.0, 285.0, 285.0, 285.0, 285.0, 285.0, 285.0, 285.0, 285.0, 285.0, 285.0, 286.0, 285.0, 285.0, 286.0, 286.0, 286.0, 285.0, 285.0, 285.0, 286.0, 285.0, 285.0, 285.0, 285.0, 285.0, 286.0, 285.0, 285.0, 285.0, 285.0, 285.0, 285.0, 285.0, 285.0, 286.0, 285.0, 285.0, 285.0, 285.0, 285.0, 285.0, 285.0, 285.0, 285.0, 285.0, 285.0, 285.0, 285.0, 285.0, 285.0, 285.0, 285.0, 285.0, 285.0, 285.0, 285.0, 285.0, 285.0, 285.0, 285.0, 285.0, 285.0, 285.0, 285.0, 285.0, 285.0, 285.0, 285.0, 285.0, 285.0, 285.0, 285.0, 285.0, 285.0, 285.0, 285.0, 285.0, 285.0, 285.0, 284.0, 285.0, 285.0, 285.0, 285.0, 285.0, 285.0, 285.0, 285.0, 285.0, 285.0, 285.0, 285.0, 285.0, 285.0, 285.0, 285.0, 285.0, 285.0, 285.0, 285.0, 285.0, 285.0, 285.0, 285.0, 285.0, 285.0, 285.0, 285.0, 285.0, 285.0, 285.0, 284.0, 285.0, 285.0, 285.0, 285.0, 285.0, 285.0, 285.0, 285.0, 284.0, 285.0, 285.0, 284.0, 285.0, 285.0, 285.0, 285.0, 285.0, 285.0, 284.0, 285.0, 285.0],
      "WindowWidth": [623.0, 623.0, 623.0, 623.0, 622.0, 623.0, 623.0, 623.0, 623.0, 623.0, 623.0, 623.0, 623.0, 623.0, 622.0, 623.0, 623.0, 623.0, 623.0, 623.0, 623.0, 623.0, 623.0, 623.0, 623.0, 623.0, 623.0, 623.0, 623.0, 623.0, 622.0, 622.0, 623.0, 623.0, 623.0, 623.0, 622.0, 623.0, 623.0, 623.0, 622.0, 622.0, 623.0, 623.0, 623.0, 623.0, 623.0, 623.0, 623.0, 622.0, 623.0, 623.0, 623.0, 623.0, 622.0, 623.0, 622.0, 623.0, 623.0, 623.0, 622.0, 622.0, 623.0, 623.0, 622.0, 622.0, 622.0, 622.0, 622.0, 622.0, 622.0, 622.0, 622.0, 622.0, 622.0, 622.0, 622.0, 622.0, 622.0, 622.0, 622.0, 622.0, 622.0, 622.0, 622.0, 622.0, 622.0, 622.0, 622.0, 622.0, 622.0, 622.0, 622.0, 622.0, 621.0, 622.0, 622.0, 622.0, 622.0, 622.0, 622.0, 622.0, 622.0, 622.0, 622.0, 622.0, 622.0, 622.0, 622.0, 622.0, 622.0, 622.0, 622.0, 622.0, 622.0, 622.0, 622.0, 622.0, 622.0, 622.0, 622.0, 622.0, 622.0, 622.0, 622.0, 622.0, 622.0, 621.0, 622.0, 622.0, 622.0, 622.0, 622.0, 622.0, 622.0, 622.0, 622.0, 622.0, 622.0, 622.0, 622.0, 622.0, 622.0, 622.0, 622.0, 622.0, 620.0, 622.0, 622.0, 622.0, 622.0, 621.0, 622.0, 622.0, 622.0, 622.0, 622.0, 622.0, 622.0, 621.0, 622.0, 622.0, 621.0, 622.0, 622.0, 621.0, 622.0, 622.0, 622.0, 621.0, 621.0, 622.0, 621.0, 622.0, 621.0, 622.0, 621.0, 622.0, 621.0, 622.0, 621.0, 621.0, 622.0, 621.0, 621.0, 621.0, 621.0, 621.0, 621.0, 621.0, 621.0, 621.0, 621.0, 621.0, 621.0, 621.0, 621.0, 621.0, 622.0, 622.0]
    },
    "slices": {}
  }
}