{
  "AcquisitionMatrixPE": 122,
  "AcquisitionNumber": 1,
  "AcquisitionTime": "09:07:32.475000",
  "BandwidthPerPixelPhaseEncode": 27.785,
  "BaseResolution": 122,
  "BodyPartExamined": "BRAIN",
  "CoilCombinationMethod": "Adaptive Combine",
  "ConsistencyInfo": "N4_VE11C_LATEST_20160120",
  "ConversionSoftware": "dcm2niix",
  "ConversionSoftwareVersion": "v1.0.20220720",
  "DerivedVendorReportedEchoSpacing": 0.000590011,
  "DeviceSerialNumber": "66112",
  "DiffusionScheme": "Monopolar",
  "DwellTime": 2e-06,
  "EchoTime": 0.068,
  "EchoTrainLength": 61,
  "EffectiveEchoSpacing": 0.000295005,
  "FlipAngle": 90,
  "HeudiconvVersion": "0.13.1",
  "ImageOrientationPatientDICOM": [0.993599, -0.112695, 0.0078221, 0.104782, 0.945276, 0.308987],
  "ImageOrientationText": "Tra>Cor(17.8)>Sag(2.4)",
  "ImageType": [
    "ORIGINAL",
    "PRIMARY",
    "DIFFUSION",
    "NONE",
    "ND",
    "NORM"
],
  "ImagingFrequency": 123.252,
  "InPlanePhaseEncodingDirectionDICOM": "COL",
  "InstitutionAddress": "Maynard 3,Hanover,NH,US,03755",
  "InstitutionName": "Dartmouth College - PBS",
  "InstitutionalDepartmentName": "Department",
  "MRAcquisitionType": "2D",
  "MagneticFieldStrength": 3,
  "Manufacturer": "Siemens",
  "ManufacturersModelName": "Prisma",
  "Modality": "MR",
  "MultibandAccelerationFactor": 4,
  "NonlinearGradientCorrection": false,
  "ParallelReductionFactorInPlane": 2,
  "PartialFourier": 1,
  "PatientPosition": "HFS",
  "PercentPhaseFOV": 100,
  "PercentSampling": 100,
  "PhaseEncodingDirection": "j-",
  "PhaseEncodingSteps": 122,
  "PhaseResolution": 1,
  "PixelBandwidth": 2050,
  "ProcedureStepDescription": "dbic^QA",
  "ProtocolName": "dwi_acq-DTI-30-p2-s4",
  "PulseSequenceDetails": "%SiemensSeq%\\ep2d_diff",
  "ReceiveCoilActiveElements": "HEA;HEP",
  "ReceiveCoilName": "Head_32",
  "ReconMatrixPE": 122,
  "RefLinesPE": 38,
  "RepetitionTime": 3.6,
  "SAR": 0.16163,
  "ScanOptions": "FS",
  "ScanningSequence": "EP",
  "SequenceName": "*ep_b0",
  "SequenceVariant": "SK\\SP",
  "SeriesDescription": "dwi_acq-DTI-30-p2-s4",
  "SeriesNumber": 13,
  "ShimSetting": [4158, -7700, -7514, 294, -10, -158, 1, 135],
  "SliceThickness": 2,
  "SliceTiming": [2.58594, 0, 1.78906, 0.19531, 1.98438, 0.39844, 2.1875, 0.59375, 2.38281, 0.99219, 2.78125, 1.19531, 2.98438, 1.39062, 3.17969, 1.58594, 3.38281, 0.79688, 2.58594, 0, 1.78906, 0.19531, 1.98438, 0.39844, 2.1875, 0.59375, 2.38281, 0.99219, 2.78125, 1.19531, 2.98438, 1.39062, 3.17969, 1.58594, 3.38281, 0.79688, 2.58594, 0, 1.78906, 0.19531, 1.98438, 0.39844, 2.1875, 0.59375, 2.38281, 0.99219, 2.78125, 1.19531, 2.98438, 1.39062, 3.17969, 1.58594, 3.38281, 0.79688, 2.58594, 0, 1.78906, 0.19531, 1.98438, 0.39844, 2.1875, 0.59375, 2.38281, 0.99219, 2.78125, 1.19531, 2.98438, 1.39062, 3.17969, 1.58594, 3.38281, 0.79688],
  "SoftwareVersions": "syngo MR E11",
  "SpacingBetweenSlices": 2,
  "SpoilingState": true,
  "StationName": "AWP66112",
  "TotalReadoutTime": 0.0356956,
  "TxRefAmp": 229.843,
  "dcmmeta_affine": [
    [-1.954620599746704, 0.20612876117229462, 0.08443117141723633, 103.9724349975586],
    [0.2216959148645401, 1.8595601320266724, 0.6123771667480469, -135.29452514648438],
    [0.015387742780148983, -0.6078442335128784, 1.902069091796875, -46.38459777832031],
    [0.0, 0.0, 0.0, 1.0]
],
  "dcmmeta_reorient_transform": [
    [0.0, -1.0, 0.0, 121.0],
    [1.0, 0.0, 0.0, 0.0],
    [0.0, 0.0, -1.0, 71.0],
    [0.0, 0.0, 0.0, 1.0]
],
  "dcmmeta_shape": [122, 122, 72, 31],
  "dcmmeta_slice_dim": 2,
  "dcmmeta_version": 0.6,
  "global": {
    "const": {
      "AccessionNumber": "qa",
      "AcquisitionMatrix": [122, 0, 0, 122],
      "AngioFlag": "N",
      "BitsAllocated": 16,
      "BitsStored": 12,
      "BodyPartExamined": "BRAIN",
      "Columns": 122,
      "EchoNumbers": 1,
      "EchoTime": 68.0,
      "EchoTrainLength": 61,
      "FlipAngle": 90.0,
      "HighBit": 11,
      "ImageOrientationPatient": [0.99359879063193, -0.1126954212328, 0.00782210252696, 0.10478212044896, 0.94527638150238, 0.30898749134551],
      "ImageType": [
        "ORIGINAL",
        "PRIMARY",
        "DIFFUSION",
        "NONE",
        "ND",
        "NORM"
],
      "ImagedNucleus": "1H",
      "ImagingFrequency": 123.252427,
      "InPlanePhaseEncodingDirection": "COL",
      "MRAcquisitionType": "2D",
      "MagneticFieldStrength": 3.0,
      "Manufacturer": "SIEMENS",
      "ManufacturerModelName": "Prisma",
      "Modality": "MR",
      "NumberOfAverages": 1.0,
      "NumberOfPhaseEncodingSteps": 122,
      "PercentPhaseFieldOfView": 100.0,
      "PercentSampling": 100.0,
      "PerformedProcedureStepStartTime": "083349.649000",
      "PhotometricInterpretation": "MONOCHROME2",
      "PixelBandwidth": 2050.0,
      "PixelRepresentation": 0,
      "PixelSpacing": [1.9672131538391, 1.9672131538391],
      "ProtocolName": "dwi_acq-DTI-30-p2-s4",
      "RepetitionTime": 3600.0,
      "Rows": 122,
      "SAR": 0.16163003451093,
      "SamplesPerPixel": 1,
      "ScanOptions": "FS",
      "ScanningSequence": "EP",
      "SequenceVariant": [
        "SK",
        "SP"
],
      "SeriesDescription": "dwi_acq-DTI-30-p2-s4",
      "SeriesNumber": 13,
      "SeriesTime": "090740.979000",
      "SliceThickness": 2.0,
      "SmallestImagePixelValue": 0,
      "SoftwareVersions": "syngo MR E11",
      "SpacingBetweenSlices": 2.0,
      "SpecificCharacterSet": "ISO_IR 100",
      "StudyID": "20",
      "StudyTime": "083349.557000",
      "TransmitCoilName": "Body",
      "VariableFlipAngleFlag": "N",
      "WindowCenterWidthExplanation": "Algo1",
      "dBdt": 0.0},
    "slices": {
      "AcquisitionTime": ["090732.475000", "090729.887500", "090731.677500", "090730.087500", "090731.877500", "090730.287500", "090732.077500", "090730.485000", "090732.275000", "090730.882500", "090732.672500", "090731.082500", "090732.872500", "090731.280000", "090733.070000", "090731.480000", "090733.270000", "090730.685000", "090732.475000", "090729.887500", "090731.677500", "090730.087500", "090731.877500", "090730.287500", "090732.077500", "090730.485000", "090732.275000", "090730.882500", "090732.672500", "090731.082500", "090732.872500", "090731.280000", "090733.070000", "090731.480000", "090733.270000", "090730.685000", "090732.475000", "090729.887500", "090731.677500", "090730.087500", "090731.877500", "090730.287500", "090732.077500", "090730.485000", "090732.275000", "090730.882500", "090732.672500", "090731.082500", "090732.872500", "090731.280000", "090733.070000", "090731.480000", "090733.270000", "090730.685000", "090732.475000", "090729.887500", "090731.677500", "090730.087500", "090731.877500", "090730.287500", "090732.077500", "090730.485000", "090732.275000", "090730.882500", "090732.672500", "090731.082500", "090732.872500", "090731.280000", "090733.070000", "090731.480000", "090733.270000", "090730.685000", "090736.075000", "090733.487500", "090735.277500", "090733.687500", "090735.477500", "090733.887500", "090735.677500", "090734.085000", "090735.875000", "090734.482500", "090736.272500", "090734.682500", "090736.472500", "090734.880000", "090736.670000", "090735.080000", "090736.870000", "090734.285000", "090736.075000", "090733.487500", "090735.277500", "090733.687500", "090735.477500", "090733.887500", "090735.677500", "090734.085000", "090735.875000", "090734.482500", "090736.272500", "090734.682500", "090736.472500", "090734.880000", "090736.670000", "090735.080000", "090736.870000", "090734.285000", "090736.075000", "090733.487500", "090735.277500", "090733.687500", "090735.477500", "090733.887500", "090735.677500", "090734.085000", "090735.875000", "090734.482500", "090736.272500", "090734.682500", "090736.472500", "090734.880000", "090736.670000", "090735.080000", "090736.870000", "090734.285000", "090736.075000", "090733.487500", "090735.277500", "090733.687500", "090735.477500", "090733.887500", "090735.677500", "090734.085000", "090735.875000", "090734.482500", "090736.272500", "090734.682500", "090736.472500", "090734.880000", "090736.670000", "090735.080000", "090736.870000", "090734.285000", "090739.675000", "090737.087500", "090738.877500", "090737.287500", "090739.077500", "090737.487500", "090739.277500", "090737.685000", "090739.475000", "090738.082500", "090739.872500", "090738.282500", "090740.072500", "090738.480000", "090740.270000", "090738.680000", "090740.470000", "090737.885000", "090739.675000", "090737.087500", "090738.877500", "090737.287500", "090739.077500", "090737.487500", "090739.277500", "090737.685000", "090739.475000", "090738.082500", "090739.872500", "090738.282500", "090740.072500", "090738.480000", "090740.270000", "090738.680000", "090740.470000", "090737.885000", "090739.675000", "090737.087500", "090738.877500", "090737.287500", "090739.077500", "090737.487500", "090739.277500", "090737.685000", "090739.475000", "090738.082500", "090739.872500", "090738.282500", "090740.072500", "090738.480000", "090740.270000", "090738.680000", "090740.470000", "090737.885000", "090739.675000", "090737.087500", "090738.877500", "090737.287500", "090739.077500", "090737.487500", "090739.277500", "090737.685000", "090739.475000", "090738.082500", "090739.872500", "090738.282500", "090740.072500", "090738.480000", "090740.270000", "090738.680000", "090740.470000", "090737.885000", "090743.275000", "090740.687500", "090742.477500", "090740.887500", "090742.677500", "090741.087500", "090742.877500", "090741.285000", "090743.075000", "090741.682500", "090743.472500", "090741.882500", "090743.672500", "090742.080000", "090743.870000", "090742.280000", "090744.070000", "090741.485000", "090743.275000", "090740.687500", "090742.477500", "090740.887500", "090742.677500", "090741.087500", "090742.877500", "090741.285000", "090743.075000", "090741.682500", "090743.472500", "090741.882500", "090743.672500", "090742.080000", "090743.870000", "090742.280000", "090744.070000", "090741.485000", "090743.275000", "090740.687500", "090742.477500", "090740.887500", "090742.677500", "090741.087500", "090742.877500", "090741.285000", "090743.075000", "090741.682500", "090743.472500", "090741.882500", "090743.672500", "090742.080000", "090743.870000", "090742.280000", "090744.070000", "090741.485000", "090743.275000", "090740.687500", "090742.477500", "090740.887500", "090742.677500", "090741.087500", "090742.877500", "090741.285000", "090743.075000", "090741.682500", "090743.472500", "090741.882500", "090743.672500", "090742.080000", "090743.870000", "090742.280000", "090744.070000", "090741.485000", "090746.875000", "090744.287500", "090746.077500", "090744.487500", "090746.277500", "090744.687500", "090746.477500", "090744.885000", "090746.675000", "090745.282500", "090747.072500", "090745.482500", "090747.272500", "090745.680000", "090747.470000", "090745.880000", "090747.670000", "090745.085000", "090746.875000", "090744.287500", "090746.077500", "090744.487500", "090746.277500", "090744.687500", "090746.477500", "090744.885000", "090746.675000", "090745.282500", "090747.072500", "090745.482500", "090747.272500", "090745.680000", "090747.470000", "090745.880000", "090747.670000", "090745.085000", "090746.875000", "090744.287500", "090746.077500", "090744.487500", "090746.277500", "090744.687500", "090746.477500", "090744.885000", "090746.675000", "090745.282500", "090747.072500", "090745.482500", "090747.272500", "090745.680000", "090747.470000", "090745.880000", "090747.670000", "090745.085000", "090746.875000", "090744.287500", "090746.077500", "090744.487500", "090746.277500", "090744.687500", "090746.477500", "090744.885000", "090746.675000", "090745.282500", "090747.072500", "090745.482500", "090747.272500", "090745.680000", "090747.470000", "090745.880000", "090747.670000", "090745.085000", "090750.475000", "090747.887500", "090749.677500", "090748.087500", "090749.877500", "090748.287500", "090750.077500", "090748.485000", "090750.275000", "090748.882500", "090750.672500", "090749.082500", "090750.872500", "090749.280000", "090751.070000", "090749.480000", "090751.270000", "090748.685000", "090750.475000", "090747.887500", "090749.677500", "090748.087500", "090749.877500", "090748.287500", "090750.077500", "090748.485000", "090750.275000", "090748.882500", "090750.672500", "090749.082500", "090750.872500", "090749.280000", "090751.070000", "090749.480000", "090751.270000", "090748.685000", "090750.475000", "090747.887500", "090749.677500", "090748.087500", "090749.877500", "090748.287500", "090750.077500", "090748.485000", "090750.275000", "090748.882500", "090750.672500", "090749.082500", "090750.872500", "090749.280000", "090751.070000", "090749.480000", "090751.270000", "090748.685000", "090750.475000", "090747.887500", "090749.677500", "090748.087500", "090749.877500", "090748.287500", "090750.077500", "090748.485000", "090750.275000", "090748.882500", "090750.672500", "090749.082500", "090750.872500", "090749.280000", "090751.070000", "090749.480000", "090751.270000", "090748.685000", "090754.075000", "090751.487500", "090753.277500", "090751.687500", "090753.477500", "090751.887500", "090753.677500", "090752.085000", "090753.875000", "090752.482500", "090754.272500", "090752.682500", "090754.472500", "090752.880000", "090754.670000", "090753.080000", "090754.870000", "090752.285000", "090754.075000", "090751.487500", "090753.277500", "090751.687500", "090753.477500", "090751.887500", "090753.677500", "090752.085000", "090753.875000", "090752.482500", "090754.272500", "090752.682500", "090754.472500", "090752.880000", "090754.670000", "090753.080000", "090754.870000", "090752.285000", "090754.075000", "090751.487500", "090753.277500", "090751.687500", "090753.477500", "090751.887500", "090753.677500", "090752.085000", "090753.875000", "090752.482500", "090754.272500", "090752.682500", "090754.472500", "090752.880000", "090754.670000", "090753.080000", "090754.870000", "090752.285000", "090754.075000", "090751.487500", "090753.277500", "090751.687500", "090753.477500", "090751.887500", "090753.677500", "090752.085000", "090753.875000", "090752.482500", "090754.272500", "090752.682500", "090754.472500", "090752.880000", "090754.670000", "090753.080000", "090754.870000", "090752.285000", "090757.675000", "090755.087500", "090756.877500", "090755.287500", "090757.077500", "090755.487500", "090757.277500", "090755.685000", "090757.475000", "090756.082500", "090757.872500", "090756.282500", "090758.072500", "090756.480000", "090758.270000", "090756.680000", "090758.470000", "090755.885000", "090757.675000", "090755.087500", "090756.877500", "090755.287500", "090757.077500", "090755.487500", "090757.277500", "090755.685000", "090757.475000", "090756.082500", "090757.872500", "090756.282500", "090758.072500", "090756.480000", "090758.270000", "090756.680000", "090758.470000", "090755.885000", "090757.675000", "090755.087500", "090756.877500", "090755.287500", "090757.077500", "090755.487500", "090757.277500", "090755.685000", "090757.475000", "090756.082500", "090757.872500", "090756.282500", "090758.072500", "090756.480000", "090758.270000", "090756.680000", "090758.470000", "090755.885000", "090757.675000", "090755.087500", "090756.877500", "090755.287500", "090757.077500", "090755.487500", "090757.277500", "090755.685000", "090757.475000", "090756.082500", "090757.872500", "090756.282500", "090758.072500", "090756.480000", "090758.270000", "090756.680000", "090758.470000", "090755.885000", "090801.275000", "090758.687500", "090800.477500", "090758.887500", "090800.677500", "090759.087500", "090800.877500", "090759.285000", "090801.075000", "090759.682500", "090801.472500", "090759.882500", "090801.672500", "090800.080000", "090801.870000", "090800.280000", "090802.070000", "090759.485000", "090801.275000", "090758.687500", "090800.477500", "090758.887500", "090800.677500", "090759.087500", "090800.877500", "090759.285000", "090801.075000", "090759.682500", "090801.472500", "090759.882500", "090801.672500", "090800.080000", "090801.870000", "090800.280000", "090802.070000", "090759.485000", "090801.275000", "090758.687500", "090800.477500", "090758.887500", "090800.677500", "090759.087500", "090800.877500", "090759.285000", "090801.075000", "090759.682500", "090801.472500", "090759.882500", "090801.672500", "090800.080000", "090801.870000", "090800.280000", "090802.070000", "090759.485000", "090801.275000", "090758.687500", "090800.477500", "090758.887500", "090800.677500", "090759.087500", "090800.877500", "090759.285000", "090801.075000", "090759.682500", "090801.472500", "090759.882500", "090801.672500", "090800.080000", "090801.870000", "090800.280000", "090802.070000", "090759.485000", "090804.875000", "090802.287500", "090804.077500", "090802.487500", "090804.277500", "090802.687500", "090804.477500", "090802.885000", "090804.675000", "090803.282500", "090805.072500", "090803.482500", "090805.272500", "090803.680000", "090805.470000", "090803.880000", "090805.670000", "090803.085000", "090804.875000", "090802.287500", "090804.077500", "090802.487500", "090804.277500", "090802.687500", "090804.477500", "090802.885000", "090804.675000", "090803.282500", "090805.072500", "090803.482500", "090805.272500", "090803.680000", "090805.470000", "090803.880000", "090805.670000", "090803.085000", "090804.875000", "090802.287500", "090804.077500", "090802.487500", "090804.277500", "090802.687500", "090804.477500", "090802.885000", "090804.675000", "090803.282500", "090805.072500", "090803.482500", "090805.272500", "090803.680000", "090805.470000", "090803.880000", "090805.670000", "090803.085000", "090804.875000", "090802.287500", "090804.077500", "090802.487500", "090804.277500", "090802.687500", "090804.477500", "090802.885000", "090804.675000", "090803.282500", "090805.072500", "090803.482500", "090805.272500", "090803.680000", "090805.470000", "090803.880000", "090805.670000", "090803.085000", "090808.475000", "090805.887500", "090807.677500", "090806.087500", "090807.877500", "090806.287500", "090808.077500", "090806.485000", "090808.275000", "090806.882500", "090808.672500", "090807.082500", "090808.872500", "090807.280000", "090809.070000", "090807.480000", "090809.270000", "090806.685000", "090808.475000", "090805.887500", "090807.677500", "090806.087500", "090807.877500", "090806.287500", "090808.077500", "090806.485000", "090808.275000", "090806.882500", "090808.672500", "090807.082500", "090808.872500", "090807.280000", "090809.070000", "090807.480000", "090809.270000", "090806.685000", "090808.475000", "090805.887500", "090807.677500", "090806.087500", "090807.877500", "090806.287500", "090808.077500", "090806.485000", "090808.275000", "090806.882500", "090808.672500", "090807.082500", "090808.872500", "090807.280000", "090809.070000", "090807.480000", "090809.270000", "090806.685000", "090808.475000", "090805.887500", "090807.677500", "090806.087500", "090807.877500", "090806.287500", "090808.077500", "090806.485000", "090808.275000", "090806.882500", "090808.672500", "090807.082500", "090808.872500", "090807.280000", "090809.070000", "090807.480000", "090809.270000", "090806.685000", "090812.075000", "090809.487500", "090811.277500", "090809.687500", "090811.477500", "090809.887500", "090811.677500", "090810.085000", "090811.875000", "090810.482500", "090812.272500", "090810.682500", "090812.472500", "090810.880000", "090812.670000", "090811.080000", "090812.870000", "090810.285000", "090812.075000", "090809.487500", "090811.277500", "090809.687500", "090811.477500", "090809.887500", "090811.677500", "090810.085000", "090811.875000", "090810.482500", "090812.272500", "090810.682500", "090812.472500", "090810.880000", "090812.670000", "090811.080000", "090812.870000", "090810.285000", "090812.075000", "090809.487500", "090811.277500", "090809.687500", "090811.477500", "090809.887500", "090811.677500", "090810.085000", "090811.875000", "090810.482500", "090812.272500", "090810.682500", "090812.472500", "090810.880000", "090812.670000", "090811.080000", "090812.870000", "090810.285000", "090812.075000", "090809.487500", "090811.277500", "090809.687500", "090811.477500", "090809.887500", "090811.677500", "090810.085000", "090811.875000", "090810.482500", "090812.272500", "090810.682500", "090812.472500", "090810.880000", "090812.670000", "090811.080000", "090812.870000", "090810.285000", "090815.675000", "090813.087500", "090814.877500", "090813.287500", "090815.077500", "090813.487500", "090815.277500", "090813.685000", "090815.475000", "090814.082500", "090815.872500", "090814.282500", "090816.072500", "090814.480000", "090816.270000", "090814.680000", "090816.470000", "090813.885000", "090815.675000", "090813.087500", "090814.877500", "090813.287500", "090815.077500", "090813.487500", "090815.277500", "090813.685000", "090815.475000", "090814.082500", "090815.872500", "090814.282500", "090816.072500", "090814.480000", "090816.270000", "090814.680000", "090816.470000", "090813.885000", "090815.675000", "090813.087500", "090814.877500", "090813.287500", "090815.077500", "090813.487500", "090815.277500", "090813.685000", "090815.475000", "090814.082500", "090815.872500", "090814.282500", "090816.072500", "090814.480000", "090816.270000", "090814.680000", "090816.470000", "090813.885000", "090815.675000", "090813.087500", "090814.877500", "090813.287500", "090815.077500", "090813.487500", "090815.277500", "090813.685000", "090815.475000", "090814.082500", "090815.872500", "090814.282500", "090816.072500", "090814.480000", "090816.270000", "090814.680000", "090816.470000", "090813.885000", "090819.275000", "090816.687500", "090818.477500", "090816.887500", "090818.677500", "090817.087500", "090818.877500", "090817.285000", "090819.075000", "090817.682500", "090819.472500", "090817.882500", "090819.672500", "090818.080000", "090819.870000", "090818.280000", "090820.070000", "090817.485000", "090819.275000", "090816.687500", "090818.477500", "090816.887500", "090818.677500", "090817.087500", "090818.877500", "090817.285000", "090819.075000", "090817.682500", "090819.472500", "090817.882500", "090819.672500", "090818.080000", "090819.870000", "090818.280000", "090820.070000", "090817.485000", "090819.275000", "090816.687500", "090818.477500", "090816.887500", "090818.677500", "090817.087500", "090818.877500", "090817.285000", "090819.075000", "090817.682500", "090819.472500", "090817.882500", "090819.672500", "090818.080000", "090819.870000", "090818.280000", "090820.070000", "090817.485000", "090819.275000", "090816.687500", "090818.477500", "090816.887500", "090818.677500", "090817.087500", "090818.877500", "090817.285000", "090819.075000", "090817.682500", "090819.472500", "090817.882500", "090819.672500", "090818.080000", "090819.870000", "090818.280000", "090820.070000", "090817.485000", "090822.875000", "090820.287500", "090822.077500", "090820.487500", "090822.277500", "090820.687500", "090822.477500", "090820.885000", "090822.675000", "090821.282500", "090823.072500", "090821.482500", "090823.272500", "090821.680000", "090823.470000", "090821.880000", "090823.670000", "090821.085000", "090822.875000", "090820.287500", "090822.077500", "090820.487500", "090822.277500", "090820.687500", "090822.477500", "090820.885000", "090822.675000", "090821.282500", "090823.072500", "090821.482500", "090823.272500", "090821.680000", "090823.470000", "090821.880000", "090823.670000", "090821.085000", "090822.875000", "090820.287500", "090822.077500", "090820.487500", "090822.277500", "090820.687500", "090822.477500", "090820.885000", "090822.675000", "090821.282500", "090823.072500", "090821.482500", "090823.272500", "090821.680000", "090823.470000", "090821.880000", "090823.670000", "090821.085000", "090822.875000", "090820.287500", "090822.077500", "090820.487500", "090822.277500", "090820.687500", "090822.477500", "090820.885000", "090822.675000", "090821.282500", "090823.072500", "090821.482500", "090823.272500", "090821.680000", "090823.470000", "090821.880000", "090823.670000", "090821.085000", "090826.475000", "090823.887500", "090825.677500", "090824.087500", "090825.877500", "090824.287500", "090826.077500", "090824.485000", "090826.275000", "090824.882500", "090826.672500", "090825.082500", "090826.872500", "090825.280000", "090827.070000", "090825.480000", "090827.270000", "090824.685000", "090826.475000", "090823.887500", "090825.677500", "090824.087500", "090825.877500", "090824.287500", "090826.077500", "090824.485000", "090826.275000", "090824.882500", "090826.672500", "090825.082500", "090826.872500", "090825.280000", "090827.070000", "090825.480000", "090827.270000", "090824.685000", "090826.475000", "090823.887500", "090825.677500", "090824.087500", "090825.877500", "090824.287500", "090826.077500", "090824.485000", "090826.275000", "090824.882500", "090826.672500", "090825.082500", "090826.872500", "090825.280000", "090827.070000", "090825.480000", "090827.270000", "090824.685000", "090826.475000", "090823.887500", "090825.677500", "090824.087500", "090825.877500", "090824.287500", "090826.077500", "090824.485000", "090826.275000", "090824.882500", "090826.672500", "090825.082500", "090826.872500", "090825.280000", "090827.070000", "090825.480000", "090827.270000", "090824.685000", "090830.075000", "090827.487500", "090829.277500", "090827.687500", "090829.477500", "090827.887500", "090829.677500", "090828.085000", "090829.875000", "090828.482500", "090830.272500", "090828.682500", "090830.472500", "090828.880000", "090830.670000", "090829.080000", "090830.870000", "090828.285000", "090830.075000", "090827.487500", "090829.277500", "090827.687500", "090829.477500", "090827.887500", "090829.677500", "090828.085000", "090829.875000", "090828.482500", "090830.272500", "090828.682500", "090830.472500", "090828.880000", "090830.670000", "090829.080000", "090830.870000", "090828.285000", "090830.075000", "090827.487500", "090829.277500", "090827.687500", "090829.477500", "090827.887500", "090829.677500", "090828.085000", "090829.875000", "090828.482500", "090830.272500", "090828.682500", "090830.472500", "090828.880000", "090830.670000", "090829.080000", "090830.870000", "090828.285000", "090830.075000", "090827.487500", "090829.277500", "090827.687500", "090829.477500", "090827.887500", "090829.677500", "090828.085000", "090829.875000", "090828.482500", "090830.272500", "090828.682500", "090830.472500", "090828.880000", "090830.670000", "090829.080000", "090830.870000", "090828.285000", "090833.675000", "090831.087500", "090832.877500", "090831.287500", "090833.077500", "090831.487500", "090833.277500", "090831.685000", "090833.475000", "090832.082500", "090833.872500", "090832.282500", "090834.072500", "090832.480000", "090834.270000", "090832.680000", "090834.470000", "090831.885000", "090833.675000", "090831.087500", "090832.877500", "090831.287500", "090833.077500", "090831.487500", "090833.277500", "090831.685000", "090833.475000", "090832.082500", "090833.872500", "090832.282500", "090834.072500", "090832.480000", "090834.270000", "090832.680000", "090834.470000", "090831.885000", "090833.675000", "090831.087500", "090832.877500", "090831.287500", "090833.077500", "090831.487500", "090833.277500", "090831.685000", "090833.475000", "090832.082500", "090833.872500", "090832.282500", "090834.072500", "090832.480000", "090834.270000", "090832.680000", "090834.470000", "090831.885000", "090833.675000", "090831.087500", "090832.877500", "090831.287500", "090833.077500", "090831.487500", "090833.277500", "090831.685000", "090833.475000", "090832.082500", "090833.872500", "090832.282500", "090834.072500", "090832.480000", "090834.270000", "090832.680000", "090834.470000", "090831.885000", "090837.275000", "090834.687500", "090836.477500", "090834.887500", "090836.677500", "090835.087500", "090836.877500", "090835.285000", "090837.075000", "090835.682500", "090837.472500", "090835.882500", "090837.672500", "090836.080000", "090837.870000", "090836.280000", "090838.070000", "090835.485000", "090837.275000", "090834.687500", "090836.477500", "090834.887500", "090836.677500", "090835.087500", "090836.877500", "090835.285000", "090837.075000", "090835.682500", "090837.472500", "090835.882500", "090837.672500", "090836.080000", "090837.870000", "090836.280000", "090838.070000", "090835.485000", "090837.275000", "090834.687500", "090836.477500", "090834.887500", "090836.677500", "090835.087500", "090836.877500", "090835.285000", "090837.075000", "090835.682500", "090837.472500", "090835.882500", "090837.672500", "090836.080000", "090837.870000", "090836.280000", "090838.070000", "090835.485000", "090837.275000", "090834.687500", "090836.477500", "090834.887500", "090836.677500", "090835.087500", "090836.877500", "090835.285000", "090837.075000", "090835.682500", "090837.472500", "090835.882500", "090837.672500", "090836.080000", "090837.870000", "090836.280000", "090838.070000", "090835.485000", "090840.875000", "090838.287500", "090840.077500", "090838.487500", "090840.277500", "090838.687500", "090840.477500", "090838.885000", "090840.675000", "090839.282500", "090841.072500", "090839.482500", "090841.272500", "090839.680000", "090841.470000", "090839.880000", "090841.670000", "090839.085000", "090840.875000", "090838.287500", "090840.077500", "090838.487500", "090840.277500", "090838.687500", "090840.477500", "090838.885000", "090840.675000", "090839.282500", "090841.072500", "090839.482500", "090841.272500", "090839.680000", "090841.470000", "090839.880000", "090841.670000", "090839.085000", "090840.875000", "090838.287500", "090840.077500", "090838.487500", "090840.277500", "090838.687500", "090840.477500", "090838.885000", "090840.675000", "090839.282500", "090841.072500", "090839.482500", "090841.272500", "090839.680000", "090841.470000", "090839.880000", "090841.670000", "090839.085000", "090840.875000", "090838.287500", "090840.077500", "090838.487500", "090840.277500", "090838.687500", "090840.477500", "090838.885000", "090840.675000", "090839.282500", "090841.072500", "090839