{
  "AcquisitionMatrixPE": 80,
  "AcquisitionNumber": 1,
  "AcquisitionTime": "11:06:23.425000",
  "BandwidthPerPixelPhaseEncode": 25,
  "BaseResolution": 80,
  "BodyPartExamined": "BRAIN",
  "CoilCombinationMethod": "Sum of Squares",
  "ConsistencyInfo": "N4_VE11E_LATEST_20181129",
  "ConversionSoftware": "dcm2niix",
  "ConversionSoftwareVersion": "v1.0.20220720",
  "DerivedVendorReportedEchoSpacing": 0.0005,
  "DeviceSerialNumber": "66112",
  "DwellTime": 2.7e-06,
  "EchoTime": 0.03,
  "EchoTrainLength": 80,
  "EffectiveEchoSpacing": 0.0005,
  "FlipAngle": 77,
  "HeudiconvVersion": "0.13.1",
  "ImageOrientationPatientDICOM": [0.994542, -0.104233, 0.00464865, 0.097691, 0.945918, 0.309347],
  "ImageOrientationText": "Tra>Cor(17.9)>Sag(2.1)",
  "ImageType": [
    "ORIGINAL",
    "PRIMARY",
    "M",
    "ND",
    "NORM",
    "MOSAIC"
],
  "ImagingFrequency": 123.259,
  "InPlanePhaseEncodingDirectionDICOM": "COL",
  "InstitutionAddress": "Maynard 3,Hanover,NH,US,03755",
  "InstitutionName": "Dartmouth College - PBS",
  "InstitutionalDepartmentName": "Department",
  "MRAcquisitionType": "2D",
  "MagneticFieldStrength": 3,
  "Manufacturer": "Siemens",
  "ManufacturersModelName": "Prisma",
  "MatrixCoilMode": "SENSE",
  "Modality": "MR",
  "NonlinearGradientCorrection": false,
  "PartialFourier": 1,
  "PatientPosition": "HFS",
  "PercentPhaseFOV": 100,
  "PercentSampling": 100,
  "PhaseEncodingDirection": "j-",
  "PhaseEncodingSteps": 80,
  "PhaseResolution": 1,
  "PixelBandwidth": 2315,
  "ProcedureStepDescription": "dbic^QA",
  "ProtocolName": "func-bold_fa-77",
  "PulseSequenceDetails": "%SiemensSeq%\\ep2d_bold",
  "ReceiveCoilActiveElements": "HC1-7;NC1,2",
  "ReceiveCoilName": "HeadNeck_64",
  "ReconMatrixPE": 80,
  "RepetitionTime": 2,
  "SAR": 0.0282511,
  "ScanOptions": "FS",
  "ScanningSequence": "EP",
  "SequenceName": "*epfid2d1_80",
  "SequenceVariant": "SK",
  "SeriesDescription": "func-bold_fa-77",
  "SeriesNumber": 7,
  "ShimSetting": [4219, -7734, -7481, -146, -175, -252, -76, 72],
  "SliceThickness": 3.5,
  "SliceTiming": [0.99, 0, 1.055, 0.0675, 1.1225, 0.1325, 1.1875, 0.1975, 1.255, 0.265, 1.32, 0.33, 1.385, 0.395, 1.4525, 0.4625, 1.5175, 0.5275, 1.585, 0.595, 1.65, 0.66, 1.715, 0.725, 1.7825, 0.7925, 1.8475, 0.8575, 1.915, 0.925],
  "SoftwareVersions": "syngo MR E11",
  "SpacingBetweenSlices": 3.99,
  "StationName": "AWP66112",
  "TotalReadoutTime": 0.0395,
  "TxRefAmp": 212.985,
  "dcmmeta_affine": [
    [-2.983626127243042, 0.29307296872138977, 0.1461992859840393, 106.67134094238281],
    [0.31269893050193787, 2.8377537727355957, 1.2257468700408936, -136.6790771484375],
    [0.01394594181329012, -0.9280417561531067, 3.7942419052124023, -26.27780532836914],
    [0.0, 0.0, 0.0, 1.0]
],
  "dcmmeta_reorient_transform": [
    [0.0, -1.0, 0.0, 79.0],
    [1.0, 0.0, 0.0, 0.0],
    [0.0, 0.0, 1.0, 0.0],
    [0.0, 0.0, 0.0, 1.0]
],
  "dcmmeta_shape": [80, 80, 30, 200],
  "dcmmeta_slice_dim": 2,
  "dcmmeta_version": 0.6,
  "global": {
    "const": {
      "AccessionNumber": "qa64",
      "AcquisitionMatrix": [80, 0, 0, 80],
      "AngioFlag": "N",
      "BitsAllocated": 16,
      "BitsStored": 12,
      "BodyPartExamined": "BRAIN",
      "Columns": 480,
      "EchoNumbers": 1,
      "EchoTime": 30.0,
      "EchoTrainLength": 80,
      "FlipAngle": 77.0,
      "HighBit": 11,
      "ImageOrientationPatient": [0.99454204385015, -0.1042329750799, 0.00464864715386, 0.09769098781502, 0.94591793862765, 0.3093472551715],
      "ImagePositionPatient": [-785.16392148129, -592.51444977062, -287.99064678119],
      "ImageType": [
        "ORIGINAL",
        "PRIMARY",
        "M",
        "ND",
        "NORM",
        "MOSAIC"
],
      "ImagedNucleus": "1H",
      "ImagingFrequency": 123.259272,
      "InPlanePhaseEncodingDirection": "COL",
      "MRAcquisitionType": "2D",
      "MagneticFieldStrength": 3.0,
      "Manufacturer": "SIEMENS",
      "ManufacturerModelName": "Prisma",
      "Modality": "MR",
      "NumberOfAverages": 1.0,
      "NumberOfPhaseEncodingSteps": 80,
      "PercentPhaseFieldOfView": 100.0,
      "PercentSampling": 100.0,
      "PerformedProcedureStepStartTime": "105535.370000",
      "PhotometricInterpretation": "MONOCHROME2",
      "PixelBandwidth": 2315.0,
      "PixelRepresentation": 0,
      "PixelSpacing": [3.0, 3.0],
      "ProtocolName": "func-bold_fa-77",
      "RepetitionTime": 2000.0,
      "Rows": 480,
      "SAR": 0.02825106276387,
      "SamplesPerPixel": 1,
      "ScanOptions": "FS",
      "ScanningSequence": "EP",
      "SequenceName": "*epfid2d1_80",
      "SequenceVariant": "SK",
      "SeriesDescription": "func-bold_fa-77",
      "SeriesNumber": 7,
      "SeriesTime": "110715.276000",
      "SliceLocation": -63.068427304438,
      "SliceThickness": 3.5,
      "SmallestImagePixelValue": 0,
      "SoftwareVersions": "syngo MR E11",
      "SpacingBetweenSlices": 3.9900000646609,
      "SpecificCharacterSet": "ISO_IR 100",
      "StudyID": "24",
      "StudyTime": "105535.288000",
      "TransmitCoilName": "Body",
      "VariableFlipAngleFlag": "N",
      "WindowCenterWidthExplanation": "Algo1"
    },
    "slices": {}
  },
  "time": {
    "samples": {
      "AcquisitionNumber": [1, 2, 3, 4, 5, 6, 7, 8, 9, 10, 11, 12, 13, 14, 15, 16, 17, 18, 19, 20, 21, 22, 23, 24, 25, 26, 27, 28, 29, 30, 31, 32, 33, 34, 35, 36, 37, 38, 39, 40, 41, 42, 43, 44, 45, 46, 47, 48, 49, 50, 51, 52, 53, 54, 55, 56, 57, 58, 59, 60, 61, 62, 63, 64, 65, 66, 67, 68, 69, 70, 71, 72, 73, 74, 75, 76, 77, 78, 79, 80, 81, 82, 83, 84, 85, 86, 87, 88, 89, 90, 91, 92, 93, 94, 95, 96, 97, 98, 99, 100, 101, 102, 103, 104, 105, 106, 107, 108, 109, 110, 111, 112, 113, 114, 115, 116, 117, 118, 119, 120, 121, 122, 123, 124, 125, 126, 127, 128, 129, 130, 131, 132, 133, 134, 135, 136, 137, 138, 139, 140, 141, 142, 143, 144, 145, 146, 147, 148, 149, 150, 151, 152, 153, 154, 155, 156, 157, 158, 159, 160, 161, 162, 163, 164, 165, 166, 167, 168, 169, 170, 171, 172, 173, 174, 175, 176, 177, 178, 179, 180, 181, 182, 183, 184, 185, 186, 187, 188, 189, 190, 191, 192, 193, 194, 195, 196, 197, 198, 199, 200],
      "AcquisitionTime": ["110623.425000", "110625.425000", "110627.425000", "110629.425000", "110631.425000", "110633.425000", "110635.425000", "110637.425000", "110639.425000", "110641.425000", "110643.425000", "110645.425000", "110647.425000", "110649.425000", "110651.425000", "110653.425000", "110655.425000", "110657.425000", "110659.425000", "110701.425000", "110703.425000", "110705.425000", "110707.425000", "110709.425000", "110711.425000", "110713.425000", "110715.425000", "110717.425000", "110719.425000", "110721.425000", "110723.425000", "110725.425000", "110727.425000", "110729.425000", "110731.425000", "110733.425000", "110735.425000", "110737.425000", "110739.425000", "110741.425000", "110743.425000", "110745.425000", "110747.425000", "110749.425000", "110751.425000", "110753.425000", "110755.425000", "110757.425000", "110759.425000", "110801.425000", "110803.425000", "110805.425000", "110807.425000", "110809.425000", "110811.425000", "110813.425000", "110815.425000", "110817.425000", "110819.425000", "110821.425000", "110823.425000", "110825.425000", "110827.425000", "110829.425000", "110831.425000", "110833.425000", "110835.425000", "110837.425000", "110839.425000", "110841.425000", "110843.425000", "110845.425000", "110847.425000", "110849.425000", "110851.425000", "110853.425000", "110855.425000", "110857.425000", "110859.425000", "110901.425000", "110903.425000", "110905.425000", "110907.425000", "110909.425000", "110911.425000", "110913.425000", "110915.425000", "110917.425000", "110919.425000", "110921.425000", "110923.425000", "110925.425000", "110927.425000", "110929.425000", "110931.425000", "110933.425000", "110935.425000", "110937.425000", "110939.425000", "110941.425000", "110943.425000", "110945.425000", "110947.425000", "110949.425000", "110951.425000", "110953.425000", "110955.425000", "110957.425000", "110959.425000", "111001.425000", "111003.425000", "111005.425000", "111007.425000", "111009.425000", "111011.425000", "111013.425000", "111015.425000", "111017.425000", "111019.425000", "111021.425000", "111023.425000", "111025.425000", "111027.425000", "111029.425000", "111031.425000", "111033.425000", "111035.425000", "111037.425000", "111039.425000", "111041.425000", "111043.425000", "111045.425000", "111047.425000", "111049.425000", "111051.425000", "111053.425000", "111055.425000", "111057.425000", "111059.425000", "111101.425000", "111103.425000", "111105.425000", "111107.425000", "111109.425000", "111111.425000", "111113.425000", "111115.425000", "111117.425000", "111119.425000", "111121.425000", "111123.425000", "111125.425000", "111127.425000", "111129.425000", "111131.425000", "111133.425000", "111135.425000", "111137.425000", "111139.425000", "111141.425000", "111143.425000", "111145.425000", "111147.425000", "111149.425000", "111151.425000", "111153.425000", "111155.425000", "111157.425000", "111159.425000", "111201.425000", "111203.425000", "111205.425000", "111207.425000", "111209.425000", "111211.425000", "111213.425000", "111215.425000", "111217.425000", "111219.425000", "111221.425000", "111223.425000", "111225.425000", "111227.425000", "111229.425000", "111231.425000", "111233.425000", "111235.425000", "111237.425000", "111239.425000", "111241.425000", "111243.425000", "111245.425000", "111247.425000", "111249.425000", "111251.425000", "111253.425000", "111255.425000", "111257.425000", "111259.425000", "111301.425000"],
      "ContentTime": ["110715.279000", "110715.282000", "110715.285000", "110715.288000", "110715.290000", "110715.292000", "110715.295000", "110715.298000", "110715.300000", "110715.302000", "110715.305000", "110715.308000", "110715.310000", "110715.313000", "110715.315000", "110715.317000", "110715.320000", "110715.322000", "110715.325000", "110715.327000", "110715.330000", "110715.332000", "110715.334000", "110715.337000", "110715.339000", "110715.341000", "110755.274000", "110755.277000", "110755.279000", "110755.282000", "110755.284000", "110755.287000", "110755.289000", "110755.292000", "110755.300000", "110755.303000", "110755.305000", "110755.308000", "110755.310000", "110755.313000", "110755.315000", "110755.317000", "110755.320000", "110755.322000", "110755.325000", "110755.327000", "110835.273000", "110835.276000", "110835.278000", "110835.281000", "110835.283000", "110835.286000", "110835.288000", "110835.290000", "110835.293000", "110835.295000", "110835.298000", "110835.300000", "110835.303000", "110835.305000", "110835.308000", "110835.310000", "110835.319000", "110835.321000", "110835.323000", "110835.326000", "110915.274000", "110915.277000", "110915.279000", "110915.282000", "110915.284000", "110915.287000", "110915.289000", "110915.291000", "110915.294000", "110915.296000", "110915.299000", "110915.301000", "110915.304000", "110915.306000", "110915.309000", "110915.311000", "110915.314000", "110915.316000", "110915.319000", "110915.321000", "110935.274000", "110935.277000", "110935.279000", "110935.282000", "110935.284000", "110935.287000", "110935.289000", "110935.291000", "110935.294000", "110935.296000", "111015.274000", "111015.277000", "111015.279000", "111015.281000", "111015.284000", "111015.286000", "111015.289000", "111015.291000", "111015.294000", "111015.296000", "111015.299000", "111015.301000", "111015.304000", "111015.306000", "111015.308000", "111015.311000", "111015.313000", "111015.316000", "111015.318000", "111015.320000", "111055.274000", "111055.276000", "111055.279000", "111055.281000", "111055.284000", "111055.286000", "111055.289000", "111055.291000", "111055.294000", "111055.296000", "111055.299000", "111055.301000", "111055.304000", "111055.307000", "111055.309000", "111055.311000", "111055.314000", "111055.316000", "111055.319000", "111055.321000", "111135.275000", "111135.277000", "111135.280000", "111135.282000", "111135.312000", "111135.314000", "111135.317000", "111135.319000", "111135.322000", "111135.324000", "111135.327000", "111135.329000", "111135.332000", "111135.334000", "111135.337000", "111135.339000", "111135.342000", "111135.344000", "111135.346000", "111135.349000", "111215.274000", "111215.277000", "111215.279000", "111215.282000", "111215.284000", "111215.287000", "111215.289000", "111215.291000", "111215.294000", "111215.296000", "111215.299000", "111215.301000", "111215.304000", "111215.306000", "111215.308000", "111215.311000", "111215.313000", "111215.316000", "111215.318000", "111215.320000", "111255.273000", "111255.276000", "111255.278000", "111255.281000", "111255.283000", "111255.286000", "111255.288000", "111255.291000", "111255.293000", "111255.296000", "111255.298000", "111255.300000", "111255.303000", "111255.305000", "111255.308000", "111255.310000", "111255.313000", "111255.315000", "111255.317000", "111255.320000", "111302.658000", "111302.661000", "111302.663000", "111302.666000"],
      "InstanceCreationTime": ["110715.279000", "110715.282000", "110715.285000", "110715.288000", "110715.290000", "110715.292000", "110715.295000", "110715.298000", "110715.300000", "110715.302000", "110715.305000", "110715.308000", "110715.310000", "110715.313000", "110715.315000", "110715.317000", "110715.320000", "110715.322000", "110715.325000", "110715.327000", "110715.330000", "110715.332000", "110715.334000", "110715.337000", "110715.339000", "110715.341000", "110755.274000", "110755.277000", "110755.279000", "110755.282000", "110755.284000", "110755.287000", "110755.289000", "110755.292000", "110755.300000", "110755.303000", "110755.305000", "110755.308000", "110755.310000", "110755.313000", "110755.315000", "110755.317000", "110755.320000", "110755.322000", "110755.325000", "110755.327000", "110835.273000", "110835.276000", "110835.278000", "110835.281000", "110835.283000", "110835.286000", "110835.288000", "110835.290000", "110835.293000", "110835.295000", "110835.298000", "110835.300000", "110835.303000", "110835.305000", "110835.308000", "110835.310000", "110835.319000", "110835.321000", "110835.323000", "110835.326000", "110915.274000", "110915.277000", "110915.279000", "110915.282000", "110915.284000", "110915.287000", "110915.289000", "110915.291000", "110915.294000", "110915.296000", "110915.299000", "110915.301000", "110915.304000", "110915.306000", "110915.309000", "110915.311000", "110915.314000", "110915.316000", "110915.319000", "110915.321000", "110935.274000", "110935.277000", "110935.279000", "110935.282000", "110935.284000", "110935.287000", "110935.289000", "110935.291000", "110935.294000", "110935.296000", "111015.274000", "111015.277000", "111015.279000", "111015.281000", "111015.284000", "111015.286000", "111015.289000", "111015.291000", "111015.294000", "111015.296000", "111015.299000", "111015.301000", "111015.304000", "111015.306000", "111015.308000", "111015.311000", "111015.313000", "111015.316000", "111015.318000", "111015.320000", "111055.274000", "111055.276000", "111055.279000", "111055.281000", "111055.284000", "111055.286000", "111055.289000", "111055.291000", "111055.294000", "111055.296000", "111055.299000", "111055.301000", "111055.304000", "111055.307000", "111055.309000", "111055.311000", "111055.314000", "111055.316000", "111055.319000", "111055.321000", "111135.275000", "111135.277000", "111135.280000", "111135.282000", "111135.312000", "111135.314000", "111135.317000", "111135.319000", "111135.322000", "111135.324000", "111135.327000", "111135.329000", "111135.332000", "111135.334000", "111135.337000", "111135.339000", "111135.342000", "111135.344000", "111135.346000", "111135.349000", "111215.274000", "111215.277000", "111215.279000", "111215.282000", "111215.284000", "111215.287000", "111215.289000", "111215.291000", "111215.294000", "111215.296000", "111215.299000", "111215.301000", "111215.304000", "111215.306000", "111215.308000", "111215.311000", "111215.313000", "111215.316000", "111215.318000", "111215.320000", "111255.273000", "111255.276000", "111255.278000", "111255.281000", "111255.283000", "111255.286000", "111255.288000", "111255.291000", "111255.293000", "111255.296000", "111255.298000", "111255.300000", "111255.303000", "111255.305000", "111255.308000", "111255.310000", "111255.313000", "111255.315000", "111255.317000", "111255.320000", "111302.658000", "111302.661000", "111302.663000", "111302.666000"],
      "InstanceNumber": [1, 2, 3, 4, 5, 6, 7, 8, 9, 10, 11, 12, 13, 14, 15, 16, 17, 18, 19, 20, 21, 22, 23, 24, 25, 26, 27, 28, 29, 30, 31, 32, 33, 34, 35, 36, 37, 38, 39, 40, 41, 42, 43, 44, 45, 46, 47, 48, 49, 50, 51, 52, 53, 54, 55, 56, 57, 58, 59, 60, 61, 62, 63, 64, 65, 66, 67, 68, 69, 70, 71, 72, 73, 74, 75, 76, 77, 78, 79, 80, 81, 82, 83, 84, 85, 86, 87, 88, 89, 90, 91, 92, 93, 94, 95, 96, 97, 98, 99, 100, 101, 102, 103, 104, 105, 106, 107, 108, 109, 110, 111, 112, 113, 114, 115, 116, 117, 118, 119, 120, 121, 122, 123, 124, 125, 126, 127, 128, 129, 130, 131, 132, 133, 134, 135, 136, 137, 138, 139, 140, 141, 142, 143, 144, 145, 146, 147, 148, 149, 150, 151, 152, 153, 154, 155, 156, 157, 158, 159, 160, 161, 162, 163, 164, 165, 166, 167, 168, 169, 170, 171, 172, 173, 174, 175, 176, 177, 178, 179, 180, 181, 182, 183, 184, 185, 186, 187, 188, 189, 190, 191, 192, 193, 194, 195, 196, 197, 198, 199, 200],
      "LargestImagePixelValue": [3827, 3833, 3829, 3831, 3833, 3830, 3831, 3834, 3831, 3831, 3829, 3831, 3834, 3829, 3833, 3832, 3835, 3831, 3826, 3832, 3829, 3836, 3826, 3830, 3834, 3831, 3833, 3832, 3828, 3832, 3831, 3828, 3824, 3830, 3830, 3831, 3831, 3830, 3827, 3833, 3830, 3829, 3827, 3829, 3825, 3832, 3832, 3829, 3829, 3828, 3830, 3826, 3830, 3828, 3827, 3831, 3832, 3827, 3830, 3833, 3829, 3827, 3833, 3824, 3831, 3824, 3823, 3829, 3825, 3822, 3828, 3823, 3825, 3828, 3825, 3821, 3825, 3831, 3830, 3831, 3831, 3831, 3831, 3829, 3829, 3827, 3826, 3829, 3822, 3823, 3824, 3824, 3830, 3829, 3830, 3827, 3828, 3825, 3826, 3826, 3827, 3826, 3826, 3832, 3823, 3826, 3830, 3822, 3830, 3828, 3823, 3826, 3827, 3826, 3823, 3822, 3827, 3832, 3826, 3829, 3823, 3825, 3825, 3824, 3830, 3823, 3826, 3825, 3825, 3827, 3829, 3829, 3823, 3823, 3830, 3823, 3827, 3826, 3823, 3823, 3825, 3822, 3824, 3827, 3824, 3823, 3824, 3824, 3818, 3824, 3824, 3825, 3823, 3822, 3822, 3822, 3822, 3820, 3817, 3824, 3821, 3827, 3823, 3821, 3824, 3823, 3822, 3822, 3825, 3822, 3819, 3822, 3821, 3821, 3818, 3823, 3826, 3821, 3821, 3823, 3822, 3822, 3820, 3819, 3819, 3822, 3822, 3822, 3822, 3823, 3825, 3822, 3821, 3821, 3823, 3822, 3818, 3824, 3821, 3823],
      "WindowCenter": [1383.0, 1383.0, 1384.0, 1383.0, 1383.0, 1383.0, 1384.0, 1383.0, 1383.0, 1383.0, 1383.0, 1382.0, 1382.0, 1383.0, 1383.0, 1383.0, 1383.0, 1383.0, 1383.0, 1382.0, 1382.0, 1382.0, 1383.0, 1382.0, 1382.0, 1382.0, 1382.0, 1382.0, 1382.0, 1382.0, 1382.0, 1382.0, 1382.0, 1382.0, 1382.0, 1382.0, 1381.0, 1382.0, 1382.0, 1381.0, 1382.0, 1382.0, 1382.0, 1382.0, 1382.0, 1382.0, 1382.0, 1382.0, 1382.0, 1382.0, 1382.0, 1381.0, 1382.0, 1382.0, 1382.0, 1381.0, 1381.0, 1382.0, 1382.0, 1381.0, 1381.0, 1382.0, 1382.0, 1382.0, 1381.0, 1381.0, 1381.0, 1381.0, 1381.0, 1381.0, 1381.0, 1381.0, 1380.0, 1380.0, 1380.0, 1381.0, 1381.0, 1380.0, 1381.0, 1381.0, 1380.0, 1381.0, 1381.0, 1381.0, 1380.0, 1381.0, 1380.0, 1380.0, 1380.0, 1380.0, 1380.0, 1380.0, 1380.0, 1381.0, 1380.0, 1381.0, 1380.0, 1381.0, 1380.0, 1380.0, 1380.0, 1380.0, 1380.0, 1379.0, 1380.0, 1380.0, 1379.0, 1380.0, 1380.0, 1380.0, 1380.0, 1380.0, 1380.0, 1380.0, 1380.0, 1380.0, 1380.0, 1380.0, 1379.0, 1379.0, 1379.0, 1379.0, 1380.0, 1379.0, 1379.0, 1379.0, 1379.0, 1379.0, 1380.0, 1379.0, 1379.0, 1379.0, 1379.0, 1380.0, 1379.0, 1380.0, 1379.0, 1379.0, 1379.0, 1378.0, 1379.0, 1378.0, 1379.0, 1379.0, 1379.0, 1380.0, 1379.0, 1379.0, 1379.0, 1378.0, 1379.0, 1378.0, 1379.0, 1379.0, 1379.0, 1378.0, 1378.0, 1378.0, 1378.0, 1378.0, 1378.0, 1379.0, 1379.0, 1379.0, 1379.0, 1379.0, 1379.0, 1378.0, 1378.0, 1379.0, 1379.0, 1378.0, 1378.0, 1378.0, 1378.0, 1378.0, 1378.0, 1378.0, 1378.0, 1378.0, 1378.0, 1378.0, 1378.0, 1378.0, 1378.0, 1378.0, 1378.0, 1378.0, 1377.0, 1377.0, 1377.0, 1378.0, 1378.0, 1377.0, 1378.0, 1378.0, 1377.0, 1377.0, 1377.0, 1377.0],
      "WindowWidth": [3302.0, 3302.0, 3302.0, 3302.0, 3302.0, 3302.0, 3302.0, 3302.0, 3302.0, 3301.0, 3302.0, 3302.0, 3302.0, 3301.0, 3301.0, 3301.0, 3301.0, 3301.0, 3301.0, 3301.0, 3301.0, 3301.0, 3301.0, 3301.0, 3301.0, 3301.0, 3301.0, 3301.0, 3301.0, 3301.0, 3301.0, 3301.0, 3301.0, 3301.0, 3301.0, 3301.0, 3301.0, 3300.0, 3300.0, 3301.0, 3300.0, 3300.0, 3300.0, 3300.0, 3300.0, 3300.0, 3300.0, 3300.0, 3300.0, 3300.0, 3300.0, 3300.0, 3300.0, 3300.0, 3300.0, 3300.0, 3300.0, 3300.0, 3300.0, 3300.0, 3300.0, 3300.0, 3300.0, 3300.0, 3300.0, 3300.0, 3300.0, 3300.0, 3300.0, 3300.0, 3300.0, 3300.0, 3300.0, 3300.0, 3300.0, 3299.0, 3300.0, 3300.0, 3299.0, 3299.0, 3299.0, 3299.0, 3299.0, 3299.0, 3299.0, 3299.0, 3299.0, 3299.0, 3299.0, 3299.0, 3299.0, 3299.0, 3299.0, 3299.0, 3299.0, 3299.0, 3299.0, 3299.0, 3299.0, 3299.0, 3299.0, 3299.0, 3299.0, 3299.0, 3299.0, 3299.0, 3299.0, 3299.0, 3299.0, 3299.0, 3299.0, 3299.0, 3299.0, 3298.0, 3298.0, 3298.0, 3298.0, 3298.0, 3298.0, 3298.0, 3298.0, 3298.0, 3298.0, 3298.0, 3298.0, 3298.0, 3298.0, 3298.0, 3298.0, 3298.0, 3298.0, 3298.0, 3298.0, 3298.0, 3298.0, 3298.0, 3298.0, 3298.0, 3298.0, 3298.0, 3298.0, 3298.0, 3298.0, 3298.0, 3297.0, 3297.0, 3297.0, 3297.0, 3297.0, 3297.0, 3297.0, 3297.0, 3297.0, 3297.0, 3297.0, 3297.0, 3297.0, 3297.0, 3297.0, 3297.0, 3297.0, 3297.0, 3297.0, 3297.0, 3297.0, 3297.0, 3297.0, 3297.0, 3297.0, 3297.0, 3297.0, 3297.0, 3297.0, 3297.0, 3297.0, 3297.0, 3297.0, 3297.0, 3297.0, 3297.0, 3297.0, 3296.0, 3296.0, 3296.0, 3296.0, 3296.0, 3296.0, 3296.0, 3296.0, 3296.0, 3296.0, 3296.0, 3296.0, 3296.0, 3296.0, 3296.0, 3296.0, 3296.0, 3296.0, 3296.0]
    },
    "slices": {}
  }
}