{
  "AcquisitionMatrixPE": 80,
  "AcquisitionNumber": 1,
  "AcquisitionTime": "10:59:34.742500",
  "BandwidthPerPixelPhaseEncode": 48.077,
  "BaseResolution": 80,
  "BodyPartExamined": "BRAIN",
  "CoilCombinationMethod": "Sum of Squares",
  "ConsistencyInfo": "N4_VE11E_LATEST_20181129",
  "ConversionSoftware": "dcm2niix",
  "ConversionSoftwareVersion": "v1.0.20220720",
  "DerivedVendorReportedEchoSpacing": 0.000519999,
  "DeviceSerialNumber": "66112",
  "DwellTime": 2.7e-06,
  "EchoTime": 0.035,
  "EchoTrainLength": 39,
  "EffectiveEchoSpacing": 0.00026,
  "FlipAngle": 90,
  "HeudiconvVersion": "0.13.1",
  "ImageOrientationPatientDICOM": [0.994542, -0.104233, 0.00464865, 0.097691, 0.945918, 0.309347],
  "ImageOrientationText": "Tra>Cor(17.9)>Sag(2.1)",
  "ImageType": [
    "ORIGINAL",
    "PRIMARY",
    "M",
    "ND",
    "NORM",
    "MOSAIC"
],
  "ImagingFrequency": 123.259,
  "InPlanePhaseEncodingDirectionDICOM": "COL",
  "InstitutionAddress": "Maynard 3,Hanover,NH,US,03755",
  "InstitutionName": "Dartmouth College - PBS",
  "InstitutionalDepartmentName": "Department",
  "MRAcquisitionType": "2D",
  "MagneticFieldStrength": 3,
  "Manufacturer": "Siemens",
  "ManufacturersModelName": "Prisma",
  "MatrixCoilMode": "GRAPPA",
  "Modality": "MR",
  "NonlinearGradientCorrection": false,
  "ParallelReductionFactorInPlane": 2,
  "PartialFourier": 1,
  "PatientPosition": "HFS",
  "PercentPhaseFOV": 100,
  "PercentSampling": 100,
  "PhaseEncodingDirection": "j-",
  "PhaseEncodingSteps": 79,
  "PhaseResolution": 1,
  "PixelBandwidth": 2315,
  "ProcedureStepDescription": "dbic^QA",
  "ProtocolName": "func-bold_task-rest_acq-p2",
  "PulseSequenceDetails": "%SiemensSeq%\\ep2d_bold",
  "ReceiveCoilActiveElements": "HC1-7;NC1,2",
  "ReceiveCoilName": "HeadNeck_64",
  "ReconMatrixPE": 80,
  "RefLinesPE": 24,
  "RepetitionTime": 2,
  "SAR": 0.0359497,
  "ScanOptions": "FS",
  "ScanningSequence": "EP",
  "SequenceName": "*epfid2d1_80",
  "SequenceVariant": "SK",
  "SeriesDescription": "func-bold_task-rest_acq-p2",
  "SeriesNumber": 5,
  "ShimSetting": [4219, -7734, -7481, -145, -175, -253, -76, 72],
  "SliceThickness": 3.5,
  "SliceTiming": [0.99, 0, 1.055, 0.065, 1.1225, 0.1325, 1.1875, 0.1975, 1.2525, 0.265, 1.32, 0.33, 1.385, 0.395, 1.4525, 0.4625, 1.5175, 0.5275, 1.5825, 0.5925, 1.65, 0.66, 1.715, 0.725, 1.7825, 0.7925, 1.8475, 0.8575, 1.9125, 0.9225],
  "SoftwareVersions": "syngo MR E11",
  "SpacingBetweenSlices": 3.99,
  "StationName": "AWP66112",
  "TaskName": "rest",
  "TotalReadoutTime": 0.02054,
  "TxRefAmp": 212.985,
  "dcmmeta_affine": [
    [-2.983626127243042, 0.29307296872138977, 0.1461992710828781, 102.95942687988281],
    [0.31269893050193787, 2.8377537727355957, 1.2257468700408936, -147.7186737060547],
    [0.01394594181329012, -0.9280417561531067, 3.7942416667938232, -22.278106689453125],
    [0.0, 0.0, 0.0, 1.0]
],
  "dcmmeta_reorient_transform": [
    [0.0, -1.0, 0.0, 79.0],
    [1.0, 0.0, 0.0, 0.0],
    [0.0, 0.0, 1.0, 0.0],
    [0.0, 0.0, 0.0, 1.0]
],
  "dcmmeta_shape": [80, 80, 30, 200],
  "dcmmeta_slice_dim": 2,
  "dcmmeta_version": 0.6,
  "global": {
    "const": {
      "AccessionNumber": "qa64",
      "AcquisitionMatrix": [80, 0, 0, 80],
      "AngioFlag": "N",
      "BitsAllocated": 16,
      "BitsStored": 12,
      "BodyPartExamined": "BRAIN",
      "Columns": 480,
      "EchoNumbers": 1,
      "EchoTime": 35.0,
      "EchoTrainLength": 39,
      "FlipAngle": 90.0,
      "HighBit": 11,
      "ImageOrientationPatient": [0.99454204385015, -0.1042329750799, 0.00464864715386, 0.09769098781502, 0.94591793862765, 0.3093472551715],
      "ImagePositionPatient": [-781.452007538, -581.4748608424, -283.99094814228],
      "ImageType": [
        "ORIGINAL",
        "PRIMARY",
        "M",
        "ND",
        "NORM",
        "MOSAIC"
],
      "ImagedNucleus": "1H",
      "ImagingFrequency": 123.259273,
      "InPlanePhaseEncodingDirection": "COL",
      "MRAcquisitionType": "2D",
      "MagneticFieldStrength": 3.0,
      "Manufacturer": "SIEMENS",
      "ManufacturerModelName": "Prisma",
      "Modality": "MR",
      "NumberOfAverages": 1.0,
      "NumberOfPhaseEncodingSteps": 79,
      "PercentPhaseFieldOfView": 100.0,
      "PercentSampling": 100.0,
      "PerformedProcedureStepStartTime": "105535.370000",
      "PhotometricInterpretation": "MONOCHROME2",
      "PixelBandwidth": 2315.0,
      "PixelRepresentation": 0,
      "PixelSpacing": [3.0, 3.0],
      "ProtocolName": "func-bold_task-rest_acq-p2",
      "RepetitionTime": 2000.0,
      "Rows": 480,
      "SAR": 0.03594969184238,
      "SamplesPerPixel": 1,
      "ScanOptions": "FS",
      "ScanningSequence": "EP",
      "SequenceName": "*epfid2d1_80",
      "SequenceVariant": "SK",
      "SeriesDescription": "func-bold_task-rest_acq-p2",
      "SeriesNumber": 5,
      "SeriesTime": "110015.190000",
      "SliceLocation": -62.792386392552,
      "SliceThickness": 3.5,
      "SmallestImagePixelValue": 0,
      "SoftwareVersions": "syngo MR E11",
      "SpacingBetweenSlices": 3.9899999396486,
      "SpecificCharacterSet": "ISO_IR 100",
      "StudyID": "24",
      "StudyTime": "105535.288000",
      "TransmitCoilName": "Body",
      "VariableFlipAngleFlag": "N",
      "WindowCenterWidthExplanation": "Algo1"
    },
    "slices": {}
  },
  "time": {
    "samples": {
      "AcquisitionNumber": [1, 2, 3, 4, 5, 6, 7, 8, 9, 10, 11, 12, 13, 14, 15, 16, 17, 18, 19, 20, 21, 22, 23, 24, 25, 26, 27, 28, 29, 30, 31, 32, 33, 34, 35, 36, 37, 38, 39, 40, 41, 42, 43, 44, 45, 46, 47, 48, 49, 50, 51, 52, 53, 54, 55, 56, 57, 58, 59, 60, 61, 62, 63, 64, 65, 66, 67, 68, 69, 70, 71, 72, 73, 74, 75, 76, 77, 78, 79, 80, 81, 82, 83, 84, 85, 86, 87, 88, 89, 90, 91, 92, 93, 94, 95, 96, 97, 98, 99, 100, 101, 102, 103, 104, 105, 106, 107, 108, 109, 110, 111, 112, 113, 114, 115, 116, 117, 118, 119, 120, 121, 122, 123, 124, 125, 126, 127, 128, 129, 130, 131, 132, 133, 134, 135, 136, 137, 138, 139, 140, 141, 142, 143, 144, 145, 146, 147, 148, 149, 150, 151, 152, 153, 154, 155, 156, 157, 158, 159, 160, 161, 162, 163, 164, 165, 166, 167, 168, 169, 170, 171, 172, 173, 174, 175, 176, 177, 178, 179, 180, 181, 182, 183, 184, 185, 186, 187, 188, 189, 190, 191, 192, 193, 194, 195, 196, 197, 198, 199, 200],
      "AcquisitionTime": ["105934.742500", "105936.742500", "105938.742500", "105940.742500", "105942.742500", "105944.742500", "105946.742500", "105948.742500", "105950.742500", "105952.742500", "105954.742500", "105956.742500", "105958.742500", "110000.742500", "110002.742500", "110004.742500", "110006.742500", "110008.742500", "110010.742500", "110012.742500", "110014.742500", "110016.742500", "110018.742500", "110020.742500", "110022.742500", "110024.742500", "110026.742500", "110028.742500", "110030.742500", "110032.742500", "110034.742500", "110036.742500", "110038.742500", "110040.742500", "110042.742500", "110044.742500", "110046.742500", "110048.742500", "110050.742500", "110052.742500", "110054.742500", "110056.742500", "110058.742500", "110100.742500", "110102.742500", "110104.742500", "110106.742500", "110108.742500", "110110.742500", "110112.742500", "110114.742500", "110116.742500", "110118.742500", "110120.742500", "110122.742500", "110124.742500", "110126.742500", "110128.742500", "110130.742500", "110132.742500", "110134.742500", "110136.742500", "110138.742500", "110140.742500", "110142.742500", "110144.742500", "110146.742500", "110148.742500", "110150.742500", "110152.742500", "110154.742500", "110156.742500", "110158.742500", "110200.742500", "110202.742500", "110204.742500", "110206.742500", "110208.742500", "110210.742500", "110212.742500", "110214.742500", "110216.742500", "110218.742500", "110220.742500", "110222.742500", "110224.742500", "110226.742500", "110228.742500", "110230.742500", "110232.742500", "110234.742500", "110236.742500", "110238.742500", "110240.742500", "110242.742500", "110244.742500", "110246.742500", "110248.742500", "110250.742500", "110252.742500", "110254.742500", "110256.742500", "110258.742500", "110300.742500", "110302.742500", "110304.742500", "110306.742500", "110308.742500", "110310.742500", "110312.742500", "110314.742500", "110316.742500", "110318.742500", "110320.742500", "110322.742500", "110324.742500", "110326.742500", "110328.742500", "110330.742500", "110332.742500", "110334.742500", "110336.742500", "110338.742500", "110340.742500", "110342.742500", "110344.742500", "110346.742500", "110348.742500", "110350.742500", "110352.742500", "110354.742500", "110356.742500", "110358.742500", "110400.742500", "110402.742500", "110404.742500", "110406.742500", "110408.742500", "110410.742500", "110412.742500", "110414.742500", "110416.742500", "110418.742500", "110420.742500", "110422.742500", "110424.742500", "110426.742500", "110428.742500", "110430.742500", "110432.742500", "110434.742500", "110436.742500", "110438.742500", "110440.742500", "110442.742500", "110444.742500", "110446.742500", "110448.742500", "110450.742500", "110452.742500", "110454.742500", "110456.742500", "110458.742500", "110500.742500", "110502.742500", "110504.742500", "110506.742500", "110508.742500", "110510.742500", "110512.742500", "110514.742500", "110516.742500", "110518.742500", "110520.742500", "110522.742500", "110524.742500", "110526.742500", "110528.742500", "110530.742500", "110532.742500", "110534.742500", "110536.742500", "110538.742500", "110540.742500", "110542.742500", "110544.742500", "110546.742500", "110548.742500", "110550.742500", "110552.742500", "110554.742500", "110556.742500", "110558.742500", "110600.742500", "110602.742500", "110604.742500", "110606.742500", "110608.742500", "110610.742500", "110612.742500"],
      "ContentTime": ["110015.194000", "110015.198000", "110015.200000", "110015.202000", "110015.205000", "110015.207000", "110015.210000", "110015.212000", "110015.214000", "110015.217000", "110015.219000", "110015.222000", "110015.224000", "110015.227000", "110015.229000", "110015.231000", "110015.242000", "110015.244000", "110015.247000", "110015.249000", "110055.188000", "110055.191000", "110055.193000", "110055.196000", "110055.198000", "110055.201000", "110055.203000", "110055.206000", "110055.208000", "110055.210000", "110055.213000", "110055.215000", "110055.218000", "110055.220000", "110055.222000", "110055.225000", "110055.227000", "110055.229000", "110055.232000", "110055.234000", "110135.187000", "110135.190000", "110135.192000", "110135.195000", "110135.197000", "110135.200000", "110135.202000", "110135.205000", "110135.207000", "110135.209000", "110135.212000", "110135.214000", "110135.217000", "110135.219000", "110135.221000", "110135.224000", "110135.226000", "110135.229000", "110135.238000", "110135.241000", "110215.188000", "110215.191000", "110215.193000", "110215.196000", "110215.198000", "110215.201000", "110215.203000", "110215.206000", "110215.208000", "110215.210000", "110215.213000", "110215.215000", "110215.218000", "110215.220000", "110215.222000", "110215.225000", "110215.227000", "110215.230000", "110215.232000", "110215.235000", "110255.188000", "110255.191000", "110255.193000", "110255.196000", "110255.198000", "110255.201000", "110255.203000", "110255.206000", "110255.208000", "110255.210000", "110255.213000", "110255.215000", "110255.218000", "110255.220000", "110255.223000", "110255.225000", "110255.227000", "110255.230000", "110255.232000", "110255.235000", "110335.187000", "110335.190000", "110335.192000", "110335.195000", "110335.197000", "110335.200000", "110335.202000", "110335.204000", "110335.207000", "110335.209000", "110335.211000", "110335.214000", "110335.216000", "110335.219000", "110335.221000", "110335.224000", "110335.226000", "110335.229000", "110335.231000", "110335.234000", "110415.188000", "110415.191000", "110415.193000", "110415.196000", "110415.199000", "110415.201000", "110415.203000", "110415.206000", "110415.208000", "110415.211000", "110415.213000", "110415.215000", "110415.225000", "110415.227000", "110415.230000", "110415.232000", "110415.235000", "110415.237000", "110415.239000", "110415.242000", "110455.188000", "110455.191000", "110455.193000", "110455.196000", "110455.199000", "110455.201000", "110455.203000", "110455.206000", "110455.208000", "110455.211000", "110455.213000", "110455.215000", "110455.218000", "110455.220000", "110455.223000", "110455.225000", "110455.228000", "110455.230000", "110455.232000", "110455.235000", "110535.188000", "110535.191000", "110535.193000", "110535.196000", "110535.199000", "110535.201000", "110535.204000", "110535.206000", "110535.209000", "110535.211000", "110535.213000", "110535.216000", "110535.218000", "110535.221000", "110535.223000", "110535.225000", "110535.228000", "110535.230000", "110535.233000", "110535.235000", "110614.043000", "110614.047000", "110614.051000", "110614.057000", "110614.059000", "110614.062000", "110614.067000", "110614.070000", "110614.073000", "110614.076000", "110614.078000", "110614.081000", "110614.084000", "110614.087000", "110614.090000", "110614.093000", "110614.096000", "110614.099000", "110614.101000", "110614.104000"],
      "InstanceCreationTime": ["110015.194000", "110015.198000", "110015.200000", "110015.202000", "110015.205000", "110015.207000", "110015.210000", "110015.212000", "110015.214000", "110015.217000", "110015.219000", "110015.222000", "110015.224000", "110015.227000", "110015.229000", "110015.231000", "110015.242000", "110015.244000", "110015.247000", "110015.249000", "110055.188000", "110055.191000", "110055.193000", "110055.196000", "110055.198000", "110055.201000", "110055.203000", "110055.206000", "110055.208000", "110055.210000", "110055.213000", "110055.215000", "110055.218000", "110055.220000", "110055.222000", "110055.225000", "110055.227000", "110055.229000", "110055.232000", "110055.234000", "110135.187000", "110135.190000", "110135.192000", "110135.195000", "110135.197000", "110135.200000", "110135.202000", "110135.205000", "110135.207000", "110135.209000", "110135.212000", "110135.214000", "110135.217000", "110135.219000", "110135.221000", "110135.224000", "110135.226000", "110135.229000", "110135.238000", "110135.241000", "110215.188000", "110215.191000", "110215.193000", "110215.196000", "110215.198000", "110215.201000", "110215.203000", "110215.206000", "110215.208000", "110215.210000", "110215.213000", "110215.215000", "110215.218000", "110215.220000", "110215.222000", "110215.225000", "110215.227000", "110215.230000", "110215.232000", "110215.235000", "110255.188000", "110255.191000", "110255.193000", "110255.196000", "110255.198000", "110255.201000", "110255.203000", "110255.206000", "110255.208000", "110255.210000", "110255.213000", "110255.215000", "110255.218000", "110255.220000", "110255.223000", "110255.225000", "110255.227000", "110255.230000", "110255.232000", "110255.235000", "110335.187000", "110335.190000", "110335.192000", "110335.195000", "110335.197000", "110335.200000", "110335.202000", "110335.204000", "110335.207000", "110335.209000", "110335.211000", "110335.214000", "110335.216000", "110335.219000", "110335.221000", "110335.224000", "110335.226000", "110335.229000", "110335.231000", "110335.234000", "110415.188000", "110415.191000", "110415.193000", "110415.196000", "110415.199000", "110415.201000", "110415.203000", "110415.206000", "110415.208000", "110415.211000", "110415.213000", "110415.215000", "110415.225000", "110415.227000", "110415.230000", "110415.232000", "110415.235000", "110415.237000", "110415.239000", "110415.242000", "110455.188000", "110455.191000", "110455.193000", "110455.196000", "110455.199000", "110455.201000", "110455.203000", "110455.206000", "110455.208000", "110455.211000", "110455.213000", "110455.215000", "110455.218000", "110455.220000", "110455.223000", "110455.225000", "110455.228000", "110455.230000", "110455.232000", "110455.235000", "110535.188000", "110535.191000", "110535.193000", "110535.196000", "110535.199000", "110535.201000", "110535.204000", "110535.206000", "110535.209000", "110535.211000", "110535.213000", "110535.216000", "110535.218000", "110535.221000", "110535.223000", "110535.225000", "110535.228000", "110535.230000", "110535.233000", "110535.235000", "110614.043000", "110614.047000", "110614.051000", "110614.057000", "110614.059000", "110614.062000", "110614.067000", "110614.070000", "110614.073000", "110614.076000", "110614.078000", "110614.081000", "110614.084000", "110614.087000", "110614.090000", "110614.093000", "110614.096000", "110614.099000", "110614.101000", "110614.104000"],
      "InstanceNumber": [1, 2, 3, 4, 5, 6, 7, 8, 9, 10, 11, 12, 13, 14, 15, 16, 17, 18, 19, 20, 21, 22, 23, 24, 25, 26, 27, 28, 29, 30, 31, 32, 33, 34, 35, 36, 37, 38, 39, 40, 41, 42, 43, 44, 45, 46, 47, 48, 49, 50, 51, 52, 53, 54, 55, 56, 57, 58, 59, 60, 61, 62, 63, 64, 65, 66, 67, 68, 69, 70, 71, 72, 73, 74, 75, 76, 77, 78, 79, 80, 81, 82, 83, 84, 85, 86, 87, 88, 89, 90, 91, 92, 93, 94, 95, 96, 97, 98, 99, 100, 101, 102, 103, 104, 105, 106, 107, 108, 109, 110, 111, 112, 113, 114, 115, 116, 117, 118, 119, 120, 121, 122, 123, 124, 125, 126, 127, 128, 129, 130, 131, 132, 133, 134, 135, 136, 137, 138, 139, 140, 141, 142, 143, 144, 145, 146, 147, 148, 149, 150, 151, 152, 153, 154, 155, 156, 157, 158, 159, 160, 161, 162, 163, 164, 165, 166, 167, 168, 169, 170, 171, 172, 173, 174, 175, 176, 177, 178, 179, 180, 181, 182, 183, 184, 185, 186, 187, 188, 189, 190, 191, 192, 193, 194, 195, 196, 197, 198, 199, 200],
      "LargestImagePixelValue": [3894, 3881, 3893, 3888, 3884, 3877, 3882, 3884, 3878, 3888, 3878, 3884, 3877, 3884, 3880, 3879, 3874, 3886, 3881, 3883, 3884, 3872, 3881, 3880, 3880, 3880, 3881, 3884, 3879, 3881, 3878, 3869, 3884, 3886, 3879, 3886, 3885, 3878, 3882, 3871, 3884, 3875, 3877, 3878, 3890, 3879, 3873, 3881, 3879, 3873, 3873, 3872, 3872, 3883, 3878, 3878, 3880, 3879, 3883, 3877, 3875, 3880, 3868, 3869, 3875, 3872, 3878, 3874, 3878, 3872, 3882, 3874, 3877, 3874, 3875, 3875, 3871, 3876, 3880, 3865, 3879, 3880, 3877, 3878, 3874, 3868, 3878, 3877, 3870, 3869, 3882, 3877, 3879, 3866, 3878, 3874, 3870, 3876, 3871, 3872, 3876, 3877, 3868, 3872, 3871, 3873, 3874, 3868, 3874, 3856, 3869, 3869, 3878, 3877, 3875, 3869, 3879, 3866, 3874, 3871, 3872, 3863, 3873, 3873, 3876, 3868, 3865, 3872, 3876, 3872, 3868, 3868, 3872, 3862, 3867, 3869, 3875, 3868, 3865, 3865, 3875, 3865, 3869, 3874, 3863, 3874, 3866, 3863, 3868, 3861, 3868, 3861, 3860, 3873, 3865, 3873, 3869, 3869, 3867, 3858, 3864, 3862, 3859, 3867, 3871, 3859, 3860, 3871, 3865, 3865, 3870, 3867, 3870, 3866, 3875, 3860, 3867, 3866, 3868, 3860, 3865, 3859, 3856, 3858, 3859, 3865, 3869, 3863, 3864, 3864, 3859, 3864, 3862, 3860, 3863, 3869, 3866, 3865, 3865, 3858],
      "WindowCenter": [1462.0, 1462.0, 1462.0, 1461.0, 1462.0, 1462.0, 1461.0, 1462.0, 1461.0, 1461.0, 1461.0, 1461.0, 1461.0, 1461.0, 1461.0, 1461.0, 1462.0, 1460.0, 1461.0, 1460.0, 1461.0, 1461.0, 1460.0, 1461.0, 1461.0, 1461.0, 1460.0, 1461.0, 1461.0, 1460.0, 1460.0, 1461.0, 1460.0, 1460.0, 1460.0, 1460.0, 1461.0, 1460.0, 1460.0, 1460.0, 1460.0, 1460.0, 1460.0, 1460.0, 1460.0, 1460.0, 1460.0, 1460.0, 1460.0, 1460.0, 1460.0, 1460.0, 1460.0, 1460.0, 1460.0, 1460.0, 1461.0, 1459.0, 1459.0, 1459.0, 1460.0, 1461.0, 1460.0, 1460.0, 1459.0, 1459.0, 1459.0, 1459.0, 1459.0, 1459.0, 1459.0, 1458.0, 1459.0, 1459.0, 1459.0, 1459.0, 1459.0, 1459.0, 1459.0, 1459.0, 1459.0, 1459.0, 1459.0, 1459.0, 1459.0, 1459.0, 1459.0, 1459.0, 1459.0, 1459.0, 1459.0, 1458.0, 1458.0, 1458.0, 1458.0, 1458.0, 1459.0, 1458.0, 1458.0, 1459.0, 1458.0, 1459.0, 1459.0, 1459.0, 1458.0, 1458.0, 1457.0, 1459.0, 1459.0, 1458.0, 1458.0, 1458.0, 1458.0, 1458.0, 1459.0, 1458.0, 1458.0, 1458.0, 1457.0, 1458.0, 1458.0, 1458.0, 1458.0, 1458.0, 1458.0, 1458.0, 1458.0, 1458.0, 1457.0, 1458.0, 1457.0, 1457.0, 1457.0, 1457.0, 1457.0, 1457.0, 1457.0, 1457.0, 1457.0, 1457.0, 1457.0, 1457.0, 1457.0, 1457.0, 1458.0, 1457.0, 1458.0, 1458.0, 1457.0, 1457.0, 1457.0, 1457.0, 1457.0, 1458.0, 1458.0, 1457.0, 1457.0, 1458.0, 1456.0, 1457.0, 1456.0, 1457.0, 1457.0, 1457.0, 1457.0, 1457.0, 1457.0, 1456.0, 1457.0, 1457.0, 1456.0, 1457.0, 1457.0, 1457.0, 1457.0, 1456.0, 1457.0, 1456.0, 1457.0, 1456.0, 1456.0, 1456.0, 1456.0, 1456.0, 1456.0, 1456.0, 1456.0, 1456.0, 1456.0, 1456.0, 1457.0, 1456.0, 1457.0, 1456.0, 1457.0, 1457.0, 1457.0, 1457.0, 1456.0, 1456.0],
      "WindowWidth": [3346.0, 3345.0, 3345.0, 3345.0, 3344.0, 3345.0, 3345.0, 3344.0, 3345.0, 3345.0, 3345.0, 3345.0, 3345.0, 3345.0, 3345.0, 3345.0, 3344.0, 3345.0, 3345.0, 3345.0, 3345.0, 3344.0, 3345.0, 3345.0, 3345.0, 3345.0, 3345.0, 3345.0, 3344.0, 3345.0, 3345.0, 3345.0, 3344.0, 3344.0, 3344.0, 3345.0, 3344.0, 3345.0, 3345.0, 3345.0, 3345.0, 3345.0, 3345.0, 3345.0, 3345.0, 3344.0, 3344.0, 3344.0, 3344.0, 3344.0, 3344.0, 3344.0, 3344.0, 3344.0, 3344.0, 3344.0, 3344.0, 3345.0, 3345.0, 3345.0, 3344.0, 3344.0, 3344.0, 3344.0, 3344.0, 3344.0, 3344.0, 3344.0, 3344.0, 3344.0, 3344.0, 3345.0, 3344.0, 3344.0, 3344.0, 3344.0, 3344.0, 3344.0, 3344.0, 3344.0, 3343.0, 3343.0, 3343.0, 3343.0, 3343.0, 3343.0, 3343.0, 3343.0, 3343.0, 3343.0, 3343.0, 3343.0, 3343.0, 3343.0, 3343.0, 3343.0, 3343.0, 3343.0, 3343.0, 3343.0, 3343.0, 3343.0, 3343.0, 3343.0, 3343.0, 3343.0, 3343.0, 3343.0, 3343.0, 3343.0, 3343.0, 3343.0, 3343.0, 3343.0, 3342.0, 3343.0, 3343.0, 3343.0, 3343.0, 3342.0, 3342.0, 3343.0, 3342.0, 3343.0, 3342.0, 3342.0, 3342.0, 3342.0, 3342.0, 3342.0, 3342.0, 3342.0, 3342.0, 3342.0, 3342.0, 3342.0, 3342.0, 3342.0, 3342.0, 3342.0, 3342.0, 3342.0, 3342.0, 3342.0, 3342.0, 3342.0, 3342.0, 3342.0, 3342.0, 3342.0, 3342.0, 3342.0, 3342.0, 3342.0, 3342.0, 3342.0, 3342.0, 3342.0, 3342.0, 3342.0, 3342.0, 3342.0, 3342.0, 3342.0, 3342.0, 3342.0, 3342.0, 3342.0, 3342.0, 3342.0, 3342.0, 3342.0, 3342.0, 3341.0, 3341.0, 3342.0, 3341.0, 3341.0, 3341.0, 3341.0, 3341.0, 3341.0, 3341.0, 3341.0, 3341.0, 3341.0, 3341.0, 3341.0, 3341.0, 3341.0, 3341.0, 3341.0, 3341.0, 3341.0, 3341.0, 3341.0, 3341.0, 3341.0, 3341.0, 3341.0]
    },
    "slices": {}
  }
}