{
  "AcquisitionMatrixPE": 80,
  "AcquisitionNumber": 1,
  "AcquisitionTime": "09:36:18.795000",
  "BandwidthPerPixelPhaseEncode": 48.077,
  "BaseResolution": 80,
  "BodyPartExamined": "BRAIN",
  "CoilCombinationMethod": "Sum of Squares",
  "ConsistencyInfo": "N4_VE11C_LATEST_20160120",
  "ConversionSoftware": "dcm2niix",
  "ConversionSoftwareVersion": "v1.0.20220720",
  "DerivedVendorReportedEchoSpacing": 0.000519999,
  "DeviceSerialNumber": "66112",
  "DwellTime": 2.7e-06,
  "EchoTime": 0.035,
  "EchoTrainLength": 39,
  "EffectiveEchoSpacing": 0.00026,
  "FlipAngle": 90,
  "HeudiconvVersion": "0.13.1",
  "ImageOrientationPatientDICOM": [0.986041, -0.165171, -0.0209954, 0.163769, 0.939379, 0.301243],
  "ImageOrientationText": "Tra>Cor(17.5)>Sag(1.7)",
  "ImageType": [
    "ORIGINAL",
    "PRIMARY",
    "M",
    "ND",
    "NORM",
    "MOSAIC"
],
  "ImagingFrequency": 123.252,
  "InPlanePhaseEncodingDirectionDICOM": "COL",
  "InstitutionAddress": "Maynard 3,Hanover,NH,US,03755",
  "InstitutionName": "Dartmouth College - PBS",
  "InstitutionalDepartmentName": "Department",
  "MRAcquisitionType": "2D",
  "MagneticFieldStrength": 3,
  "Manufacturer": "Siemens",
  "ManufacturersModelName": "Prisma",
  "MatrixCoilMode": "GRAPPA",
  "Modality": "MR",
  "NonlinearGradientCorrection": false,
  "ParallelReductionFactorInPlane": 2,
  "PartialFourier": 1,
  "PatientPosition": "HFS",
  "PercentPhaseFOV": 100,
  "PercentSampling": 100,
  "PhaseEncodingDirection": "j-",
  "PhaseEncodingSteps": 79,
  "PhaseResolution": 1,
  "PixelBandwidth": 2315,
  "ProcedureStepDescription": "dbic^QA",
  "ProtocolName": "func-bold_task-rest_acq-p2",
  "PulseSequenceDetails": "%SiemensSeq%\\ep2d_bold",
  "ReceiveCoilActiveElements": "HEA;HEP",
  "ReceiveCoilName": "Head_32",
  "ReconMatrixPE": 80,
  "RefLinesPE": 24,
  "RepetitionTime": 2,
  "SAR": 0.0557998,
  "ScanOptions": "FS",
  "ScanningSequence": "EP",
  "SequenceName": "*epfid2d1_80",
  "SequenceVariant": "SK",
  "SeriesDescription": "func-bold_task-rest_acq-p2",
  "SeriesNumber": 5,
  "ShimSetting": [4146, -7700, -7524, 254, -115, -87, 3, 83],
  "SliceThickness": 3.5,
  "SliceTiming": [0.99, 0, 1.055, 0.065, 1.1225, 0.1325, 1.1875, 0.1975, 1.2525, 0.2625, 1.32, 0.33, 1.385, 0.395, 1.4525, 0.4625, 1.5175, 0.5275, 1.5825, 0.5925, 1.65, 0.66, 1.715, 0.725, 1.7825, 0.7925, 1.8475, 0.8575, 1.9125, 0.9225],
  "SoftwareVersions": "syngo MR E11",
  "SpacingBetweenSlices": 3.99,
  "StationName": "AWP66112",
  "TaskName": "rest",
  "TotalReadoutTime": 0.02054,
  "TxRefAmp": 222.856,
  "dcmmeta_affine": [
    [-2.9581243991851807, 0.4913058280944824, 0.11983545124530792, 93.51393127441406],
    [0.49551236629486084, 2.818135976791382, 1.1989027261734009, -141.520263671875],
    [-0.06298629194498062, -0.9037301540374756, 3.8037312030792236, -9.065505027770996],
    [0.0, 0.0, 0.0, 1.0]
],
  "dcmmeta_reorient_transform": [
    [0.0, -1.0, 0.0, 79.0],
    [1.0, 0.0, 0.0, 0.0],
    [0.0, 0.0, 1.0, 0.0],
    [0.0, 0.0, 0.0, 1.0]
],
  "dcmmeta_shape": [80, 80, 30, 200],
  "dcmmeta_slice_dim": 2,
  "dcmmeta_version": 0.6,
  "global": {
    "const": {
      "AccessionNumber": "qa",
      "AcquisitionMatrix": [80, 0, 0, 80],
      "AngioFlag": "N",
      "BitsAllocated": 16,
      "BitsStored": 12,
      "BodyPartExamined": "BRAIN",
      "Columns": 480,
      "EchoNumbers": 1,
      "EchoTime": 35.0,
      "EchoTrainLength": 39,
      "FlipAngle": 90.0,
      "HighBit": 11,
      "ImageOrientationPatient": [0.98604148172883, -0.1651707850115, -0.0209954301859, 0.16376861195373, 0.93937865710938, 0.30124339047707],
      "ImagePositionPatient": [-822.21314480893, -545.63719697847, -248.60896430148],
      "ImageType": [
        "ORIGINAL",
        "PRIMARY",
        "M",
        "ND",
        "NORM",
        "MOSAIC"
],
      "ImagedNucleus": "1H",
      "ImagingFrequency": 123.252318,
      "InPlanePhaseEncodingDirection": "COL",
      "MRAcquisitionType": "2D",
      "MagneticFieldStrength": 3.0,
      "Manufacturer": "SIEMENS",
      "ManufacturerModelName": "Prisma",
      "Modality": "MR",
      "NumberOfAverages": 1.0,
      "NumberOfPhaseEncodingSteps": 79,
      "PercentPhaseFieldOfView": 100.0,
      "PercentSampling": 100.0,
      "PerformedProcedureStepStartTime": "093109.483000",
      "PhotometricInterpretation": "MONOCHROME2",
      "PixelBandwidth": 2315.0,
      "PixelRepresentation": 0,
      "PixelSpacing": [3.0, 3.0],
      "ProtocolName": "func-bold_task-rest_acq-p2",
      "RepetitionTime": 2000.0,
      "Rows": 480,
      "SAR": 0.05579977182219,
      "SamplesPerPixel": 1,
      "ScanOptions": "FS",
      "ScanningSequence": "EP",
      "SequenceName": "*epfid2d1_80",
      "SequenceVariant": "SK",
      "SeriesDescription": "func-bold_task-rest_acq-p2",
      "SeriesNumber": 5,
      "SeriesTime": "093712.201000",
      "SliceLocation": -48.357266526777,
      "SliceThickness": 3.5,
      "SmallestImagePixelValue": 0,
      "SoftwareVersions": "syngo MR E11",
      "SpacingBetweenSlices": 3.9900000147803,
      "SpecificCharacterSet": "ISO_IR 100",
      "StudyID": "7",
      "StudyTime": "093109.428000",
      "TransmitCoilName": "Body",
      "VariableFlipAngleFlag": "N",
      "WindowCenterWidthExplanation": "Algo1",
      "dBdt": 0.0},
    "slices": {}
  },
  "time": {
    "samples": {
      "AcquisitionNumber": [1, 2, 3, 4, 5, 6, 7, 8, 9, 10, 11, 12, 13, 14, 15, 16, 17, 18, 19, 20, 21, 22, 23, 24, 25, 26, 27, 28, 29, 30, 31, 32, 33, 34, 35, 36, 37, 38, 39, 40, 41, 42, 43, 44, 45, 46, 47, 48, 49, 50, 51, 52, 53, 54, 55, 56, 57, 58, 59, 60, 61, 62, 63, 64, 65, 66, 67, 68, 69, 70, 71, 72, 73, 74, 75, 76, 77, 78, 79, 80, 81, 82, 83, 84, 85, 86, 87, 88, 89, 90, 91, 92, 93, 94, 95, 96, 97, 98, 99, 100, 101, 102, 103, 104, 105, 106, 107, 108, 109, 110, 111, 112, 113, 114, 115, 116, 117, 118, 119, 120, 121, 122, 123, 124, 125, 126, 127, 128, 129, 130, 131, 132, 133, 134, 135, 136, 137, 138, 139, 140, 141, 142, 143, 144, 145, 146, 147, 148, 149, 150, 151, 152, 153, 154, 155, 156, 157, 158, 159, 160, 161, 162, 163, 164, 165, 166, 167, 168, 169, 170, 171, 172, 173, 174, 175, 176, 177, 178, 179, 180, 181, 182, 183, 184, 185, 186, 187, 188, 189, 190, 191, 192, 193, 194, 195, 196, 197, 198, 199, 200],
      "AcquisitionTime": ["093618.795000", "093620.795000", "093622.795000", "093624.795000", "093626.795000", "093628.795000", "093630.795000", "093632.795000", "093634.795000", "093636.795000", "093638.795000", "093640.795000", "093642.795000", "093644.795000", "093646.795000", "093648.795000", "093650.795000", "093652.795000", "093654.795000", "093656.795000", "093658.795000", "093700.795000", "093702.795000", "093704.795000", "093706.795000", "093708.795000", "093710.795000", "093712.795000", "093714.795000", "093716.795000", "093718.795000", "093720.795000", "093722.795000", "093724.795000", "093726.795000", "093728.795000", "093730.795000", "093732.795000", "093734.795000", "093736.795000", "093738.795000", "093740.795000", "093742.795000", "093744.795000", "093746.795000", "093748.795000", "093750.795000", "093752.795000", "093754.795000", "093756.795000", "093758.795000", "093800.795000", "093802.795000", "093804.795000", "093806.795000", "093808.795000", "093810.795000", "093812.795000", "093814.795000", "093816.795000", "093818.795000", "093820.795000", "093822.795000", "093824.795000", "093826.795000", "093828.795000", "093830.795000", "093832.795000", "093834.795000", "093836.795000", "093838.795000", "093840.795000", "093842.795000", "093844.795000", "093846.795000", "093848.795000", "093850.795000", "093852.795000", "093854.795000", "093856.795000", "093858.795000", "093900.795000", "093902.795000", "093904.795000", "093906.795000", "093908.795000", "093910.795000", "093912.795000", "093914.795000", "093916.795000", "093918.795000", "093920.795000", "093922.795000", "093924.795000", "093926.795000", "093928.795000", "093930.795000", "093932.795000", "093934.795000", "093936.795000", "093938.795000", "093940.795000", "093942.795000", "093944.795000", "093946.795000", "093948.795000", "093950.795000", "093952.795000", "093954.795000", "093956.795000", "093958.795000", "094000.795000", "094002.795000", "094004.795000", "094006.795000", "094008.795000", "094010.795000", "094012.795000", "094014.795000", "094016.795000", "094018.795000", "094020.795000", "094022.795000", "094024.795000", "094026.795000", "094028.795000", "094030.795000", "094032.795000", "094034.795000", "094036.795000", "094038.795000", "094040.795000", "094042.795000", "094044.795000", "094046.795000", "094048.795000", "094050.795000", "094052.795000", "094054.795000", "094056.795000", "094058.795000", "094100.795000", "094102.795000", "094104.795000", "094106.795000", "094108.795000", "094110.795000", "094112.795000", "094114.795000", "094116.795000", "094118.795000", "094120.795000", "094122.795000", "094124.795000", "094126.795000", "094128.795000", "094130.795000", "094132.795000", "094134.795000", "094136.795000", "094138.795000", "094140.795000", "094142.795000", "094144.795000", "094146.795000", "094148.795000", "094150.795000", "094152.795000", "094154.795000", "094156.795000", "094158.795000", "094200.795000", "094202.795000", "094204.795000", "094206.795000", "094208.795000", "094210.795000", "094212.795000", "094214.795000", "094216.795000", "094218.795000", "094220.795000", "094222.795000", "094224.795000", "094226.795000", "094228.795000", "094230.795000", "094232.795000", "094234.795000", "094236.795000", "094238.795000", "094240.795000", "094242.795000", "094244.795000", "094246.795000", "094248.795000", "094250.795000", "094252.795000", "094254.795000", "094256.795000"],
      "ContentTime": ["093712.205000", "093712.209000", "093712.211000", "093712.214000", "093712.216000", "093712.219000", "093712.221000", "093712.224000", "093712.226000", "093712.229000", "093712.232000", "093712.234000", "093712.237000", "093712.239000", "093712.242000", "093712.244000", "093712.250000", "093712.252000", "093712.255000", "093712.258000", "093712.260000", "093712.263000", "093712.265000", "093712.268000", "093712.270000", "093712.273000", "093712.275000", "093752.200000", "093752.203000", "093752.205000", "093752.208000", "093752.210000", "093752.213000", "093752.215000", "093752.218000", "093752.220000", "093752.223000", "093752.226000", "093752.228000", "093752.231000", "093752.234000", "093752.236000", "093752.239000", "093752.241000", "093752.244000", "093752.246000", "093752.249000", "093832.200000", "093832.203000", "093832.206000", "093832.208000", "093832.211000", "093832.213000", "093832.216000", "093832.219000", "093832.221000", "093832.224000", "093832.226000", "093832.229000", "093832.232000", "093832.234000", "093832.237000", "093832.239000", "093832.242000", "093832.244000", "093832.247000", "093832.250000", "093912.199000", "093912.202000", "093912.205000", "093912.207000", "093912.210000", "093912.212000", "093912.215000", "093912.217000", "093912.220000", "093912.222000", "093912.225000", "093912.228000", "093912.230000", "093912.233000", "093912.236000", "093912.238000", "093912.241000", "093912.243000", "093912.246000", "093912.249000", "093952.200000", "093952.202000", "093952.205000", "093952.208000", "093952.210000", "093952.213000", "093952.215000", "093952.218000", "093952.220000", "093952.223000", "093952.225000", "093952.228000", "093952.231000", "093952.233000", "093952.236000", "093952.238000", "093952.241000", "093952.243000", "093952.246000", "093952.248000", "094032.201000", "094032.203000", "094032.206000", "094032.209000", "094032.211000", "094032.214000", "094032.216000", "094032.219000", "094032.222000", "094032.224000", "094032.227000", "094032.229000", "094032.232000", "094032.234000", "094032.237000", "094032.240000", "094032.242000", "094032.245000", "094032.247000", "094032.250000", "094112.201000", "094112.204000", "094112.206000", "094112.209000", "094112.212000", "094112.214000", "094112.217000", "094112.219000", "094112.222000", "094112.225000", "094112.227000", "094112.230000", "094112.233000", "094112.235000", "094112.238000", "094112.241000", "094112.243000", "094112.246000", "094112.248000", "094152.199000", "094152.202000", "094152.205000", "094152.207000", "094152.210000", "094152.213000", "094152.215000", "094152.218000", "094152.220000", "094152.223000", "094152.226000", "094152.228000", "094152.231000", "094152.233000", "094152.236000", "094152.238000", "094152.241000", "094152.244000", "094152.246000", "094152.249000", "094152.251000", "094232.199000", "094232.202000", "094232.205000", "094232.207000", "094232.210000", "094232.213000", "094232.215000", "094232.218000", "094232.221000", "094232.223000", "094232.226000", "094232.229000", "094232.231000", "094232.234000", "094232.237000", "094232.239000", "094232.242000", "094232.244000", "094232.247000", "094232.250000", "094258.212000", "094258.215000", "094258.217000", "094258.220000", "094258.223000", "094258.226000", "094258.228000", "094258.231000", "094258.233000", "094258.236000", "094258.239000", "094258.247000", "094258.250000"],
      "InstanceCreationTime": ["093712.205000", "093712.209000", "093712.211000", "093712.214000", "093712.216000", "093712.219000", "093712.221000", "093712.224000", "093712.226000", "093712.229000", "093712.232000", "093712.234000", "093712.237000", "093712.239000", "093712.242000", "093712.244000", "093712.250000", "093712.252000", "093712.255000", "093712.258000", "093712.260000", "093712.263000", "093712.265000", "093712.268000", "093712.270000", "093712.273000", "093712.275000", "093752.200000", "093752.203000", "093752.205000", "093752.208000", "093752.210000", "093752.213000", "093752.215000", "093752.218000", "093752.220000", "093752.223000", "093752.226000", "093752.228000", "093752.231000", "093752.234000", "093752.236000", "093752.239000", "093752.241000", "093752.244000", "093752.246000", "093752.249000", "093832.200000", "093832.203000", "093832.206000", "093832.208000", "093832.211000", "093832.213000", "093832.216000", "093832.219000", "093832.221000", "093832.224000", "093832.226000", "093832.229000", "093832.232000", "093832.234000", "093832.237000", "093832.239000", "093832.242000", "093832.244000", "093832.247000", "093832.250000", "093912.199000", "093912.202000", "093912.205000", "093912.207000", "093912.210000", "093912.212000", "093912.215000", "093912.217000", "093912.220000", "093912.222000", "093912.225000", "093912.228000", "093912.230000", "093912.233000", "093912.236000", "093912.238000", "093912.241000", "093912.243000", "093912.246000", "093912.249000", "093952.200000", "093952.202000", "093952.205000", "093952.208000", "093952.210000", "093952.213000", "093952.215000", "093952.218000", "093952.220000", "093952.223000", "093952.225000", "093952.228000", "093952.231000", "093952.233000", "093952.236000", "093952.238000", "093952.241000", "093952.243000", "093952.246000", "093952.248000", "094032.201000", "094032.203000", "094032.206000", "094032.209000", "094032.211000", "094032.214000", "094032.216000", "094032.219000", "094032.222000", "094032.224000", "094032.227000", "094032.229000", "094032.232000", "094032.234000", "094032.237000", "094032.240000", "094032.242000", "094032.245000", "094032.247000", "094032.250000", "094112.201000", "094112.204000", "094112.206000", "094112.209000", "094112.212000", "094112.214000", "094112.217000", "094112.219000", "094112.222000", "094112.225000", "094112.227000", "094112.230000", "094112.233000", "094112.235000", "094112.238000", "094112.241000", "094112.243000", "094112.246000", "094112.248000", "094152.199000", "094152.202000", "094152.205000", "094152.207000", "094152.210000", "094152.213000", "094152.215000", "094152.218000", "094152.220000", "094152.223000", "094152.226000", "094152.228000", "094152.231000", "094152.233000", "094152.236000", "094152.238000", "094152.241000", "094152.244000", "094152.246000", "094152.249000", "094152.251000", "094232.199000", "094232.202000", "094232.205000", "094232.207000", "094232.210000", "094232.213000", "094232.215000", "094232.218000", "094232.221000", "094232.223000", "094232.226000", "094232.229000", "094232.231000", "094232.234000", "094232.237000", "094232.239000", "094232.242000", "094232.244000", "094232.247000", "094232.250000", "094258.212000", "094258.215000", "094258.217000", "094258.220000", "094258.223000", "094258.226000", "094258.228000", "094258.231000", "094258.233000", "094258.236000", "094258.239000", "094258.247000", "094258.250000"],
      "InstanceNumber": [1, 2, 3, 4, 5, 6, 7, 8, 9, 10, 11, 12, 13, 14, 15, 16, 17, 18, 19, 20, 21, 22, 23, 24, 25, 26, 27, 28, 29, 30, 31, 32, 33, 34, 35, 36, 37, 38, 39, 40, 41, 42, 43, 44, 45, 46, 47, 48, 49, 50, 51, 52, 53, 54, 55, 56, 57, 58, 59, 60, 61, 62, 63, 64, 65, 66, 67, 68, 69, 70, 71, 72, 73, 74, 75, 76, 77, 78, 79, 80, 81, 82, 83, 84, 85, 86, 87, 88, 89, 90, 91, 92, 93, 94, 95, 96, 97, 98, 99, 100, 101, 102, 103, 104, 105, 106, 107, 108, 109, 110, 111, 112, 113, 114, 115, 116, 117, 118, 119, 120, 121, 122, 123, 124, 125, 126, 127, 128, 129, 130, 131, 132, 133, 134, 135, 136, 137, 138, 139, 140, 141, 142, 143, 144, 145, 146, 147, 148, 149, 150, 151, 152, 153, 154, 155, 156, 157, 158, 159, 160, 161, 162, 163, 164, 165, 166, 167, 168, 169, 170, 171, 172, 173, 174, 175, 176, 177, 178, 179, 180, 181, 182, 183, 184, 185, 186, 187, 188, 189, 190, 191, 192, 193, 194, 195, 196, 197, 198, 199, 200],
      "LargestImagePixelValue": [2363, 2361, 2353, 2362, 2359, 2362, 2362, 2365, 2359, 2354, 2364, 2363, 2363, 2368, 2356, 2354, 2367, 2360, 2360, 2366, 2359, 2359, 2355, 2360, 2358, 2361, 2362, 2355, 2359, 2346, 2361, 2362, 2359, 2359, 2359, 2365, 2355, 2357, 2361, 2359, 2359, 2358, 2356, 2360, 2357, 2362, 2357, 2361, 2358, 2363, 2367, 2365, 2363, 2367, 2355, 2367, 2360, 2370, 2364, 2361, 2364, 2361, 2359, 2365, 2361, 2358, 2358, 2370, 2358, 2364, 2365, 2363, 2363, 2364, 2358, 2372, 2368, 2366, 2364, 2360, 2364, 2363, 2366, 2360, 2356, 2364, 2362, 2360, 2361, 2360, 2357, 2360, 2355, 2362, 2357, 2361, 2359, 2366, 2364, 2361, 2364, 2366, 2357, 2362, 2359, 2360, 2363, 2362, 2356, 2355, 2357, 2361, 2357, 2355, 2363, 2361, 2367, 2365, 2361, 2358, 2360, 2361, 2352, 2361, 2368, 2367, 2361, 2360, 2356, 2367, 2363, 2366, 2359, 2351, 2352, 2356, 2350, 2365, 2365, 2354, 2359, 2350, 2342, 2344, 2364, 2362, 2364, 2364, 2347, 2347, 2349, 2352, 2353, 2364, 2358, 2354, 2347, 2350, 2355, 2356, 2348, 2357, 2359, 2363, 2363, 2353, 2350, 2351, 2349, 2356, 2353, 2359, 2350, 2349, 2347, 2349, 2342, 2346, 2343, 2344, 2351, 2350, 2351, 2348, 2344, 2349, 2356, 2353, 2340, 2351, 2352, 2354, 2358, 2353, 2350, 2351, 2352, 2347, 2354, 2347],
      "WindowCenter": [1054.0, 1053.0, 1053.0, 1053.0, 1053.0, 1053.0, 1053.0, 1053.0, 1053.0, 1053.0, 1053.0, 1053.0, 1053.0, 1053.0, 1053.0, 1053.0, 1053.0, 1053.0, 1053.0, 1053.0, 1053.0, 1053.0, 1053.0, 1053.0, 1053.0, 1053.0, 1053.0, 1053.0, 1053.0, 1053.0, 1053.0, 1053.0, 1053.0, 1053.0, 1053.0, 1053.0, 1053.0, 1053.0, 1053.0, 1053.0, 1053.0, 1053.0, 1053.0, 1053.0, 1053.0, 1053.0, 1053.0, 1053.0, 1053.0, 1053.0, 1053.0, 1053.0, 1053.0, 1053.0, 1053.0, 1053.0, 1053.0, 1053.0, 1053.0, 1053.0, 1053.0, 1053.0, 1053.0, 1053.0, 1053.0, 1053.0, 1053.0, 1053.0, 1053.0, 1053.0, 1053.0, 1053.0, 1053.0, 1053.0, 1053.0, 1053.0, 1053.0, 1053.0, 1053.0, 1053.0, 1053.0, 1053.0, 1053.0, 1053.0, 1053.0, 1053.0, 1052.0, 1053.0, 1053.0, 1053.0, 1053.0, 1053.0, 1053.0, 1053.0, 1053.0, 1053.0, 1053.0, 1053.0, 1053.0, 1053.0, 1053.0, 1053.0, 1053.0, 1053.0, 1053.0, 1053.0, 1053.0, 1053.0, 1053.0, 1053.0, 1052.0, 1053.0, 1053.0, 1053.0, 1053.0, 1052.0, 1053.0, 1053.0, 1052.0, 1052.0, 1053.0, 1052.0, 1052.0, 1052.0, 1052.0, 1052.0, 1052.0, 1052.0, 1052.0, 1052.0, 1052.0, 1052.0, 1052.0, 1052.0, 1052.0, 1052.0, 1052.0, 1052.0, 1052.0, 1052.0, 1052.0, 1052.0, 1052.0, 1052.0, 1052.0, 1052.0, 1052.0, 1052.0, 1052.0, 1052.0, 1052.0, 1052.0, 1052.0, 1052.0, 1052.0, 1052.0, 1052.0, 1052.0, 1052.0, 1052.0, 1052.0, 1052.0, 1052.0, 1052.0, 1052.0, 1052.0, 1052.0, 1052.0, 1052.0, 1052.0, 1052.0, 1052.0, 1052.0, 1052.0, 1052.0, 1052.0, 1052.0, 1052.0, 1052.0, 1052.0, 1052.0, 1052.0, 1052.0, 1052.0, 1052.0, 1052.0, 1052.0, 1052.0, 1052.0, 1052.0, 1052.0, 1052.0, 1052.0, 1052.0, 1052.0, 1052.0, 1052.0, 1052.0, 1052.0, 1052.0],
      "WindowWidth": [2356.0, 2356.0, 2356.0, 2356.0, 2356.0, 2356.0, 2356.0, 2356.0, 2356.0, 2356.0, 2356.0, 2356.0, 2356.0, 2355.0, 2356.0, 2356.0, 2355.0, 2356.0, 2356.0, 2356.0, 2355.0, 2355.0, 2355.0, 2356.0, 2355.0, 2356.0, 2355.0, 2356.0, 2355.0, 2355.0, 2355.0, 2355.0, 2355.0, 2355.0, 2355.0, 2355.0, 2355.0, 2355.0, 2355.0, 2355.0, 2355.0, 2355.0, 2355.0, 2355.0, 2355.0, 2355.0, 2355.0, 2355.0, 2355.0, 2355.0, 2355.0, 2355.0, 2355.0, 2355.0, 2355.0, 2355.0, 2355.0, 2355.0, 2355.0, 2355.0, 2355.0, 2355.0, 2355.0, 2355.0, 2355.0, 2355.0, 2355.0, 2355.0, 2355.0, 2355.0, 2355.0, 2355.0, 2355.0, 2354.0, 2355.0, 2355.0, 2354.0, 2355.0, 2354.0, 2354.0, 2354.0, 2354.0, 2354.0, 2354.0, 2354.0, 2354.0, 2355.0, 2355.0, 2354.0, 2354.0, 2354.0, 2354.0, 2354.0, 2354.0, 2354.0, 2354.0, 2354.0, 2354.0, 2354.0, 2354.0, 2354.0, 2354.0, 2354.0, 2354.0, 2354.0, 2354.0, 2354.0, 2354.0, 2354.0, 2354.0, 2354.0, 2354.0, 2354.0, 2354.0, 2354.0, 2354.0, 2354.0, 2354.0, 2354.0, 2354.0, 2354.0, 2354.0, 2354.0, 2353.0, 2354.0, 2354.0, 2354.0, 2354.0, 2354.0, 2354.0, 2354.0, 2354.0, 2354.0, 2354.0, 2354.0, 2354.0, 2353.0, 2354.0, 2354.0, 2353.0, 2353.0, 2353.0, 2353.0, 2354.0, 2354.0, 2354.0, 2354.0, 2353.0, 2354.0, 2354.0, 2353.0, 2354.0, 2354.0, 2354.0, 2354.0, 2354.0, 2353.0, 2353.0, 2353.0, 2354.0, 2353.0, 2354.0, 2354.0, 2354.0, 2354.0, 2354.0, 2353.0, 2354.0, 2354.0, 2354.0, 2353.0, 2354.0, 2354.0, 2353.0, 2353.0, 2354.0, 2353.0, 2353.0, 2353.0, 2354.0, 2353.0, 2354.0, 2353.0, 2353.0, 2353.0, 2353.0, 2354.0, 2354.0, 2353.0, 2353.0, 2353.0, 2353.0, 2353.0, 2353.0, 2353.0, 2353.0, 2353.0, 2353.0, 2353.0, 2353.0]
    },
    "slices": {}
  }
}