{
  "AcquisitionMatrixPE": 80,
  "AcquisitionNumber": 1,
  "AcquisitionTime": "09:43:13.290000",
  "BandwidthPerPixelPhaseEncode": 44.643,
  "BaseResolution": 80,
  "BodyPartExamined": "BRAIN",
  "CoilCombinationMethod": "Sum of Squares",
  "ConsistencyInfo": "N4_VE11C_LATEST_20160120",
  "ConversionSoftware": "dcm2niix",
  "ConversionSoftwareVersion": "v1.0.20220720",
  "DerivedVendorReportedEchoSpacing": 0.000559998,
  "DeviceSerialNumber": "66112",
  "DwellTime": 2.7e-06,
  "EchoTime": 0.035,
  "EchoTrainLength": 39,
  "EffectiveEchoSpacing": 0.000279999,
  "FlipAngle": 90,
  "HeudiconvVersion": "0.13.1",
  "ImageOrientationPatientDICOM": [0.986041, -0.165171, -0.0209954, 0.163769, 0.939379, 0.301243],
  "ImageOrientationText": "Tra>Cor(17.5)>Sag(1.7)",
  "ImageType": [
    "ORIGINAL",
    "PRIMARY",
    "M",
    "ND",
    "NORM",
    "MOSAIC"
],
  "ImagingFrequency": 123.252,
  "InPlanePhaseEncodingDirectionDICOM": "COL",
  "InstitutionAddress": "Maynard 3,Hanover,NH,US,03755",
  "InstitutionName": "Dartmouth College - PBS",
  "InstitutionalDepartmentName": "Department",
  "MRAcquisitionType": "2D",
  "MagneticFieldStrength": 3,
  "Manufacturer": "Siemens",
  "ManufacturersModelName": "Prisma",
  "Modality": "MR",
  "MultibandAccelerationFactor": 4,
  "NonlinearGradientCorrection": false,
  "ParallelReductionFactorInPlane": 2,
  "PartialFourier": 1,
  "PatientPosition": "HFS",
  "PercentPhaseFOV": 100,
  "PercentSampling": 100,
  "PhaseEncodingDirection": "j-",
  "PhaseEncodingSteps": 79,
  "PhaseResolution": 1,
  "PixelBandwidth": 2315,
  "ProcedureStepDescription": "dbic^QA",
  "ProtocolName": "func-bold_task-rest_acq-p2-s4-3.5mm",
  "PulseSequenceDetails": "%SiemensSeq%\\ep2d_bold",
  "ReceiveCoilActiveElements": "HEA;HEP",
  "ReceiveCoilName": "Head_32",
  "ReconMatrixPE": 80,
  "RefLinesPE": 24,
  "RepetitionTime": 2,
  "SAR": 0.0209823,
  "ScanOptions": "FS",
  "ScanningSequence": "EP",
  "SequenceName": "*epfid2d1_80",
  "SequenceVariant": "SK",
  "SeriesDescription": "func-bold_task-rest_acq-p2-s4-3.5mm",
  "SeriesNumber": 7,
  "ShimSetting": [4147, -7701, -7524, 255, -112, -88, 5, 82],
  "SliceThickness": 3.5,
  "SliceTiming": [1.4825, 0, 0.99, 0.2475, 1.2375, 0.7425, 1.73, 0.495, 1.4825, 0, 0.99, 0.2475, 1.2375, 0.7425, 1.73, 0.495, 1.4825, 0, 0.99, 0.2475, 1.2375, 0.7425, 1.73, 0.495, 1.4825, 0, 0.99, 0.2475, 1.2375, 0.7425, 1.73, 0.495],
  "SoftwareVersions": "syngo MR E11",
  "SpacingBetweenSlices": 3.99,
  "StationName": "AWP66112",
  "TaskName": "rest",
  "TotalReadoutTime": 0.0221199,
  "TxRefAmp": 222.856,
  "dcmmeta_affine": [
    [-2.9581243991851807, 0.4913058280944824, 0.11983545869588852, 93.39408874511719],
    [0.49551236629486084, 2.818135976791382, 1.1989027261734009, -142.71917724609375],
    [-0.06298629194498062, -0.9037301540374756, 3.8037314414978027, -12.869235038757324],
    [0.0, 0.0, 0.0, 1.0]
],
  "dcmmeta_reorient_transform": [
    [0.0, -1.0, 0.0, 79.0],
    [1.0, 0.0, 0.0, 0.0],
    [0.0, 0.0, 1.0, 0.0],
    [0.0, 0.0, 0.0, 1.0]
],
  "dcmmeta_shape": [80, 80, 32, 200],
  "dcmmeta_slice_dim": 2,
  "dcmmeta_version": 0.6,
  "global": {
    "const": {
      "AccessionNumber": "qa",
      "AcquisitionMatrix": [80, 0, 0, 80],
      "AngioFlag": "N",
      "BitsAllocated": 16,
      "BitsStored": 12,
      "BodyPartExamined": "BRAIN",
      "Columns": 480,
      "EchoNumbers": 1,
      "EchoTime": 35.0,
      "EchoTrainLength": 39,
      "FlipAngle": 90.0,
      "HighBit": 11,
      "ImageOrientationPatient": [0.98604148172883, -0.1651707850115, -0.0209954301859, 0.16376861195373, 0.93937865710938, 0.30124339047707],
      "ImagePositionPatient": [-822.09330943219, -544.43829389467, -252.41269431246],
      "ImageType": [
        "ORIGINAL",
        "PRIMARY",
        "M",
        "ND",
        "NORM",
        "MOSAIC"
],
      "ImagedNucleus": "1H",
      "ImagingFrequency": 123.252318,
      "InPlanePhaseEncodingDirection": "COL",
      "MRAcquisitionType": "2D",
      "MagneticFieldStrength": 3.0,
      "Manufacturer": "SIEMENS",
      "ManufacturerModelName": "Prisma",
      "Modality": "MR",
      "NumberOfAverages": 1.0,
      "NumberOfPhaseEncodingSteps": 79,
      "PercentPhaseFieldOfView": 100.0,
      "PercentSampling": 100.0,
      "PerformedProcedureStepStartTime": "093109.483000",
      "PhotometricInterpretation": "MONOCHROME2",
      "PixelBandwidth": 2315.0,
      "PixelRepresentation": 0,
      "PixelSpacing": [3.0, 3.0],
      "ProtocolName": "func-bold_task-rest_acq-p2-s4-3.5mm",
      "RepetitionTime": 2000.0,
      "Rows": 480,
      "SAR": 0.02098233885228,
      "SamplesPerPixel": 1,
      "ScanOptions": "FS",
      "ScanningSequence": "EP",
      "SequenceName": "*epfid2d1_80",
      "SequenceVariant": "SK",
      "SeriesDescription": "func-bold_task-rest_acq-p2-s4-3.5mm",
      "SeriesNumber": 7,
      "SeriesTime": "094352.273000",
      "SliceLocation": -52.347265413787,
      "SliceThickness": 3.5,
      "SmallestImagePixelValue": 0,
      "SoftwareVersions": "syngo MR E11",
      "SpacingBetweenSlices": 3.9900000685748,
      "SpecificCharacterSet": "ISO_IR 100",
      "StudyID": "7",
      "StudyTime": "093109.428000",
      "TransmitCoilName": "Body",
      "VariableFlipAngleFlag": "N",
      "WindowCenter": 972.0,
      "WindowCenterWidthExplanation": "Algo1",
      "dBdt": 0.0},
    "slices": {}
  },
  "time": {
    "samples": {
      "AcquisitionNumber": [1, 2, 3, 4, 5, 6, 7, 8, 9, 10, 11, 12, 13, 14, 15, 16, 17, 18, 19, 20, 21, 22, 23, 24, 25, 26, 27, 28, 29, 30, 31, 32, 33, 34, 35, 36, 37, 38, 39, 40, 41, 42, 43, 44, 45, 46, 47, 48, 49, 50, 51, 52, 53, 54, 55, 56, 57, 58, 59, 60, 61, 62, 63, 64, 65, 66, 67, 68, 69, 70, 71, 72, 73, 74, 75, 76, 77, 78, 79, 80, 81, 82, 83, 84, 85, 86, 87, 88, 89, 90, 91, 92, 93, 94, 95, 96, 97, 98, 99, 100, 101, 102, 103, 104, 105, 106, 107, 108, 109, 110, 111, 112, 113, 114, 115, 116, 117, 118, 119, 120, 121, 122, 123, 124, 125, 126, 127, 128, 129, 130, 131, 132, 133, 134, 135, 136, 137, 138, 139, 140, 141, 142, 143, 144, 145, 146, 147, 148, 149, 150, 151, 152, 153, 154, 155, 156, 157, 158, 159, 160, 161, 162, 163, 164, 165, 166, 167, 168, 169, 170, 171, 172, 173, 174, 175, 176, 177, 178, 179, 180, 181, 182, 183, 184, 185, 186, 187, 188, 189, 190, 191, 192, 193, 194, 195, 196, 197, 198, 199, 200],
      "AcquisitionTime": ["094313.290000", "094315.290000", "094317.290000", "094319.290000", "094321.290000", "094323.290000", "094325.290000", "094327.290000", "094329.290000", "094331.290000", "094333.290000", "094335.290000", "094337.290000", "094339.290000", "094341.290000", "094343.290000", "094345.290000", "094347.290000", "094349.290000", "094351.290000", "094353.290000", "094355.290000", "094357.290000", "094359.290000", "094401.290000", "094403.290000", "094405.290000", "094407.290000", "094409.290000", "094411.290000", "094413.290000", "094415.290000", "094417.290000", "094419.290000", "094421.290000", "094423.290000", "094425.290000", "094427.290000", "094429.290000", "094431.290000", "094433.290000", "094435.290000", "094437.290000", "094439.290000", "094441.290000", "094443.290000", "094445.290000", "094447.290000", "094449.290000", "094451.290000", "094453.290000", "094455.290000", "094457.290000", "094459.290000", "094501.290000", "094503.290000", "094505.290000", "094507.290000", "094509.290000", "094511.290000", "094513.290000", "094515.290000", "094517.290000", "094519.290000", "094521.290000", "094523.290000", "094525.290000", "094527.290000", "094529.290000", "094531.290000", "094533.290000", "094535.290000", "094537.290000", "094539.290000", "094541.290000", "094543.290000", "094545.290000", "094547.290000", "094549.290000", "094551.290000", "094553.290000", "094555.290000", "094557.290000", "094559.290000", "094601.290000", "094603.290000", "094605.290000", "094607.290000", "094609.290000", "094611.290000", "094613.290000", "094615.290000", "094617.290000", "094619.290000", "094621.290000", "094623.290000", "094625.290000", "094627.290000", "094629.290000", "094631.290000", "094633.290000", "094635.290000", "094637.290000", "094639.290000", "094641.290000", "094643.290000", "094645.290000", "094647.290000", "094649.290000", "094651.290000", "094653.290000", "094655.290000", "094657.290000", "094659.290000", "094701.290000", "094703.290000", "094705.290000", "094707.290000", "094709.290000", "094711.290000", "094713.290000", "094715.290000", "094717.290000", "094719.290000", "094721.290000", "094723.290000", "094725.290000", "094727.290000", "094729.290000", "094731.290000", "094733.290000", "094735.290000", "094737.290000", "094739.290000", "094741.290000", "094743.290000", "094745.290000", "094747.290000", "094749.290000", "094751.290000", "094753.290000", "094755.290000", "094757.290000", "094759.290000", "094801.290000", "094803.290000", "094805.290000", "094807.290000", "094809.290000", "094811.290000", "094813.290000", "094815.290000", "094817.290000", "094819.290000", "094821.290000", "094823.290000", "094825.290000", "094827.290000", "094829.290000", "094831.290000", "094833.290000", "094835.290000", "094837.290000", "094839.290000", "094841.290000", "094843.290000", "094845.290000", "094847.290000", "094849.290000", "094851.290000", "094853.290000", "094855.290000", "094857.290000", "094859.290000", "094901.290000", "094903.290000", "094905.290000", "094907.290000", "094909.290000", "094911.290000", "094913.290000", "094915.290000", "094917.290000", "094919.290000", "094921.290000", "094923.290000", "094925.290000", "094927.290000", "094929.290000", "094931.290000", "094933.290000", "094935.290000", "094937.290000", "094939.290000", "094941.290000", "094943.290000", "094945.290000", "094947.290000", "094949.290000", "094951.290000"],
      "ContentTime": ["094352.276000", "094352.280000", "094352.282000", "094352.285000", "094352.287000", "094352.290000", "094352.292000", "094352.295000", "094352.298000", "094352.300000", "094352.303000", "094352.305000", "094352.308000", "094352.311000", "094352.313000", "094352.322000", "094352.325000", "094352.327000", "094352.331000", "094352.334000", "094432.271000", "094432.274000", "094432.277000", "094432.280000", "094432.282000", "094432.285000", "094432.287000", "094432.290000", "094432.293000", "094432.295000", "094432.298000", "094432.300000", "094432.303000", "094432.305000", "094432.308000", "094432.311000", "094432.313000", "094432.316000", "094432.318000", "094432.321000", "094452.272000", "094452.274000", "094452.277000", "094452.280000", "094452.282000", "094452.285000", "094452.287000", "094452.290000", "094452.293000", "094452.295000", "094532.272000", "094532.275000", "094532.278000", "094532.280000", "094532.283000", "094532.286000", "094532.288000", "094532.291000", "094532.293000", "094532.296000", "094532.299000", "094532.301000", "094532.304000", "094532.307000", "094532.309000", "094532.312000", "094532.314000", "094532.317000", "094532.320000", "094532.322000", "094612.271000", "094612.274000", "094612.277000", "094612.279000", "094612.282000", "094612.285000", "094612.287000", "094612.290000", "094612.293000", "094612.295000", "094612.298000", "094612.301000", "094612.303000", "094612.306000", "094612.308000", "094612.311000", "094612.314000", "094612.316000", "094612.319000", "094612.321000", "094652.271000", "094652.274000", "094652.277000", "094652.280000", "094652.282000", "094652.285000", "094652.287000", "094652.290000", "094652.293000", "094652.295000", "094652.298000", "094652.300000", "094652.303000", "094652.306000", "094652.308000", "094652.311000", "094652.314000", "094652.316000", "094652.319000", "094652.321000", "094732.272000", "094732.275000", "094732.278000", "094732.280000", "094732.283000", "094732.286000", "094732.288000", "094732.291000", "094732.293000", "094732.296000", "094732.299000", "094732.301000", "094732.304000", "094732.307000", "094732.309000", "094732.312000", "094732.314000", "094732.317000", "094732.320000", "094732.322000", "094812.272000", "094812.275000", "094812.278000", "094812.280000", "094812.283000", "094812.286000", "094812.288000", "094812.291000", "094812.293000", "094812.296000", "094812.299000", "094812.301000", "094812.304000", "094812.307000", "094812.309000", "094812.312000", "094812.314000", "094812.317000", "094812.320000", "094812.322000", "094852.271000", "094852.274000", "094852.277000", "094852.280000", "094852.282000", "094852.285000", "094852.287000", "094852.290000", "094852.292000", "094852.295000", "094852.298000", "094852.300000", "094852.303000", "094852.306000", "094852.308000", "094852.311000", "094852.313000", "094852.316000", "094852.319000", "094852.321000", "094932.271000", "094932.274000", "094932.277000", "094932.279000", "094932.282000", "094932.285000", "094932.287000", "094932.290000", "094932.292000", "094932.295000", "094932.298000", "094932.300000", "094932.303000", "094932.306000", "094932.308000", "094932.311000", "094932.313000", "094932.316000", "094932.319000", "094932.321000", "094952.365000", "094952.368000", "094952.371000", "094952.373000", "094952.376000", "094952.379000", "094952.382000", "094952.384000", "094952.387000", "094952.389000"],
      "InstanceCreationTime": ["094352.276000", "094352.280000", "094352.282000", "094352.285000", "094352.287000", "094352.290000", "094352.292000", "094352.295000", "094352.298000", "094352.300000", "094352.303000", "094352.305000", "094352.308000", "094352.311000", "094352.313000", "094352.322000", "094352.325000", "094352.327000", "094352.331000", "094352.334000", "094432.271000", "094432.274000", "094432.277000", "094432.280000", "094432.282000", "094432.285000", "094432.287000", "094432.290000", "094432.293000", "094432.295000", "094432.298000", "094432.300000", "094432.303000", "094432.305000", "094432.308000", "094432.311000", "094432.313000", "094432.316000", "094432.318000", "094432.321000", "094452.272000", "094452.274000", "094452.277000", "094452.280000", "094452.282000", "094452.285000", "094452.287000", "094452.290000", "094452.293000", "094452.295000", "094532.272000", "094532.275000", "094532.278000", "094532.280000", "094532.283000", "094532.286000", "094532.288000", "094532.291000", "094532.293000", "094532.296000", "094532.299000", "094532.301000", "094532.304000", "094532.307000", "094532.309000", "094532.312000", "094532.314000", "094532.317000", "094532.320000", "094532.322000", "094612.271000", "094612.274000", "094612.277000", "094612.279000", "094612.282000", "094612.285000", "094612.287000", "094612.290000", "094612.293000", "094612.295000", "094612.298000", "094612.301000", "094612.303000", "094612.306000", "094612.308000", "094612.311000", "094612.314000", "094612.316000", "094612.319000", "094612.321000", "094652.271000", "094652.274000", "094652.277000", "094652.280000", "094652.282000", "094652.285000", "094652.287000", "094652.290000", "094652.293000", "094652.295000", "094652.298000", "094652.300000", "094652.303000", "094652.306000", "094652.308000", "094652.311000", "094652.314000", "094652.316000", "094652.319000", "094652.321000", "094732.272000", "094732.275000", "094732.278000", "094732.280000", "094732.283000", "094732.286000", "094732.288000", "094732.291000", "094732.293000", "094732.296000", "094732.299000", "094732.301000", "094732.304000", "094732.307000", "094732.309000", "094732.312000", "094732.314000", "094732.317000", "094732.320000", "094732.322000", "094812.272000", "094812.275000", "094812.278000", "094812.280000", "094812.283000", "094812.286000", "094812.288000", "094812.291000", "094812.293000", "094812.296000", "094812.299000", "094812.301000", "094812.304000", "094812.307000", "094812.309000", "094812.312000", "094812.314000", "094812.317000", "094812.320000", "094812.322000", "094852.271000", "094852.274000", "094852.277000", "094852.280000", "094852.282000", "094852.285000", "094852.287000", "094852.290000", "094852.292000", "094852.295000", "094852.298000", "094852.300000", "094852.303000", "094852.306000", "094852.308000", "094852.311000", "094852.313000", "094852.316000", "094852.319000", "094852.321000", "094932.271000", "094932.274000", "094932.277000", "094932.279000", "094932.282000", "094932.285000", "094932.287000", "094932.290000", "094932.292000", "094932.295000", "094932.298000", "094932.300000", "094932.303000", "094932.306000", "094932.308000", "094932.311000", "094932.313000", "094932.316000", "094932.319000", "094932.321000", "094952.365000", "094952.368000", "094952.371000", "094952.373000", "094952.376000", "094952.379000", "094952.382000", "094952.384000", "094952.387000", "094952.389000"],
      "InstanceNumber": [1, 2, 3, 4, 5, 6, 7, 8, 9, 10, 11, 12, 13, 14, 15, 16, 17, 18, 19, 20, 21, 22, 23, 24, 25, 26, 27, 28, 29, 30, 31, 32, 33, 34, 35, 36, 37, 38, 39, 40, 41, 42, 43, 44, 45, 46, 47, 48, 49, 50, 51, 52, 53, 54, 55, 56, 57, 58, 59, 60, 61, 62, 63, 64, 65, 66, 67, 68, 69, 70, 71, 72, 73, 74, 75, 76, 77, 78, 79, 80, 81, 82, 83, 84, 85, 86, 87, 88, 89, 90, 91, 92, 93, 94, 95, 96, 97, 98, 99, 100, 101, 102, 103, 104, 105, 106, 107, 108, 109, 110, 111, 112, 113, 114, 115, 116, 117, 118, 119, 120, 121, 122, 123, 124, 125, 126, 127, 128, 129, 130, 131, 132, 133, 134, 135, 136, 137, 138, 139, 140, 141, 142, 143, 144, 145, 146, 147, 148, 149, 150, 151, 152, 153, 154, 155, 156, 157, 158, 159, 160, 161, 162, 163, 164, 165, 166, 167, 168, 169, 170, 171, 172, 173, 174, 175, 176, 177, 178, 179, 180, 181, 182, 183, 184, 185, 186, 187, 188, 189, 190, 191, 192, 193, 194, 195, 196, 197, 198, 199, 200],
      "LargestImagePixelValue": [2375, 2371, 2381, 2365, 2368, 2371, 2371, 2371, 2371, 2368, 2372, 2373, 2370, 2368, 2366, 2369, 2373, 2366, 2366, 2368, 2371, 2369, 2363, 2371, 2370, 2376, 2370, 2371, 2370, 2373, 2376, 2373, 2372, 2379, 2365, 2367, 2370, 2371, 2372, 2377, 2382, 2378, 2372, 2372, 2374, 2381, 2378, 2374, 2368, 2376, 2378, 2375, 2378, 2380, 2372, 2375, 2378, 2370, 2374, 2376, 2373, 2373, 2371, 2371, 2375, 2372, 2375, 2378, 2373, 2382, 2368, 2374, 2379, 2373, 2373, 2368, 2375, 2368, 2380, 2373, 2369, 2367, 2374, 2371, 2370, 2371, 2374, 2373, 2368, 2372, 2376, 2373, 2371, 2367, 2373, 2370, 2365, 2368, 2380, 2367, 2369, 2367, 2373, 2369, 2371, 2372, 2367, 2365, 2372, 2368, 2374, 2367, 2377, 2371, 2368, 2372, 2371, 2370, 2373, 2369, 2369, 2372, 2366, 2369, 2362, 2369, 2373, 2370, 2377, 2371, 2367, 2375, 2366, 2373, 2368, 2374, 2383, 2369, 2365, 2371, 2374, 2376, 2377, 2371, 2362, 2368, 2380, 2378, 2371, 2373, 2368, 2376, 2372, 2372, 2373, 2367, 2370, 2368, 2375, 2370, 2372, 2376, 2371, 2368, 2370, 2370, 2370, 2373, 2375, 2372, 2371, 2370, 2368, 2367, 2373, 2367, 2366, 2375, 2372, 2369, 2371, 2372, 2372, 2376, 2370, 2370, 2370, 2377, 2373, 2369, 2365, 2376, 2368, 2369, 2373, 2377, 2365, 2372, 2372, 2371],
      "WindowWidth": [2282.0, 2282.0, 2282.0, 2281.0, 2281.0, 2281.0, 2281.0, 2282.0, 2282.0, 2282.0, 2282.0, 2281.0, 2281.0, 2282.0, 2282.0, 2281.0, 2281.0, 2282.0, 2281.0, 2281.0, 2282.0, 2281.0, 2282.0, 2282.0, 2282.0, 2281.0, 2282.0, 2282.0, 2282.0, 2282.0, 2281.0, 2282.0, 2282.0, 2282.0, 2282.0, 2282.0, 2282.0, 2282.0, 2282.0, 2282.0, 2282.0, 2282.0, 2282.0, 2281.0, 2281.0, 2282.0, 2282.0, 2282.0, 2282.0, 2281.0, 2282.0, 2281.0, 2282.0, 2282.0, 2281.0, 2282.0, 2281.0, 2282.0, 2281.0, 2281.0, 2281.0, 2281.0, 2281.0, 2281.0, 2281.0, 2281.0, 2281.0, 2281.0, 2281.0, 2281.0, 2281.0, 2281.0, 2281.0, 2281.0, 2282.0, 2281.0, 2282.0, 2281.0, 2281.0, 2281.0, 2281.0, 2282.0, 2281.0, 2281.0, 2281.0, 2281.0, 2281.0, 2281.0, 2281.0, 2281.0, 2281.0, 2281.0, 2281.0, 2281.0, 2281.0, 2281.0, 2281.0, 2281.0, 2280.0, 2281.0, 2281.0, 2281.0, 2281.0, 2281.0, 2281.0, 2281.0, 2281.0, 2281.0, 2281.0, 2281.0, 2280.0, 2281.0, 2281.0, 2281.0, 2281.0, 2281.0, 2281.0, 2281.0, 2281.0, 2281.0, 2281.0, 2281.0, 2281.0, 2281.0, 2280.0, 2281.0, 2281.0, 2280.0, 2281.0, 2280.0, 2281.0, 2281.0, 2281.0, 2280.0, 2281.0, 2281.0, 2280.0, 2280.0, 2280.0, 2281.0, 2280.0, 2280.0, 2280.0, 2280.0, 2280.0, 2280.0, 2280.0, 2280.0, 2280.0, 2280.0, 2280.0, 2280.0, 2280.0, 2280.0, 2281.0, 2280.0, 2280.0, 2280.0, 2280.0, 2280.0, 2280.0, 2280.0, 2280.0, 2280.0, 2280.0, 2280.0, 2280.0, 2280.0, 2280.0, 2280.0, 2280.0, 2280.0, 2280.0, 2280.0, 2280.0, 2280.0, 2280.0, 2280.0, 2280.0, 2280.0, 2280.0, 2280.0, 2280.0, 2280.0, 2280.0, 2280.0, 2280.0, 2280.0, 2280.0, 2280.0, 2280.0, 2280.0, 2280.0, 2280.0, 2280.0, 2280.0, 2280.0, 2280.0, 2280.0, 2280.0]
    },
    "slices": {}
  }
}