{
  "AcquisitionMatrixPE": 80,
  "AcquisitionNumber": 1,
  "AcquisitionTime": "09:50:3.490000",
  "BandwidthPerPixelPhaseEncode": 25,
  "BaseResolution": 80,
  "BodyPartExamined": "BRAIN",
  "CoilCombinationMethod": "Sum of Squares",
  "ConsistencyInfo": "N4_VE11C_LATEST_20160120",
  "ConversionSoftware": "dcm2niix",
  "ConversionSoftwareVersion": "v1.0.20220720",
  "DerivedVendorReportedEchoSpacing": 0.0005,
  "DeviceSerialNumber": "66112",
  "DwellTime": 2.7e-06,
  "EchoTime": 0.03,
  "EchoTrainLength": 80,
  "EffectiveEchoSpacing": 0.0005,
  "FlipAngle": 77,
  "HeudiconvVersion": "0.13.1",
  "ImageOrientationPatientDICOM": [0.986041, -0.165171, -0.0209954, 0.163769, 0.939379, 0.301243],
  "ImageOrientationText": "Tra>Cor(17.5)>Sag(1.7)",
  "ImageType": [
    "ORIGINAL",
    "PRIMARY",
    "M",
    "ND",
    "NORM",
    "MOSAIC"
],
  "ImagingFrequency": 123.252,
  "InPlanePhaseEncodingDirectionDICOM": "COL",
  "InstitutionAddress": "Maynard 3,Hanover,NH,US,03755",
  "InstitutionName": "Dartmouth College - PBS",
  "InstitutionalDepartmentName": "Department",
  "MRAcquisitionType": "2D",
  "MagneticFieldStrength": 3,
  "Manufacturer": "Siemens",
  "ManufacturersModelName": "Prisma",
  "MatrixCoilMode": "SENSE",
  "Modality": "MR",
  "NonlinearGradientCorrection": false,
  "PartialFourier": 1,
  "PatientPosition": "HFS",
  "PercentPhaseFOV": 100,
  "PercentSampling": 100,
  "PhaseEncodingDirection": "j-",
  "PhaseEncodingSteps": 80,
  "PhaseResolution": 1,
  "PixelBandwidth": 2315,
  "ProcedureStepDescription": "dbic^QA",
  "ProtocolName": "func-bold_fa-77",
  "PulseSequenceDetails": "%SiemensSeq%\\ep2d_bold",
  "ReceiveCoilActiveElements": "HEA;HEP",
  "ReceiveCoilName": "Head_32",
  "ReconMatrixPE": 80,
  "RepetitionTime": 2,
  "SAR": 0.0438502,
  "ScanOptions": "FS",
  "ScanningSequence": "EP",
  "SequenceName": "*epfid2d1_80",
  "SequenceVariant": "SK",
  "SeriesDescription": "func-bold_fa-77",
  "SeriesNumber": 8,
  "ShimSetting": [4146, -7700, -7524, 253, -113, -84, 6, 82],
  "SliceThickness": 3.5,
  "SliceTiming": [0.99, 0, 1.0575, 0.0675, 1.1225, 0.1325, 1.1875, 0.1975, 1.255, 0.265, 1.32, 0.33, 1.3875, 0.3975, 1.4525, 0.4625, 1.5175, 0.5275, 1.585, 0.595, 1.65, 0.66, 1.7175, 0.7275, 1.7825, 0.7925, 1.8475, 0.8575, 1.915, 0.925],
  "SoftwareVersions": "syngo MR E11",
  "SpacingBetweenSlices": 3.99,
  "StationName": "AWP66112",
  "TotalReadoutTime": 0.0395,
  "TxRefAmp": 222.856,
  "dcmmeta_affine": [
    [-2.9581243991851807, 0.4913058280944824, 0.11983545124530792, 93.90498352050781],
    [0.49551236629486084, 2.818135976791382, 1.1989027261734009, -138.94769287109375],
    [-0.06298629194498062, -0.9037301540374756, 3.8037312030792236, -7.200819492340088],
    [0.0, 0.0, 0.0, 1.0]
],
  "dcmmeta_reorient_transform": [
    [0.0, -1.0, 0.0, 79.0],
    [1.0, 0.0, 0.0, 0.0],
    [0.0, 0.0, 1.0, 0.0],
    [0.0, 0.0, 0.0, 1.0]
],
  "dcmmeta_shape": [80, 80, 30, 200],
  "dcmmeta_slice_dim": 2,
  "dcmmeta_version": 0.6,
  "global": {
    "const": {
      "AccessionNumber": "qa",
      "AcquisitionMatrix": [80, 0, 0, 80],
      "AngioFlag": "N",
      "BitsAllocated": 16,
      "BitsStored": 12,
      "BodyPartExamined": "BRAIN",
      "Columns": 480,
      "EchoNumbers": 1,
      "EchoTime": 30.0,
      "EchoTrainLength": 80,
      "FlipAngle": 77.0,
      "HighBit": 11,
      "ImageOrientationPatient": [0.98604148172883, -0.1651707850115, -0.0209954301859, 0.16376861195373, 0.93937865710938, 0.30124339047707],
      "ImagePositionPatient": [-822.60419848553, -548.20977445498, -246.74427924288],
      "ImageType": [
        "ORIGINAL",
        "PRIMARY",
        "M",
        "ND",
        "NORM",
        "MOSAIC"
],
      "ImagedNucleus": "1H",
      "ImagingFrequency": 123.252318,
      "InPlanePhaseEncodingDirection": "COL",
      "MRAcquisitionType": "2D",
      "MagneticFieldStrength": 3.0,
      "Manufacturer": "SIEMENS",
      "ManufacturerModelName": "Prisma",
      "Modality": "MR",
      "NumberOfAverages": 1.0,
      "NumberOfPhaseEncodingSteps": 80,
      "PercentPhaseFieldOfView": 100.0,
      "PercentSampling": 100.0,
      "PerformedProcedureStepStartTime": "093109.483000",
      "PhotometricInterpretation": "MONOCHROME2",
      "PixelBandwidth": 2315.0,
      "PixelRepresentation": 0,
      "PixelSpacing": [3.0, 3.0],
      "ProtocolName": "func-bold_fa-77",
      "RepetitionTime": 2000.0,
      "Rows": 480,
      "SAR": 0.04385024249339,
      "SamplesPerPixel": 1,
      "ScanOptions": "FS",
      "ScanningSequence": "EP",
      "SequenceName": "*epfid2d1_80",
      "SequenceVariant": "SK",
      "SeriesDescription": "func-bold_fa-77",
      "SeriesNumber": 8,
      "SeriesTime": "095052.345000",
      "SliceLocation": -45.794887296562,
      "SliceThickness": 3.5,
      "SmallestImagePixelValue": 0,
      "SoftwareVersions": "syngo MR E11",
      "SpacingBetweenSlices": 3.9900000244146,
      "SpecificCharacterSet": "ISO_IR 100",
      "StudyID": "7",
      "StudyTime": "093109.428000",
      "TransmitCoilName": "Body",
      "VariableFlipAngleFlag": "N",
      "WindowCenterWidthExplanation": "Algo1",
      "dBdt": 0.0},
    "slices": {}
  },
  "time": {
    "samples": {
      "AcquisitionNumber": [1, 2, 3, 4, 5, 6, 7, 8, 9, 10, 11, 12, 13, 14, 15, 16, 17, 18, 19, 20, 21, 22, 23, 24, 25, 26, 27, 28, 29, 30, 31, 32, 33, 34, 35, 36, 37, 38, 39, 40, 41, 42, 43, 44, 45, 46, 47, 48, 49, 50, 51, 52, 53, 54, 55, 56, 57, 58, 59, 60, 61, 62, 63, 64, 65, 66, 67, 68, 69, 70, 71, 72, 73, 74, 75, 76, 77, 78, 79, 80, 81, 82, 83, 84, 85, 86, 87, 88, 89, 90, 91, 92, 93, 94, 95, 96, 97, 98, 99, 100, 101, 102, 103, 104, 105, 106, 107, 108, 109, 110, 111, 112, 113, 114, 115, 116, 117, 118, 119, 120, 121, 122, 123, 124, 125, 126, 127, 128, 129, 130, 131, 132, 133, 134, 135, 136, 137, 138, 139, 140, 141, 142, 143, 144, 145, 146, 147, 148, 149, 150, 151, 152, 153, 154, 155, 156, 157, 158, 159, 160, 161, 162, 163, 164, 165, 166, 167, 168, 169, 170, 171, 172, 173, 174, 175, 176, 177, 178, 179, 180, 181, 182, 183, 184, 185, 186, 187, 188, 189, 190, 191, 192, 193, 194, 195, 196, 197, 198, 199, 200],
      "AcquisitionTime": ["095003.490000", "095005.490000", "095007.490000", "095009.490000", "095011.490000", "095013.490000", "095015.490000", "095017.490000", "095019.490000", "095021.490000", "095023.490000", "095025.490000", "095027.490000", "095029.490000", "095031.490000", "095033.490000", "095035.490000", "095037.490000", "095039.490000", "095041.490000", "095043.490000", "095045.490000", "095047.490000", "095049.490000", "095051.490000", "095053.490000", "095055.490000", "095057.490000", "095059.490000", "095101.490000", "095103.490000", "095105.490000", "095107.490000", "095109.490000", "095111.490000", "095113.490000", "095115.490000", "095117.490000", "095119.490000", "095121.490000", "095123.490000", "095125.490000", "095127.490000", "095129.490000", "095131.490000", "095133.490000", "095135.490000", "095137.490000", "095139.490000", "095141.490000", "095143.490000", "095145.490000", "095147.490000", "095149.490000", "095151.490000", "095153.490000", "095155.490000", "095157.490000", "095159.490000", "095201.490000", "095203.490000", "095205.490000", "095207.490000", "095209.490000", "095211.490000", "095213.490000", "095215.490000", "095217.490000", "095219.490000", "095221.490000", "095223.490000", "095225.490000", "095227.490000", "095229.490000", "095231.490000", "095233.490000", "095235.490000", "095237.490000", "095239.490000", "095241.490000", "095243.490000", "095245.490000", "095247.490000", "095249.490000", "095251.490000", "095253.490000", "095255.490000", "095257.490000", "095259.490000", "095301.490000", "095303.490000", "095305.490000", "095307.490000", "095309.490000", "095311.490000", "095313.490000", "095315.490000", "095317.490000", "095319.490000", "095321.490000", "095323.490000", "095325.490000", "095327.490000", "095329.490000", "095331.490000", "095333.490000", "095335.490000", "095337.490000", "095339.490000", "095341.490000", "095343.490000", "095345.490000", "095347.490000", "095349.490000", "095351.490000", "095353.490000", "095355.490000", "095357.490000", "095359.490000", "095401.490000", "095403.490000", "095405.490000", "095407.490000", "095409.490000", "095411.490000", "095413.490000", "095415.490000", "095417.490000", "095419.490000", "095421.490000", "095423.490000", "095425.490000", "095427.490000", "095429.490000", "095431.490000", "095433.490000", "095435.490000", "095437.490000", "095439.490000", "095441.490000", "095443.490000", "095445.490000", "095447.490000", "095449.490000", "095451.490000", "095453.490000", "095455.490000", "095457.490000", "095459.490000", "095501.490000", "095503.490000", "095505.490000", "095507.490000", "095509.490000", "095511.490000", "095513.490000", "095515.490000", "095517.490000", "095519.490000", "095521.490000", "095523.490000", "095525.490000", "095527.490000", "095529.490000", "095531.490000", "095533.490000", "095535.490000", "095537.490000", "095539.490000", "095541.490000", "095543.490000", "095545.490000", "095547.490000", "095549.490000", "095551.490000", "095553.490000", "095555.490000", "095557.490000", "095559.490000", "095601.490000", "095603.490000", "095605.490000", "095607.490000", "095609.490000", "095611.490000", "095613.490000", "095615.490000", "095617.490000", "095619.490000", "095621.490000", "095623.490000", "095625.490000", "095627.490000", "095629.490000", "095631.490000", "095633.490000", "095635.490000", "095637.490000", "095639.490000", "095641.490000"],
      "ContentTime": ["095052.348000", "095052.352000", "095052.354000", "095052.363000", "095052.366000", "095052.368000", "095052.371000", "095052.373000", "095052.376000", "095052.378000", "095052.381000", "095052.384000", "095052.386000", "095052.389000", "095052.391000", "095052.394000", "095052.396000", "095052.399000", "095052.402000", "095052.404000", "095052.407000", "095052.409000", "095052.412000", "095052.414000", "095132.343000", "095132.346000", "095132.349000", "095132.351000", "095132.354000", "095132.357000", "095132.359000", "095132.362000", "095132.364000", "095132.367000", "095132.369000", "095132.372000", "095132.375000", "095132.377000", "095132.380000", "095132.382000", "095132.385000", "095132.388000", "095132.390000", "095132.393000", "095212.344000", "095212.347000", "095212.350000", "095212.352000", "095212.355000", "095212.358000", "095212.360000", "095212.363000", "095212.365000", "095212.368000", "095212.371000", "095212.374000", "095212.377000", "095212.379000", "095212.382000", "095212.385000", "095212.387000", "095212.390000", "095212.393000", "095212.395000", "095252.344000", "095252.347000", "095252.350000", "095252.352000", "095252.355000", "095252.357000", "095252.360000", "095252.362000", "095252.365000", "095252.368000", "095252.370000", "095252.373000", "095252.376000", "095252.378000", "095252.381000", "095252.383000", "095252.386000", "095252.388000", "095252.391000", "095252.394000", "095332.343000", "095332.346000", "095332.349000", "095332.351000", "095332.354000", "095332.356000", "095332.359000", "095332.361000", "095332.364000", "095332.366000", "095332.369000", "095332.371000", "095332.374000", "095332.377000", "095332.379000", "095332.382000", "095332.384000", "095332.387000", "095332.389000", "095332.392000", "095412.343000", "095412.346000", "095412.349000", "095412.351000", "095412.354000", "095412.357000", "095412.359000", "095412.362000", "095412.364000", "095412.367000", "095412.369000", "095412.372000", "095412.374000", "095412.377000", "095412.379000", "095412.382000", "095412.385000", "095412.387000", "095412.390000", "095412.392000", "095452.344000", "095452.347000", "095452.350000", "095452.352000", "095452.355000", "095452.357000", "095452.373000", "095452.376000", "095452.378000", "095452.381000", "095452.383000", "095452.386000", "095452.388000", "095452.391000", "095452.393000", "095452.396000", "095452.398000", "095452.401000", "095452.403000", "095452.406000", "095512.344000", "095512.346000", "095512.349000", "095512.351000", "095512.354000", "095512.357000", "095512.359000", "095512.362000", "095512.364000", "095512.367000", "095552.343000", "095552.346000", "095552.349000", "095552.351000", "095552.360000", "095552.363000", "095552.365000", "095552.368000", "095552.370000", "095552.373000", "095552.375000", "095552.378000", "095552.380000", "095552.383000", "095552.386000", "095552.388000", "095552.391000", "095552.393000", "095552.396000", "095552.398000", "095632.343000", "095632.346000", "095632.349000", "095632.351000", "095632.354000", "095632.357000", "095632.359000", "095632.362000", "095632.364000", "095632.368000", "095632.370000", "095632.373000", "095632.375000", "095632.378000", "095632.380000", "095632.383000", "095632.386000", "095632.388000", "095632.391000", "095632.393000", "095642.683000", "095642.686000", "095642.689000", "095642.691000", "095642.694000", "095642.697000"],
      "InstanceCreationTime": ["095052.348000", "095052.352000", "095052.354000", "095052.363000", "095052.366000", "095052.368000", "095052.371000", "095052.373000", "095052.376000", "095052.378000", "095052.381000", "095052.384000", "095052.386000", "095052.389000", "095052.391000", "095052.394000", "095052.396000", "095052.399000", "095052.402000", "095052.404000", "095052.407000", "095052.409000", "095052.412000", "095052.414000", "095132.343000", "095132.346000", "095132.349000", "095132.351000", "095132.354000", "095132.357000", "095132.359000", "095132.362000", "095132.364000", "095132.367000", "095132.369000", "095132.372000", "095132.375000", "095132.377000", "095132.380000", "095132.382000", "095132.385000", "095132.388000", "095132.390000", "095132.393000", "095212.344000", "095212.347000", "095212.350000", "095212.352000", "095212.355000", "095212.358000", "095212.360000", "095212.363000", "095212.365000", "095212.368000", "095212.371000", "095212.374000", "095212.377000", "095212.379000", "095212.382000", "095212.385000", "095212.387000", "095212.390000", "095212.393000", "095212.395000", "095252.344000", "095252.347000", "095252.350000", "095252.352000", "095252.355000", "095252.357000", "095252.360000", "095252.362000", "095252.365000", "095252.368000", "095252.370000", "095252.373000", "095252.376000", "095252.378000", "095252.381000", "095252.383000", "095252.386000", "095252.388000", "095252.391000", "095252.394000", "095332.343000", "095332.346000", "095332.349000", "095332.351000", "095332.354000", "095332.356000", "095332.359000", "095332.361000", "095332.364000", "095332.366000", "095332.369000", "095332.371000", "095332.374000", "095332.377000", "095332.379000", "095332.382000", "095332.384000", "095332.387000", "095332.389000", "095332.392000", "095412.343000", "095412.346000", "095412.349000", "095412.351000", "095412.354000", "095412.357000", "095412.359000", "095412.362000", "095412.364000", "095412.367000", "095412.369000", "095412.372000", "095412.374000", "095412.377000", "095412.379000", "095412.382000", "095412.385000", "095412.387000", "095412.390000", "095412.392000", "095452.344000", "095452.347000", "095452.350000", "095452.352000", "095452.355000", "095452.357000", "095452.373000", "095452.376000", "095452.378000", "095452.381000", "095452.383000", "095452.386000", "095452.388000", "095452.391000", "095452.393000", "095452.396000", "095452.398000", "095452.401000", "095452.403000", "095452.406000", "095512.344000", "095512.346000", "095512.349000", "095512.351000", "095512.354000", "095512.357000", "095512.359000", "095512.362000", "095512.364000", "095512.367000", "095552.343000", "095552.346000", "095552.349000", "095552.351000", "095552.360000", "095552.363000", "095552.365000", "095552.368000", "095552.370000", "095552.373000", "095552.375000", "095552.378000", "095552.380000", "095552.383000", "095552.386000", "095552.388000", "095552.391000", "095552.393000", "095552.396000", "095552.398000", "095632.343000", "095632.346000", "095632.349000", "095632.351000", "095632.354000", "095632.357000", "095632.359000", "095632.362000", "095632.364000", "095632.368000", "095632.370000", "095632.373000", "095632.375000", "095632.378000", "095632.380000", "095632.383000", "095632.386000", "095632.388000", "095632.391000", "095632.393000", "095642.683000", "095642.686000", "095642.689000", "095642.691000", "095642.694000", "095642.697000"],
      "InstanceNumber": [1, 2, 3, 4, 5, 6, 7, 8, 9, 10, 11, 12, 13, 14, 15, 16, 17, 18, 19, 20, 21, 22, 23, 24, 25, 26, 27, 28, 29, 30, 31, 32, 33, 34, 35, 36, 37, 38, 39, 40, 41, 42, 43, 44, 45, 46, 47, 48, 49, 50, 51, 52, 53, 54, 55, 56, 57, 58, 59, 60, 61, 62, 63, 64, 65, 66, 67, 68, 69, 70, 71, 72, 73, 74, 75, 76, 77, 78, 79, 80, 81, 82, 83, 84, 85, 86, 87, 88, 89, 90, 91, 92, 93, 94, 95, 96, 97, 98, 99, 100, 101, 102, 103, 104, 105, 106, 107, 108, 109, 110, 111, 112, 113, 114, 115, 116, 117, 118, 119, 120, 121, 122, 123, 124, 125, 126, 127, 128, 129, 130, 131, 132, 133, 134, 135, 136, 137, 138, 139, 140, 141, 142, 143, 144, 145, 146, 147, 148, 149, 150, 151, 152, 153, 154, 155, 156, 157, 158, 159, 160, 161, 162, 163, 164, 165, 166, 167, 168, 169, 170, 171, 172, 173, 174, 175, 176, 177, 178, 179, 180, 181, 182, 183, 184, 185, 186, 187, 188, 189, 190, 191, 192, 193, 194, 195, 196, 197, 198, 199, 200],
      "LargestImagePixelValue": [2338, 2339, 2341, 2340, 2342, 2341, 2342, 2341, 2342, 2341, 2343, 2342, 2341, 2341, 2340, 2342, 2343, 2342, 2340, 2338, 2340, 2344, 2343, 2339, 2337, 2338, 2340, 2341, 2341, 2342, 2342, 2341, 2339, 2340, 2338, 2340, 2340, 2342, 2344, 2341, 2339, 2342, 2343, 2342, 2342, 2343, 2339, 2336, 2333, 2334, 2337, 2343, 2347, 2347, 2343, 2339, 2338, 2337, 2339, 2339, 2336, 2334, 2336, 2337, 2338, 2338, 2337, 2339, 2339, 2342, 2343, 2338, 2331, 2331, 2334, 2336, 2340, 2338, 2337, 2336, 2337, 2337, 2337, 2335, 2335, 2338, 2342, 2343, 2339, 2335, 2335, 2339, 2344, 2345, 2345, 2340, 2341, 2345, 2342, 2341, 2339, 2339, 2342, 2341, 2341, 2340, 2339, 2342, 2341, 2342, 2343, 2341, 2341, 2334, 2334, 2334, 2336, 2337, 2341, 2337, 2337, 2335, 2338, 2337, 2338, 2340, 2340, 2339, 2338, 2340, 2340, 2340, 2343, 2344, 2342, 2343, 2339, 2341, 2338, 2340, 2339, 2341, 2341, 2339, 2342, 2341, 2338, 2338, 2337, 2339, 2339, 2341, 2341, 2339, 2340, 2341, 2342, 2341, 2342, 2339, 2338, 2338, 2339, 2341, 2342, 2340, 2335, 2333, 2335, 2342, 2343, 2342, 2340, 2339, 2341, 2340, 2341, 2346, 2344, 2342, 2335, 2336, 2339, 2343, 2344, 2340, 2337, 2339, 2343, 2340, 2340, 2338, 2337, 2340, 2341, 2344, 2344, 2338, 2337, 2340],
      "WindowCenter": [1037.0, 1037.0, 1037.0, 1037.0, 1036.0, 1037.0, 1037.0, 1037.0, 1036.0, 1037.0, 1037.0, 1038.0, 1036.0, 1036.0, 1036.0, 1036.0, 1037.0, 1037.0, 1037.0, 1037.0, 1036.0, 1036.0, 1037.0, 1037.0, 1038.0, 1037.0, 1037.0, 1037.0, 1037.0, 1037.0, 1036.0, 1036.0, 1038.0, 1037.0, 1036.0, 1036.0, 1037.0, 1037.0, 1036.0, 1038.0, 1037.0, 1036.0, 1037.0, 1037.0, 1036.0, 1037.0, 1037.0, 1037.0, 1037.0, 1036.0, 1037.0, 1037.0, 1037.0, 1035.0, 1037.0, 1037.0, 1037.0, 1037.0, 1035.0, 1036.0, 1036.0, 1037.0, 1037.0, 1036.0, 1036.0, 1036.0, 1036.0, 1036.0, 1036.0, 1038.0, 1037.0, 1036.0, 1036.0, 1036.0, 1036.0, 1036.0, 1035.0, 1036.0, 1036.0, 1035.0, 1037.0, 1036.0, 1035.0, 1036.0, 1036.0, 1036.0, 1036.0, 1036.0, 1036.0, 1036.0, 1036.0, 1036.0, 1035.0, 1036.0, 1036.0, 1036.0, 1035.0, 1036.0, 1036.0, 1037.0, 1036.0, 1036.0, 1036.0, 1036.0, 1036.0, 1035.0, 1035.0, 1035.0, 1036.0, 1038.0, 1035.0, 1035.0, 1037.0, 1035.0, 1035.0, 1036.0, 1036.0, 1037.0, 1036.0, 1035.0, 1035.0, 1037.0, 1035.0, 1035.0, 1036.0, 1035.0, 1036.0, 1036.0, 1036.0, 1035.0, 1035.0, 1036.0, 1036.0, 1035.0, 1035.0, 1036.0, 1036.0, 1036.0, 1036.0, 1036.0, 1036.0, 1037.0, 1036.0, 1036.0, 1035.0, 1037.0, 1037.0, 1037.0, 1036.0, 1036.0, 1036.0, 1036.0, 1037.0, 1035.0, 1036.0, 1036.0, 1035.0, 1036.0, 1036.0, 1036.0, 1036.0, 1035.0, 1035.0, 1036.0, 1036.0, 1035.0, 1036.0, 1036.0, 1036.0, 1036.0, 1037.0, 1036.0, 1036.0, 1036.0, 1037.0, 1035.0, 1035.0, 1036.0, 1036.0, 1036.0, 1037.0, 1036.0, 1036.0, 1036.0, 1037.0, 1035.0, 1036.0, 1036.0, 1036.0, 1035.0, 1037.0, 1036.0, 1035.0, 1036.0, 1035.0, 1035.0, 1036.0, 1036.0, 1036.0, 1035.0],
      "WindowWidth": [2334.0, 2334.0, 2334.0, 2334.0, 2333.0, 2334.0, 2334.0, 2334.0, 2333.0, 2334.0, 2333.0, 2335.0, 2333.0, 2333.0, 2333.0, 2333.0, 2334.0, 2334.0, 2334.0, 2334.0, 2333.0, 2333.0, 2333.0, 2334.0, 2334.0, 2333.0, 2334.0, 2334.0, 2333.0, 2333.0, 2333.0, 2332.0, 2334.0, 2334.0, 2332.0, 2333.0, 2334.0, 2333.0, 2333.0, 2334.0, 2333.0, 2332.0, 2333.0, 2333.0, 2332.0, 2333.0, 2333.0, 2333.0, 2333.0, 2332.0, 2333.0, 2333.0, 2333.0, 2332.0, 2334.0, 2333.0, 2333.0, 2333.0, 2332.0, 2333.0, 2333.0, 2334.0, 2334.0, 2332.0, 2332.0, 2332.0, 2333.0, 2333.0, 2333.0, 2334.0, 2333.0, 2333.0, 2333.0, 2333.0, 2333.0, 2333.0, 2332.0, 2333.0, 2333.0, 2332.0, 2334.0, 2333.0, 2332.0, 2333.0, 2333.0, 2333.0, 2333.0, 2333.0, 2333.0, 2333.0, 2333.0, 2333.0, 2332.0, 2333.0, 2333.0, 2333.0, 2332.0, 2333.0, 2333.0, 2333.0, 2333.0, 2333.0, 2333.0, 2333.0, 2333.0, 2332.0, 2332.0, 2332.0, 2333.0, 2334.0, 2332.0, 2332.0, 2333.0, 2332.0, 2332.0, 2333.0, 2332.0, 2333.0, 2333.0, 2332.0, 2332.0, 2333.0, 2332.0, 2332.0, 2333.0, 2332.0, 2333.0, 2332.0, 2332.0, 2332.0, 2332.0, 2332.0, 2332.0, 2332.0, 2332.0, 2332.0, 2332.0, 2332.0, 2332.0, 2332.0, 2332.0, 2333.0, 2332.0, 2332.0, 2332.0, 2333.0, 2333.0, 2332.0, 2332.0, 2332.0, 2332.0, 2332.0, 2333.0, 2332.0, 2332.0, 2332.0, 2331.0, 2332.0, 2332.0, 2332.0, 2332.0, 2331.0, 2331.0, 2332.0, 2332.0, 2331.0, 2332.0, 2332.0, 2332.0, 2332.0, 2332.0, 2332.0, 2332.0, 2332.0, 2332.0, 2331.0, 2331.0, 2332.0, 2332.0, 2332.0, 2332.0, 2332.0, 2332.0, 2332.0, 2332.0, 2331.0, 2332.0, 2332.0, 2332.0, 2331.0, 2332.0, 2332.0, 2331.0, 2332.0, 2331.0, 2331.0, 2331.0, 2331.0, 2331.0, 2331.0]
    },
    "slices": {}
  }
}