{
  "AcquisitionMatrixPE": 122,
  "AcquisitionNumber": 1,
  "AcquisitionTime": "10:21:22.462500",
  "BandwidthPerPixelPhaseEncode": 27.785,
  "BaseResolution": 122,
  "BodyPartExamined": "BRAIN",
  "CoilCombinationMethod": "Adaptive Combine",
  "ConsistencyInfo": "N4_VE11C_LATEST_20160120",
  "ConversionSoftware": "dcm2niix",
  "ConversionSoftwareVersion": "v1.0.20220720",
  "DerivedVendorReportedEchoSpacing": 0.000590011,
  "DeviceSerialNumber": "66112",
  "DiffusionScheme": "Monopolar",
  "DwellTime": 2e-06,
  "EchoTime": 0.068,
  "EchoTrainLength": 61,
  "EffectiveEchoSpacing": 0.000295005,
  "FlipAngle": 90,
  "HeudiconvVersion": "0.13.1",
  "ImageOrientationPatientDICOM": [0.999568, 0.00902922, -0.027961, 0.00122124, 0.938024, 0.346567],
  "ImageOrientationText": "Tra>Cor(20.3)>Sag(-1.7)",
  "ImageType": [
    "ORIGINAL",
    "PRIMARY",
    "DIFFUSION",
    "NONE",
    "ND",
    "NORM"
],
  "ImagingFrequency": 123.252,
  "InPlanePhaseEncodingDirectionDICOM": "COL",
  "InstitutionAddress": "Maynard 3,Hanover,NH,US,03755",
  "InstitutionName": "Dartmouth College - PBS",
  "InstitutionalDepartmentName": "Department",
  "MRAcquisitionType": "2D",
  "MagneticFieldStrength": 3,
  "Manufacturer": "Siemens",
  "ManufacturersModelName": "Prisma",
  "Modality": "MR",
  "MultibandAccelerationFactor": 4,
  "NonlinearGradientCorrection": false,
  "ParallelReductionFactorInPlane": 2,
  "PartialFourier": 1,
  "PatientPosition": "HFS",
  "PercentPhaseFOV": 100,
  "PercentSampling": 100,
  "PhaseEncodingDirection": "j-",
  "PhaseEncodingSteps": 122,
  "PhaseResolution": 1,
  "PixelBandwidth": 2050,
  "ProcedureStepDescription": "dbic^QA",
  "ProtocolName": "dwi_acq-DTI-30-p2-s4",
  "PulseSequenceDetails": "%SiemensSeq%\\ep2d_diff",
  "ReceiveCoilActiveElements": "HEA;HEP",
  "ReceiveCoilName": "Head_32",
  "ReconMatrixPE": 122,
  "RefLinesPE": 38,
  "RepetitionTime": 3.6,
  "SAR": 0.137401,
  "ScanOptions": "FS",
  "ScanningSequence": "EP",
  "SequenceName": "*ep_b0",
  "SequenceVariant": "SK\\SP",
  "SeriesDescription": "dwi_acq-DTI-30-p2-s4",
  "SeriesNumber": 13,
  "ShimSetting": [4145, -7704, -7521, 248, -91, -56, -23, 67],
  "SliceThickness": 2,
  "SliceTiming": [2.58594, 0, 1.78906, 0.20312, 1.99219, 0.39844, 2.1875, 0.59375, 2.39062, 0.99219, 2.78125, 1.19531, 2.98438, 1.39062, 3.17969, 1.59375, 3.38281, 0.79688, 2.58594, 0, 1.78906, 0.20312, 1.99219, 0.39844, 2.1875, 0.59375, 2.39062, 0.99219, 2.78125, 1.19531, 2.98438, 1.39062, 3.17969, 1.59375, 3.38281, 0.79688, 2.58594, 0, 1.78906, 0.20312, 1.99219, 0.39844, 2.1875, 0.59375, 2.39062, 0.99219, 2.78125, 1.19531, 2.98438, 1.39062, 3.17969, 1.59375, 3.38281, 0.79688, 2.58594, 0, 1.78906, 0.20312, 1.99219, 0.39844, 2.1875, 0.59375, 2.39062, 0.99219, 2.78125, 1.19531, 2.98438, 1.39062, 3.17969, 1.59375, 3.38281, 0.79688],
  "SoftwareVersions": "syngo MR E11",
  "SpacingBetweenSlices": 2,
  "SpoilingState": true,
  "StationName": "AWP66112",
  "TotalReadoutTime": 0.0356956,
  "TxRefAmp": 221.501,
  "dcmmeta_affine": [
    [-1.966363787651062, 0.002402443205937743, -0.05871462821960449, 122.02345275878906],
    [-0.017762407660484314, 1.8452939987182617, 0.6929035186767578, -128.52972412109375],
    [-0.05500517413020134, -0.6817711591720581, 1.875213623046875, -24.831937789916992],
    [0.0, 0.0, 0.0, 1.0]
],
  "dcmmeta_reorient_transform": [
    [0.0, -1.0, 0.0, 121.0],
    [1.0, 0.0, 0.0, 0.0],
    [0.0, 0.0, -1.0, 71.0],
    [0.0, 0.0, 0.0, 1.0]
],
  "dcmmeta_shape": [122, 122, 72, 31],
  "dcmmeta_slice_dim": 2,
  "dcmmeta_version": 0.6,
  "global": {
    "const": {
      "AccessionNumber": "qa",
      "AcquisitionMatrix": [122, 0, 0, 122],
      "AngioFlag": "N",
      "BitsAllocated": 16,
      "BitsStored": 12,
      "BodyPartExamined": "BRAIN",
      "Columns": 122,
      "EchoNumbers": 1,
      "EchoTime": 68.0,
      "EchoTrainLength": 61,
      "FlipAngle": 90.0,
      "HighBit": 11,
      "ImageOrientationPatient": [0.99956823561303, 0.00902922344773, -0.0279609634558, 0.00122124197866, 0.93802443027777, 0.34656698742104],
      "ImageType": [
        "ORIGINAL",
        "PRIMARY",
        "DIFFUSION",
        "NONE",
        "ND",
        "NORM"
],
      "ImagedNucleus": "1H",
      "ImagingFrequency": 123.252359,
      "InPlanePhaseEncodingDirection": "COL",
      "MRAcquisitionType": "2D",
      "MagneticFieldStrength": 3.0,
      "Manufacturer": "SIEMENS",
      "ManufacturerModelName": "Prisma",
      "Modality": "MR",
      "NumberOfAverages": 1.0,
      "NumberOfPhaseEncodingSteps": 122,
      "PercentPhaseFieldOfView": 100.0,
      "PercentSampling": 100.0,
      "PerformedProcedureStepStartTime": "093922.708000",
      "PhotometricInterpretation": "MONOCHROME2",
      "PixelBandwidth": 2050.0,
      "PixelRepresentation": 0,
      "PixelSpacing": [1.9672131538391, 1.9672131538391],
      "ProtocolName": "dwi_acq-DTI-30-p2-s4",
      "RepetitionTime": 3600.0,
      "Rows": 122,
      "SAR": 0.13740100417571,
      "SamplesPerPixel": 1,
      "ScanOptions": "FS",
      "ScanningSequence": "EP",
      "SequenceVariant": [
        "SK",
        "SP"
],
      "SeriesDescription": "dwi_acq-DTI-30-p2-s4",
      "SeriesNumber": 13,
      "SeriesTime": "102129.930000",
      "SliceThickness": 2.0,
      "SmallestImagePixelValue": 0,
      "SoftwareVersions": "syngo MR E11",
      "SpacingBetweenSlices": 2.0,
      "SpecificCharacterSet": "ISO_IR 100",
      "StudyID": "14",
      "StudyTime": "093922.664000",
      "TransmitCoilName": "Body",
      "VariableFlipAngleFlag": "N",
      "WindowCenterWidthExplanation": "Algo1",
      "dBdt": 0.0},
    "slices": {
      "AcquisitionTime": ["102122.462500", "102119.877500", "102121.667500", "102120.075000", "102121.865000", "102120.275000", "102122.065000", "102120.472500", "102122.262500", "102120.870000", "102122.660000", "102121.070000", "102122.860000", "102121.267500", "102123.057500", "102121.467500", "102123.257500", "102120.672500", "102122.462500", "102119.877500", "102121.667500", "102120.075000", "102121.865000", "102120.275000", "102122.065000", "102120.472500", "102122.262500", "102120.870000", "102122.660000", "102121.070000", "102122.860000", "102121.267500", "102123.057500", "102121.467500", "102123.257500", "102120.672500", "102122.462500", "102119.877500", "102121.667500", "102120.075000", "102121.865000", "102120.275000", "102122.065000", "102120.472500", "102122.262500", "102120.870000", "102122.660000", "102121.070000", "102122.860000", "102121.267500", "102123.057500", "102121.467500", "102123.257500", "102120.672500", "102122.462500", "102119.877500", "102121.667500", "102120.075000", "102121.865000", "102120.275000", "102122.065000", "102120.472500", "102122.262500", "102120.870000", "102122.660000", "102121.070000", "102122.860000", "102121.267500", "102123.057500", "102121.467500", "102123.257500", "102120.672500", "102126.062500", "102123.477500", "102125.267500", "102123.675000", "102125.465000", "102123.875000", "102125.665000", "102124.072500", "102125.862500", "102124.470000", "102126.260000", "102124.670000", "102126.460000", "102124.867500", "102126.657500", "102125.067500", "102126.857500", "102124.272500", "102126.062500", "102123.477500", "102125.267500", "102123.675000", "102125.465000", "102123.875000", "102125.665000", "102124.072500", "102125.862500", "102124.470000", "102126.260000", "102124.670000", "102126.460000", "102124.867500", "102126.657500", "102125.067500", "102126.857500", "102124.272500", "102126.062500", "102123.477500", "102125.267500", "102123.675000", "102125.465000", "102123.875000", "102125.665000", "102124.072500", "102125.862500", "102124.470000", "102126.260000", "102124.670000", "102126.460000", "102124.867500", "102126.657500", "102125.067500", "102126.857500", "102124.272500", "102126.062500", "102123.477500", "102125.267500", "102123.675000", "102125.465000", "102123.875000", "102125.665000", "102124.072500", "102125.862500", "102124.470000", "102126.260000", "102124.670000", "102126.460000", "102124.867500", "102126.657500", "102125.067500", "102126.857500", "102124.272500", "102129.662500", "102127.077500", "102128.867500", "102127.275000", "102129.065000", "102127.475000", "102129.265000", "102127.672500", "102129.462500", "102128.070000", "102129.860000", "102128.270000", "102130.060000", "102128.467500", "102130.257500", "102128.667500", "102130.457500", "102127.872500", "102129.662500", "102127.077500", "102128.867500", "102127.275000", "102129.065000", "102127.475000", "102129.265000", "102127.672500", "102129.462500", "102128.070000", "102129.860000", "102128.270000", "102130.060000", "102128.467500", "102130.257500", "102128.667500", "102130.457500", "102127.872500", "102129.662500", "102127.077500", "102128.867500", "102127.275000", "102129.065000", "102127.475000", "102129.265000", "102127.672500", "102129.462500", "102128.070000", "102129.860000", "102128.270000", "102130.060000", "102128.467500", "102130.257500", "102128.667500", "102130.457500", "102127.872500", "102129.662500", "102127.077500", "102128.867500", "102127.275000", "102129.065000", "102127.475000", "102129.265000", "102127.672500", "102129.462500", "102128.070000", "102129.860000", "102128.270000", "102130.060000", "102128.467500", "102130.257500", "102128.667500", "102130.457500", "102127.872500", "102133.262500", "102130.677500", "102132.467500", "102130.875000", "102132.665000", "102131.075000", "102132.865000", "102131.272500", "102133.062500", "102131.670000", "102133.460000", "102131.870000", "102133.660000", "102132.067500", "102133.857500", "102132.267500", "102134.057500", "102131.472500", "102133.262500", "102130.677500", "102132.467500", "102130.875000", "102132.665000", "102131.075000", "102132.865000", "102131.272500", "102133.062500", "102131.670000", "102133.460000", "102131.870000", "102133.660000", "102132.067500", "102133.857500", "102132.267500", "102134.057500", "102131.472500", "102133.262500", "102130.677500", "102132.467500", "102130.875000", "102132.665000", "102131.075000", "102132.865000", "102131.272500", "102133.062500", "102131.670000", "102133.460000", "102131.870000", "102133.660000", "102132.067500", "102133.857500", "102132.267500", "102134.057500", "102131.472500", "102133.262500", "102130.677500", "102132.467500", "102130.875000", "102132.665000", "102131.075000", "102132.865000", "102131.272500", "102133.062500", "102131.670000", "102133.460000", "102131.870000", "102133.660000", "102132.067500", "102133.857500", "102132.267500", "102134.057500", "102131.472500", "102136.862500", "102134.277500", "102136.067500", "102134.475000", "102136.265000", "102134.675000", "102136.465000", "102134.872500", "102136.662500", "102135.270000", "102137.060000", "102135.470000", "102137.260000", "102135.667500", "102137.457500", "102135.867500", "102137.657500", "102135.072500", "102136.862500", "102134.277500", "102136.067500", "102134.475000", "102136.265000", "102134.675000", "102136.465000", "102134.872500", "102136.662500", "102135.270000", "102137.060000", "102135.470000", "102137.260000", "102135.667500", "102137.457500", "102135.867500", "102137.657500", "102135.072500", "102136.862500", "102134.277500", "102136.067500", "102134.475000", "102136.265000", "102134.675000", "102136.465000", "102134.872500", "102136.662500", "102135.270000", "102137.060000", "102135.470000", "102137.260000", "102135.667500", "102137.457500", "102135.867500", "102137.657500", "102135.072500", "102136.862500", "102134.277500", "102136.067500", "102134.475000", "102136.265000", "102134.675000", "102136.465000", "102134.872500", "102136.662500", "102135.270000", "102137.060000", "102135.470000", "102137.260000", "102135.667500", "102137.457500", "102135.867500", "102137.657500", "102135.072500", "102140.462500", "102137.877500", "102139.667500", "102138.075000", "102139.865000", "102138.275000", "102140.065000", "102138.472500", "102140.262500", "102138.870000", "102140.660000", "102139.070000", "102140.860000", "102139.267500", "102141.057500", "102139.467500", "102141.257500", "102138.672500", "102140.462500", "102137.877500", "102139.667500", "102138.075000", "102139.865000", "102138.275000", "102140.065000", "102138.472500", "102140.262500", "102138.870000", "102140.660000", "102139.070000", "102140.860000", "102139.267500", "102141.057500", "102139.467500", "102141.257500", "102138.672500", "102140.462500", "102137.877500", "102139.667500", "102138.075000", "102139.865000", "102138.275000", "102140.065000", "102138.472500", "102140.262500", "102138.870000", "102140.660000", "102139.070000", "102140.860000", "102139.267500", "102141.057500", "102139.467500", "102141.257500", "102138.672500", "102140.462500", "102137.877500", "102139.667500", "102138.075000", "102139.865000", "102138.275000", "102140.065000", "102138.472500", "102140.262500", "102138.870000", "102140.660000", "102139.070000", "102140.860000", "102139.267500", "102141.057500", "102139.467500", "102141.257500", "102138.672500", "102144.062500", "102141.477500", "102143.267500", "102141.675000", "102143.465000", "102141.875000", "102143.665000", "102142.072500", "102143.862500", "102142.470000", "102144.260000", "102142.670000", "102144.460000", "102142.867500", "102144.657500", "102143.067500", "102144.857500", "102142.272500", "102144.062500", "102141.477500", "102143.267500", "102141.675000", "102143.465000", "102141.875000", "102143.665000", "102142.072500", "102143.862500", "102142.470000", "102144.260000", "102142.670000", "102144.460000", "102142.867500", "102144.657500", "102143.067500", "102144.857500", "102142.272500", "102144.062500", "102141.477500", "102143.267500", "102141.675000", "102143.465000", "102141.875000", "102143.665000", "102142.072500", "102143.862500", "102142.470000", "102144.260000", "102142.670000", "102144.460000", "102142.867500", "102144.657500", "102143.067500", "102144.857500", "102142.272500", "102144.062500", "102141.477500", "102143.267500", "102141.675000", "102143.465000", "102141.875000", "102143.665000", "102142.072500", "102143.862500", "102142.470000", "102144.260000", "102142.670000", "102144.460000", "102142.867500", "102144.657500", "102143.067500", "102144.857500", "102142.272500", "102147.662500", "102145.077500", "102146.867500", "102145.275000", "102147.065000", "102145.475000", "102147.265000", "102145.672500", "102147.462500", "102146.070000", "102147.860000", "102146.270000", "102148.060000", "102146.467500", "102148.257500", "102146.667500", "102148.457500", "102145.872500", "102147.662500", "102145.077500", "102146.867500", "102145.275000", "102147.065000", "102145.475000", "102147.265000", "102145.672500", "102147.462500", "102146.070000", "102147.860000", "102146.270000", "102148.060000", "102146.467500", "102148.257500", "102146.667500", "102148.457500", "102145.872500", "102147.662500", "102145.077500", "102146.867500", "102145.275000", "102147.065000", "102145.475000", "102147.265000", "102145.672500", "102147.462500", "102146.070000", "102147.860000", "102146.270000", "102148.060000", "102146.467500", "102148.257500", "102146.667500", "102148.457500", "102145.872500", "102147.662500", "102145.077500", "102146.867500", "102145.275000", "102147.065000", "102145.475000", "102147.265000", "102145.672500", "102147.462500", "102146.070000", "102147.860000", "102146.270000", "102148.060000", "102146.467500", "102148.257500", "102146.667500", "102148.457500", "102145.872500", "102151.262500", "102148.677500", "102150.467500", "102148.875000", "102150.665000", "102149.075000", "102150.865000", "102149.272500", "102151.062500", "102149.670000", "102151.460000", "102149.870000", "102151.660000", "102150.067500", "102151.857500", "102150.267500", "102152.057500", "102149.472500", "102151.262500", "102148.677500", "102150.467500", "102148.875000", "102150.665000", "102149.075000", "102150.865000", "102149.272500", "102151.062500", "102149.670000", "102151.460000", "102149.870000", "102151.660000", "102150.067500", "102151.857500", "102150.267500", "102152.057500", "102149.472500", "102151.262500", "102148.677500", "102150.467500", "102148.875000", "102150.665000", "102149.075000", "102150.865000", "102149.272500", "102151.062500", "102149.670000", "102151.460000", "102149.870000", "102151.660000", "102150.067500", "102151.857500", "102150.267500", "102152.057500", "102149.472500", "102151.262500", "102148.677500", "102150.467500", "102148.875000", "102150.665000", "102149.075000", "102150.865000", "102149.272500", "102151.062500", "102149.670000", "102151.460000", "102149.870000", "102151.660000", "102150.067500", "102151.857500", "102150.267500", "102152.057500", "102149.472500", "102154.862500", "102152.277500", "102154.067500", "102152.475000", "102154.265000", "102152.675000", "102154.465000", "102152.872500", "102154.662500", "102153.270000", "102155.060000", "102153.470000", "102155.260000", "102153.667500", "102155.457500", "102153.867500", "102155.657500", "102153.072500", "102154.862500", "102152.277500", "102154.067500", "102152.475000", "102154.265000", "102152.675000", "102154.465000", "102152.872500", "102154.662500", "102153.270000", "102155.060000", "102153.470000", "102155.260000", "102153.667500", "102155.457500", "102153.867500", "102155.657500", "102153.072500", "102154.862500", "102152.277500", "102154.067500", "102152.475000", "102154.265000", "102152.675000", "102154.465000", "102152.872500", "102154.662500", "102153.270000", "102155.060000", "102153.470000", "102155.260000", "102153.667500", "102155.457500", "102153.867500", "102155.657500", "102153.072500", "102154.862500", "102152.277500", "102154.067500", "102152.475000", "102154.265000", "102152.675000", "102154.465000", "102152.872500", "102154.662500", "102153.270000", "102155.060000", "102153.470000", "102155.260000", "102153.667500", "102155.457500", "102153.867500", "102155.657500", "102153.072500", "102158.462500", "102155.877500", "102157.667500", "102156.075000", "102157.865000", "102156.275000", "102158.065000", "102156.472500", "102158.262500", "102156.870000", "102158.660000", "102157.070000", "102158.860000", "102157.267500", "102159.057500", "102157.467500", "102159.257500", "102156.672500", "102158.462500", "102155.877500", "102157.667500", "102156.075000", "102157.865000", "102156.275000", "102158.065000", "102156.472500", "102158.262500", "102156.870000", "102158.660000", "102157.070000", "102158.860000", "102157.267500", "102159.057500", "102157.467500", "102159.257500", "102156.672500", "102158.462500", "102155.877500", "102157.667500", "102156.075000", "102157.865000", "102156.275000", "102158.065000", "102156.472500", "102158.262500", "102156.870000", "102158.660000", "102157.070000", "102158.860000", "102157.267500", "102159.057500", "102157.467500", "102159.257500", "102156.672500", "102158.462500", "102155.877500", "102157.667500", "102156.075000", "102157.865000", "102156.275000", "102158.065000", "102156.472500", "102158.262500", "102156.870000", "102158.660000", "102157.070000", "102158.860000", "102157.267500", "102159.057500", "102157.467500", "102159.257500", "102156.672500", "102202.062500", "102159.477500", "102201.267500", "102159.675000", "102201.465000", "102159.875000", "102201.665000", "102200.072500", "102201.862500", "102200.470000", "102202.260000", "102200.670000", "102202.460000", "102200.867500", "102202.657500", "102201.067500", "102202.857500", "102200.272500", "102202.062500", "102159.477500", "102201.267500", "102159.675000", "102201.465000", "102159.875000", "102201.665000", "102200.072500", "102201.862500", "102200.470000", "102202.260000", "102200.670000", "102202.460000", "102200.867500", "102202.657500", "102201.067500", "102202.857500", "102200.272500", "102202.062500", "102159.477500", "102201.267500", "102159.675000", "102201.465000", "102159.875000", "102201.665000", "102200.072500", "102201.862500", "102200.470000", "102202.260000", "102200.670000", "102202.460000", "102200.867500", "102202.657500", "102201.067500", "102202.857500", "102200.272500", "102202.062500", "102159.477500", "102201.267500", "102159.675000", "102201.465000", "102159.875000", "102201.665000", "102200.072500", "102201.862500", "102200.470000", "102202.260000", "102200.670000", "102202.460000", "102200.867500", "102202.657500", "102201.067500", "102202.857500", "102200.272500", "102205.662500", "102203.077500", "102204.867500", "102203.275000", "102205.065000", "102203.475000", "102205.265000", "102203.672500", "102205.462500", "102204.070000", "102205.860000", "102204.270000", "102206.060000", "102204.467500", "102206.257500", "102204.667500", "102206.457500", "102203.872500", "102205.662500", "102203.077500", "102204.867500", "102203.275000", "102205.065000", "102203.475000", "102205.265000", "102203.672500", "102205.462500", "102204.070000", "102205.860000", "102204.270000", "102206.060000", "102204.467500", "102206.257500", "102204.667500", "102206.457500", "102203.872500", "102205.662500", "102203.077500", "102204.867500", "102203.275000", "102205.065000", "102203.475000", "102205.265000", "102203.672500", "102205.462500", "102204.070000", "102205.860000", "102204.270000", "102206.060000", "102204.467500", "102206.257500", "102204.667500", "102206.457500", "102203.872500", "102205.662500", "102203.077500", "102204.867500", "102203.275000", "102205.065000", "102203.475000", "102205.265000", "102203.672500", "102205.462500", "102204.070000", "102205.860000", "102204.270000", "102206.060000", "102204.467500", "102206.257500", "102204.667500", "102206.457500", "102203.872500", "102209.262500", "102206.677500", "102208.467500", "102206.875000", "102208.665000", "102207.075000", "102208.865000", "102207.272500", "102209.062500", "102207.670000", "102209.460000", "102207.870000", "102209.660000", "102208.067500", "102209.857500", "102208.267500", "102210.057500", "102207.472500", "102209.262500", "102206.677500", "102208.467500", "102206.875000", "102208.665000", "102207.075000", "102208.865000", "102207.272500", "102209.062500", "102207.670000", "102209.460000", "102207.870000", "102209.660000", "102208.067500", "102209.857500", "102208.267500", "102210.057500", "102207.472500", "102209.262500", "102206.677500", "102208.467500", "102206.875000", "102208.665000", "102207.075000", "102208.865000", "102207.272500", "102209.062500", "102207.670000", "102209.460000", "102207.870000", "102209.660000", "102208.067500", "102209.857500", "102208.267500", "102210.057500", "102207.472500", "102209.262500", "102206.677500", "102208.467500", "102206.875000", "102208.665000", "102207.075000", "102208.865000", "102207.272500", "102209.062500", "102207.670000", "102209.460000", "102207.870000", "102209.660000", "102208.067500", "102209.857500", "102208.267500", "102210.057500", "102207.472500", "102212.862500", "102210.277500", "102212.067500", "102210.475000", "102212.265000", "102210.675000", "102212.465000", "102210.872500", "102212.662500", "102211.270000", "102213.060000", "102211.470000", "102213.260000", "102211.667500", "102213.457500", "102211.867500", "102213.657500", "102211.072500", "102212.862500", "102210.277500", "102212.067500", "102210.475000", "102212.265000", "102210.675000", "102212.465000", "102210.872500", "102212.662500", "102211.270000", "102213.060000", "102211.470000", "102213.260000", "102211.667500", "102213.457500", "102211.867500", "102213.657500", "102211.072500", "102212.862500", "102210.277500", "102212.067500", "102210.475000", "102212.265000", "102210.675000", "102212.465000", "102210.872500", "102212.662500", "102211.270000", "102213.060000", "102211.470000", "102213.260000", "102211.667500", "102213.457500", "102211.867500", "102213.657500", "102211.072500", "102212.862500", "102210.277500", "102212.067500", "102210.475000", "102212.265000", "102210.675000", "102212.465000", "102210.872500", "102212.662500", "102211.270000", "102213.060000", "102211.470000", "102213.260000", "102211.667500", "102213.457500", "102211.867500", "102213.657500", "102211.072500", "102216.462500", "102213.877500", "102215.667500", "102214.075000", "102215.865000", "102214.275000", "102216.065000", "102214.472500", "102216.262500", "102214.870000", "102216.660000", "102215.070000", "102216.860000", "102215.267500", "102217.057500", "102215.467500", "102217.257500", "102214.672500", "102216.462500", "102213.877500", "102215.667500", "102214.075000", "102215.865000", "102214.275000", "102216.065000", "102214.472500", "102216.262500", "102214.870000", "102216.660000", "102215.070000", "102216.860000", "102215.267500", "102217.057500", "102215.467500", "102217.257500", "102214.672500", "102216.462500", "102213.877500", "102215.667500", "102214.075000", "102215.865000", "102214.275000", "102216.065000", "102214.472500", "102216.262500", "102214.870000", "102216.660000", "102215.070000", "102216.860000", "102215.267500", "102217.057500", "102215.467500", "102217.257500", "102214.672500", "102216.462500", "102213.877500", "102215.667500", "102214.075000", "102215.865000", "102214.275000", "102216.065000", "102214.472500", "102216.262500", "102214.870000", "102216.660000", "102215.070000", "102216.860000", "102215.267500", "102217.057500", "102215.467500", "102217.257500", "102214.672500", "102220.062500", "102217.477500", "102219.267500", "102217.675000", "102219.465000", "102217.875000", "102219.665000", "102218.072500", "102219.862500", "102218.470000", "102220.260000", "102218.670000", "102220.460000", "102218.867500", "102220.657500", "102219.067500", "102220.857500", "102218.272500", "102220.062500", "102217.477500", "102219.267500", "102217.675000", "102219.465000", "102217.875000", "102219.665000", "102218.072500", "102219.862500", "102218.470000", "102220.260000", "102218.670000", "102220.460000", "102218.867500", "102220.657500", "102219.067500", "102220.857500", "102218.272500", "102220.062500", "102217.477500", "102219.267500", "102217.675000", "102219.465000", "102217.875000", "102219.665000", "102218.072500", "102219.862500", "102218.470000", "102220.260000", "102218.670000", "102220.460000", "102218.867500", "102220.657500", "102219.067500", "102220.857500", "102218.272500", "102220.062500", "102217.477500", "102219.267500", "102217.675000", "102219.465000", "102217.875000", "102219.665000", "102218.072500", "102219.862500", "102218.470000", "102220.260000", "102218.670000", "102220.460000", "102218.867500", "102220.657500", "102219.067500", "102220.857500", "102218.272500", "102223.662500", "102221.077500", "102222.867500", "102221.275000", "102223.065000", "102221.475000", "102223.265000", "102221.672500", "102223.462500", "102222.070000", "102223.860000", "102222.270000", "102224.060000", "102222.467500", "102224.257500", "102222.667500", "102224.457500", "102221.872500", "102223.662500", "102221.077500", "102222.867500", "102221.275000", "102223.065000", "102221.475000", "102223.265000", "102221.672500", "102223.462500", "102222.070000", "102223.860000", "102222.270000", "102224.060000", "102222.467500", "102224.257500", "102222.667500", "102224.457500", "102221.872500", "102223.662500", "102221.077500", "102222.867500", "102221.275000", "102223.065000", "102221.475000", "102223.265000", "102221.672500", "102223.462500", "102222.070000", "102223.860000", "102222.270000", "102224.060000", "102222.467500", "102224.257500", "102222.667500", "102224.457500", "102221.872500", "102223.662500", "102221.077500", "102222.867500", "102221.275000", "102223.065000", "102221.475000", "102223.265000", "102221.672500", "102223.462500", "102222.070000", "102223.860000", "102222.270000", "102224.060000", "102222.467500", "102224.257500", "102222.667500", "102224.457500", "102221.872500", "102227.262500", "102224.677500", "102226.467500", "102224.875000", "102226.665000", "102225.075000", "102226.865000", "102225.272500", "102227.062500", "102225.670000", "102227.460000", "102225.870000", "102227.660000", "102226.067500", "102227.857500", "102226.267500", "102228.057500", "102225.472500", "102227.262500", "102224.677500", "102226.467500", "102224.875000", "102226.665000", "102225.075000", "102226.865000", "102225.272500", "102227.062500", "102225.670000", "102227.460000", "102225.870000", "102227.660000", "102226.067500", "102227.857500", "102226.267500", "102228.057500", "102225.472500", "102227.262500", "102224.677500", "102226.467500", "102224.875000", "102226.665000", "102225.075000", "102226.865000", "102225.272500", "102227.062500", "102225.670000", "102227.460000", "102225.870000", "102227.660000", "102226.067500", "102227.857500", "102226.267500", "102228.057500", "102225.472500", "102227.262500", "102224.677500", "102226.467500", "102224.875000", "102226.665000", "102225.075000", "102226.865000", "102225.272500", "102227.062500", "102225.670000", "102227.460000", "102225.870000", "102227.660000", "102226.067500", "102227.857500", "102226.267500", "102228.057500", "102225.472500", "102230.862500", "102228.277500", "102230.067500", "102228.475000", "102230.265000", "102228.675000", "102230.465000", "102228.872500", "102230.662500", "102229.270000", "102231.060000", "102229.470000", "102231.260000", "102229.667500", "102231.457500", "102229.867500", "102231.657500", "102229.072500", "102230.862500", "102228.277500", "102230.067500", "102228.475000", "102230.265000", "102228.675000", "102230.465000", "102228.872500", "102230.662500", "102229.270000", "102231.060000", "102229.470000", "102231.260000", "102229.667500", "102231.457500", "102229.867500", "102231.657500", "102229.072500", "102230.862500", "102228.277500", "102230.067500", "102228.475000", "102230.265000", "102228.675000", "102230.465000", "102228.872500", "102230.662500", "102229.270000", "102231.060000", "102229.470000", "102231.260000", "102229.667500", "102231.457500", "102229.867500", "102231.657500", "102229.072500", "102230.862500", "102228.277500", "102230.067500", "102228.475000", "102230.265000", "102228.675000", "102230.465000", "102228.872500", "102230.662500", "102229.270000", "102231.0600