{
  "AcquisitionMatrixPE": 122,
  "AcquisitionNumber": 1,
  "AcquisitionTime": "10:17:0.192500",
  "BandwidthPerPixelPhaseEncode": 28.76,
  "BaseResolution": 122,
  "BodyPartExamined": "BRAIN",
  "CoilCombinationMethod": "Adaptive Combine",
  "ConsistencyInfo": "N4_VE11C_LATEST_20160120",
  "ConversionSoftware": "dcm2niix",
  "ConversionSoftwareVersion": "v1.0.20220720",
  "DerivedVendorReportedEchoSpacing": 0.000570008,
  "DeviceSerialNumber": "66112",
  "DiffusionScheme": "Monopolar",
  "DwellTime": 2e-06,
  "EchoTime": 0.075,
  "EchoTrainLength": 61,
  "EffectiveEchoSpacing": 0.000285004,
  "FlipAngle": 90,
  "HeudiconvVersion": "0.13.1",
  "ImageOrientationPatientDICOM": [0.999568, 0.00902922, -0.027961, 0.00122124, 0.938024, 0.346567],
  "ImageOrientationText": "Tra>Cor(20.3)>Sag(-1.7)",
  "ImageType": [
    "ORIGINAL",
    "PRIMARY",
    "DIFFUSION",
    "NONE",
    "ND",
    "NORM"
],
  "ImagingFrequency": 123.252,
  "InPlanePhaseEncodingDirectionDICOM": "COL",
  "InstitutionAddress": "Maynard 3,Hanover,NH,US,03755",
  "InstitutionName": "Dartmouth College - PBS",
  "InstitutionalDepartmentName": "Department",
  "MRAcquisitionType": "2D",
  "MagneticFieldStrength": 3,
  "Manufacturer": "Siemens",
  "ManufacturersModelName": "Prisma",
  "MatrixCoilMode": "GRAPPA",
  "Modality": "MR",
  "NonlinearGradientCorrection": false,
  "ParallelReductionFactorInPlane": 2,
  "PartialFourier": 1,
  "PatientPosition": "HFS",
  "PercentPhaseFOV": 100,
  "PercentSampling": 100,
  "PhaseEncodingDirection": "j-",
  "PhaseEncodingSteps": 122,
  "PhaseResolution": 1,
  "PixelBandwidth": 2050,
  "ProcedureStepDescription": "dbic^QA",
  "ProtocolName": "dwi_acq-DTI-30-p2",
  "PulseSequenceDetails": "%SiemensSeq%\\ep2d_diff",
  "ReceiveCoilActiveElements": "HEA;HEP",
  "ReceiveCoilName": "Head_32",
  "ReconMatrixPE": 122,
  "RefLinesPE": 38,
  "RepetitionTime": 7.7,
  "SAR": 0.0872861,
  "ScanOptions": "FS",
  "ScanningSequence": "EP",
  "SequenceName": "*ep_b0",
  "SequenceVariant": "SK\\SP",
  "SeriesDescription": "dwi_acq-DTI-30-p2",
  "SeriesNumber": 12,
  "ShimSetting": [4145, -7703, -7521, 246, -91, -53, -24, 67],
  "SliceThickness": 2,
  "SliceTiming": [3.84375, 0, 3.94531, 0.10938, 4.05469, 0.21875, 4.17188, 0.32812, 4.28125, 0.4375, 4.39062, 0.54688, 4.5, 0.65625, 4.60938, 0.76562, 4.71875, 0.875, 4.82812, 0.99219, 4.9375, 1.09375, 5.04688, 1.20312, 5.15625, 1.3125, 5.26562, 1.42969, 5.375, 1.53906, 5.48438, 1.64844, 5.59375, 1.75781, 5.70312, 1.86719, 5.8125, 1.97656, 5.92188, 2.08594, 6.03125, 2.19531, 6.14062, 2.30469, 6.25, 2.41406, 6.36719, 2.52344, 6.47656, 2.63281, 6.58594, 2.74219, 6.69531, 2.85156, 6.80469, 2.96094, 6.91406, 3.07031, 7.02344, 3.17969, 7.13281, 3.28906, 7.24219, 3.39844, 7.35156, 3.50781, 7.46094, 3.61719, 7.57031, 3.73438],
  "SoftwareVersions": "syngo MR E11",
  "SpacingBetweenSlices": 2,
  "SpoilingState": true,
  "StationName": "AWP66112",
  "TotalReadoutTime": 0.0344855,
  "TxRefAmp": 221.501,
  "dcmmeta_affine": [
    [-1.966363787651062, 0.002402443205937743, -0.05871462821960449, 121.96473693847656],
    [-0.017762407660484314, 1.8452939987182617, 0.6929035186767578, -127.8368148803711],
    [-0.05500517413020134, -0.6817711591720581, 1.8752174377441406, -22.956987380981445],
    [0.0, 0.0, 0.0, 1.0]
],
  "dcmmeta_reorient_transform": [
    [0.0, -1.0, 0.0, 121.0],
    [1.0, 0.0, 0.0, 0.0],
    [0.0, 0.0, -1.0, 69.0],
    [0.0, 0.0, 0.0, 1.0]
],
  "dcmmeta_shape": [122, 122, 70, 31],
  "dcmmeta_slice_dim": 2,
  "dcmmeta_version": 0.6,
  "global": {
    "const": {
      "AccessionNumber": "qa",
      "AcquisitionMatrix": [122, 0, 0, 122],
      "AngioFlag": "N",
      "BitsAllocated": 16,
      "BitsStored": 12,
      "BodyPartExamined": "BRAIN",
      "Columns": 122,
      "EchoNumbers": 1,
      "EchoTime": 75.0,
      "EchoTrainLength": 61,
      "FlipAngle": 90.0,
      "HighBit": 11,
      "ImageOrientationPatient": [0.99956823561303, 0.00902922344773, -0.0279609634558, 0.00122124197866, 0.93802443027777, 0.34656698742104],
      "ImageType": [
        "ORIGINAL",
        "PRIMARY",
        "DIFFUSION",
        "NONE",
        "ND",
        "NORM"
],
      "ImagedNucleus": "1H",
      "ImagingFrequency": 123.252357,
      "InPlanePhaseEncodingDirection": "COL",
      "MRAcquisitionType": "2D",
      "MagneticFieldStrength": 3.0,
      "Manufacturer": "SIEMENS",
      "ManufacturerModelName": "Prisma",
      "Modality": "MR",
      "NumberOfAverages": 1.0,
      "NumberOfPhaseEncodingSteps": 122,
      "PercentPhaseFieldOfView": 100.0,
      "PercentSampling": 100.0,
      "PerformedProcedureStepStartTime": "093922.708000",
      "PhotometricInterpretation": "MONOCHROME2",
      "PixelBandwidth": 2050.0,
      "PixelRepresentation": 0,
      "PixelSpacing": [1.9672131538391, 1.9672131538391],
      "ProtocolName": "dwi_acq-DTI-30-p2",
      "RepetitionTime": 7700.0,
      "Rows": 122,
      "SAR": 0.08728611194728,
      "SamplesPerPixel": 1,
      "ScanOptions": "FS",
      "ScanningSequence": "EP",
      "SequenceVariant": [
        "SK",
        "SP"
],
      "SeriesDescription": "dwi_acq-DTI-30-p2",
      "SeriesNumber": 12,
      "SeriesTime": "101709.860000",
      "SliceThickness": 2.0,
      "SmallestImagePixelValue": 0,
      "SoftwareVersions": "syngo MR E11",
      "SpacingBetweenSlices": 2.0,
      "SpecificCharacterSet": "ISO_IR 100",
      "StudyID": "14",
      "StudyTime": "093922.664000",
      "TransmitCoilName": "Body",
      "VariableFlipAngleFlag": "N",
      "WindowCenterWidthExplanation": "Algo1",
      "dBdt": 0.0},
    "slices": {
      "AcquisitionTime": ["101700.192500", "101656.352500", "101700.300000", "101656.460000", "101700.410000", "101656.570000", "101700.520000", "101656.680000", "101700.630000", "101656.790000", "101700.740000", "101656.900000", "101700.850000", "101657.010000", "101700.960000", "101657.120000", "101701.070000", "101657.230000", "101701.177500", "101657.340000", "101701.287500", "101657.447500", "101701.397500", "101657.557500", "101701.507500", "101657.667500", "101701.617500", "101657.777500", "101701.727500", "101657.887500", "101701.837500", "101657.997500", "101701.947500", "101658.107500", "101702.057500", "101658.217500", "101702.165000", "101658.327500", "101702.275000", "101658.435000", "101702.385000", "101658.545000", "101702.495000", "101658.655000", "101702.605000", "101658.765000", "101702.715000", "101658.875000", "101702.825000", "101658.985000", "101702.935000", "101659.095000", "101703.045000", "101659.205000", "101703.152500", "101659.312500", "101703.262500", "101659.422500", "101703.372500", "101659.532500", "101703.482500", "101659.642500", "101703.592500", "101659.752500", "101703.702500", "101659.862500", "101703.812500", "101659.972500", "101703.922500", "101700.082500", "101707.892500", "101704.052500", "101708.000000", "101704.160000", "101708.110000", "101704.270000", "101708.220000", "101704.380000", "101708.330000", "101704.490000", "101708.440000", "101704.600000", "101708.550000", "101704.710000", "101708.660000", "101704.820000", "101708.770000", "101704.930000", "101708.877500", "101705.040000", "101708.987500", "101705.147500", "101709.097500", "101705.257500", "101709.207500", "101705.367500", "101709.317500", "101705.477500", "101709.427500", "101705.587500", "101709.537500", "101705.697500", "101709.647500", "101705.807500", "101709.757500", "101705.917500", "101709.865000", "101706.027500", "101709.975000", "101706.135000", "101710.085000", "101706.245000", "101710.195000", "101706.355000", "101710.305000", "101706.465000", "101710.415000", "101706.575000", "101710.525000", "101706.685000", "101710.635000", "101706.795000", "101710.745000", "101706.905000", "101710.852500", "101707.012500", "101710.962500", "101707.122500", "101711.072500", "101707.232500", "101711.182500", "101707.342500", "101711.292500", "101707.452500", "101711.402500", "101707.562500", "101711.512500", "101707.672500", "101711.622500", "101707.782500", "101715.592500", "101711.752500", "101715.700000", "101711.860000", "101715.810000", "101711.970000", "101715.920000", "101712.080000", "101716.030000", "101712.190000", "101716.140000", "101712.300000", "101716.250000", "101712.410000", "101716.360000", "101712.520000", "101716.470000", "101712.630000", "101716.577500", "101712.740000", "101716.687500", "101712.847500", "101716.797500", "101712.957500", "101716.907500", "101713.067500", "101717.017500", "101713.177500", "101717.127500", "101713.287500", "101717.237500", "101713.397500", "101717.347500", "101713.507500", "101717.457500", "101713.617500", "101717.565000", "101713.727500", "101717.675000", "101713.835000", "101717.785000", "101713.945000", "101717.895000", "101714.055000", "101718.005000", "101714.165000", "101718.115000", "101714.275000", "101718.225000", "101714.385000", "101718.335000", "101714.495000", "101718.445000", "101714.605000", "101718.552500", "101714.712500", "101718.662500", "101714.822500", "101718.772500", "101714.932500", "101718.882500", "101715.042500", "101718.992500", "101715.152500", "101719.102500", "101715.262500", "101719.212500", "101715.372500", "101719.322500", "101715.482500", "101723.292500", "101719.452500", "101723.400000", "101719.560000", "101723.510000", "101719.670000", "101723.620000", "101719.780000", "101723.730000", "101719.890000", "101723.840000", "101720.000000", "101723.950000", "101720.110000", "101724.060000", "101720.220000", "101724.170000", "101720.330000", "101724.277500", "101720.440000", "101724.387500", "101720.547500", "101724.497500", "101720.657500", "101724.607500", "101720.767500", "101724.717500", "101720.877500", "101724.827500", "101720.987500", "101724.937500", "101721.097500", "101725.047500", "101721.207500", "101725.157500", "101721.317500", "101725.265000", "101721.427500", "101725.375000", "101721.535000", "101725.485000", "101721.645000", "101725.595000", "101721.755000", "101725.705000", "101721.865000", "101725.815000", "101721.975000", "101725.925000", "101722.085000", "101726.035000", "101722.195000", "101726.145000", "101722.305000", "101726.252500", "101722.412500", "101726.362500", "101722.522500", "101726.472500", "101722.632500", "101726.582500", "101722.742500", "101726.692500", "101722.852500", "101726.802500", "101722.962500", "101726.912500", "101723.072500", "101727.022500", "101723.182500", "101730.992500", "101727.152500", "101731.100000", "101727.260000", "101731.210000", "101727.370000", "101731.320000", "101727.480000", "101731.430000", "101727.590000", "101731.540000", "101727.700000", "101731.650000", "101727.810000", "101731.760000", "101727.920000", "101731.870000", "101728.030000", "101731.977500", "101728.140000", "101732.087500", "101728.247500", "101732.197500", "101728.357500", "101732.307500", "101728.467500", "101732.417500", "101728.577500", "101732.527500", "101728.687500", "101732.637500", "101728.797500", "101732.747500", "101728.907500", "101732.857500", "101729.017500", "101732.965000", "101729.127500", "101733.075000", "101729.235000", "101733.185000", "101729.345000", "101733.295000", "101729.455000", "101733.405000", "101729.565000", "101733.515000", "101729.675000", "101733.625000", "101729.785000", "101733.735000", "101729.895000", "101733.845000", "101730.005000", "101733.952500", "101730.112500", "101734.062500", "101730.222500", "101734.172500", "101730.332500", "101734.282500", "101730.442500", "101734.392500", "101730.552500", "101734.502500", "101730.662500", "101734.612500", "101730.772500", "101734.722500", "101730.882500", "101738.692500", "101734.852500", "101738.800000", "101734.960000", "101738.910000", "101735.070000", "101739.020000", "101735.180000", "101739.130000", "101735.290000", "101739.240000", "101735.400000", "101739.350000", "101735.510000", "101739.460000", "101735.620000", "101739.570000", "101735.730000", "101739.677500", "101735.840000", "101739.787500", "101735.947500", "101739.897500", "101736.057500", "101740.007500", "101736.167500", "101740.117500", "101736.277500", "101740.227500", "101736.387500", "101740.337500", "101736.497500", "101740.447500", "101736.607500", "101740.557500", "101736.717500", "101740.665000", "101736.827500", "101740.775000", "101736.935000", "101740.885000", "101737.045000", "101740.995000", "101737.155000", "101741.105000", "101737.265000", "101741.215000", "101737.375000", "101741.325000", "101737.485000", "101741.435000", "101737.595000", "101741.545000", "101737.705000", "101741.652500", "101737.812500", "101741.762500", "101737.922500", "101741.872500", "101738.032500", "101741.982500", "101738.142500", "101742.092500", "101738.252500", "101742.202500", "101738.362500", "101742.312500", "101738.472500", "101742.422500", "101738.582500", "101746.392500", "101742.552500", "101746.500000", "101742.660000", "101746.610000", "101742.770000", "101746.720000", "101742.880000", "101746.830000", "101742.990000", "101746.940000", "101743.100000", "101747.050000", "101743.210000", "101747.160000", "101743.320000", "101747.270000", "101743.430000", "101747.377500", "101743.540000", "101747.487500", "101743.647500", "101747.597500", "101743.757500", "101747.707500", "101743.867500", "101747.817500", "101743.977500", "101747.927500", "101744.087500", "101748.037500", "101744.197500", "101748.147500", "101744.307500", "101748.257500", "101744.417500", "101748.365000", "101744.527500", "101748.475000", "101744.635000", "101748.585000", "101744.745000", "101748.695000", "101744.855000", "101748.805000", "101744.965000", "101748.915000", "101745.075000", "101749.025000", "101745.185000", "101749.135000", "101745.295000", "101749.245000", "101745.405000", "101749.352500", "101745.512500", "101749.462500", "101745.622500", "101749.572500", "101745.732500", "101749.682500", "101745.842500", "101749.792500", "101745.952500", "101749.902500", "101746.062500", "101750.012500", "101746.172500", "101750.122500", "101746.282500", "101754.092500", "101750.252500", "101754.200000", "101750.360000", "101754.310000", "101750.470000", "101754.420000", "101750.580000", "101754.530000", "101750.690000", "101754.640000", "101750.800000", "101754.750000", "101750.910000", "101754.860000", "101751.020000", "101754.970000", "101751.130000", "101755.077500", "101751.240000", "101755.187500", "101751.347500", "101755.297500", "101751.457500", "101755.407500", "101751.567500", "101755.517500", "101751.677500", "101755.627500", "101751.787500", "101755.737500", "101751.897500", "101755.847500", "101752.007500", "101755.957500", "101752.117500", "101756.065000", "101752.227500", "101756.175000", "101752.335000", "101756.285000", "101752.445000", "101756.395000", "101752.555000", "101756.505000", "101752.665000", "101756.615000", "101752.775000", "101756.725000", "101752.885000", "101756.835000", "101752.995000", "101756.945000", "101753.105000", "101757.052500", "101753.212500", "101757.162500", "101753.322500", "101757.272500", "101753.432500", "101757.382500", "101753.542500", "101757.492500", "101753.652500", "101757.602500", "101753.762500", "101757.712500", "101753.872500", "101757.822500", "101753.982500", "101801.792500", "101757.952500", "101801.900000", "101758.060000", "101802.010000", "101758.170000", "101802.120000", "101758.280000", "101802.230000", "101758.390000", "101802.340000", "101758.500000", "101802.450000", "101758.610000", "101802.560000", "101758.720000", "101802.670000", "101758.830000", "101802.777500", "101758.940000", "101802.887500", "101759.047500", "101802.997500", "101759.157500", "101803.107500", "101759.267500", "101803.217500", "101759.377500", "101803.327500", "101759.487500", "101803.437500", "101759.597500", "101803.547500", "101759.707500", "101803.657500", "101759.817500", "101803.765000", "101759.927500", "101803.875000", "101800.035000", "101803.985000", "101800.145000", "101804.095000", "101800.255000", "101804.205000", "101800.365000", "101804.315000", "101800.475000", "101804.425000", "101800.585000", "101804.535000", "101800.695000", "101804.645000", "101800.805000", "101804.752500", "101800.912500", "101804.862500", "101801.022500", "101804.972500", "101801.132500", "101805.082500", "101801.242500", "101805.192500", "101801.352500", "101805.302500", "101801.462500", "101805.412500", "101801.572500", "101805.522500", "101801.682500", "101809.492500", "101805.652500", "101809.600000", "101805.760000", "101809.710000", "101805.870000", "101809.820000", "101805.980000", "101809.930000", "101806.090000", "101810.040000", "101806.200000", "101810.150000", "101806.310000", "101810.260000", "101806.420000", "101810.370000", "101806.530000", "101810.477500", "101806.640000", "101810.587500", "101806.747500", "101810.697500", "101806.857500", "101810.807500", "101806.967500", "101810.917500", "101807.077500", "101811.027500", "101807.187500", "101811.137500", "101807.297500", "101811.247500", "101807.407500", "101811.357500", "101807.517500", "101811.465000", "101807.627500", "101811.575000", "101807.735000", "101811.685000", "101807.845000", "101811.795000", "101807.955000", "101811.905000", "101808.065000", "101812.015000", "101808.175000", "101812.125000", "101808.285000", "101812.235000", "101808.395000", "101812.345000", "101808.505000", "101812.452500", "101808.612500", "101812.562500", "101808.722500", "101812.672500", "101808.832500", "101812.782500", "101808.942500", "101812.892500", "101809.052500", "101813.002500", "101809.162500", "101813.112500", "101809.272500", "101813.222500", "101809.382500", "101817.192500", "101813.352500", "101817.300000", "101813.460000", "101817.410000", "101813.570000", "101817.520000", "101813.680000", "101817.630000", "101813.790000", "101817.740000", "101813.900000", "101817.850000", "101814.010000", "101817.960000", "101814.120000", "101818.070000", "101814.230000", "101818.177500", "101814.340000", "101818.287500", "101814.447500", "101818.397500", "101814.557500", "101818.507500", "101814.667500", "101818.617500", "101814.777500", "101818.727500", "101814.887500", "101818.837500", "101814.997500", "101818.947500", "101815.107500", "101819.057500", "101815.217500", "101819.165000", "101815.327500", "101819.275000", "101815.435000", "101819.385000", "101815.545000", "101819.495000", "101815.655000", "101819.605000", "101815.765000", "101819.715000", "101815.875000", "101819.825000", "101815.985000", "101819.935000", "101816.095000", "101820.045000", "101816.205000", "101820.152500", "101816.312500", "101820.262500", "101816.422500", "101820.372500", "101816.532500", "101820.482500", "101816.642500", "101820.592500", "101816.752500", "101820.702500", "101816.862500", "101820.812500", "101816.972500", "101820.922500", "101817.082500", "101824.892500", "101821.052500", "101825.000000", "101821.160000", "101825.110000", "101821.270000", "101825.220000", "101821.380000", "101825.330000", "101821.490000", "101825.440000", "101821.600000", "101825.550000", "101821.710000", "101825.660000", "101821.820000", "101825.770000", "101821.930000", "101825.877500", "101822.040000", "101825.987500", "101822.147500", "101826.097500", "101822.257500", "101826.207500", "101822.367500", "101826.317500", "101822.477500", "101826.427500", "101822.587500", "101826.537500", "101822.697500", "101826.647500", "101822.807500", "101826.757500", "101822.917500", "101826.865000", "101823.027500", "101826.975000", "101823.135000", "101827.085000", "101823.245000", "101827.195000", "101823.355000", "101827.305000", "101823.465000", "101827.415000", "101823.575000", "101827.525000", "101823.685000", "101827.635000", "101823.795000", "101827.745000", "101823.905000", "101827.852500", "101824.012500", "101827.962500", "101824.122500", "101828.072500", "101824.232500", "101828.182500", "101824.342500", "101828.292500", "101824.452500", "101828.402500", "101824.562500", "101828.512500", "101824.672500", "101828.622500", "101824.782500", "101832.592500", "101828.752500", "101832.700000", "101828.860000", "101832.810000", "101828.970000", "101832.920000", "101829.080000", "101833.030000", "101829.190000", "101833.140000", "101829.300000", "101833.250000", "101829.410000", "101833.360000", "101829.520000", "101833.470000", "101829.630000", "101833.577500", "101829.740000", "101833.687500", "101829.847500", "101833.797500", "101829.957500", "101833.907500", "101830.067500", "101834.017500", "101830.177500", "101834.127500", "101830.287500", "101834.237500", "101830.397500", "101834.347500", "101830.507500", "101834.457500", "101830.617500", "101834.565000", "101830.727500", "101834.675000", "101830.835000", "101834.785000", "101830.945000", "101834.895000", "101831.055000", "101835.005000", "101831.165000", "101835.115000", "101831.275000", "101835.225000", "101831.385000", "101835.335000", "101831.495000", "101835.445000", "101831.605000", "101835.552500", "101831.712500", "101835.662500", "101831.822500", "101835.772500", "101831.932500", "101835.882500", "101832.042500", "101835.992500", "101832.152500", "101836.102500", "101832.262500", "101836.212500", "101832.372500", "101836.322500", "101832.482500", "101840.292500", "101836.452500", "101840.400000", "101836.560000", "101840.510000", "101836.670000", "101840.620000", "101836.780000", "101840.730000", "101836.890000", "101840.840000", "101837.000000", "101840.950000", "101837.110000", "101841.060000", "101837.220000", "101841.170000", "101837.330000", "101841.277500", "101837.440000", "101841.387500", "101837.547500", "101841.497500", "101837.657500", "101841.607500", "101837.767500", "101841.717500", "101837.877500", "101841.827500", "101837.987500", "101841.937500", "101838.097500", "101842.047500", "101838.207500", "101842.157500", "101838.317500", "101842.265000", "101838.427500", "101842.375000", "101838.535000", "101842.485000", "101838.645000", "101842.595000", "101838.755000", "101842.705000", "101838.865000", "101842.815000", "101838.975000", "101842.925000", "101839.085000", "101843.035000", "101839.195000", "101843.145000", "101839.305000", "101843.252500", "101839.412500", "101843.362500", "101839.522500", "101843.472500", "101839.632500", "101843.582500", "101839.742500", "101843.692500", "101839.852500", "101843.802500", "101839.962500", "101843.912500", "101840.072500", "101844.022500", "101840.182500", "101847.992500", "101844.152500", "101848.100000", "101844.260000", "101848.210000", "101844.370000", "101848.320000", "101844.480000", "101848.430000", "101844.590000", "101848.540000", "101844.700000", "101848.650000", "101844.810000", "101848.760000", "101844.920000", "101848.870000", "101845.030000", "101848.977500", "101845.140000", "101849.087500", "101845.247500", "101849.197500", "101845.357500", "101849.307500", "101845.467500", "101849.417500", "101845.577500", "101849.527500", "101845.687500", "101849.637500", "101845.797500", "101849.747500", "101845.907500", "101849.857500", "101846.017500", "101849.965000", "101846.127500", "101850.075000", "101846.235000", "101850.185000", "101846.345000", "101850.295000", "101846.455000", "101850.405000", "101846.565000", "101850.515000", "101846.675000", "101850.625000", "101846.785000", "101850.735000", "101846.895000", "101850.845000", "101847.005000", "101850.952500", "101847.112500", "101851.062500", "101847.222500", "101851.172500", "101847.332500", "101851.282500", "101847.442500", "101851.392500", "101847.552500", "101851.502500", "101847.662500", "101851.612500", "101847.772500", "101851.722500", "101847.882500", "101855.692500", "101851.852500", "101855.800000", "101851.960000", "101855.910000", "101852.070000", "101856.020000", "101852.180000", "101856.130000", "101852.290000", "101856.240000", "101852.400000", "101856.350000", "101852.510000", "101856.460000", "101852.620000", "101856.570000", "101852.730000", "101856.677500", "101852.840000", "101856.787500", "101852.947500", "101856.897500", "101853.057500", "101857.007500", "101853.167500", "101857.117500", "101853.277500", "101857.227500", "101853.387500", "101857.337500", "101853.497500", "101857.447500", "101853.607500", "101857.557500", "101853.717500", "101857.665000", "101853.827500", "101857.775000", "101853.935000", "101857.885000", "101854.045000", "101857.995000", "101854.155000", "101858.105000", "101854.265000", "101858.215000", "101854.375000", "101858.325000", "101854.485000", "101858.435000", "101854.595000", "101858.545000", "101854.705000", "101858.652500", "101854.812500", "101858.762500", "101854.922500", "101858.872500", "101855.032500", "101858.982500", "101855.142500", "101859.092500", "101855.252500", "101859.202500", "101855.362500", "101859.312500", "101855.472500", "101859.422500", "101855.582500", "101903.392500", "101859.552500", "101903.500000", "101859.660000", "101903.610000", "101859.770000", "101903.720000", "101859.880000", "101903.830000", "101859.990000", "101903.940000", "101900.100000", "101904.050000", "101900.210000", "101904.160000", "101900.320000", "101904.270000", "101900.430000", "101904.377500", "101900.540000", "101904.487500", "101900.647500", "101904.597500", "101900.757500", "101904.707500", "101900.867500", "101904.817500", "101900.977500", "101904.927500", "101901.087500", "101905.037500", "101901.197500", "101905.147500", "101901.307500", "101905.257500", "101901.417500", "101905.365000", "101901.527500", "101905.475000", "101901.635000", "101905.585000", "101901.745000", "101905.695000", "101901.855000", "101905.805000", "101901.965000", "101905.915000", "101902.075000", "101906.025000", "101902.185000", "101906.135000", "101902.295000", "101906.245000", "101902.405000", "101906.352500", "101902.512500", "101906.462500", "101902.622500", "101906.572500", "101902.732500", "101906.682500", "101902.842500", "101906.792500", "101902.952500", "101906.902500", "101903.062500", "101907.012500", "101903.172500", "101907.122500", "101903.282500", "101911.092500", "101907.252500", "101911.200000", "101907.360000", "101911.310000", "101907.470000", "101911.420000", "101907.580000", "101911.530000", "101907.690000", "101911.640000", "101907.800000", "101911.750000", "101907.910000", "101911.860000", "101908.020000", "101911.970000", "101908.130000", "101912.077500", "101908.240000", "101912.187500", "101908.347500", "101912.297500", "101908.457500", "101912.407500", "101908.567500", "101912.517500", "101908.677500", "101912.627500", "101908.787500", "101912.737500", "101908.897500", "101912.847500", "101909.007500", "101912.957500", "101909.117500", "101913.065000", "101909.227500", "101913.175000", "101909.335000", "101913.285000", "101909.445000", "101913.395000", "101909.555000", "101913.505000", "101909.665000", "101913.615000", "101909.775000", "101913.725000", "101909.885000", "101913.835000", "101909.995000", "101913.945000", "101910.105000", "101914.052500", "101910.212500", "101914.162500", "101910.322500", "101914.272500", "101910.432500", "101914.382500", "101910.542500", "101914.492500", "101910.652500", "101914.602500", "101910.762500", "101914.712500", "101910.872500", "101914.822500", "101910.982500", "101918.792500", "101914.952500", "101918.900000", "101915.060000", "101919.010000", "101915.170000", "101919.120000", "101915.280000", "101919.230000", "101915.390000", "101919.340000", "101915.500000", "101919.450000", "101915.610000", "101919.560000", "101915.720000", "101919.670000", "101915.830000", "101919.777500", "101915.940000", "101919.887500", "101916.047500", "101919.997500", "101916.157500", "101920.107500", "101916.267500", "101920.217500", "101916.377500", "101920.327500", "101916.487500", "101920.437500", "101916.597500", "101920.547500", "101916.707500", "101920.657500", "101916.817500", "101920.765000", "101916.927500", "101920.875000", "101917.035000", "101920.985000", "101917.145000", "101921.095000", "101917.255000", "101921.205000", "101917.365000", "101921.315000", "101917.475000", "101921.425000", "101917.585000", "101921.535000", "101917.695000", "101921.645000", "101917.805000", "101921.752500", "101917.912500", "101921.862500", "101918.022500", "101921.972500", "101918.132500", "101922.082500", "101918.242500", "101922.192500", "101918.352500", "101922.302500", "101918.462500", "101922.412500", "101918.572500", "101922.522500", "101918.682500", "101926.492500", "101922.652500", "101926.600000", "101922.760000", "101926.710000", "101922.870000", "101926.820000", "101922.980000", "101926.930000", "101923.090000", "101927.040000", "101923.200000", "101927.150000", "101923.310000", "101927.260000", "101923.420000", "101927.370000", "101923.530000", "101927.477500", "101923.640000", "101927.587500", "101923.747500", "101927.697500", "101923.857500", "101927.807500", "101923.967500", "101927.917500", "101924.077500", "101928.027500", "101924.187500", "101928.137500", "101924.297500", "101928.247500", "101924.407500", "101928.357500", "101924.517500", "101928.465000", "101924.627500", "101928.575000", "101924.735000", "101928.685000", "101924.845000", "101928.795000", "101924.955000", "101928.905000", "101925.065000", "101929.015000", "101925.175000", "101929.125000", "101925.285000", "101929.235000", "101925.395000", "101929.345000", "101925.505000", "101929.452500", "101925.612500", "101929.562500", "101925.722500", "101929.672500", "101925.832500", "101929.782500", "101925.942500", "101929.892500", "101926.052500", "101930.002500", "101926.162500", "101930.112500", "101926.272500", "101930.222500", "101926.382500", "101934.192500", "101930.352500", "101934.300000", "101930.460000", "101934.410000", "101930.570000", "101934.520000", "101930.680000", "101934.630000", "101930.790000", "101934.740000", "101930.900000", "101934.850000", "101931.010000", "101934.960000", "101931.120000", "101935.070000", "101931.230000", "101935.177500", "101931.340000", "101935.287500", "101931.447500", "101935.397500", "101931.557500", "101935.507500", "101931.667500", "101935.617500", "101931.777500", "101935.727500", "101931.887500", "101935.837500", "101931.997500", "101935.947500", "101932.107500", "101936.