{
  "AcquisitionMatrixPE": 80,
  "AcquisitionNumber": 1,
  "AcquisitionTime": "08:42:35.730000",
  "BandwidthPerPixelPhaseEncode": 48.077,
  "BaseResolution": 80,
  "BodyPartExamined": "BRAIN",
  "CoilCombinationMethod": "Sum of Squares",
  "ConsistencyInfo": "N4_VE11E_LATEST_20181129",
  "ConversionSoftware": "dcm2niix",
  "ConversionSoftwareVersion": "v1.0.20220720",
  "DerivedVendorReportedEchoSpacing": 0.000519999,
  "DeviceSerialNumber": "66112",
  "DwellTime": 2.7e-06,
  "EchoTime": 0.035,
  "EchoTrainLength": 39,
  "EffectiveEchoSpacing": 0.00026,
  "FlipAngle": 90,
  "HeudiconvVersion": "0.13.1",
  "ImageOrientationPatientDICOM": [0.988474, 0.151199, 0.00761462, -0.145613, 0.935781, 0.321109],
  "ImageOrientationText": "Tra>Cor(18.6)>Sag(-2.4)",
  "ImageType": [
    "ORIGINAL",
    "PRIMARY",
    "M",
    "ND",
    "NORM",
    "MOSAIC"
],
  "ImagingFrequency": 123.252,
  "InPlanePhaseEncodingDirectionDICOM": "COL",
  "InstitutionAddress": "Maynard 3,Hanover,NH,US,03755",
  "InstitutionName": "Dartmouth College - PBS",
  "InstitutionalDepartmentName": "Department",
  "MRAcquisitionType": "2D",
  "MagneticFieldStrength": 3,
  "Manufacturer": "Siemens",
  "ManufacturersModelName": "Prisma",
  "MatrixCoilMode": "GRAPPA",
  "Modality": "MR",
  "NonlinearGradientCorrection": false,
  "ParallelReductionFactorInPlane": 2,
  "PartialFourier": 1,
  "PatientPosition": "HFS",
  "PercentPhaseFOV": 100,
  "PercentSampling": 100,
  "PhaseEncodingDirection": "j-",
  "PhaseEncodingSteps": 79,
  "PhaseResolution": 1,
  "PixelBandwidth": 2315,
  "ProcedureStepDescription": "dbic^QA",
  "ProtocolName": "func-bold_task-rest_acq-p2",
  "PulseSequenceDetails": "%SiemensSeq%\\ep2d_bold",
  "ReceiveCoilActiveElements": "HC1-7;NC1,2",
  "ReceiveCoilName": "HeadNeck_64",
  "ReconMatrixPE": 80,
  "RefLinesPE": 24,
  "RepetitionTime": 2,
  "SAR": 0.0414965,
  "ScanOptions": "FS",
  "ScanningSequence": "EP",
  "SequenceName": "*epfid2d1_80",
  "SequenceVariant": "SK",
  "SeriesDescription": "func-bold_task-rest_acq-p2",
  "SeriesNumber": 5,
  "ShimSetting": [4137, -7721, -7514, 195, -68, -250, -68, 109],
  "SliceThickness": 3.5,
  "SliceTiming": [0.99, 0, 1.055, 0.065, 1.1225, 0.1325, 1.1875, 0.1975, 1.2525, 0.2625, 1.32, 0.33, 1.385, 0.395, 1.4525, 0.4625, 1.5175, 0.5275, 1.5825, 0.5925, 1.65, 0.66, 1.715, 0.725, 1.7825, 0.7925, 1.8475, 0.8575, 1.9125, 0.9225],
  "SoftwareVersions": "syngo MR E11",
  "SpacingBetweenSlices": 3.99,
  "StationName": "AWP66112",
  "TaskName": "rest",
  "TotalReadoutTime": 0.02054,
  "TxRefAmp": 219.856,
  "dcmmeta_affine": [
    [-2.9654221534729004, -0.43683773279190063, -0.16528846323490143, 139.6873016357422],
    [-0.45359688997268677, 2.8073432445526123, 1.2708803415298462, -95.32969665527344],
    [0.022843865677714348, -0.9633259773254395, 3.7785770893096924, -18.49688148498535],
    [0.0, 0.0, 0.0, 1.0]
],
  "dcmmeta_reorient_transform": [
    [0.0, -1.0, 0.0, 79.0],
    [1.0, 0.0, 0.0, 0.0],
    [0.0, 0.0, 1.0, 0.0],
    [0.0, 0.0, 0.0, 1.0]
],
  "dcmmeta_shape": [80, 80, 30, 200],
  "dcmmeta_slice_dim": 2,
  "dcmmeta_version": 0.6,
  "global": {
    "const": {
      "AccessionNumber": "qa64",
      "AcquisitionMatrix": [80, 0, 0, 80],
      "AngioFlag": "N",
      "BitsAllocated": 16,
      "BitsStored": 12,
      "BodyPartExamined": "BRAIN",
      "Columns": 480,
      "EchoNumbers": 1,
      "EchoTime": 35.0,
      "EchoTrainLength": 39,
      "FlipAngle": 90.0,
      "HighBit": 11,
      "ImageOrientationPatient": [0.98847402183194, 0.15119896064146, 0.00761462174584, -0.1456125730862, 0.93578106718851, 0.32110866206124],
      "ImagePositionPatient": [-610.89398361745, -778.63842931416, -291.83360400175],
      "ImageType": [
        "ORIGINAL",
        "PRIMARY",
        "M",
        "ND",
        "NORM",
        "MOSAIC"
],
      "ImagedNucleus": "1H",
      "ImagingFrequency": 123.252373,
      "InPlanePhaseEncodingDirection": "COL",
      "MRAcquisitionType": "2D",
      "MagneticFieldStrength": 3.0,
      "Manufacturer": "SIEMENS",
      "ManufacturerModelName": "Prisma",
      "Modality": "MR",
      "NumberOfAverages": 1.0,
      "NumberOfPhaseEncodingSteps": 79,
      "PercentPhaseFieldOfView": 100.0,
      "PercentSampling": 100.0,
      "PerformedProcedureStepStartTime": "083848.927000",
      "PhotometricInterpretation": "MONOCHROME2",
      "PixelBandwidth": 2315.0,
      "PixelRepresentation": 0,
      "PixelSpacing": [3.0, 3.0],
      "ProtocolName": "func-bold_task-rest_acq-p2",
      "RepetitionTime": 2000.0,
      "Rows": 480,
      "SAR": 0.04149645969416,
      "SamplesPerPixel": 1,
      "ScanOptions": "FS",
      "ScanningSequence": "EP",
      "SequenceName": "*epfid2d1_80",
      "SequenceVariant": "SK",
      "SeriesDescription": "func-bold_task-rest_acq-p2",
      "SeriesNumber": 5,
      "SeriesTime": "084322.630000",
      "SliceLocation": -53.667472804047,
      "SliceThickness": 3.5,
      "SmallestImagePixelValue": 0,
      "SoftwareVersions": "syngo MR E11",
      "SpacingBetweenSlices": 3.9900001148004,
      "SpecificCharacterSet": "ISO_IR 100",
      "StudyID": "4",
      "StudyTime": "083848.858000",
      "TransmitCoilName": "Body",
      "VariableFlipAngleFlag": "N",
      "WindowCenterWidthExplanation": "Algo1"
    },
    "slices": {}
  },
  "time": {
    "samples": {
      "AcquisitionNumber": [1, 2, 3, 4, 5, 6, 7, 8, 9, 10, 11, 12, 13, 14, 15, 16, 17, 18, 19, 20, 21, 22, 23, 24, 25, 26, 27, 28, 29, 30, 31, 32, 33, 34, 35, 36, 37, 38, 39, 40, 41, 42, 43, 44, 45, 46, 47, 48, 49, 50, 51, 52, 53, 54, 55, 56, 57, 58, 59, 60, 61, 62, 63, 64, 65, 66, 67, 68, 69, 70, 71, 72, 73, 74, 75, 76, 77, 78, 79, 80, 81, 82, 83, 84, 85, 86, 87, 88, 89, 90, 91, 92, 93, 94, 95, 96, 97, 98, 99, 100, 101, 102, 103, 104, 105, 106, 107, 108, 109, 110, 111, 112, 113, 114, 115, 116, 117, 118, 119, 120, 121, 122, 123, 124, 125, 126, 127, 128, 129, 130, 131, 132, 133, 134, 135, 136, 137, 138, 139, 140, 141, 142, 143, 144, 145, 146, 147, 148, 149, 150, 151, 152, 153, 154, 155, 156, 157, 158, 159, 160, 161, 162, 163, 164, 165, 166, 167, 168, 169, 170, 171, 172, 173, 174, 175, 176, 177, 178, 179, 180, 181, 182, 183, 184, 185, 186, 187, 188, 189, 190, 191, 192, 193, 194, 195, 196, 197, 198, 199, 200],
      "AcquisitionTime": ["084235.730000", "084237.730000", "084239.730000", "084241.730000", "084243.730000", "084245.730000", "084247.730000", "084249.730000", "084251.730000", "084253.730000", "084255.730000", "084257.730000", "084259.730000", "084301.730000", "084303.730000", "084305.730000", "084307.730000", "084309.730000", "084311.730000", "084313.730000", "084315.730000", "084317.730000", "084319.730000", "084321.730000", "084323.730000", "084325.730000", "084327.730000", "084329.730000", "084331.730000", "084333.730000", "084335.730000", "084337.730000", "084339.730000", "084341.730000", "084343.730000", "084345.730000", "084347.730000", "084349.730000", "084351.730000", "084353.730000", "084355.730000", "084357.730000", "084359.730000", "084401.730000", "084403.730000", "084405.730000", "084407.730000", "084409.730000", "084411.730000", "084413.730000", "084415.730000", "084417.730000", "084419.730000", "084421.730000", "084423.730000", "084425.730000", "084427.730000", "084429.730000", "084431.730000", "084433.730000", "084435.730000", "084437.730000", "084439.730000", "084441.730000", "084443.730000", "084445.730000", "084447.730000", "084449.730000", "084451.730000", "084453.730000", "084455.730000", "084457.730000", "084459.730000", "084501.730000", "084503.730000", "084505.730000", "084507.730000", "084509.730000", "084511.730000", "084513.730000", "084515.730000", "084517.730000", "084519.730000", "084521.730000", "084523.730000", "084525.730000", "084527.730000", "084529.730000", "084531.730000", "084533.730000", "084535.730000", "084537.730000", "084539.730000", "084541.730000", "084543.730000", "084545.730000", "084547.730000", "084549.730000", "084551.730000", "084553.730000", "084555.730000", "084557.730000", "084559.730000", "084601.730000", "084603.730000", "084605.730000", "084607.730000", "084609.730000", "084611.730000", "084613.730000", "084615.730000", "084617.730000", "084619.730000", "084621.730000", "084623.730000", "084625.730000", "084627.730000", "084629.730000", "084631.730000", "084633.730000", "084635.730000", "084637.730000", "084639.730000", "084641.730000", "084643.730000", "084645.730000", "084647.730000", "084649.730000", "084651.730000", "084653.730000", "084655.730000", "084657.730000", "084659.730000", "084701.730000", "084703.730000", "084705.730000", "084707.730000", "084709.730000", "084711.730000", "084713.730000", "084715.730000", "084717.730000", "084719.730000", "084721.730000", "084723.730000", "084725.730000", "084727.730000", "084729.730000", "084731.730000", "084733.730000", "084735.730000", "084737.730000", "084739.730000", "084741.730000", "084743.730000", "084745.730000", "084747.730000", "084749.730000", "084751.730000", "084753.730000", "084755.730000", "084757.730000", "084759.730000", "084801.730000", "084803.730000", "084805.730000", "084807.730000", "084809.730000", "084811.730000", "084813.730000", "084815.730000", "084817.730000", "084819.730000", "084821.730000", "084823.730000", "084825.730000", "084827.730000", "084829.730000", "084831.730000", "084833.730000", "084835.730000", "084837.730000", "084839.730000", "084841.730000", "084843.730000", "084845.730000", "084847.730000", "084849.730000", "084851.730000", "084853.730000", "084855.730000", "084857.730000", "084859.730000", "084901.730000", "084903.730000", "084905.730000", "084907.730000", "084909.730000", "084911.730000", "084913.730000"],
      "ContentTime": ["084322.634000", "084322.647000", "084322.655000", "084322.657000", "084322.660000", "084322.662000", "084322.665000", "084322.667000", "084322.669000", "084322.682000", "084322.685000", "084322.687000", "084322.689000", "084322.692000", "084322.694000", "084322.696000", "084322.699000", "084322.701000", "084322.704000", "084322.706000", "084322.708000", "084322.711000", "084322.713000", "084402.630000", "084402.633000", "084402.635000", "084402.638000", "084402.640000", "084402.642000", "084402.645000", "084402.647000", "084402.650000", "084402.652000", "084402.654000", "084402.657000", "084402.659000", "084402.662000", "084402.664000", "084402.666000", "084402.669000", "084402.671000", "084402.673000", "084402.676000", "084442.630000", "084442.633000", "084442.635000", "084442.637000", "084442.640000", "084442.642000", "084442.645000", "084442.647000", "084442.650000", "084442.652000", "084442.654000", "084442.657000", "084442.659000", "084442.661000", "084442.664000", "084442.666000", "084442.668000", "084442.671000", "084442.673000", "084442.675000", "084522.629000", "084522.632000", "084522.634000", "084522.637000", "084522.639000", "084522.641000", "084522.644000", "084522.646000", "084522.648000", "084522.651000", "084522.653000", "084522.655000", "084522.658000", "084522.660000", "084522.663000", "084522.665000", "084522.667000", "084522.670000", "084522.672000", "084522.674000", "084602.629000", "084602.632000", "084602.634000", "084602.636000", "084602.639000", "084602.641000", "084602.644000", "084602.646000", "084602.648000", "084602.651000", "084602.653000", "084602.656000", "084602.658000", "084602.660000", "084602.663000", "084602.665000", "084602.667000", "084602.670000", "084602.672000", "084602.674000", "084642.630000", "084642.633000", "084642.635000", "084642.638000", "084642.640000", "084642.642000", "084642.645000", "084642.647000", "084642.650000", "084642.652000", "084642.654000", "084642.657000", "084642.659000", "084642.661000", "084642.664000", "084642.666000", "084642.669000", "084642.671000", "084642.673000", "084642.676000", "084722.629000", "084722.632000", "084722.634000", "084722.637000", "084722.639000", "084722.641000", "084722.644000", "084722.646000", "084722.648000", "084722.651000", "084722.660000", "084722.662000", "084722.664000", "084722.667000", "084722.669000", "084722.672000", "084722.674000", "084722.676000", "084722.679000", "084722.681000", "084802.629000", "084802.632000", "084802.634000", "084802.636000", "084802.639000", "084802.641000", "084802.643000", "084802.646000", "084802.648000", "084802.650000", "084802.653000", "084802.655000", "084802.658000", "084802.660000", "084802.662000", "084802.665000", "084802.667000", "084802.669000", "084802.672000", "084802.674000", "084842.630000", "084842.633000", "084842.635000", "084842.638000", "084842.641000", "084842.643000", "084842.645000", "084842.648000", "084842.650000", "084842.652000", "084842.655000", "084842.657000", "084842.659000", "084842.662000", "084842.664000", "084842.667000", "084842.669000", "084842.671000", "084842.674000", "084842.676000", "084915.087000", "084915.091000", "084915.094000", "084915.097000", "084915.101000", "084915.104000", "084915.107000", "084915.110000", "084915.112000", "084915.115000", "084915.117000", "084915.120000", "084915.122000", "084915.125000", "084915.127000", "084915.130000", "084915.133000"],
      "InstanceCreationTime": ["084322.634000", "084322.647000", "084322.655000", "084322.657000", "084322.660000", "084322.662000", "084322.665000", "084322.667000", "084322.669000", "084322.682000", "084322.685000", "084322.687000", "084322.689000", "084322.692000", "084322.694000", "084322.696000", "084322.699000", "084322.701000", "084322.704000", "084322.706000", "084322.708000", "084322.711000", "084322.713000", "084402.630000", "084402.633000", "084402.635000", "084402.638000", "084402.640000", "084402.642000", "084402.645000", "084402.647000", "084402.650000", "084402.652000", "084402.654000", "084402.657000", "084402.659000", "084402.662000", "084402.664000", "084402.666000", "084402.669000", "084402.671000", "084402.673000", "084402.676000", "084442.630000", "084442.633000", "084442.635000", "084442.637000", "084442.640000", "084442.642000", "084442.645000", "084442.647000", "084442.650000", "084442.652000", "084442.654000", "084442.657000", "084442.659000", "084442.661000", "084442.664000", "084442.666000", "084442.668000", "084442.671000", "084442.673000", "084442.675000", "084522.629000", "084522.632000", "084522.634000", "084522.637000", "084522.639000", "084522.641000", "084522.644000", "084522.646000", "084522.648000", "084522.651000", "084522.653000", "084522.655000", "084522.658000", "084522.660000", "084522.663000", "084522.665000", "084522.667000", "084522.670000", "084522.672000", "084522.674000", "084602.629000", "084602.632000", "084602.634000", "084602.636000", "084602.639000", "084602.641000", "084602.644000", "084602.646000", "084602.648000", "084602.651000", "084602.653000", "084602.656000", "084602.658000", "084602.660000", "084602.663000", "084602.665000", "084602.667000", "084602.670000", "084602.672000", "084602.674000", "084642.630000", "084642.633000", "084642.635000", "084642.638000", "084642.640000", "084642.642000", "084642.645000", "084642.647000", "084642.650000", "084642.652000", "084642.654000", "084642.657000", "084642.659000", "084642.661000", "084642.664000", "084642.666000", "084642.669000", "084642.671000", "084642.673000", "084642.676000", "084722.629000", "084722.632000", "084722.634000", "084722.637000", "084722.639000", "084722.641000", "084722.644000", "084722.646000", "084722.648000", "084722.651000", "084722.660000", "084722.662000", "084722.664000", "084722.667000", "084722.669000", "084722.672000", "084722.674000", "084722.676000", "084722.679000", "084722.681000", "084802.629000", "084802.632000", "084802.634000", "084802.636000", "084802.639000", "084802.641000", "084802.643000", "084802.646000", "084802.648000", "084802.650000", "084802.653000", "084802.655000", "084802.658000", "084802.660000", "084802.662000", "084802.665000", "084802.667000", "084802.669000", "084802.672000", "084802.674000", "084842.630000", "084842.633000", "084842.635000", "084842.638000", "084842.641000", "084842.643000", "084842.645000", "084842.648000", "084842.650000", "084842.652000", "084842.655000", "084842.657000", "084842.659000", "084842.662000", "084842.664000", "084842.667000", "084842.669000", "084842.671000", "084842.674000", "084842.676000", "084915.087000", "084915.091000", "084915.094000", "084915.097000", "084915.101000", "084915.104000", "084915.107000", "084915.110000", "084915.112000", "084915.115000", "084915.117000", "084915.120000", "084915.122000", "084915.125000", "084915.127000", "084915.130000", "084915.133000"],
      "InstanceNumber": [1, 2, 3, 4, 5, 6, 7, 8, 9, 10, 11, 12, 13, 14, 15, 16, 17, 18, 19, 20, 21, 22, 23, 24, 25, 26, 27, 28, 29, 30, 31, 32, 33, 34, 35, 36, 37, 38, 39, 40, 41, 42, 43, 44, 45, 46, 47, 48, 49, 50, 51, 52, 53, 54, 55, 56, 57, 58, 59, 60, 61, 62, 63, 64, 65, 66, 67, 68, 69, 70, 71, 72, 73, 74, 75, 76, 77, 78, 79, 80, 81, 82, 83, 84, 85, 86, 87, 88, 89, 90, 91, 92, 93, 94, 95, 96, 97, 98, 99, 100, 101, 102, 103, 104, 105, 106, 107, 108, 109, 110, 111, 112, 113, 114, 115, 116, 117, 118, 119, 120, 121, 122, 123, 124, 125, 126, 127, 128, 129, 130, 131, 132, 133, 134, 135, 136, 137, 138, 139, 140, 141, 142, 143, 144, 145, 146, 147, 148, 149, 150, 151, 152, 153, 154, 155, 156, 157, 158, 159, 160, 161, 162, 163, 164, 165, 166, 167, 168, 169, 170, 171, 172, 173, 174, 175, 176, 177, 178, 179, 180, 181, 182, 183, 184, 185, 186, 187, 188, 189, 190, 191, 192, 193, 194, 195, 196, 197, 198, 199, 200],
      "LargestImagePixelValue": [3752, 3757, 3749, 3766, 3755, 3767, 3766, 3755, 3755, 3751, 3739, 3779, 3753, 3755, 3752, 3744, 3762, 3763, 3767, 3749, 3761, 3759, 3772, 3743, 3763, 3750, 3738, 3765, 3740, 3756, 3755, 3764, 3754, 3755, 3749, 3742, 3752, 3767, 3760, 3752, 3776, 3762, 3743, 3762, 3762, 3748, 3760, 3749, 3754, 3768, 3749, 3756, 3762, 3760, 3760, 3766, 3760, 3748, 3751, 3748, 3747, 3748, 3757, 3757, 3759, 3776, 3752, 3742, 3758, 3742, 3748, 3748, 3754, 3735, 3759, 3748, 3759, 3747, 3749, 3751, 3754, 3756, 3767, 3756, 3771, 3760, 3773, 3759, 3754, 3754, 3750, 3755, 3758, 3761, 3757, 3752, 3747, 3753, 3751, 3762, 3746, 3755, 3765, 3752, 3740, 3745, 3745, 3750, 3753, 3743, 3763, 3746, 3752, 3746, 3746, 3750, 3755, 3758, 3756, 3750, 3756, 3744, 3745, 3749, 3749, 3746, 3745, 3752, 3745, 3750, 3758, 3759, 3753, 3741, 3753, 3758, 3753, 3730, 3753, 3751, 3755, 3758, 3735, 3748, 3758, 3753, 3773, 3751, 3751, 3741, 3755, 3753, 3752, 3750, 3742, 3753, 3758, 3752, 3737, 3737, 3746, 3742, 3756, 3735, 3734, 3767, 3757, 3749, 3739, 3748, 3752, 3743, 3763, 3742, 3756, 3746, 3743, 3737, 3754, 3743, 3740, 3729, 3748, 3744, 3755, 3729, 3749, 3744, 3745, 3734, 3740, 3740, 3736, 3750, 3742, 3750, 3755, 3749, 3749, 3749],
      "WindowCenter": [1387.0, 1386.0, 1386.0, 1387.0, 1387.0, 1387.0, 1386.0, 1386.0, 1386.0, 1386.0, 1386.0, 1386.0, 1386.0, 1386.0, 1386.0, 1386.0, 1387.0, 1387.0, 1386.0, 1386.0, 1386.0, 1386.0, 1386.0, 1386.0, 1386.0, 1386.0, 1386.0, 1386.0, 1386.0, 1386.0, 1386.0, 1386.0, 1386.0, 1386.0, 1386.0, 1386.0, 1386.0, 1386.0, 1386.0, 1386.0, 1386.0, 1386.0, 1386.0, 1386.0, 1386.0, 1387.0, 1386.0, 1386.0, 1386.0, 1386.0, 1386.0, 1386.0, 1386.0, 1386.0, 1386.0, 1386.0, 1386.0, 1386.0, 1385.0, 1386.0, 1386.0, 1386.0, 1385.0, 1386.0, 1386.0, 1385.0, 1386.0, 1385.0, 1386.0, 1386.0, 1386.0, 1386.0, 1385.0, 1386.0, 1385.0, 1385.0, 1385.0, 1385.0, 1385.0, 1385.0, 1385.0, 1386.0, 1385.0, 1385.0, 1385.0, 1384.0, 1385.0, 1385.0, 1385.0, 1385.0, 1384.0, 1384.0, 1385.0, 1385.0, 1384.0, 1385.0, 1384.0, 1385.0, 1385.0, 1384.0, 1384.0, 1384.0, 1384.0, 1384.0, 1384.0, 1384.0, 1384.0, 1385.0, 1384.0, 1384.0, 1384.0, 1384.0, 1385.0, 1384.0, 1385.0, 1384.0, 1384.0, 1384.0, 1384.0, 1384.0, 1384.0, 1384.0, 1384.0, 1384.0, 1384.0, 1384.0, 1384.0, 1384.0, 1384.0, 1384.0, 1384.0, 1385.0, 1384.0, 1384.0, 1384.0, 1384.0, 1384.0, 1383.0, 1384.0, 1384.0, 1384.0, 1384.0, 1384.0, 1384.0, 1384.0, 1383.0, 1383.0, 1383.0, 1384.0, 1384.0, 1384.0, 1384.0, 1384.0, 1384.0, 1384.0, 1384.0, 1384.0, 1384.0, 1383.0, 1383.0, 1384.0, 1383.0, 1384.0, 1383.0, 1384.0, 1383.0, 1384.0, 1384.0, 1383.0, 1384.0, 1383.0, 1384.0, 1384.0, 1384.0, 1383.0, 1384.0, 1383.0, 1384.0, 1384.0, 1384.0, 1384.0, 1384.0, 1384.0, 1383.0, 1383.0, 1384.0, 1384.0, 1384.0, 1384.0, 1384.0, 1384.0, 1383.0, 1384.0, 1383.0, 1384.0, 1383.0, 1383.0, 1383.0, 1383.0, 1383.0],
      "WindowWidth": [3229.0, 3228.0, 3228.0, 3228.0, 3227.0, 3227.0, 3227.0, 3228.0, 3227.0, 3227.0, 3227.0, 3227.0, 3227.0, 3227.0, 3227.0, 3227.0, 3227.0, 3227.0, 3227.0, 3227.0, 3227.0, 3227.0, 3227.0, 3227.0, 3227.0, 3227.0, 3227.0, 3227.0, 3227.0, 3227.0, 3227.0, 3227.0, 3227.0, 3227.0, 3227.0, 3227.0, 3227.0, 3227.0, 3227.0, 3227.0, 3227.0, 3227.0, 3227.0, 3227.0, 3227.0, 3227.0, 3227.0, 3227.0, 3227.0, 3227.0, 3227.0, 3227.0, 3227.0, 3227.0, 3227.0, 3227.0, 3227.0, 3227.0, 3227.0, 3227.0, 3227.0, 3227.0, 3227.0, 3227.0, 3227.0, 3227.0, 3227.0, 3227.0, 3227.0, 3227.0, 3227.0, 3227.0, 3226.0, 3227.0, 3226.0, 3226.0, 3226.0, 3227.0, 3227.0, 3226.0, 3226.0, 3227.0, 3227.0, 3227.0, 3227.0, 3227.0, 3226.0, 3226.0, 3226.0, 3226.0, 3226.0, 3226.0, 3226.0, 3226.0, 3226.0, 3226.0, 3227.0, 3226.0, 3226.0, 3226.0, 3226.0, 3226.0, 3227.0, 3226.0, 3226.0, 3225.0, 3226.0, 3226.0, 3226.0, 3226.0, 3226.0, 3226.0, 3225.0, 3226.0, 3226.0, 3226.0, 3226.0, 3226.0, 3226.0, 3225.0, 3225.0, 3225.0, 3225.0, 3225.0, 3225.0, 3226.0, 3225.0, 3225.0, 3225.0, 3225.0, 3225.0, 3225.0, 3225.0, 3225.0, 3225.0, 3225.0, 3225.0, 3225.0, 3225.0, 3225.0, 3225.0, 3225.0, 3225.0, 3225.0, 3225.0, 3225.0, 3225.0, 3225.0, 3225.0, 3225.0, 3225.0, 3225.0, 3225.0, 3225.0, 3225.0, 3225.0, 3225.0, 3225.0, 3225.0, 3225.0, 3225.0, 3225.0, 3225.0, 3225.0, 3225.0, 3225.0, 3225.0, 3225.0, 3225.0, 3225.0, 3225.0, 3225.0, 3225.0, 3225.0, 3225.0, 3225.0, 3225.0, 3225.0, 3225.0, 3225.0, 3224.0, 3225.0, 3225.0, 3225.0, 3225.0, 3225.0, 3225.0, 3225.0, 3225.0, 3225.0, 3225.0, 3225.0, 3225.0, 3225.0, 3225.0, 3225.0, 3225.0, 3225.0, 3225.0, 3225.0]
    },
    "slices": {}
  }
}