{
  "AcquisitionMatrixPE": 122,
  "AcquisitionNumber": 1,
  "AcquisitionTime": "09:31:49.460000",
  "BandwidthPerPixelPhaseEncode": 27.785,
  "BaseResolution": 122,
  "BodyPartExamined": "BRAIN",
  "CoilCombinationMethod": "Adaptive Combine",
  "ConsistencyInfo": "N4_VE11C_LATEST_20160120",
  "ConversionSoftware": "dcm2niix",
  "ConversionSoftwareVersion": "v1.0.20220720",
  "DerivedVendorReportedEchoSpacing": 0.000590011,
  "DeviceSerialNumber": "66112",
  "DiffusionScheme": "Monopolar",
  "DwellTime": 2e-06,
  "EchoTime": 0.068,
  "EchoTrainLength": 61,
  "EffectiveEchoSpacing": 0.000295005,
  "FlipAngle": 90,
  "HeudiconvVersion": "0.13.1",
  "ImageOrientationPatientDICOM": [0.98658, 0.16291, 0.0109466, -0.158378, 0.938521, 0.306748],
  "ImageOrientationText": "Tra>Cor(17.7)>Sag(-2.3)",
  "ImageType": [
    "ORIGINAL",
    "PRIMARY",
    "DIFFUSION",
    "NONE",
    "ND",
    "NORM"
],
  "ImagingFrequency": 123.252,
  "InPlanePhaseEncodingDirectionDICOM": "COL",
  "InstitutionAddress": "Maynard 3,Hanover,NH,US,03755",
  "InstitutionName": "Dartmouth College - PBS",
  "InstitutionalDepartmentName": "Department",
  "MRAcquisitionType": "2D",
  "MagneticFieldStrength": 3,
  "Manufacturer": "Siemens",
  "ManufacturersModelName": "Prisma",
  "Modality": "MR",
  "MultibandAccelerationFactor": 4,
  "NonlinearGradientCorrection": false,
  "ParallelReductionFactorInPlane": 2,
  "PartialFourier": 1,
  "PatientPosition": "HFS",
  "PercentPhaseFOV": 100,
  "PercentSampling": 100,
  "PhaseEncodingDirection": "j-",
  "PhaseEncodingSteps": 122,
  "PhaseResolution": 1,
  "PixelBandwidth": 2050,
  "ProcedureStepDescription": "dbic^QA",
  "ProtocolName": "dwi_acq-DTI-30-p2-s4",
  "PulseSequenceDetails": "%SiemensSeq%\\ep2d_diff",
  "ReceiveCoilActiveElements": "HEA;HEP",
  "ReceiveCoilName": "Head_32",
  "ReconMatrixPE": 122,
  "RefLinesPE": 38,
  "RepetitionTime": 3.6,
  "SAR": 0.161258,
  "ScanOptions": "FS",
  "ScanningSequence": "EP",
  "SequenceName": "*ep_b0",
  "SequenceVariant": "SK\\SP",
  "SeriesDescription": "dwi_acq-DTI-30-p2-s4",
  "SeriesNumber": 9,
  "ShimSetting": [4145, -7696, -7517, 295, -54, -182, -77, 62],
  "SliceThickness": 2,
  "SliceTiming": [2.58594, 0, 1.78906, 0.20312, 1.99219, 0.39844, 2.1875, 0.59375, 2.39062, 0.99219, 2.78125, 1.19531, 2.98438, 1.39062, 3.17969, 1.59375, 3.38281, 0.79688, 2.58594, 0, 1.78906, 0.20312, 1.99219, 0.39844, 2.1875, 0.59375, 2.39062, 0.99219, 2.78125, 1.19531, 2.98438, 1.39062, 3.17969, 1.59375, 3.38281, 0.79688, 2.58594, 0, 1.78906, 0.20312, 1.99219, 0.39844, 2.1875, 0.59375, 2.39062, 0.99219, 2.78125, 1.19531, 2.98438, 1.39062, 3.17969, 1.59375, 3.38281, 0.79688, 2.58594, 0, 1.78906, 0.20312, 1.99219, 0.39844, 2.1875, 0.59375, 2.39062, 0.99219, 2.78125, 1.19531, 2.98438, 1.39062, 3.17969, 1.59375, 3.38281, 0.79688],
  "SoftwareVersions": "syngo MR E11",
  "SpacingBetweenSlices": 2,
  "SpoilingState": true,
  "StationName": "AWP66112",
  "TotalReadoutTime": 0.0356956,
  "TxRefAmp": 230.168,
  "dcmmeta_affine": [
    [-1.9408135414123535, -0.31156274676322937, -0.07939764857292175, 143.20787048339844],
    [-0.3204787075519562, 1.8462711572647095, 0.6087303161621094, -108.14722442626953],
    [0.021534204483032227, -0.603439450263977, 1.9034500122070312, -32.365238189697266],
    [0.0, 0.0, 0.0, 1.0]
],
  "dcmmeta_reorient_transform": [
    [0.0, -1.0, 0.0, 121.0],
    [1.0, 0.0, 0.0, 0.0],
    [0.0, 0.0, -1.0, 71.0],
    [0.0, 0.0, 0.0, 1.0]
],
  "dcmmeta_shape": [122, 122, 72, 31],
  "dcmmeta_slice_dim": 2,
  "dcmmeta_version": 0.6,
  "global": {
    "const": {
      "AccessionNumber": "qa",
      "AcquisitionMatrix": [122, 0, 0, 122],
      "AngioFlag": "N",
      "BitsAllocated": 16,
      "BitsStored": 12,
      "BodyPartExamined": "BRAIN",
      "Columns": 122,
      "EchoNumbers": 1,
      "EchoTime": 68.0,
      "EchoTrainLength": 61,
      "FlipAngle": 90.0,
      "HighBit": 11,
      "ImageOrientationPatient": [0.98658020564826, 0.16291000824246, 0.01094655367999, -0.1583777210505, 0.93852114284164, 0.30674836904876],
      "ImageType": [
        "ORIGINAL",
        "PRIMARY",
        "DIFFUSION",
        "NONE",
        "ND",
        "NORM"
],
      "ImagedNucleus": "1H",
      "ImagingFrequency": 123.252434,
      "InPlanePhaseEncodingDirection": "COL",
      "MRAcquisitionType": "2D",
      "MagneticFieldStrength": 3.0,
      "Manufacturer": "SIEMENS",
      "ManufacturerModelName": "Prisma",
      "Modality": "MR",
      "NumberOfAverages": 1.0,
      "NumberOfPhaseEncodingSteps": 122,
      "PercentPhaseFieldOfView": 100.0,
      "PercentSampling": 100.0,
      "PerformedProcedureStepStartTime": "091038.711000",
      "PhotometricInterpretation": "MONOCHROME2",
      "PixelBandwidth": 2050.0,
      "PixelRepresentation": 0,
      "PixelSpacing": [1.9672131538391, 1.9672131538391],
      "ProtocolName": "dwi_acq-DTI-30-p2-s4",
      "RepetitionTime": 3600.0,
      "Rows": 122,
      "SAR": 0.1612580843165,
      "SamplesPerPixel": 1,
      "ScanOptions": "FS",
      "ScanningSequence": "EP",
      "SequenceVariant": [
        "SK",
        "SP"
],
      "SeriesDescription": "dwi_acq-DTI-30-p2-s4",
      "SeriesNumber": 9,
      "SeriesTime": "093157.233000",
      "SliceThickness": 2.0,
      "SmallestImagePixelValue": 0,
      "SoftwareVersions": "syngo MR E11",
      "SpacingBetweenSlices": 2.0,
      "SpecificCharacterSet": "ISO_IR 100",
      "StudyID": "78",
      "StudyTime": "091038.617000",
      "TransmitCoilName": "Body",
      "VariableFlipAngleFlag": "N",
      "WindowCenterWidthExplanation": "Algo1",
      "dBdt": 0.0},
    "slices": {
      "AcquisitionTime": ["093149.460000", "093146.875000", "093148.665000", "093147.075000", "093148.865000", "093147.272500", "093149.062500", "093147.472500", "093149.262500", "093147.870000", "093149.660000", "093148.067500", "093149.857500", "093148.267500", "093150.057500", "093148.465000", "093150.255000", "093147.670000", "093149.460000", "093146.875000", "093148.665000", "093147.075000", "093148.865000", "093147.272500", "093149.062500", "093147.472500", "093149.262500", "093147.870000", "093149.660000", "093148.067500", "093149.857500", "093148.267500", "093150.057500", "093148.465000", "093150.255000", "093147.670000", "093149.460000", "093146.875000", "093148.665000", "093147.075000", "093148.865000", "093147.272500", "093149.062500", "093147.472500", "093149.262500", "093147.870000", "093149.660000", "093148.067500", "093149.857500", "093148.267500", "093150.057500", "093148.465000", "093150.255000", "093147.670000", "093149.460000", "093146.875000", "093148.665000", "093147.075000", "093148.865000", "093147.272500", "093149.062500", "093147.472500", "093149.262500", "093147.870000", "093149.660000", "093148.067500", "093149.857500", "093148.267500", "093150.057500", "093148.465000", "093150.255000", "093147.670000", "093153.060000", "093150.475000", "093152.265000", "093150.675000", "093152.465000", "093150.872500", "093152.662500", "093151.072500", "093152.862500", "093151.470000", "093153.260000", "093151.667500", "093153.457500", "093151.867500", "093153.657500", "093152.065000", "093153.855000", "093151.270000", "093153.060000", "093150.475000", "093152.265000", "093150.675000", "093152.465000", "093150.872500", "093152.662500", "093151.072500", "093152.862500", "093151.470000", "093153.260000", "093151.667500", "093153.457500", "093151.867500", "093153.657500", "093152.065000", "093153.855000", "093151.270000", "093153.060000", "093150.475000", "093152.265000", "093150.675000", "093152.465000", "093150.872500", "093152.662500", "093151.072500", "093152.862500", "093151.470000", "093153.260000", "093151.667500", "093153.457500", "093151.867500", "093153.657500", "093152.065000", "093153.855000", "093151.270000", "093153.060000", "093150.475000", "093152.265000", "093150.675000", "093152.465000", "093150.872500", "093152.662500", "093151.072500", "093152.862500", "093151.470000", "093153.260000", "093151.667500", "093153.457500", "093151.867500", "093153.657500", "093152.065000", "093153.855000", "093151.270000", "093156.660000", "093154.075000", "093155.865000", "093154.275000", "093156.065000", "093154.472500", "093156.262500", "093154.672500", "093156.462500", "093155.070000", "093156.860000", "093155.267500", "093157.057500", "093155.467500", "093157.257500", "093155.665000", "093157.455000", "093154.870000", "093156.660000", "093154.075000", "093155.865000", "093154.275000", "093156.065000", "093154.472500", "093156.262500", "093154.672500", "093156.462500", "093155.070000", "093156.860000", "093155.267500", "093157.057500", "093155.467500", "093157.257500", "093155.665000", "093157.455000", "093154.870000", "093156.660000", "093154.075000", "093155.865000", "093154.275000", "093156.065000", "093154.472500", "093156.262500", "093154.672500", "093156.462500", "093155.070000", "093156.860000", "093155.267500", "093157.057500", "093155.467500", "093157.257500", "093155.665000", "093157.455000", "093154.870000", "093156.660000", "093154.075000", "093155.865000", "093154.275000", "093156.065000", "093154.472500", "093156.262500", "093154.672500", "093156.462500", "093155.070000", "093156.860000", "093155.267500", "093157.057500", "093155.467500", "093157.257500", "093155.665000", "093157.455000", "093154.870000", "093200.260000", "093157.675000", "093159.465000", "093157.875000", "093159.665000", "093158.072500", "093159.862500", "093158.272500", "093200.062500", "093158.670000", "093200.460000", "093158.867500", "093200.657500", "093159.067500", "093200.857500", "093159.265000", "093201.055000", "093158.470000", "093200.260000", "093157.675000", "093159.465000", "093157.875000", "093159.665000", "093158.072500", "093159.862500", "093158.272500", "093200.062500", "093158.670000", "093200.460000", "093158.867500", "093200.657500", "093159.067500", "093200.857500", "093159.265000", "093201.055000", "093158.470000", "093200.260000", "093157.675000", "093159.465000", "093157.875000", "093159.665000", "093158.072500", "093159.862500", "093158.272500", "093200.062500", "093158.670000", "093200.460000", "093158.867500", "093200.657500", "093159.067500", "093200.857500", "093159.265000", "093201.055000", "093158.470000", "093200.260000", "093157.675000", "093159.465000", "093157.875000", "093159.665000", "093158.072500", "093159.862500", "093158.272500", "093200.062500", "093158.670000", "093200.460000", "093158.867500", "093200.657500", "093159.067500", "093200.857500", "093159.265000", "093201.055000", "093158.470000", "093203.860000", "093201.275000", "093203.065000", "093201.475000", "093203.265000", "093201.672500", "093203.462500", "093201.872500", "093203.662500", "093202.270000", "093204.060000", "093202.467500", "093204.257500", "093202.667500", "093204.457500", "093202.865000", "093204.655000", "093202.070000", "093203.860000", "093201.275000", "093203.065000", "093201.475000", "093203.265000", "093201.672500", "093203.462500", "093201.872500", "093203.662500", "093202.270000", "093204.060000", "093202.467500", "093204.257500", "093202.667500", "093204.457500", "093202.865000", "093204.655000", "093202.070000", "093203.860000", "093201.275000", "093203.065000", "093201.475000", "093203.265000", "093201.672500", "093203.462500", "093201.872500", "093203.662500", "093202.270000", "093204.060000", "093202.467500", "093204.257500", "093202.667500", "093204.457500", "093202.865000", "093204.655000", "093202.070000", "093203.860000", "093201.275000", "093203.065000", "093201.475000", "093203.265000", "093201.672500", "093203.462500", "093201.872500", "093203.662500", "093202.270000", "093204.060000", "093202.467500", "093204.257500", "093202.667500", "093204.457500", "093202.865000", "093204.655000", "093202.070000", "093207.460000", "093204.875000", "093206.665000", "093205.075000", "093206.865000", "093205.272500", "093207.062500", "093205.472500", "093207.262500", "093205.870000", "093207.660000", "093206.067500", "093207.857500", "093206.267500", "093208.057500", "093206.465000", "093208.255000", "093205.670000", "093207.460000", "093204.875000", "093206.665000", "093205.075000", "093206.865000", "093205.272500", "093207.062500", "093205.472500", "093207.262500", "093205.870000", "093207.660000", "093206.067500", "093207.857500", "093206.267500", "093208.057500", "093206.465000", "093208.255000", "093205.670000", "093207.460000", "093204.875000", "093206.665000", "093205.075000", "093206.865000", "093205.272500", "093207.062500", "093205.472500", "093207.262500", "093205.870000", "093207.660000", "093206.067500", "093207.857500", "093206.267500", "093208.057500", "093206.465000", "093208.255000", "093205.670000", "093207.460000", "093204.875000", "093206.665000", "093205.075000", "093206.865000", "093205.272500", "093207.062500", "093205.472500", "093207.262500", "093205.870000", "093207.660000", "093206.067500", "093207.857500", "093206.267500", "093208.057500", "093206.465000", "093208.255000", "093205.670000", "093211.060000", "093208.475000", "093210.265000", "093208.675000", "093210.465000", "093208.872500", "093210.662500", "093209.072500", "093210.862500", "093209.470000", "093211.260000", "093209.667500", "093211.457500", "093209.867500", "093211.657500", "093210.065000", "093211.855000", "093209.270000", "093211.060000", "093208.475000", "093210.265000", "093208.675000", "093210.465000", "093208.872500", "093210.662500", "093209.072500", "093210.862500", "093209.470000", "093211.260000", "093209.667500", "093211.457500", "093209.867500", "093211.657500", "093210.065000", "093211.855000", "093209.270000", "093211.060000", "093208.475000", "093210.265000", "093208.675000", "093210.465000", "093208.872500", "093210.662500", "093209.072500", "093210.862500", "093209.470000", "093211.260000", "093209.667500", "093211.457500", "093209.867500", "093211.657500", "093210.065000", "093211.855000", "093209.270000", "093211.060000", "093208.475000", "093210.265000", "093208.675000", "093210.465000", "093208.872500", "093210.662500", "093209.072500", "093210.862500", "093209.470000", "093211.260000", "093209.667500", "093211.457500", "093209.867500", "093211.657500", "093210.065000", "093211.855000", "093209.270000", "093214.660000", "093212.075000", "093213.865000", "093212.275000", "093214.065000", "093212.472500", "093214.262500", "093212.672500", "093214.462500", "093213.070000", "093214.860000", "093213.267500", "093215.057500", "093213.467500", "093215.257500", "093213.665000", "093215.455000", "093212.870000", "093214.660000", "093212.075000", "093213.865000", "093212.275000", "093214.065000", "093212.472500", "093214.262500", "093212.672500", "093214.462500", "093213.070000", "093214.860000", "093213.267500", "093215.057500", "093213.467500", "093215.257500", "093213.665000", "093215.455000", "093212.870000", "093214.660000", "093212.075000", "093213.865000", "093212.275000", "093214.065000", "093212.472500", "093214.262500", "093212.672500", "093214.462500", "093213.070000", "093214.860000", "093213.267500", "093215.057500", "093213.467500", "093215.257500", "093213.665000", "093215.455000", "093212.870000", "093214.660000", "093212.075000", "093213.865000", "093212.275000", "093214.065000", "093212.472500", "093214.262500", "093212.672500", "093214.462500", "093213.070000", "093214.860000", "093213.267500", "093215.057500", "093213.467500", "093215.257500", "093213.665000", "093215.455000", "093212.870000", "093218.260000", "093215.675000", "093217.465000", "093215.875000", "093217.665000", "093216.072500", "093217.862500", "093216.272500", "093218.062500", "093216.670000", "093218.460000", "093216.867500", "093218.657500", "093217.067500", "093218.857500", "093217.265000", "093219.055000", "093216.470000", "093218.260000", "093215.675000", "093217.465000", "093215.875000", "093217.665000", "093216.072500", "093217.862500", "093216.272500", "093218.062500", "093216.670000", "093218.460000", "093216.867500", "093218.657500", "093217.067500", "093218.857500", "093217.265000", "093219.055000", "093216.470000", "093218.260000", "093215.675000", "093217.465000", "093215.875000", "093217.665000", "093216.072500", "093217.862500", "093216.272500", "093218.062500", "093216.670000", "093218.460000", "093216.867500", "093218.657500", "093217.067500", "093218.857500", "093217.265000", "093219.055000", "093216.470000", "093218.260000", "093215.675000", "093217.465000", "093215.875000", "093217.665000", "093216.072500", "093217.862500", "093216.272500", "093218.062500", "093216.670000", "093218.460000", "093216.867500", "093218.657500", "093217.067500", "093218.857500", "093217.265000", "093219.055000", "093216.470000", "093221.860000", "093219.275000", "093221.065000", "093219.475000", "093221.265000", "093219.672500", "093221.462500", "093219.872500", "093221.662500", "093220.270000", "093222.060000", "093220.467500", "093222.257500", "093220.667500", "093222.457500", "093220.865000", "093222.655000", "093220.070000", "093221.860000", "093219.275000", "093221.065000", "093219.475000", "093221.265000", "093219.672500", "093221.462500", "093219.872500", "093221.662500", "093220.270000", "093222.060000", "093220.467500", "093222.257500", "093220.667500", "093222.457500", "093220.865000", "093222.655000", "093220.070000", "093221.860000", "093219.275000", "093221.065000", "093219.475000", "093221.265000", "093219.672500", "093221.462500", "093219.872500", "093221.662500", "093220.270000", "093222.060000", "093220.467500", "093222.257500", "093220.667500", "093222.457500", "093220.865000", "093222.655000", "093220.070000", "093221.860000", "093219.275000", "093221.065000", "093219.475000", "093221.265000", "093219.672500", "093221.462500", "093219.872500", "093221.662500", "093220.270000", "093222.060000", "093220.467500", "093222.257500", "093220.667500", "093222.457500", "093220.865000", "093222.655000", "093220.070000", "093225.460000", "093222.875000", "093224.665000", "093223.075000", "093224.865000", "093223.272500", "093225.062500", "093223.472500", "093225.262500", "093223.870000", "093225.660000", "093224.067500", "093225.857500", "093224.267500", "093226.057500", "093224.465000", "093226.255000", "093223.670000", "093225.460000", "093222.875000", "093224.665000", "093223.075000", "093224.865000", "093223.272500", "093225.062500", "093223.472500", "093225.262500", "093223.870000", "093225.660000", "093224.067500", "093225.857500", "093224.267500", "093226.057500", "093224.465000", "093226.255000", "093223.670000", "093225.460000", "093222.875000", "093224.665000", "093223.075000", "093224.865000", "093223.272500", "093225.062500", "093223.472500", "093225.262500", "093223.870000", "093225.660000", "093224.067500", "093225.857500", "093224.267500", "093226.057500", "093224.465000", "093226.255000", "093223.670000", "093225.460000", "093222.875000", "093224.665000", "093223.075000", "093224.865000", "093223.272500", "093225.062500", "093223.472500", "093225.262500", "093223.870000", "093225.660000", "093224.067500", "093225.857500", "093224.267500", "093226.057500", "093224.465000", "093226.255000", "093223.670000", "093229.060000", "093226.475000", "093228.265000", "093226.675000", "093228.465000", "093226.872500", "093228.662500", "093227.072500", "093228.862500", "093227.470000", "093229.260000", "093227.667500", "093229.457500", "093227.867500", "093229.657500", "093228.065000", "093229.855000", "093227.270000", "093229.060000", "093226.475000", "093228.265000", "093226.675000", "093228.465000", "093226.872500", "093228.662500", "093227.072500", "093228.862500", "093227.470000", "093229.260000", "093227.667500", "093229.457500", "093227.867500", "093229.657500", "093228.065000", "093229.855000", "093227.270000", "093229.060000", "093226.475000", "093228.265000", "093226.675000", "093228.465000", "093226.872500", "093228.662500", "093227.072500", "093228.862500", "093227.470000", "093229.260000", "093227.667500", "093229.457500", "093227.867500", "093229.657500", "093228.065000", "093229.855000", "093227.270000", "093229.060000", "093226.475000", "093228.265000", "093226.675000", "093228.465000", "093226.872500", "093228.662500", "093227.072500", "093228.862500", "093227.470000", "093229.260000", "093227.667500", "093229.457500", "093227.867500", "093229.657500", "093228.065000", "093229.855000", "093227.270000", "093232.660000", "093230.075000", "093231.865000", "093230.275000", "093232.065000", "093230.472500", "093232.262500", "093230.672500", "093232.462500", "093231.070000", "093232.860000", "093231.267500", "093233.057500", "093231.467500", "093233.257500", "093231.665000", "093233.455000", "093230.870000", "093232.660000", "093230.075000", "093231.865000", "093230.275000", "093232.065000", "093230.472500", "093232.262500", "093230.672500", "093232.462500", "093231.070000", "093232.860000", "093231.267500", "093233.057500", "093231.467500", "093233.257500", "093231.665000", "093233.455000", "093230.870000", "093232.660000", "093230.075000", "093231.865000", "093230.275000", "093232.065000", "093230.472500", "093232.262500", "093230.672500", "093232.462500", "093231.070000", "093232.860000", "093231.267500", "093233.057500", "093231.467500", "093233.257500", "093231.665000", "093233.455000", "093230.870000", "093232.660000", "093230.075000", "093231.865000", "093230.275000", "093232.065000", "093230.472500", "093232.262500", "093230.672500", "093232.462500", "093231.070000", "093232.860000", "093231.267500", "093233.057500", "093231.467500", "093233.257500", "093231.665000", "093233.455000", "093230.870000", "093236.260000", "093233.675000", "093235.465000", "093233.875000", "093235.665000", "093234.072500", "093235.862500", "093234.272500", "093236.062500", "093234.670000", "093236.460000", "093234.867500", "093236.657500", "093235.067500", "093236.857500", "093235.265000", "093237.055000", "093234.470000", "093236.260000", "093233.675000", "093235.465000", "093233.875000", "093235.665000", "093234.072500", "093235.862500", "093234.272500", "093236.062500", "093234.670000", "093236.460000", "093234.867500", "093236.657500", "093235.067500", "093236.857500", "093235.265000", "093237.055000", "093234.470000", "093236.260000", "093233.675000", "093235.465000", "093233.875000", "093235.665000", "093234.072500", "093235.862500", "093234.272500", "093236.062500", "093234.670000", "093236.460000", "093234.867500", "093236.657500", "093235.067500", "093236.857500", "093235.265000", "093237.055000", "093234.470000", "093236.260000", "093233.675000", "093235.465000", "093233.875000", "093235.665000", "093234.072500", "093235.862500", "093234.272500", "093236.062500", "093234.670000", "093236.460000", "093234.867500", "093236.657500", "093235.067500", "093236.857500", "093235.265000", "093237.055000", "093234.470000", "093239.860000", "093237.275000", "093239.065000", "093237.475000", "093239.265000", "093237.672500", "093239.462500", "093237.872500", "093239.662500", "093238.270000", "093240.060000", "093238.467500", "093240.257500", "093238.667500", "093240.457500", "093238.865000", "093240.655000", "093238.070000", "093239.860000", "093237.275000", "093239.065000", "093237.475000", "093239.265000", "093237.672500", "093239.462500", "093237.872500", "093239.662500", "093238.270000", "093240.060000", "093238.467500", "093240.257500", "093238.667500", "093240.457500", "093238.865000", "093240.655000", "093238.070000", "093239.860000", "093237.275000", "093239.065000", "093237.475000", "093239.265000", "093237.672500", "093239.462500", "093237.872500", "093239.662500", "093238.270000", "093240.060000", "093238.467500", "093240.257500", "093238.667500", "093240.457500", "093238.865000", "093240.655000", "093238.070000", "093239.860000", "093237.275000", "093239.065000", "093237.475000", "093239.265000", "093237.672500", "093239.462500", "093237.872500", "093239.662500", "093238.270000", "093240.060000", "093238.467500", "093240.257500", "093238.667500", "093240.457500", "093238.865000", "093240.655000", "093238.070000", "093243.460000", "093240.875000", "093242.665000", "093241.075000", "093242.865000", "093241.272500", "093243.062500", "093241.472500", "093243.262500", "093241.870000", "093243.660000", "093242.067500", "093243.857500", "093242.267500", "093244.057500", "093242.465000", "093244.255000", "093241.670000", "093243.460000", "093240.875000", "093242.665000", "093241.075000", "093242.865000", "093241.272500", "093243.062500", "093241.472500", "093243.262500", "093241.870000", "093243.660000", "093242.067500", "093243.857500", "093242.267500", "093244.057500", "093242.465000", "093244.255000", "093241.670000", "093243.460000", "093240.875000", "093242.665000", "093241.075000", "093242.865000", "093241.272500", "093243.062500", "093241.472500", "093243.262500", "093241.870000", "093243.660000", "093242.067500", "093243.857500", "093242.267500", "093244.057500", "093242.465000", "093244.255000", "093241.670000", "093243.460000", "093240.875000", "093242.665000", "093241.075000", "093242.865000", "093241.272500", "093243.062500", "093241.472500", "093243.262500", "093241.870000", "093243.660000", "093242.067500", "093243.857500", "093242.267500", "093244.057500", "093242.465000", "093244.255000", "093241.670000", "093247.060000", "093244.475000", "093246.265000", "093244.675000", "093246.465000", "093244.872500", "093246.662500", "093245.072500", "093246.862500", "093245.470000", "093247.260000", "093245.667500", "093247.457500", "093245.867500", "093247.657500", "093246.065000", "093247.855000", "093245.270000", "093247.060000", "093244.475000", "093246.265000", "093244.675000", "093246.465000", "093244.872500", "093246.662500", "093245.072500", "093246.862500", "093245.470000", "093247.260000", "093245.667500", "093247.457500", "093245.867500", "093247.657500", "093246.065000", "093247.855000", "093245.270000", "093247.060000", "093244.475000", "093246.265000", "093244.675000", "093246.465000", "093244.872500", "093246.662500", "093245.072500", "093246.862500", "093245.470000", "093247.260000", "093245.667500", "093247.457500", "093245.867500", "093247.657500", "093246.065000", "093247.855000", "093245.270000", "093247.060000", "093244.475000", "093246.265000", "093244.675000", "093246.465000", "093244.872500", "093246.662500", "093245.072500", "093246.862500", "093245.470000", "093247.260000", "093245.667500", "093247.457500", "093245.867500", "093247.657500", "093246.065000", "093247.855000", "093245.270000", "093250.660000", "093248.075000", "093249.865000", "093248.275000", "093250.065000", "093248.472500", "093250.262500", "093248.672500", "093250.462500", "093249.070000", "093250.860000", "093249.267500", "093251.057500", "093249.467500", "093251.257500", "093249.665000", "093251.455000", "093248.870000", "093250.660000", "093248.075000", "093249.865000", "093248.275000", "093250.065000", "093248.472500", "093250.262500", "093248.672500", "093250.462500", "093249.070000", "093250.860000", "093249.267500", "093251.057500", "093249.467500", "093251.257500", "093249.665000", "093251.455000", "093248.870000", "093250.660000", "093248.075000", "093249.865000", "093248.275000", "093250.065000", "093248.472500", "093250.262500", "093248.672500", "093250.462500", "093249.070000", "093250.860000", "093249.267500", "093251.057500", "093249.467500", "093251.257500", "093249.665000", "093251.455000", "093248.870000", "093250.660000", "093248.075000", "093249.865000", "093248.275000", "093250.065000", "093248.472500", "093250.262500", "093248.672500", "093250.462500", "093249.070000", "093250.860000", "093249.267500", "093251.057500", "093249.467500", "093251.257500", "093249.665000", "093251.455000", "093248.870000", "093254.260000", "093251.675000", "093253.465000", "093251.875000", "093253.665000", "093252.072500", "093253.862500", "093252.272500", "093254.062500", "093252.670000", "093254.460000", "093252.867500", "093254.657500", "093253.067500", "093254.857500", "093253.265000", "093255.055000", "093252.470000", "093254.260000", "093251.675000", "093253.465000", "093251.875000", "093253.665000", "093252.072500", "093253.862500", "093252.272500", "093254.062500", "093252.670000", "093254.460000", "093252.867500", "093254.657500", "093253.067500", "093254.857500", "093253.265000", "093255.055000", "093252.470000", "093254.260000", "093251.675000", "093253.465000", "093251.875000", "093253.665000", "093252.072500", "093253.862500", "093252.272500", "093254.062500", "093252.670000", "093254.460000", "093252.867500", "093254.657500", "093253.067500", "093254.857500", "093253.265000", "093255.055000", "093252.470000", "093254.260000", "093251.675000", "093253.465000", "093251.875000", "093253.665000", "093252.072500", "093253.862500", "093252.272500", "093254.062500", "093252.670000", "093254.460000", "093252.867500", "093254.657500", "093253.067500", "093254.857500", "093253.265000", "093255.055000", "093252.470000", "093257.860000", "093255.275000", "093257.065000", "093255.475000", "093257.265000", "093255.672500", "093257.462500", "093255.872500", "093257.662500", "093256.270000", "093258.060000", "093256.467500", "093258.257500", "093256.667500", "093258.457500", "093256.865000", "093258.655000", "093256.070000", "093257.860000", "093255.275000", "093257.065000", "093255.475000", "093257.265000", "093255.672500", "093257.462500", "093255.872500", "093257.662500", "093256.270000", "093258.060000", "093256.467500", "093258.257500", "093256.667500", "093258.457500", "093256.865000", "093258.655000", "093256.070000", "093257.860000", "093255.275000", "093257.065000", "093255.475000", "093257.265000", "093255.672500", "093257.462500", "093255.872500", "093257.662500", "093256.270000", "093258.060000", "093256.467500", "093258.257500", "093256.667500", "093258.457500", "093256.865000", "093258.655000", "093256.070000", "093257.860000", "093255.275000", "093257.065000", "093255.475000", "093257.265000", "093255.672500", "093257.462500", "093255.872500", "093257.662500", "093256.270000", "093258.060000", "09