{
  "AcquisitionMatrixPE": 122,
  "AcquisitionNumber": 1,
  "AcquisitionTime": "09:27:27.072500",
  "BandwidthPerPixelPhaseEncode": 28.76,
  "BaseResolution": 122,
  "BodyPartExamined": "BRAIN",
  "CoilCombinationMethod": "Adaptive Combine",
  "ConsistencyInfo": "N4_VE11C_LATEST_20160120",
  "ConversionSoftware": "dcm2niix",
  "ConversionSoftwareVersion": "v1.0.20220720",
  "DerivedVendorReportedEchoSpacing": 0.000570008,
  "DeviceSerialNumber": "66112",
  "DiffusionScheme": "Monopolar",
  "DwellTime": 2e-06,
  "EchoTime": 0.075,
  "EchoTrainLength": 61,
  "EffectiveEchoSpacing": 0.000285004,
  "FlipAngle": 90,
  "HeudiconvVersion": "0.13.1",
  "ImageOrientationPatientDICOM": [0.98658, 0.16291, 0.0109466, -0.158378, 0.938521, 0.306748],
  "ImageOrientationText": "Tra>Cor(17.7)>Sag(-2.3)",
  "ImageType": [
    "ORIGINAL",
    "PRIMARY",
    "DIFFUSION",
    "NONE",
    "ND",
    "NORM"
],
  "ImagingFrequency": 123.252,
  "InPlanePhaseEncodingDirectionDICOM": "COL",
  "InstitutionAddress": "Maynard 3,Hanover,NH,US,03755",
  "InstitutionName": "Dartmouth College - PBS",
  "InstitutionalDepartmentName": "Department",
  "MRAcquisitionType": "2D",
  "MagneticFieldStrength": 3,
  "Manufacturer": "Siemens",
  "ManufacturersModelName": "Prisma",
  "MatrixCoilMode": "GRAPPA",
  "Modality": "MR",
  "NonlinearGradientCorrection": false,
  "ParallelReductionFactorInPlane": 2,
  "PartialFourier": 1,
  "PatientPosition": "HFS",
  "PercentPhaseFOV": 100,
  "PercentSampling": 100,
  "PhaseEncodingDirection": "j-",
  "PhaseEncodingSteps": 122,
  "PhaseResolution": 1,
  "PixelBandwidth": 2050,
  "ProcedureStepDescription": "dbic^QA",
  "ProtocolName": "dwi_acq-DTI-30-p2",
  "PulseSequenceDetails": "%SiemensSeq%\\ep2d_diff",
  "ReceiveCoilActiveElements": "HEA;HEP",
  "ReceiveCoilName": "Head_32",
  "ReconMatrixPE": 122,
  "RefLinesPE": 38,
  "RepetitionTime": 7.7,
  "SAR": 0.101842,
  "ScanOptions": "FS",
  "ScanningSequence": "EP",
  "SequenceName": "*ep_b0",
  "SequenceVariant": "SK\\SP",
  "SeriesDescription": "dwi_acq-DTI-30-p2",
  "SeriesNumber": 8,
  "ShimSetting": [4145, -7696, -7516, 293, -54, -179, -76, 62],
  "SliceThickness": 2,
  "SliceTiming": [3.83594, 0, 3.94531, 0.10938, 4.05469, 0.21875, 4.17188, 0.32812, 4.28125, 0.4375, 4.39062, 0.54688, 4.49219, 0.65625, 4.60938, 0.76562, 4.71875, 0.875, 4.82812, 0.98438, 4.9375, 1.09375, 5.04688, 1.20312, 5.15625, 1.3125, 5.26562, 1.42188, 5.375, 1.53906, 5.48438, 1.64062, 5.59375, 1.75, 5.70312, 1.85938, 5.8125, 1.97656, 5.92188, 2.08594, 6.03125, 2.19531, 6.14062, 2.30469, 6.25, 2.41406, 6.35938, 2.52344, 6.46875, 2.63281, 6.57812, 2.74219, 6.6875, 2.85156, 6.79688, 2.96094, 6.91406, 3.07031, 7.02344, 3.17969, 7.13281, 3.28906, 7.24219, 3.39844, 7.35156, 3.50781, 7.46094, 3.61719, 7.57031, 3.72656],
  "SoftwareVersions": "syngo MR E11",
  "SpacingBetweenSlices": 2,
  "SpoilingState": true,
  "StationName": "AWP66112",
  "TotalReadoutTime": 0.0344855,
  "TxRefAmp": 230.168,
  "dcmmeta_affine": [
    [-1.9408135414123535, -0.31156274676322937, -0.07939761877059937, 143.12847900390625],
    [-0.3204787075519562, 1.8462711572647095, 0.6087303161621094, -107.53849792480469],
    [0.021534204483032227, -0.603439450263977, 1.9034576416015625, -30.462316513061523],
    [0.0, 0.0, 0.0, 1.0]
],
  "dcmmeta_reorient_transform": [
    [0.0, -1.0, 0.0, 121.0],
    [1.0, 0.0, 0.0, 0.0],
    [0.0, 0.0, -1.0, 69.0],
    [0.0, 0.0, 0.0, 1.0]
],
  "dcmmeta_shape": [122, 122, 70, 31],
  "dcmmeta_slice_dim": 2,
  "dcmmeta_version": 0.6,
  "global": {
    "const": {
      "AccessionNumber": "qa",
      "AcquisitionMatrix": [122, 0, 0, 122],
      "AngioFlag": "N",
      "BitsAllocated": 16,
      "BitsStored": 12,
      "BodyPartExamined": "BRAIN",
      "Columns": 122,
      "EchoNumbers": 1,
      "EchoTime": 75.0,
      "EchoTrainLength": 61,
      "FlipAngle": 90.0,
      "HighBit": 11,
      "ImageOrientationPatient": [0.98658020564826, 0.16291000824246, 0.01094655367999, -0.1583777210505, 0.93852114284164, 0.30674836904876],
      "ImageType": [
        "ORIGINAL",
        "PRIMARY",
        "DIFFUSION",
        "NONE",
        "ND",
        "NORM"
],
      "ImagedNucleus": "1H",
      "ImagingFrequency": 123.252431,
      "InPlanePhaseEncodingDirection": "COL",
      "MRAcquisitionType": "2D",
      "MagneticFieldStrength": 3.0,
      "Manufacturer": "SIEMENS",
      "ManufacturerModelName": "Prisma",
      "Modality": "MR",
      "NumberOfAverages": 1.0,
      "NumberOfPhaseEncodingSteps": 122,
      "PercentPhaseFieldOfView": 100.0,
      "PercentSampling": 100.0,
      "PerformedProcedureStepStartTime": "091038.711000",
      "PhotometricInterpretation": "MONOCHROME2",
      "PixelBandwidth": 2050.0,
      "PixelRepresentation": 0,
      "PixelSpacing": [1.9672131538391, 1.9672131538391],
      "ProtocolName": "dwi_acq-DTI-30-p2",
      "RepetitionTime": 7700.0,
      "Rows": 122,
      "SAR": 0.10184175294015,
      "SamplesPerPixel": 1,
      "ScanOptions": "FS",
      "ScanningSequence": "EP",
      "SequenceVariant": [
        "SK",
        "SP"
],
      "SeriesDescription": "dwi_acq-DTI-30-p2",
      "SeriesNumber": 8,
      "SeriesTime": "092737.161000",
      "SliceThickness": 2.0,
      "SmallestImagePixelValue": 0,
      "SoftwareVersions": "syngo MR E11",
      "SpacingBetweenSlices": 2.0,
      "SpecificCharacterSet": "ISO_IR 100",
      "StudyID": "78",
      "StudyTime": "091038.617000",
      "TransmitCoilName": "Body",
      "VariableFlipAngleFlag": "N",
      "WindowCenterWidthExplanation": "Algo1",
      "dBdt": 0.0},
    "slices": {
      "AcquisitionTime": ["092727.072500", "092723.232500", "092727.182500", "092723.342500", "092727.292500", "092723.452500", "092727.402500", "092723.562500", "092727.512500", "092723.672500", "092727.622500", "092723.782500", "092727.730000", "092723.890000", "092727.840000", "092724.000000", "092727.950000", "092724.110000", "092728.060000", "092724.220000", "092728.170000", "092724.330000", "092728.280000", "092724.440000", "092728.390000", "092724.550000", "092728.500000", "092724.660000", "092728.607500", "092724.770000", "092728.717500", "092724.877500", "092728.827500", "092724.987500", "092728.937500", "092725.097500", "092729.047500", "092725.207500", "092729.157500", "092725.317500", "092729.267500", "092725.427500", "092729.377500", "092725.537500", "092729.487500", "092725.647500", "092729.595000", "092725.755000", "092729.705000", "092725.865000", "092729.815000", "092725.975000", "092729.925000", "092726.085000", "092730.035000", "092726.195000", "092730.145000", "092726.305000", "092730.255000", "092726.415000", "092730.365000", "092726.525000", "092730.475000", "092726.635000", "092730.582500", "092726.742500", "092730.692500", "092726.852500", "092730.802500", "092726.962500", "092734.772500", "092730.932500", "092734.882500", "092731.042500", "092734.992500", "092731.152500", "092735.102500", "092731.262500", "092735.212500", "092731.372500", "092735.322500", "092731.482500", "092735.430000", "092731.590000", "092735.540000", "092731.700000", "092735.650000", "092731.810000", "092735.760000", "092731.920000", "092735.870000", "092732.030000", "092735.980000", "092732.140000", "092736.090000", "092732.250000", "092736.200000", "092732.360000", "092736.307500", "092732.470000", "092736.417500", "092732.577500", "092736.527500", "092732.687500", "092736.637500", "092732.797500", "092736.747500", "092732.907500", "092736.857500", "092733.017500", "092736.967500", "092733.127500", "092737.077500", "092733.237500", "092737.187500", "092733.347500", "092737.295000", "092733.455000", "092737.405000", "092733.565000", "092737.515000", "092733.675000", "092737.625000", "092733.785000", "092737.735000", "092733.895000", "092737.845000", "092734.005000", "092737.955000", "092734.115000", "092738.065000", "092734.225000", "092738.175000", "092734.335000", "092738.282500", "092734.442500", "092738.392500", "092734.552500", "092738.502500", "092734.662500", "092742.472500", "092738.632500", "092742.582500", "092738.742500", "092742.692500", "092738.852500", "092742.802500", "092738.962500", "092742.912500", "092739.072500", "092743.022500", "092739.182500", "092743.130000", "092739.290000", "092743.240000", "092739.400000", "092743.350000", "092739.510000", "092743.460000", "092739.620000", "092743.570000", "092739.730000", "092743.680000", "092739.840000", "092743.790000", "092739.950000", "092743.900000", "092740.060000", "092744.007500", "092740.170000", "092744.117500", "092740.277500", "092744.227500", "092740.387500", "092744.337500", "092740.497500", "092744.447500", "092740.607500", "092744.557500", "092740.717500", "092744.667500", "092740.827500", "092744.777500", "092740.937500", "092744.887500", "092741.047500", "092744.995000", "092741.155000", "092745.105000", "092741.265000", "092745.215000", "092741.375000", "092745.325000", "092741.485000", "092745.435000", "092741.595000", "092745.545000", "092741.705000", "092745.655000", "092741.815000", "092745.765000", "092741.925000", "092745.875000", "092742.035000", "092745.982500", "092742.142500", "092746.092500", "092742.252500", "092746.202500", "092742.362500", "092750.172500", "092746.332500", "092750.282500", "092746.442500", "092750.392500", "092746.552500", "092750.502500", "092746.662500", "092750.612500", "092746.772500", "092750.722500", "092746.882500", "092750.830000", "092746.990000", "092750.940000", "092747.100000", "092751.050000", "092747.210000", "092751.160000", "092747.320000", "092751.270000", "092747.430000", "092751.380000", "092747.540000", "092751.490000", "092747.650000", "092751.600000", "092747.760000", "092751.707500", "092747.870000", "092751.817500", "092747.977500", "092751.927500", "092748.087500", "092752.037500", "092748.197500", "092752.147500", "092748.307500", "092752.257500", "092748.417500", "092752.367500", "092748.527500", "092752.477500", "092748.637500", "092752.587500", "092748.747500", "092752.695000", "092748.855000", "092752.805000", "092748.965000", "092752.915000", "092749.075000", "092753.025000", "092749.185000", "092753.135000", "092749.295000", "092753.245000", "092749.405000", "092753.355000", "092749.515000", "092753.465000", "092749.625000", "092753.575000", "092749.735000", "092753.682500", "092749.842500", "092753.792500", "092749.952500", "092753.902500", "092750.062500", "092757.872500", "092754.032500", "092757.982500", "092754.142500", "092758.092500", "092754.252500", "092758.202500", "092754.362500", "092758.312500", "092754.472500", "092758.422500", "092754.582500", "092758.530000", "092754.690000", "092758.640000", "092754.800000", "092758.750000", "092754.910000", "092758.860000", "092755.020000", "092758.970000", "092755.130000", "092759.080000", "092755.240000", "092759.190000", "092755.350000", "092759.300000", "092755.460000", "092759.407500", "092755.570000", "092759.517500", "092755.677500", "092759.627500", "092755.787500", "092759.737500", "092755.897500", "092759.847500", "092756.007500", "092759.957500", "092756.117500", "092800.067500", "092756.227500", "092800.177500", "092756.337500", "092800.287500", "092756.447500", "092800.395000", "092756.555000", "092800.505000", "092756.665000", "092800.615000", "092756.775000", "092800.725000", "092756.885000", "092800.835000", "092756.995000", "092800.945000", "092757.105000", "092801.055000", "092757.215000", "092801.165000", "092757.325000", "092801.275000", "092757.435000", "092801.382500", "092757.542500", "092801.492500", "092757.652500", "092801.602500", "092757.762500", "092805.572500", "092801.732500", "092805.682500", "092801.842500", "092805.792500", "092801.952500", "092805.902500", "092802.062500", "092806.012500", "092802.172500", "092806.122500", "092802.282500", "092806.230000", "092802.390000", "092806.340000", "092802.500000", "092806.450000", "092802.610000", "092806.560000", "092802.720000", "092806.670000", "092802.830000", "092806.780000", "092802.940000", "092806.890000", "092803.050000", "092807.000000", "092803.160000", "092807.107500", "092803.270000", "092807.217500", "092803.377500", "092807.327500", "092803.487500", "092807.437500", "092803.597500", "092807.547500", "092803.707500", "092807.657500", "092803.817500", "092807.767500", "092803.927500", "092807.877500", "092804.037500", "092807.987500", "092804.147500", "092808.095000", "092804.255000", "092808.205000", "092804.365000", "092808.315000", "092804.475000", "092808.425000", "092804.585000", "092808.535000", "092804.695000", "092808.645000", "092804.805000", "092808.755000", "092804.915000", "092808.865000", "092805.025000", "092808.975000", "092805.135000", "092809.082500", "092805.242500", "092809.192500", "092805.352500", "092809.302500", "092805.462500", "092813.272500", "092809.432500", "092813.382500", "092809.542500", "092813.492500", "092809.652500", "092813.602500", "092809.762500", "092813.712500", "092809.872500", "092813.822500", "092809.982500", "092813.930000", "092810.090000", "092814.040000", "092810.200000", "092814.150000", "092810.310000", "092814.260000", "092810.420000", "092814.370000", "092810.530000", "092814.480000", "092810.640000", "092814.590000", "092810.750000", "092814.700000", "092810.860000", "092814.807500", "092810.970000", "092814.917500", "092811.077500", "092815.027500", "092811.187500", "092815.137500", "092811.297500", "092815.247500", "092811.407500", "092815.357500", "092811.517500", "092815.467500", "092811.627500", "092815.577500", "092811.737500", "092815.687500", "092811.847500", "092815.795000", "092811.955000", "092815.905000", "092812.065000", "092816.015000", "092812.175000", "092816.125000", "092812.285000", "092816.235000", "092812.395000", "092816.345000", "092812.505000", "092816.455000", "092812.615000", "092816.565000", "092812.725000", "092816.675000", "092812.835000", "092816.782500", "092812.942500", "092816.892500", "092813.052500", "092817.002500", "092813.162500", "092820.972500", "092817.132500", "092821.082500", "092817.242500", "092821.192500", "092817.352500", "092821.302500", "092817.462500", "092821.412500", "092817.572500", "092821.522500", "092817.682500", "092821.630000", "092817.790000", "092821.740000", "092817.900000", "092821.850000", "092818.010000", "092821.960000", "092818.120000", "092822.070000", "092818.230000", "092822.180000", "092818.340000", "092822.290000", "092818.450000", "092822.400000", "092818.560000", "092822.507500", "092818.670000", "092822.617500", "092818.777500", "092822.727500", "092818.887500", "092822.837500", "092818.997500", "092822.947500", "092819.107500", "092823.057500", "092819.217500", "092823.167500", "092819.327500", "092823.277500", "092819.437500", "092823.387500", "092819.547500", "092823.495000", "092819.655000", "092823.605000", "092819.765000", "092823.715000", "092819.875000", "092823.825000", "092819.985000", "092823.935000", "092820.095000", "092824.045000", "092820.205000", "092824.155000", "092820.315000", "092824.265000", "092820.425000", "092824.375000", "092820.535000", "092824.482500", "092820.642500", "092824.592500", "092820.752500", "092824.702500", "092820.862500", "092828.672500", "092824.832500", "092828.782500", "092824.942500", "092828.892500", "092825.052500", "092829.002500", "092825.162500", "092829.112500", "092825.272500", "092829.222500", "092825.382500", "092829.330000", "092825.490000", "092829.440000", "092825.600000", "092829.550000", "092825.710000", "092829.660000", "092825.820000", "092829.770000", "092825.930000", "092829.880000", "092826.040000", "092829.990000", "092826.150000", "092830.100000", "092826.260000", "092830.207500", "092826.370000", "092830.317500", "092826.477500", "092830.427500", "092826.587500", "092830.537500", "092826.697500", "092830.647500", "092826.807500", "092830.757500", "092826.917500", "092830.867500", "092827.027500", "092830.977500", "092827.137500", "092831.087500", "092827.247500", "092831.195000", "092827.355000", "092831.305000", "092827.465000", "092831.415000", "092827.575000", "092831.525000", "092827.685000", "092831.635000", "092827.795000", "092831.745000", "092827.905000", "092831.855000", "092828.015000", "092831.965000", "092828.125000", "092832.075000", "092828.235000", "092832.182500", "092828.342500", "092832.292500", "092828.452500", "092832.402500", "092828.562500", "092836.372500", "092832.532500", "092836.482500", "092832.642500", "092836.592500", "092832.752500", "092836.702500", "092832.862500", "092836.812500", "092832.972500", "092836.922500", "092833.082500", "092837.030000", "092833.190000", "092837.140000", "092833.300000", "092837.250000", "092833.410000", "092837.360000", "092833.520000", "092837.470000", "092833.630000", "092837.580000", "092833.740000", "092837.690000", "092833.850000", "092837.800000", "092833.960000", "092837.907500", "092834.070000", "092838.017500", "092834.177500", "092838.127500", "092834.287500", "092838.237500", "092834.397500", "092838.347500", "092834.507500", "092838.457500", "092834.617500", "092838.567500", "092834.727500", "092838.677500", "092834.837500", "092838.787500", "092834.947500", "092838.895000", "092835.055000", "092839.005000", "092835.165000", "092839.115000", "092835.275000", "092839.225000", "092835.385000", "092839.335000", "092835.495000", "092839.445000", "092835.605000", "092839.555000", "092835.715000", "092839.665000", "092835.825000", "092839.775000", "092835.935000", "092839.882500", "092836.042500", "092839.992500", "092836.152500", "092840.102500", "092836.262500", "092844.072500", "092840.232500", "092844.182500", "092840.342500", "092844.292500", "092840.452500", "092844.402500", "092840.562500", "092844.512500", "092840.672500", "092844.622500", "092840.782500", "092844.730000", "092840.890000", "092844.840000", "092841.000000", "092844.950000", "092841.110000", "092845.060000", "092841.220000", "092845.170000", "092841.330000", "092845.280000", "092841.440000", "092845.390000", "092841.550000", "092845.500000", "092841.660000", "092845.607500", "092841.770000", "092845.717500", "092841.877500", "092845.827500", "092841.987500", "092845.937500", "092842.097500", "092846.047500", "092842.207500", "092846.157500", "092842.317500", "092846.267500", "092842.427500", "092846.377500", "092842.537500", "092846.487500", "092842.647500", "092846.595000", "092842.755000", "092846.705000", "092842.865000", "092846.815000", "092842.975000", "092846.925000", "092843.085000", "092847.035000", "092843.195000", "092847.145000", "092843.305000", "092847.255000", "092843.415000", "092847.365000", "092843.525000", "092847.475000", "092843.635000", "092847.582500", "092843.742500", "092847.692500", "092843.852500", "092847.802500", "092843.962500", "092851.772500", "092847.932500", "092851.882500", "092848.042500", "092851.992500", "092848.152500", "092852.102500", "092848.262500", "092852.212500", "092848.372500", "092852.322500", "092848.482500", "092852.430000", "092848.590000", "092852.540000", "092848.700000", "092852.650000", "092848.810000", "092852.760000", "092848.920000", "092852.870000", "092849.030000", "092852.980000", "092849.140000", "092853.090000", "092849.250000", "092853.200000", "092849.360000", "092853.307500", "092849.470000", "092853.417500", "092849.577500", "092853.527500", "092849.687500", "092853.637500", "092849.797500", "092853.747500", "092849.907500", "092853.857500", "092850.017500", "092853.967500", "092850.127500", "092854.077500", "092850.237500", "092854.187500", "092850.347500", "092854.295000", "092850.455000", "092854.405000", "092850.565000", "092854.515000", "092850.675000", "092854.625000", "092850.785000", "092854.735000", "092850.895000", "092854.845000", "092851.005000", "092854.955000", "092851.115000", "092855.065000", "092851.225000", "092855.175000", "092851.335000", "092855.282500", "092851.442500", "092855.392500", "092851.552500", "092855.502500", "092851.662500", "092859.472500", "092855.632500", "092859.582500", "092855.742500", "092859.692500", "092855.852500", "092859.802500", "092855.962500", "092859.912500", "092856.072500", "092900.022500", "092856.182500", "092900.130000", "092856.290000", "092900.240000", "092856.400000", "092900.350000", "092856.510000", "092900.460000", "092856.620000", "092900.570000", "092856.730000", "092900.680000", "092856.840000", "092900.790000", "092856.950000", "092900.900000", "092857.060000", "092901.007500", "092857.170000", "092901.117500", "092857.277500", "092901.227500", "092857.387500", "092901.337500", "092857.497500", "092901.447500", "092857.607500", "092901.557500", "092857.717500", "092901.667500", "092857.827500", "092901.777500", "092857.937500", "092901.887500", "092858.047500", "092901.995000", "092858.155000", "092902.105000", "092858.265000", "092902.215000", "092858.375000", "092902.325000", "092858.485000", "092902.435000", "092858.595000", "092902.545000", "092858.705000", "092902.655000", "092858.815000", "092902.765000", "092858.925000", "092902.875000", "092859.035000", "092902.982500", "092859.142500", "092903.092500", "092859.252500", "092903.202500", "092859.362500", "092907.172500", "092903.332500", "092907.282500", "092903.442500", "092907.392500", "092903.552500", "092907.502500", "092903.662500", "092907.612500", "092903.772500", "092907.722500", "092903.882500", "092907.830000", "092903.990000", "092907.940000", "092904.100000", "092908.050000", "092904.210000", "092908.160000", "092904.320000", "092908.270000", "092904.430000", "092908.380000", "092904.540000", "092908.490000", "092904.650000", "092908.600000", "092904.760000", "092908.707500", "092904.870000", "092908.817500", "092904.977500", "092908.927500", "092905.087500", "092909.037500", "092905.197500", "092909.147500", "092905.307500", "092909.257500", "092905.417500", "092909.367500", "092905.527500", "092909.477500", "092905.637500", "092909.587500", "092905.747500", "092909.695000", "092905.855000", "092909.805000", "092905.965000", "092909.915000", "092906.075000", "092910.025000", "092906.185000", "092910.135000", "092906.295000", "092910.245000", "092906.405000", "092910.355000", "092906.515000", "092910.465000", "092906.625000", "092910.575000", "092906.735000", "092910.682500", "092906.842500", "092910.792500", "092906.952500", "092910.902500", "092907.062500", "092914.872500", "092911.032500", "092914.982500", "092911.142500", "092915.092500", "092911.252500", "092915.202500", "092911.362500", "092915.312500", "092911.472500", "092915.422500", "092911.582500", "092915.530000", "092911.690000", "092915.640000", "092911.800000", "092915.750000", "092911.910000", "092915.860000", "092912.020000", "092915.970000", "092912.130000", "092916.080000", "092912.240000", "092916.190000", "092912.350000", "092916.300000", "092912.460000", "092916.407500", "092912.570000", "092916.517500", "092912.677500", "092916.627500", "092912.787500", "092916.737500", "092912.897500", "092916.847500", "092913.007500", "092916.957500", "092913.117500", "092917.067500", "092913.227500", "092917.177500", "092913.337500", "092917.287500", "092913.447500", "092917.395000", "092913.555000", "092917.505000", "092913.665000", "092917.615000", "092913.775000", "092917.725000", "092913.885000", "092917.835000", "092913.995000", "092917.945000", "092914.105000", "092918.055000", "092914.215000", "092918.165000", "092914.325000", "092918.275000", "092914.435000", "092918.382500", "092914.542500", "092918.492500", "092914.652500", "092918.602500", "092914.762500", "092922.572500", "092918.732500", "092922.682500", "092918.842500", "092922.792500", "092918.952500", "092922.902500", "092919.062500", "092923.012500", "092919.172500", "092923.122500", "092919.282500", "092923.230000", "092919.390000", "092923.340000", "092919.500000", "092923.450000", "092919.610000", "092923.560000", "092919.720000", "092923.670000", "092919.830000", "092923.780000", "092919.940000", "092923.890000", "092920.050000", "092924.000000", "092920.160000", "092924.107500", "092920.270000", "092924.217500", "092920.377500", "092924.327500", "092920.487500", "092924.437500", "092920.597500", "092924.547500", "092920.707500", "092924.657500", "092920.817500", "092924.767500", "092920.927500", "092924.877500", "092921.037500", "092924.987500", "092921.147500", "092925.095000", "092921.255000", "092925.205000", "092921.365000", "092925.315000", "092921.475000", "092925.425000", "092921.585000", "092925.535000", "092921.695000", "092925.645000", "092921.805000", "092925.755000", "092921.915000", "092925.865000", "092922.025000", "092925.975000", "092922.135000", "092926.082500", "092922.242500", "092926.192500", "092922.352500", "092926.302500", "092922.462500", "092930.272500", "092926.432500", "092930.382500", "092926.542500", "092930.492500", "092926.652500", "092930.602500", "092926.762500", "092930.712500", "092926.872500", "092930.822500", "092926.982500", "092930.930000", "092927.090000", "092931.040000", "092927.200000", "092931.150000", "092927.310000", "092931.260000", "092927.420000", "092931.370000", "092927.530000", "092931.480000", "092927.640000", "092931.590000", "092927.750000", "092931.700000", "092927.860000", "092931.807500", "092927.970000", "092931.917500", "092928.077500", "092932.027500", "092928.187500", "092932.137500", "092928.297500", "092932.247500", "092928.407500", "092932.357500", "092928.517500", "092932.467500", "092928.627500", "092932.577500", "092928.737500", "092932.687500", "092928.847500", "092932.795000", "092928.955000", "092932.905000", "092929.065000", "092933.015000", "092929.175000", "092933.125000", "092929.285000", "092933.235000", "092929.395000", "092933.345000", "092929.505000", "092933.455000", "092929.615000", "092933.565000", "092929.725000", "092933.675000", "092929.835000", "092933.782500", "092929.942500", "092933.892500", "092930.052500", "092934.002500", "092930.162500", "092937.972500", "092934.132500", "092938.082500", "092934.242500", "092938.192500", "092934.352500", "092938.302500", "092934.462500", "092938.412500", "092934.572500", "092938.522500", "092934.682500", "092938.630000", "092934.790000", "092938.740000", "092934.900000", "092938.850000", "092935.010000", "092938.960000", "092935.120000", "092939.070000", "092935.230000", "092939.180000", "092935.340000", "092939.290000", "092935.450000", "092939.400000", "092935.560000", "092939.507500", "092935.670000", "092939.617500", "092935.777500", "092939.727500", "092935.887500", "092939.837500", "092935.997500", "092939.947500", "092936.107500", "092940.057500", "092936.217500", "092940.167500", "092936.327500", "092940.277500", "092936.437500", "092940.387500", "092936.547500", "092940.495000", "092936.655000", "092940.605000", "092936.765000", "092940.715000", "092936.875000", "092940.825000", "092936.985000", "092940.935000", "092937.095000", "092941.045000", "092937.205000", "092941.155000", "092937.315000", "092941.265000", "092937.425000", "092941.375000", "092937.535000", "092941.482500", "092937.642500", "092941.592500", "092937.752500", "092941.702500", "092937.862500", "092945.672500", "092941.832500", "092945.782500", "092941.942500", "092945.892500", "092942.052500", "092946.002500", "092942.162500", "092946.112500", "092942.272500", "092946.222500", "092942.382500", "092946.330000", "092942.490000", "092946.440000", "092942.600000", "092946.550000", "092942.710000", "092946.660000", "092942.820000", "092946.770000", "092942.930000", "092946.880000", "092943.040000", "092946.990000", "092943.150000", "092947.100000", "092943.260000", "092947.207500", "092943.370000", "092947.317500", "092943.477500", "092947.427500", "092943.587500", "092947.537500", "092943.697500", "092947.647500", "092943.807500", "092947.757500", "092943.917500", "092947.867500", "092944.027500", "092947.977500", "092944.137500", "092948.087500", "092944.247500", "092948.195000", "092944.355000", "092948.305000", "092944.465000", "092948.415000", "092944.575000", "092948.525000", "092944.685000", "092948.635000", "092944.795000", "092948.745000", "092944.905000", "092948.855000", "092945.015000", "092948.965000", "092945.125000", "092949.075000", "092945.235000", "092949.182500", "092945.342500", "092949.292500", "092945.452500", "092949.402500", "092945.562500", "092953.372500", "092949.532500", "092953.482500", "092949.642500", "092953.592500", "092949.752500", "092953.702500", "092949.862500", "092953.812500", "092949.972500", "092953.922500", "092950.082500", "092954.030000", "092950.190000", "092954.140000", "092950.300000", "092954.250000", "092950.410000", "092954.360000", "092950.520000", "092954.470000", "092950.630000", "092954.580000", "092950.740000", "092954.690000", "092950.850000", "092954.800000", "092950.960000", "092954.907500", "092951.070000", "092955.017500", "092951.177500", "092955.127500", "092951.287500", "092955.237500", "092951.397500", "092955.347500", "092951.507500", "092955.457500", "092951.617500", "092955.567500", "092951.727500", "092955.677500", "092951.837500", "092955.787500", "092951.947500", "092955.895000", "092952.055000", "092956.005000", "092952.165000", "092956.115000", "092952.275000", "092956.225000", "092952.385000", "092956.335000", "092952.495000", "092956.445000", "092952.605000", "092956.555000", "092952.715000", "092956.665000", "092952.825000", "092956.775000", "092952.935000", "092956.882500", "092953.042500", "092956.992500", "092953.152500", "092957.102500", "092953.262500", "093001.072500", "092957.232500", "093001.182500", "092957.342500", "093001.292500", "092957.452500", "093001.402500", "092957.562500", "093001.512500", "092957.672500", "093001.622500", "092957.782500", "093001.730000", "092957.890000", "093001.840000", "092958.000000", "093001.950000", "092958.110000", "093002.060000", "092958.220000", "093002.170000", "092958.330000", "093002.280000", "092958.440000", "093002.390000", "092958.550000", "093002.500000", "092958.660000", "093002.607500", "092958.770000", "093002.717500", "092958.877500", "093002.827500", "092958.987500", "093002.937500"