{
  "AcquisitionMatrixPE": 80,
  "AcquisitionNumber": 1,
  "AcquisitionTime": "09:13:51.470000",
  "BandwidthPerPixelPhaseEncode": 48.077,
  "BaseResolution": 80,
  "BodyPartExamined": "BRAIN",
  "CoilCombinationMethod": "Sum of Squares",
  "ConsistencyInfo": "N4_VE11C_LATEST_20160120",
  "ConversionSoftware": "dcm2niix",
  "ConversionSoftwareVersion": "v1.0.20220720",
  "DerivedVendorReportedEchoSpacing": 0.000519999,
  "DeviceSerialNumber": "66112",
  "DwellTime": 2.7e-06,
  "EchoTime": 0.035,
  "EchoTrainLength": 39,
  "EffectiveEchoSpacing": 0.00026,
  "FlipAngle": 90,
  "HeudiconvVersion": "0.13.1",
  "ImageOrientationPatientDICOM": [0.992458, 0.122396, 0.00678374, -0.118519, 0.943945, 0.308092],
  "ImageOrientationText": "Tra>Cor(17.9)>Sag(-1.8)",
  "ImageType": [
    "ORIGINAL",
    "PRIMARY",
    "M",
    "ND",
    "NORM",
    "MOSAIC"
],
  "ImagingFrequency": 123.252,
  "InPlanePhaseEncodingDirectionDICOM": "COL",
  "InstitutionAddress": "Maynard 3,Hanover,NH,US,03755",
  "InstitutionName": "Dartmouth College - PBS",
  "InstitutionalDepartmentName": "Department",
  "MRAcquisitionType": "2D",
  "MagneticFieldStrength": 3,
  "Manufacturer": "Siemens",
  "ManufacturersModelName": "Prisma",
  "MatrixCoilMode": "GRAPPA",
  "Modality": "MR",
  "NonlinearGradientCorrection": false,
  "ParallelReductionFactorInPlane": 2,
  "PartialFourier": 1,
  "PatientPosition": "HFS",
  "PercentPhaseFOV": 100,
  "PercentSampling": 100,
  "PhaseEncodingDirection": "j-",
  "PhaseEncodingSteps": 79,
  "PhaseResolution": 1,
  "PixelBandwidth": 2315,
  "ProcedureStepDescription": "dbic^QA",
  "ProtocolName": "func-bold_task-rest_acq-p2",
  "PulseSequenceDetails": "%SiemensSeq%\\ep2d_bold",
  "ReceiveCoilActiveElements": "HEA;HEP",
  "ReceiveCoilName": "Head_32",
  "ReconMatrixPE": 80,
  "RefLinesPE": 24,
  "RepetitionTime": 2,
  "SAR": 0.0552866,
  "ScanOptions": "FS",
  "ScanningSequence": "EP",
  "SequenceName": "*epfid2d1_80",
  "SequenceVariant": "SK",
  "SeriesDescription": "func-bold_task-rest_acq-p2",
  "SeriesNumber": 5,
  "ShimSetting": [4142, -7701, -7520, 268, -86, -37, -32, 82],
  "SliceThickness": 3.5,
  "SliceTiming": [0.99, 0, 1.055, 0.065, 1.1225, 0.1325, 1.1875, 0.1975, 1.2525, 0.265, 1.32, 0.33, 1.385, 0.395, 1.4525, 0.4625, 1.5175, 0.5275, 1.5825, 0.5925, 1.65, 0.66, 1.715, 0.725, 1.7825, 0.7925, 1.8475, 0.8575, 1.9125, 0.9225],
  "SoftwareVersions": "syngo MR E11",
  "SpacingBetweenSlices": 3.99,
  "StationName": "AWP66112",
  "TaskName": "rest",
  "TotalReadoutTime": 0.02054,
  "TxRefAmp": 223.007,
  "dcmmeta_affine": [
    [-2.977374315261841, -0.3555574417114258, -0.12491007149219513, 134.92535400390625],
    [-0.3671884834766388, 2.8318357467651367, 1.2232234477996826, -115.25131225585938],
    [0.02035123109817505, -0.9242756366729736, 3.795816421508789, -16.727014541625977],
    [0.0, 0.0, 0.0, 1.0]
],
  "dcmmeta_reorient_transform": [
    [0.0, -1.0, 0.0, 79.0],
    [1.0, 0.0, 0.0, 0.0],
    [0.0, 0.0, 1.0, 0.0],
    [0.0, 0.0, 0.0, 1.0]
],
  "dcmmeta_shape": [80, 80, 30, 200],
  "dcmmeta_slice_dim": 2,
  "dcmmeta_version": 0.6,
  "global": {
    "const": {
      "AccessionNumber": "qa",
      "AcquisitionMatrix": [80, 0, 0, 80],
      "AngioFlag": "N",
      "BitsAllocated": 16,
      "BitsStored": 12,
      "BodyPartExamined": "BRAIN",
      "Columns": 480,
      "EchoNumbers": 1,
      "EchoTime": 35.0,
      "EchoTrainLength": 39,
      "FlipAngle": 90.0,
      "HighBit": 11,
      "ImageOrientationPatient": [0.99245814029866, 0.12239616243445, 0.0067837435281, -0.1185191451466, 0.94394523286765, 0.30809188496316],
      "ImagePositionPatient": [-631.19971064283, -748.2685416628, -278.67016931059],
      "ImageType": [
        "ORIGINAL",
        "PRIMARY",
        "M",
        "ND",
        "NORM",
        "MOSAIC"
],
      "ImagedNucleus": "1H",
      "ImagingFrequency": 123.252354,
      "InPlanePhaseEncodingDirection": "COL",
      "MRAcquisitionType": "2D",
      "MagneticFieldStrength": 3.0,
      "Manufacturer": "SIEMENS",
      "ManufacturerModelName": "Prisma",
      "Modality": "MR",
      "NumberOfAverages": 1.0,
      "NumberOfPhaseEncodingSteps": 79,
      "PercentPhaseFieldOfView": 100.0,
      "PercentSampling": 100.0,
      "PerformedProcedureStepStartTime": "091157.467000",
      "PhotometricInterpretation": "MONOCHROME2",
      "PixelBandwidth": 2315.0,
      "PixelRepresentation": 0,
      "PixelSpacing": [3.0, 3.0],
      "ProtocolName": "func-bold_task-rest_acq-p2",
      "RepetitionTime": 2000.0,
      "Rows": 480,
      "SAR": 0.05528656231119,
      "SamplesPerPixel": 1,
      "ScanOptions": "FS",
      "ScanningSequence": "EP",
      "SequenceName": "*epfid2d1_80",
      "SequenceVariant": "SK",
      "SeriesDescription": "func-bold_task-rest_acq-p2",
      "SeriesNumber": 5,
      "SeriesTime": "091445.334000",
      "SliceLocation": -55.469756967617,
      "SliceThickness": 3.5,
      "SmallestImagePixelValue": 0,
      "SoftwareVersions": "syngo MR E11",
      "SpacingBetweenSlices": 3.9900000047853,
      "SpecificCharacterSet": "ISO_IR 100",
      "StudyID": "46",
      "StudyTime": "091157.415000",
      "TransmitCoilName": "Body",
      "VariableFlipAngleFlag": "N",
      "WindowCenterWidthExplanation": "Algo1",
      "dBdt": 0.0},
    "slices": {}
  },
  "time": {
    "samples": {
      "AcquisitionNumber": [1, 2, 3, 4, 5, 6, 7, 8, 9, 10, 11, 12, 13, 14, 15, 16, 17, 18, 19, 20, 21, 22, 23, 24, 25, 26, 27, 28, 29, 30, 31, 32, 33, 34, 35, 36, 37, 38, 39, 40, 41, 42, 43, 44, 45, 46, 47, 48, 49, 50, 51, 52, 53, 54, 55, 56, 57, 58, 59, 60, 61, 62, 63, 64, 65, 66, 67, 68, 69, 70, 71, 72, 73, 74, 75, 76, 77, 78, 79, 80, 81, 82, 83, 84, 85, 86, 87, 88, 89, 90, 91, 92, 93, 94, 95, 96, 97, 98, 99, 100, 101, 102, 103, 104, 105, 106, 107, 108, 109, 110, 111, 112, 113, 114, 115, 116, 117, 118, 119, 120, 121, 122, 123, 124, 125, 126, 127, 128, 129, 130, 131, 132, 133, 134, 135, 136, 137, 138, 139, 140, 141, 142, 143, 144, 145, 146, 147, 148, 149, 150, 151, 152, 153, 154, 155, 156, 157, 158, 159, 160, 161, 162, 163, 164, 165, 166, 167, 168, 169, 170, 171, 172, 173, 174, 175, 176, 177, 178, 179, 180, 181, 182, 183, 184, 185, 186, 187, 188, 189, 190, 191, 192, 193, 194, 195, 196, 197, 198, 199, 200],
      "AcquisitionTime": ["091351.470000", "091353.470000", "091355.470000", "091357.470000", "091359.470000", "091401.470000", "091403.470000", "091405.470000", "091407.470000", "091409.470000", "091411.470000", "091413.470000", "091415.470000", "091417.470000", "091419.470000", "091421.470000", "091423.470000", "091425.470000", "091427.470000", "091429.470000", "091431.470000", "091433.470000", "091435.470000", "091437.470000", "091439.470000", "091441.470000", "091443.470000", "091445.470000", "091447.470000", "091449.470000", "091451.470000", "091453.470000", "091455.470000", "091457.470000", "091459.470000", "091501.470000", "091503.470000", "091505.470000", "091507.470000", "091509.470000", "091511.470000", "091513.470000", "091515.470000", "091517.470000", "091519.470000", "091521.470000", "091523.470000", "091525.470000", "091527.470000", "091529.470000", "091531.470000", "091533.470000", "091535.470000", "091537.470000", "091539.470000", "091541.470000", "091543.470000", "091545.470000", "091547.470000", "091549.470000", "091551.470000", "091553.470000", "091555.470000", "091557.470000", "091559.470000", "091601.470000", "091603.470000", "091605.470000", "091607.470000", "091609.470000", "091611.470000", "091613.470000", "091615.470000", "091617.470000", "091619.470000", "091621.470000", "091623.470000", "091625.470000", "091627.470000", "091629.470000", "091631.470000", "091633.470000", "091635.470000", "091637.470000", "091639.470000", "091641.470000", "091643.470000", "091645.470000", "091647.470000", "091649.470000", "091651.470000", "091653.470000", "091655.470000", "091657.470000", "091659.470000", "091701.470000", "091703.470000", "091705.470000", "091707.470000", "091709.470000", "091711.470000", "091713.470000", "091715.470000", "091717.470000", "091719.470000", "091721.470000", "091723.470000", "091725.470000", "091727.470000", "091729.470000", "091731.470000", "091733.470000", "091735.470000", "091737.470000", "091739.470000", "091741.470000", "091743.470000", "091745.470000", "091747.470000", "091749.470000", "091751.470000", "091753.470000", "091755.470000", "091757.470000", "091759.470000", "091801.470000", "091803.470000", "091805.470000", "091807.470000", "091809.470000", "091811.470000", "091813.470000", "091815.470000", "091817.470000", "091819.470000", "091821.470000", "091823.470000", "091825.470000", "091827.470000", "091829.470000", "091831.470000", "091833.470000", "091835.470000", "091837.470000", "091839.470000", "091841.470000", "091843.470000", "091845.470000", "091847.470000", "091849.470000", "091851.470000", "091853.470000", "091855.470000", "091857.470000", "091859.470000", "091901.470000", "091903.470000", "091905.470000", "091907.470000", "091909.470000", "091911.470000", "091913.470000", "091915.470000", "091917.470000", "091919.470000", "091921.470000", "091923.470000", "091925.470000", "091927.470000", "091929.470000", "091931.470000", "091933.470000", "091935.470000", "091937.470000", "091939.470000", "091941.470000", "091943.470000", "091945.470000", "091947.470000", "091949.470000", "091951.470000", "091953.470000", "091955.470000", "091957.470000", "091959.470000", "092001.470000", "092003.470000", "092005.470000", "092007.470000", "092009.470000", "092011.470000", "092013.470000", "092015.470000", "092017.470000", "092019.470000", "092021.470000", "092023.470000", "092025.470000", "092027.470000", "092029.470000"],
      "ContentTime": ["091445.337000", "091445.341000", "091445.343000", "091445.346000", "091445.348000", "091445.351000", "091445.353000", "091445.356000", "091445.358000", "091445.361000", "091445.363000", "091445.366000", "091445.369000", "091445.371000", "091445.374000", "091445.376000", "091445.379000", "091445.381000", "091445.384000", "091445.386000", "091445.389000", "091445.391000", "091445.394000", "091445.396000", "091445.399000", "091445.401000", "091445.404000", "091525.332000", "091525.335000", "091525.338000", "091525.340000", "091525.343000", "091525.346000", "091525.348000", "091525.351000", "091525.353000", "091525.356000", "091525.358000", "091525.361000", "091525.363000", "091525.366000", "091525.368000", "091525.371000", "091525.373000", "091525.376000", "091525.379000", "091525.381000", "091605.332000", "091605.335000", "091605.338000", "091605.340000", "091605.343000", "091605.345000", "091605.348000", "091605.351000", "091605.353000", "091605.356000", "091605.358000", "091605.361000", "091605.363000", "091605.366000", "091605.368000", "091605.371000", "091605.373000", "091605.376000", "091605.378000", "091605.381000", "091645.333000", "091645.335000", "091645.338000", "091645.341000", "091645.343000", "091645.346000", "091645.348000", "091645.351000", "091645.353000", "091645.356000", "091645.358000", "091645.361000", "091645.363000", "091645.366000", "091645.368000", "091645.371000", "091645.374000", "091645.376000", "091645.379000", "091645.381000", "091725.332000", "091725.335000", "091725.338000", "091725.340000", "091725.343000", "091725.345000", "091725.348000", "091725.351000", "091725.353000", "091725.356000", "091725.358000", "091725.361000", "091725.363000", "091725.366000", "091725.368000", "091725.371000", "091725.373000", "091725.376000", "091725.379000", "091725.381000", "091805.334000", "091805.336000", "091805.339000", "091805.341000", "091805.344000", "091805.347000", "091805.349000", "091805.352000", "091805.354000", "091805.357000", "091805.359000", "091805.362000", "091805.364000", "091805.367000", "091805.370000", "091805.372000", "091805.375000", "091805.377000", "091805.380000", "091805.382000", "091845.332000", "091845.335000", "091845.338000", "091845.340000", "091845.343000", "091845.345000", "091845.348000", "091845.351000", "091845.353000", "091845.356000", "091845.358000", "091845.361000", "091845.363000", "091845.366000", "091845.368000", "091845.371000", "091845.373000", "091845.376000", "091845.379000", "091845.381000", "091925.333000", "091925.335000", "091925.338000", "091925.341000", "091925.343000", "091925.346000", "091925.348000", "091925.351000", "091925.353000", "091925.356000", "091925.358000", "091925.361000", "091925.364000", "091925.366000", "091925.369000", "091925.371000", "091925.374000", "091925.376000", "091925.379000", "091925.381000", "092005.333000", "092005.335000", "092005.338000", "092005.340000", "092005.343000", "092005.346000", "092005.348000", "092005.351000", "092005.353000", "092005.356000", "092005.359000", "092005.361000", "092005.364000", "092005.366000", "092005.369000", "092005.371000", "092005.374000", "092005.376000", "092005.379000", "092005.382000", "092031.104000", "092031.107000", "092031.110000", "092031.113000", "092031.115000", "092031.118000", "092031.121000", "092031.123000", "092031.126000", "092031.128000", "092031.131000", "092031.134000", "092031.138000"],
      "InstanceCreationTime": ["091445.337000", "091445.341000", "091445.343000", "091445.346000", "091445.348000", "091445.351000", "091445.353000", "091445.356000", "091445.358000", "091445.361000", "091445.363000", "091445.366000", "091445.369000", "091445.371000", "091445.374000", "091445.376000", "091445.379000", "091445.381000", "091445.384000", "091445.386000", "091445.389000", "091445.391000", "091445.394000", "091445.396000", "091445.399000", "091445.401000", "091445.404000", "091525.332000", "091525.335000", "091525.338000", "091525.340000", "091525.343000", "091525.346000", "091525.348000", "091525.351000", "091525.353000", "091525.356000", "091525.358000", "091525.361000", "091525.363000", "091525.366000", "091525.368000", "091525.371000", "091525.373000", "091525.376000", "091525.379000", "091525.381000", "091605.332000", "091605.335000", "091605.338000", "091605.340000", "091605.343000", "091605.345000", "091605.348000", "091605.351000", "091605.353000", "091605.356000", "091605.358000", "091605.361000", "091605.363000", "091605.366000", "091605.368000", "091605.371000", "091605.373000", "091605.376000", "091605.378000", "091605.381000", "091645.333000", "091645.335000", "091645.338000", "091645.341000", "091645.343000", "091645.346000", "091645.348000", "091645.351000", "091645.353000", "091645.356000", "091645.358000", "091645.361000", "091645.363000", "091645.366000", "091645.368000", "091645.371000", "091645.374000", "091645.376000", "091645.379000", "091645.381000", "091725.332000", "091725.335000", "091725.338000", "091725.340000", "091725.343000", "091725.345000", "091725.348000", "091725.351000", "091725.353000", "091725.356000", "091725.358000", "091725.361000", "091725.363000", "091725.366000", "091725.368000", "091725.371000", "091725.373000", "091725.376000", "091725.379000", "091725.381000", "091805.334000", "091805.336000", "091805.339000", "091805.341000", "091805.344000", "091805.347000", "091805.349000", "091805.352000", "091805.354000", "091805.357000", "091805.359000", "091805.362000", "091805.364000", "091805.367000", "091805.370000", "091805.372000", "091805.375000", "091805.377000", "091805.380000", "091805.382000", "091845.332000", "091845.335000", "091845.338000", "091845.340000", "091845.343000", "091845.345000", "091845.348000", "091845.351000", "091845.353000", "091845.356000", "091845.358000", "091845.361000", "091845.363000", "091845.366000", "091845.368000", "091845.371000", "091845.373000", "091845.376000", "091845.379000", "091845.381000", "091925.333000", "091925.335000", "091925.338000", "091925.341000", "091925.343000", "091925.346000", "091925.348000", "091925.351000", "091925.353000", "091925.356000", "091925.358000", "091925.361000", "091925.364000", "091925.366000", "091925.369000", "091925.371000", "091925.374000", "091925.376000", "091925.379000", "091925.381000", "092005.333000", "092005.335000", "092005.338000", "092005.340000", "092005.343000", "092005.346000", "092005.348000", "092005.351000", "092005.353000", "092005.356000", "092005.359000", "092005.361000", "092005.364000", "092005.366000", "092005.369000", "092005.371000", "092005.374000", "092005.376000", "092005.379000", "092005.382000", "092031.104000", "092031.107000", "092031.110000", "092031.113000", "092031.115000", "092031.118000", "092031.121000", "092031.123000", "092031.126000", "092031.128000", "092031.131000", "092031.134000", "092031.138000"],
      "InstanceNumber": [1, 2, 3, 4, 5, 6, 7, 8, 9, 10, 11, 12, 13, 14, 15, 16, 17, 18, 19, 20, 21, 22, 23, 24, 25, 26, 27, 28, 29, 30, 31, 32, 33, 34, 35, 36, 37, 38, 39, 40, 41, 42, 43, 44, 45, 46, 47, 48, 49, 50, 51, 52, 53, 54, 55, 56, 57, 58, 59, 60, 61, 62, 63, 64, 65, 66, 67, 68, 69, 70, 71, 72, 73, 74, 75, 76, 77, 78, 79, 80, 81, 82, 83, 84, 85, 86, 87, 88, 89, 90, 91, 92, 93, 94, 95, 96, 97, 98, 99, 100, 101, 102, 103, 104, 105, 106, 107, 108, 109, 110, 111, 112, 113, 114, 115, 116, 117, 118, 119, 120, 121, 122, 123, 124, 125, 126, 127, 128, 129, 130, 131, 132, 133, 134, 135, 136, 137, 138, 139, 140, 141, 142, 143, 144, 145, 146, 147, 148, 149, 150, 151, 152, 153, 154, 155, 156, 157, 158, 159, 160, 161, 162, 163, 164, 165, 166, 167, 168, 169, 170, 171, 172, 173, 174, 175, 176, 177, 178, 179, 180, 181, 182, 183, 184, 185, 186, 187, 188, 189, 190, 191, 192, 193, 194, 195, 196, 197, 198, 199, 200],
      "LargestImagePixelValue": [2517, 2518, 2525, 2523, 2524, 2525, 2520, 2524, 2521, 2522, 2518, 2516, 2519, 2517, 2517, 2516, 2519, 2517, 2515, 2519, 2515, 2513, 2509, 2521, 2516, 2518, 2517, 2521, 2520, 2524, 2513, 2515, 2511, 2518, 2518, 2515, 2512, 2517, 2517, 2516, 2510, 2517, 2513, 2521, 2517, 2517, 2520, 2510, 2516, 2516, 2515, 2514, 2517, 2511, 2517, 2517, 2514, 2511, 2517, 2514, 2510, 2516, 2511, 2511, 2516, 2511, 2514, 2516, 2516, 2510, 2519, 2510, 2521, 2514, 2513, 2511, 2513, 2519, 2513, 2512, 2514, 2515, 2512, 2513, 2517, 2513, 2511, 2516, 2508, 2513, 2511, 2512, 2516, 2516, 2511, 2508, 2514, 2516, 2516, 2512, 2515, 2509, 2515, 2517, 2510, 2515, 2512, 2510, 2515, 2512, 2505, 2512, 2510, 2508, 2509, 2505, 2503, 2510, 2514, 2503, 2513, 2507, 2512, 2513, 2510, 2505, 2510, 2515, 2515, 2512, 2513, 2507, 2511, 2507, 2513, 2512, 2510, 2505, 2511, 2508, 2510, 2506, 2511, 2507, 2510, 2515, 2509, 2513, 2512, 2509, 2507, 2511, 2512, 2511, 2512, 2505, 2511, 2507, 2518, 2518, 2507, 2506, 2514, 2509, 2505, 2508, 2504, 2509, 2504, 2513, 2510, 2508, 2505, 2515, 2502, 2502, 2512, 2504, 2512, 2516, 2508, 2505, 2508, 2506, 2501, 2511, 2506, 2500, 2509, 2508, 2506, 2508, 2510, 2513, 2510, 2507, 2500, 2506, 2508, 2507],
      "WindowCenter": [1057.0, 1057.0, 1057.0, 1057.0, 1057.0, 1057.0, 1056.0, 1057.0, 1057.0, 1057.0, 1057.0, 1056.0, 1057.0, 1057.0, 1056.0, 1056.0, 1056.0, 1056.0, 1056.0, 1056.0, 1056.0, 1056.0, 1056.0, 1056.0, 1056.0, 1056.0, 1056.0, 1056.0, 1056.0, 1056.0, 1056.0, 1056.0, 1056.0, 1056.0, 1056.0, 1056.0, 1056.0, 1056.0, 1056.0, 1056.0, 1056.0, 1056.0, 1056.0, 1056.0, 1056.0, 1056.0, 1056.0, 1056.0, 1056.0, 1056.0, 1056.0, 1056.0, 1056.0, 1056.0, 1056.0, 1056.0, 1056.0, 1056.0, 1056.0, 1056.0, 1056.0, 1056.0, 1056.0, 1056.0, 1056.0, 1056.0, 1056.0, 1056.0, 1056.0, 1056.0, 1056.0, 1056.0, 1056.0, 1056.0, 1056.0, 1056.0, 1056.0, 1056.0, 1056.0, 1056.0, 1056.0, 1056.0, 1056.0, 1056.0, 1056.0, 1056.0, 1056.0, 1056.0, 1056.0, 1056.0, 1056.0, 1056.0, 1056.0, 1056.0, 1056.0, 1056.0, 1056.0, 1056.0, 1055.0, 1057.0, 1056.0, 1056.0, 1056.0, 1056.0, 1056.0, 1056.0, 1056.0, 1056.0, 1056.0, 1056.0, 1056.0, 1056.0, 1056.0, 1055.0, 1055.0, 1056.0, 1056.0, 1055.0, 1055.0, 1055.0, 1055.0, 1055.0, 1055.0, 1055.0, 1056.0, 1056.0, 1056.0, 1056.0, 1056.0, 1056.0, 1055.0, 1055.0, 1055.0, 1056.0, 1056.0, 1056.0, 1056.0, 1055.0, 1056.0, 1056.0, 1056.0, 1056.0, 1056.0, 1056.0, 1055.0, 1056.0, 1056.0, 1056.0, 1055.0, 1056.0, 1055.0, 1056.0, 1056.0, 1056.0, 1056.0, 1055.0, 1055.0, 1055.0, 1055.0, 1055.0, 1055.0, 1055.0, 1056.0, 1055.0, 1055.0, 1055.0, 1055.0, 1055.0, 1055.0, 1055.0, 1055.0, 1055.0, 1055.0, 1055.0, 1055.0, 1055.0, 1055.0, 1055.0, 1055.0, 1055.0, 1055.0, 1055.0, 1055.0, 1055.0, 1055.0, 1055.0, 1055.0, 1055.0, 1055.0, 1055.0, 1055.0, 1055.0, 1055.0, 1055.0, 1055.0, 1055.0, 1055.0, 1055.0, 1055.0, 1055.0],
      "WindowWidth": [2377.0, 2377.0, 2377.0, 2376.0, 2377.0, 2376.0, 2376.0, 2376.0, 2376.0, 2376.0, 2376.0, 2377.0, 2376.0, 2376.0, 2376.0, 2376.0, 2376.0, 2376.0, 2375.0, 2376.0, 2376.0, 2376.0, 2376.0, 2376.0, 2376.0, 2376.0, 2376.0, 2376.0, 2376.0, 2376.0, 2376.0, 2375.0, 2376.0, 2376.0, 2376.0, 2376.0, 2375.0, 2376.0, 2376.0, 2375.0, 2376.0, 2375.0, 2375.0, 2375.0, 2375.0, 2375.0, 2375.0, 2375.0, 2375.0, 2376.0, 2375.0, 2375.0, 2375.0, 2375.0, 2375.0, 2375.0, 2375.0, 2375.0, 2375.0, 2375.0, 2375.0, 2375.0, 2375.0, 2375.0, 2375.0, 2375.0, 2375.0, 2375.0, 2375.0, 2375.0, 2375.0, 2375.0, 2375.0, 2375.0, 2375.0, 2375.0, 2375.0, 2375.0, 2375.0, 2375.0, 2375.0, 2375.0, 2375.0, 2375.0, 2374.0, 2375.0, 2373.0, 2374.0, 2375.0, 2374.0, 2375.0, 2375.0, 2375.0, 2375.0, 2375.0, 2375.0, 2374.0, 2374.0, 2374.0, 2375.0, 2374.0, 2374.0, 2374.0, 2374.0, 2374.0, 2374.0, 2374.0, 2374.0, 2374.0, 2374.0, 2374.0, 2374.0, 2374.0, 2374.0, 2374.0, 2374.0, 2374.0, 2374.0, 2373.0, 2374.0, 2374.0, 2374.0, 2373.0, 2374.0, 2374.0, 2374.0, 2374.0, 2374.0, 2374.0, 2374.0, 2374.0, 2374.0, 2374.0, 2374.0, 2374.0, 2374.0, 2374.0, 2374.0, 2374.0, 2374.0, 2374.0, 2374.0, 2374.0, 2374.0, 2374.0, 2374.0, 2374.0, 2374.0, 2374.0, 2374.0, 2374.0, 2374.0, 2374.0, 2374.0, 2374.0, 2374.0, 2374.0, 2373.0, 2374.0, 2374.0, 2373.0, 2373.0, 2374.0, 2373.0, 2373.0, 2373.0, 2373.0, 2373.0, 2373.0, 2373.0, 2373.0, 2373.0, 2373.0, 2373.0, 2373.0, 2373.0, 2374.0, 2373.0, 2373.0, 2373.0, 2373.0, 2373.0, 2373.0, 2373.0, 2373.0, 2373.0, 2373.0, 2373.0, 2373.0, 2373.0, 2373.0, 2373.0, 2373.0, 2373.0, 2373.0, 2373.0, 2373.0, 2373.0, 2373.0, 2373.0]
    },
    "slices": {}
  }
}