{
  "AcquisitionMatrixPE": 80,
  "AcquisitionNumber": 1,
  "AcquisitionTime": "09:34:53.517500",
  "BandwidthPerPixelPhaseEncode": 25,
  "BaseResolution": 80,
  "BodyPartExamined": "BRAIN",
  "CoilCombinationMethod": "Sum of Squares",
  "ConsistencyInfo": "N4_VE11C_LATEST_20160120",
  "ConversionSoftware": "dcm2niix",
  "ConversionSoftwareVersion": "v1.0.20220720",
  "DerivedVendorReportedEchoSpacing": 0.0005,
  "DeviceSerialNumber": "66112",
  "DwellTime": 2.7e-06,
  "EchoTime": 0.03,
  "EchoTrainLength": 80,
  "EffectiveEchoSpacing": 0.0005,
  "FlipAngle": 10,
  "HeudiconvVersion": "0.13.1",
  "ImageOrientationPatientDICOM": [0.992479, 0.122231, 0.00672997, -0.118346, 0.943967, 0.308093],
  "ImageOrientationText": "Tra>Cor(17.9)>Sag(-1.8)",
  "ImageType": [
    "ORIGINAL",
    "PRIMARY",
    "M",
    "ND",
    "NORM",
    "MOSAIC"
],
  "ImagingFrequency": 123.252,
  "InPlanePhaseEncodingDirectionDICOM": "COL",
  "InstitutionAddress": "Maynard 3,Hanover,NH,US,03755",
  "InstitutionName": "Dartmouth College - PBS",
  "InstitutionalDepartmentName": "Department",
  "MRAcquisitionType": "2D",
  "MagneticFieldStrength": 3,
  "Manufacturer": "Siemens",
  "ManufacturersModelName": "Prisma",
  "MatrixCoilMode": "SENSE",
  "Modality": "MR",
  "NonlinearGradientCorrection": false,
  "PartialFourier": 1,
  "PatientPosition": "HFS",
  "PercentPhaseFOV": 100,
  "PercentSampling": 100,
  "PhaseEncodingDirection": "j-",
  "PhaseEncodingSteps": 80,
  "PhaseResolution": 1,
  "PixelBandwidth": 2315,
  "ProcedureStepDescription": "dbic^QA",
  "ProtocolName": "func-bold_fa-10",
  "PulseSequenceDetails": "%SiemensSeq%\\ep2d_bold",
  "ReceiveCoilActiveElements": "HEA;HEP",
  "ReceiveCoilName": "Head_32",
  "ReconMatrixPE": 80,
  "RepetitionTime": 2,
  "SAR": 0.0116546,
  "ScanOptions": "FS",
  "ScanningSequence": "EP",
  "SequenceName": "*epfid2d1_80",
  "SequenceVariant": "SK",
  "SeriesDescription": "func-bold_fa-10",
  "SeriesNumber": 10,
  "ShimSetting": [4141, -7700, -7519, 260, -87, -27, -31, 81],
  "SliceThickness": 3.5,
  "SliceTiming": [0.99, 0, 1.055, 0.065, 1.1225, 0.1325, 1.1875, 0.1975, 1.2525, 0.2625, 1.32, 0.33, 1.385, 0.395, 1.4525, 0.4625, 1.5175, 0.5275, 1.5825, 0.5925, 1.65, 0.66, 1.715, 0.725, 1.7825, 0.7925, 1.8475, 0.8575, 1.9125, 0.9225],
  "SoftwareVersions": "syngo MR E11",
  "SpacingBetweenSlices": 3.99,
  "StationName": "AWP66112",
  "TotalReadoutTime": 0.0395,
  "TxRefAmp": 223.007,
  "dcmmeta_affine": [
    [-2.9774365425109863, -0.3550378382205963, -0.12491008639335632, 135.37384033203125],
    [-0.36669430136680603, 2.831899642944336, 1.2232234477996826, -118.73339080810547],
    [0.0201899204403162, -0.9242792129516602, 3.795816421508789, -10.87896728515625],
    [0.0, 0.0, 0.0, 1.0]
],
  "dcmmeta_reorient_transform": [
    [0.0, -1.0, 0.0, 79.0],
    [1.0, 0.0, 0.0, 0.0],
    [0.0, 0.0, 1.0, 0.0],
    [0.0, 0.0, 0.0, 1.0]
],
  "dcmmeta_shape": [80, 80, 30, 200],
  "dcmmeta_slice_dim": 2,
  "dcmmeta_version": 0.6,
  "global": {
    "const": {
      "AccessionNumber": "qa",
      "AcquisitionMatrix": [80, 0, 0, 80],
      "AngioFlag": "N",
      "BitsAllocated": 16,
      "BitsStored": 12,
      "BodyPartExamined": "BRAIN",
      "Columns": 480,
      "EchoNumbers": 1,
      "EchoTime": 30.0,
      "EchoTrainLength": 80,
      "FlipAngle": 10.0,
      "HighBit": 11,
      "ImageOrientationPatient": [0.99247880821027, 0.12223143094947, 0.00672997337115, -0.1183459461873, 0.94396657709925, 0.30809306766066],
      "ImagePositionPatient": [-631.80556106432, -744.70549067606, -272.79084897283],
      "ImageType": [
        "ORIGINAL",
        "PRIMARY",
        "M",
        "ND",
        "NORM",
        "MOSAIC"
],
      "ImagedNucleus": "1H",
      "ImagingFrequency": 123.252354,
      "InPlanePhaseEncodingDirection": "COL",
      "MRAcquisitionType": "2D",
      "MagneticFieldStrength": 3.0,
      "Manufacturer": "SIEMENS",
      "ManufacturerModelName": "Prisma",
      "Modality": "MR",
      "NumberOfAverages": 1.0,
      "NumberOfPhaseEncodingSteps": 80,
      "PercentPhaseFieldOfView": 100.0,
      "PercentSampling": 100.0,
      "PerformedProcedureStepStartTime": "091157.467000",
      "PhotometricInterpretation": "MONOCHROME2",
      "PixelBandwidth": 2315.0,
      "PixelRepresentation": 0,
      "PixelSpacing": [3.0, 3.0],
      "ProtocolName": "func-bold_fa-10",
      "RepetitionTime": 2000.0,
      "Rows": 480,
      "SAR": 0.01165460237249,
      "SamplesPerPixel": 1,
      "ScanOptions": "FS",
      "ScanningSequence": "EP",
      "SequenceName": "*epfid2d1_80",
      "SequenceVariant": "SK",
      "SeriesDescription": "func-bold_fa-10",
      "SeriesNumber": 10,
      "SeriesTime": "093545.334000",
      "SliceLocation": -50.987868641691,
      "SliceThickness": 3.5,
      "SmallestImagePixelValue": 0,
      "SoftwareVersions": "syngo MR E11",
      "SpacingBetweenSlices": 3.9900000147384,
      "SpecificCharacterSet": "ISO_IR 100",
      "StudyID": "46",
      "StudyTime": "091157.415000",
      "TransmitCoilName": "Body",
      "VariableFlipAngleFlag": "N",
      "WindowCenterWidthExplanation": "Algo1",
      "dBdt": 0.0},
    "slices": {}
  },
  "time": {
    "samples": {
      "AcquisitionNumber": [1, 2, 3, 4, 5, 6, 7, 8, 9, 10, 11, 12, 13, 14, 15, 16, 17, 18, 19, 20, 21, 22, 23, 24, 25, 26, 27, 28, 29, 30, 31, 32, 33, 34, 35, 36, 37, 38, 39, 40, 41, 42, 43, 44, 45, 46, 47, 48, 49, 50, 51, 52, 53, 54, 55, 56, 57, 58, 59, 60, 61, 62, 63, 64, 65, 66, 67, 68, 69, 70, 71, 72, 73, 74, 75, 76, 77, 78, 79, 80, 81, 82, 83, 84, 85, 86, 87, 88, 89, 90, 91, 92, 93, 94, 95, 96, 97, 98, 99, 100, 101, 102, 103, 104, 105, 106, 107, 108, 109, 110, 111, 112, 113, 114, 115, 116, 117, 118, 119, 120, 121, 122, 123, 124, 125, 126, 127, 128, 129, 130, 131, 132, 133, 134, 135, 136, 137, 138, 139, 140, 141, 142, 143, 144, 145, 146, 147, 148, 149, 150, 151, 152, 153, 154, 155, 156, 157, 158, 159, 160, 161, 162, 163, 164, 165, 166, 167, 168, 169, 170, 171, 172, 173, 174, 175, 176, 177, 178, 179, 180, 181, 182, 183, 184, 185, 186, 187, 188, 189, 190, 191, 192, 193, 194, 195, 196, 197, 198, 199, 200],
      "AcquisitionTime": ["093453.517500", "093455.517500", "093457.517500", "093459.517500", "093501.517500", "093503.517500", "093505.517500", "093507.517500", "093509.517500", "093511.517500", "093513.517500", "093515.517500", "093517.517500", "093519.517500", "093521.517500", "093523.517500", "093525.517500", "093527.517500", "093529.517500", "093531.517500", "093533.517500", "093535.517500", "093537.517500", "093539.517500", "093541.517500", "093543.517500", "093545.517500", "093547.517500", "093549.517500", "093551.517500", "093553.517500", "093555.517500", "093557.517500", "093559.517500", "093601.517500", "093603.517500", "093605.517500", "093607.517500", "093609.517500", "093611.517500", "093613.517500", "093615.517500", "093617.517500", "093619.517500", "093621.517500", "093623.517500", "093625.517500", "093627.517500", "093629.517500", "093631.517500", "093633.517500", "093635.517500", "093637.517500", "093639.517500", "093641.517500", "093643.517500", "093645.517500", "093647.517500", "093649.517500", "093651.517500", "093653.517500", "093655.517500", "093657.517500", "093659.517500", "093701.517500", "093703.517500", "093705.517500", "093707.517500", "093709.517500", "093711.517500", "093713.517500", "093715.517500", "093717.517500", "093719.517500", "093721.517500", "093723.517500", "093725.517500", "093727.517500", "093729.517500", "093731.517500", "093733.517500", "093735.517500", "093737.517500", "093739.517500", "093741.517500", "093743.517500", "093745.517500", "093747.517500", "093749.517500", "093751.517500", "093753.517500", "093755.517500", "093757.517500", "093759.517500", "093801.517500", "093803.517500", "093805.517500", "093807.517500", "093809.517500", "093811.517500", "093813.517500", "093815.517500", "093817.517500", "093819.517500", "093821.517500", "093823.517500", "093825.517500", "093827.517500", "093829.517500", "093831.517500", "093833.517500", "093835.517500", "093837.517500", "093839.517500", "093841.517500", "093843.517500", "093845.517500", "093847.517500", "093849.517500", "093851.517500", "093853.517500", "093855.517500", "093857.517500", "093859.517500", "093901.517500", "093903.517500", "093905.517500", "093907.517500", "093909.517500", "093911.517500", "093913.517500", "093915.517500", "093917.517500", "093919.517500", "093921.517500", "093923.517500", "093925.517500", "093927.517500", "093929.517500", "093931.517500", "093933.517500", "093935.517500", "093937.517500", "093939.517500", "093941.517500", "093943.517500", "093945.517500", "093947.517500", "093949.517500", "093951.517500", "093953.517500", "093955.517500", "093957.517500", "093959.517500", "094001.517500", "094003.517500", "094005.517500", "094007.517500", "094009.517500", "094011.517500", "094013.517500", "094015.517500", "094017.517500", "094019.517500", "094021.517500", "094023.517500", "094025.517500", "094027.517500", "094029.517500", "094031.517500", "094033.517500", "094035.517500", "094037.517500", "094039.517500", "094041.517500", "094043.517500", "094045.517500", "094047.517500", "094049.517500", "094051.517500", "094053.517500", "094055.517500", "094057.517500", "094059.517500", "094101.517500", "094103.517500", "094105.517500", "094107.517500", "094109.517500", "094111.517500", "094113.517500", "094115.517500", "094117.517500", "094119.517500", "094121.517500", "094123.517500", "094125.517500", "094127.517500", "094129.517500", "094131.517500"],
      "ContentTime": ["093545.337000", "093545.341000", "093545.344000", "093545.346000", "093545.349000", "093545.351000", "093545.354000", "093545.356000", "093545.359000", "093545.361000", "093545.364000", "093545.366000", "093545.369000", "093545.371000", "093545.374000", "093545.376000", "093545.379000", "093545.381000", "093545.384000", "093545.386000", "093545.389000", "093545.391000", "093545.401000", "093545.404000", "093545.406000", "093545.409000", "093625.333000", "093625.335000", "093625.338000", "093625.340000", "093625.343000", "093625.345000", "093625.348000", "093625.350000", "093625.353000", "093625.356000", "093625.358000", "093625.361000", "093625.363000", "093625.365000", "093625.368000", "093625.371000", "093625.373000", "093625.376000", "093625.378000", "093625.381000", "093645.333000", "093645.336000", "093645.339000", "093645.341000", "093645.344000", "093645.346000", "093645.349000", "093645.351000", "093645.354000", "093645.356000", "093725.332000", "093725.335000", "093725.338000", "093725.340000", "093725.343000", "093725.345000", "093725.348000", "093725.350000", "093725.353000", "093725.355000", "093725.358000", "093725.360000", "093725.363000", "093725.365000", "093725.368000", "093725.370000", "093725.373000", "093725.375000", "093725.378000", "093725.380000", "093805.333000", "093805.335000", "093805.338000", "093805.341000", "093805.347000", "093805.349000", "093805.352000", "093805.354000", "093805.357000", "093805.359000", "093805.362000", "093805.364000", "093805.367000", "093805.369000", "093805.372000", "093805.374000", "093805.377000", "093805.379000", "093805.382000", "093805.384000", "093845.333000", "093845.335000", "093845.338000", "093845.340000", "093845.343000", "093845.345000", "093845.348000", "093845.350000", "093845.353000", "093845.356000", "093845.358000", "093845.361000", "093845.363000", "093845.366000", "093845.368000", "093845.381000", "093845.384000", "093845.386000", "093845.389000", "093845.391000", "093925.333000", "093925.335000", "093925.338000", "093925.341000", "093925.343000", "093925.346000", "093925.348000", "093925.351000", "093925.353000", "093925.356000", "093925.358000", "093925.361000", "093925.363000", "093925.366000", "093925.373000", "093925.375000", "093925.378000", "093925.380000", "093925.383000", "093925.385000", "094025.333000", "094025.336000", "094025.338000", "094025.341000", "094025.343000", "094025.346000", "094025.348000", "094025.351000", "094025.353000", "094025.356000", "094025.358000", "094025.361000", "094025.363000", "094025.366000", "094025.368000", "094025.371000", "094025.374000", "094025.376000", "094025.379000", "094025.381000", "094025.384000", "094025.386000", "094025.389000", "094025.391000", "094025.394000", "094025.396000", "094025.399000", "094025.401000", "094025.404000", "094025.406000", "094105.333000", "094105.335000", "094105.338000", "094105.340000", "094105.343000", "094105.346000", "094105.348000", "094105.351000", "094105.353000", "094105.356000", "094105.358000", "094105.361000", "094105.363000", "094105.366000", "094105.368000", "094105.371000", "094105.381000", "094105.384000", "094105.386000", "094105.389000", "094133.329000", "094133.332000", "094133.335000", "094133.337000", "094133.340000", "094133.342000", "094133.345000", "094133.347000", "094133.350000", "094133.352000", "094133.355000", "094133.357000", "094133.360000", "094133.368000"],
      "InstanceCreationTime": ["093545.337000", "093545.341000", "093545.344000", "093545.346000", "093545.349000", "093545.351000", "093545.354000", "093545.356000", "093545.359000", "093545.361000", "093545.364000", "093545.366000", "093545.369000", "093545.371000", "093545.374000", "093545.376000", "093545.379000", "093545.381000", "093545.384000", "093545.386000", "093545.389000", "093545.391000", "093545.401000", "093545.404000", "093545.406000", "093545.409000", "093625.333000", "093625.335000", "093625.338000", "093625.340000", "093625.343000", "093625.345000", "093625.348000", "093625.350000", "093625.353000", "093625.356000", "093625.358000", "093625.361000", "093625.363000", "093625.365000", "093625.368000", "093625.371000", "093625.373000", "093625.376000", "093625.378000", "093625.381000", "093645.333000", "093645.336000", "093645.339000", "093645.341000", "093645.344000", "093645.346000", "093645.349000", "093645.351000", "093645.354000", "093645.356000", "093725.332000", "093725.335000", "093725.338000", "093725.340000", "093725.343000", "093725.345000", "093725.348000", "093725.350000", "093725.353000", "093725.355000", "093725.358000", "093725.360000", "093725.363000", "093725.365000", "093725.368000", "093725.370000", "093725.373000", "093725.375000", "093725.378000", "093725.380000", "093805.333000", "093805.335000", "093805.338000", "093805.341000", "093805.347000", "093805.349000", "093805.352000", "093805.354000", "093805.357000", "093805.359000", "093805.362000", "093805.364000", "093805.367000", "093805.369000", "093805.372000", "093805.374000", "093805.377000", "093805.379000", "093805.382000", "093805.384000", "093845.333000", "093845.335000", "093845.338000", "093845.340000", "093845.343000", "093845.345000", "093845.348000", "093845.350000", "093845.353000", "093845.356000", "093845.358000", "093845.361000", "093845.363000", "093845.366000", "093845.368000", "093845.381000", "093845.384000", "093845.386000", "093845.389000", "093845.391000", "093925.333000", "093925.335000", "093925.338000", "093925.341000", "093925.343000", "093925.346000", "093925.348000", "093925.351000", "093925.353000", "093925.356000", "093925.358000", "093925.361000", "093925.363000", "093925.366000", "093925.373000", "093925.375000", "093925.378000", "093925.380000", "093925.383000", "093925.385000", "094025.333000", "094025.336000", "094025.338000", "094025.341000", "094025.343000", "094025.346000", "094025.348000", "094025.351000", "094025.353000", "094025.356000", "094025.358000", "094025.361000", "094025.363000", "094025.366000", "094025.368000", "094025.371000", "094025.374000", "094025.376000", "094025.379000", "094025.381000", "094025.384000", "094025.386000", "094025.389000", "094025.391000", "094025.394000", "094025.396000", "094025.399000", "094025.401000", "094025.404000", "094025.406000", "094105.333000", "094105.335000", "094105.338000", "094105.340000", "094105.343000", "094105.346000", "094105.348000", "094105.351000", "094105.353000", "094105.356000", "094105.358000", "094105.361000", "094105.363000", "094105.366000", "094105.368000", "094105.371000", "094105.381000", "094105.384000", "094105.386000", "094105.389000", "094133.329000", "094133.332000", "094133.335000", "094133.337000", "094133.340000", "094133.342000", "094133.345000", "094133.347000", "094133.350000", "094133.352000", "094133.355000", "094133.357000", "094133.360000", "094133.368000"],
      "InstanceNumber": [1, 2, 3, 4, 5, 6, 7, 8, 9, 10, 11, 12, 13, 14, 15, 16, 17, 18, 19, 20, 21, 22, 23, 24, 25, 26, 27, 28, 29, 30, 31, 32, 33, 34, 35, 36, 37, 38, 39, 40, 41, 42, 43, 44, 45, 46, 47, 48, 49, 50, 51, 52, 53, 54, 55, 56, 57, 58, 59, 60, 61, 62, 63, 64, 65, 66, 67, 68, 69, 70, 71, 72, 73, 74, 75, 76, 77, 78, 79, 80, 81, 82, 83, 84, 85, 86, 87, 88, 89, 90, 91, 92, 93, 94, 95, 96, 97, 98, 99, 100, 101, 102, 103, 104, 105, 106, 107, 108, 109, 110, 111, 112, 113, 114, 115, 116, 117, 118, 119, 120, 121, 122, 123, 124, 125, 126, 127, 128, 129, 130, 131, 132, 133, 134, 135, 136, 137, 138, 139, 140, 141, 142, 143, 144, 145, 146, 147, 148, 149, 150, 151, 152, 153, 154, 155, 156, 157, 158, 159, 160, 161, 162, 163, 164, 165, 166, 167, 168, 169, 170, 171, 172, 173, 174, 175, 176, 177, 178, 179, 180, 181, 182, 183, 184, 185, 186, 187, 188, 189, 190, 191, 192, 193, 194, 195, 196, 197, 198, 199, 200],
      "LargestImagePixelValue": [437, 437, 438, 438, 438, 437, 438, 435, 436, 437, 437, 437, 437, 437, 437, 439, 437, 436, 437, 436, 438, 437, 436, 436, 437, 436, 438, 438, 438, 437, 438, 437, 439, 436, 440, 438, 437, 437, 435, 437, 437, 437, 438, 436, 437, 439, 438, 436, 437, 436, 435, 436, 437, 436, 437, 436, 437, 438, 436, 436, 437, 436, 437, 436, 436, 435, 436, 440, 436, 434, 436, 436, 437, 436, 437, 436, 437, 436, 437, 437, 437, 436, 436, 436, 436, 437, 436, 435, 436, 436, 437, 434, 437, 436, 436, 438, 434, 440, 437, 437, 437, 434, 436, 441, 439, 439, 441, 436, 435, 435, 436, 436, 439, 433, 434, 436, 436, 436, 435, 435, 435, 435, 435, 437, 436, 437, 434, 440, 435, 436, 435, 435, 437, 436, 436, 438, 437, 437, 434, 435, 434, 435, 435, 436, 435, 434, 435, 434, 440, 435, 435, 435, 436, 435, 437, 436, 439, 434, 436, 434, 435, 435, 434, 434, 436, 435, 441, 435, 438, 435, 439, 439, 435, 441, 432, 435, 435, 436, 436, 440, 439, 437, 436, 434, 438, 440, 439, 440, 438, 440, 435, 435, 436, 436, 435, 434, 434, 436, 435, 434],
      "WindowCenter": [313.0, 313.0, 313.0, 313.0, 313.0, 313.0, 313.0, 313.0, 313.0, 313.0, 312.0, 312.0, 313.0, 313.0, 313.0, 313.0, 313.0, 313.0, 313.0, 312.0, 313.0, 312.0, 313.0, 313.0, 313.0, 313.0, 313.0, 312.0, 313.0, 313.0, 312.0, 313.0, 312.0, 313.0, 314.0, 313.0, 313.0, 312.0, 313.0, 313.0, 312.0, 312.0, 312.0, 313.0, 313.0, 313.0, 313.0, 312.0, 312.0, 312.0, 312.0, 313.0, 312.0, 312.0, 313.0, 313.0, 312.0, 313.0, 312.0, 312.0, 313.0, 312.0, 313.0, 312.0, 313.0, 312.0, 312.0, 312.0, 312.0, 312.0, 312.0, 312.0, 312.0, 312.0, 312.0, 312.0, 312.0, 312.0, 312.0, 313.0, 312.0, 312.0, 313.0, 312.0, 312.0, 312.0, 312.0, 313.0, 312.0, 312.0, 312.0, 312.0, 312.0, 312.0, 312.0, 312.0, 312.0, 313.0, 313.0, 312.0, 312.0, 312.0, 312.0, 313.0, 314.0, 314.0, 313.0, 312.0, 312.0, 312.0, 312.0, 311.0, 313.0, 312.0, 312.0, 312.0, 311.0, 312.0, 312.0, 312.0, 312.0, 312.0, 312.0, 312.0, 312.0, 312.0, 312.0, 312.0, 312.0, 312.0, 312.0, 312.0, 312.0, 312.0, 312.0, 311.0, 312.0, 312.0, 312.0, 312.0, 312.0, 311.0, 312.0, 312.0, 312.0, 312.0, 312.0, 312.0, 312.0, 312.0, 312.0, 312.0, 312.0, 312.0, 312.0, 312.0, 312.0, 312.0, 312.0, 313.0, 313.0, 312.0, 312.0, 312.0, 312.0, 312.0, 313.0, 313.0, 313.0, 312.0, 313.0, 314.0, 313.0, 312.0, 313.0, 311.0, 312.0, 312.0, 312.0, 313.0, 313.0, 313.0, 311.0, 312.0, 312.0, 312.0, 314.0, 314.0, 314.0, 314.0, 312.0, 312.0, 312.0, 312.0, 312.0, 312.0, 312.0, 312.0, 312.0, 312.0],
      "WindowWidth": [675.0, 675.0, 675.0, 675.0, 675.0, 675.0, 675.0, 675.0, 675.0, 675.0, 675.0, 675.0, 675.0, 675.0, 675.0, 675.0, 675.0, 675.0, 675.0, 675.0, 675.0, 674.0, 676.0, 675.0, 675.0, 675.0, 675.0, 674.0, 675.0, 675.0, 675.0, 675.0, 674.0, 675.0, 677.0, 675.0, 675.0, 675.0, 675.0, 675.0, 675.0, 674.0, 674.0, 675.0, 675.0, 675.0, 675.0, 674.0, 675.0, 674.0, 674.0, 675.0, 675.0, 674.0, 675.0, 675.0, 674.0, 675.0, 673.0, 673.0, 675.0, 674.0, 674.0, 674.0, 674.0, 673.0, 674.0, 674.0, 674.0, 673.0, 674.0, 674.0, 674.0, 673.0, 674.0, 673.0, 674.0, 673.0, 674.0, 675.0, 673.0, 673.0, 675.0, 673.0, 674.0, 673.0, 673.0, 675.0, 673.0, 674.0, 673.0, 674.0, 673.0, 674.0, 674.0, 673.0, 673.0, 676.0, 675.0, 673.0, 674.0, 674.0, 674.0, 677.0, 677.0, 677.0, 675.0, 674.0, 674.0, 673.0, 674.0, 673.0, 675.0, 673.0, 673.0, 673.0, 673.0, 673.0, 673.0, 673.0, 673.0, 673.0, 673.0, 673.0, 673.0, 673.0, 673.0, 673.0, 673.0, 673.0, 673.0, 673.0, 673.0, 673.0, 674.0, 673.0, 673.0, 673.0, 673.0, 673.0, 673.0, 673.0, 673.0, 673.0, 673.0, 673.0, 673.0, 673.0, 673.0, 673.0, 673.0, 673.0, 673.0, 673.0, 673.0, 673.0, 673.0, 673.0, 673.0, 675.0, 675.0, 673.0, 674.0, 673.0, 673.0, 673.0, 675.0, 675.0, 675.0, 674.0, 675.0, 677.0, 675.0, 673.0, 675.0, 673.0, 673.0, 674.0, 673.0, 675.0, 676.0, 675.0, 673.0, 673.0, 674.0, 675.0, 677.0, 677.0, 677.0, 677.0, 673.0, 673.0, 673.0, 673.0, 673.0, 673.0, 673.0, 673.0, 673.0, 673.0]
    },
    "slices": {}
  }
}