{
  "AcquisitionMatrixPE": 80,
  "AcquisitionNumber": 1,
  "AcquisitionTime": "09:20:46.155000",
  "BandwidthPerPixelPhaseEncode": 44.643,
  "BaseResolution": 80,
  "BodyPartExamined": "BRAIN",
  "CoilCombinationMethod": "Sum of Squares",
  "ConsistencyInfo": "N4_VE11C_LATEST_20160120",
  "ConversionSoftware": "dcm2niix",
  "ConversionSoftwareVersion": "v1.0.20220720",
  "DerivedVendorReportedEchoSpacing": 0.000559998,
  "DeviceSerialNumber": "66112",
  "DwellTime": 2.7e-06,
  "EchoTime": 0.035,
  "EchoTrainLength": 39,
  "EffectiveEchoSpacing": 0.000279999,
  "FlipAngle": 90,
  "HeudiconvVersion": "0.13.1",
  "ImageOrientationPatientDICOM": [0.992458, 0.122396, 0.00678374, -0.118519, 0.943945, 0.308092],
  "ImageOrientationText": "Tra>Cor(17.9)>Sag(-1.8)",
  "ImageType": [
    "ORIGINAL",
    "PRIMARY",
    "M",
    "ND",
    "NORM",
    "MOSAIC"
],
  "ImagingFrequency": 123.252,
  "InPlanePhaseEncodingDirectionDICOM": "COL",
  "InstitutionAddress": "Maynard 3,Hanover,NH,US,03755",
  "InstitutionName": "Dartmouth College - PBS",
  "InstitutionalDepartmentName": "Department",
  "MRAcquisitionType": "2D",
  "MagneticFieldStrength": 3,
  "Manufacturer": "Siemens",
  "ManufacturersModelName": "Prisma",
  "Modality": "MR",
  "MultibandAccelerationFactor": 4,
  "NonlinearGradientCorrection": false,
  "ParallelReductionFactorInPlane": 2,
  "PartialFourier": 1,
  "PatientPosition": "HFS",
  "PercentPhaseFOV": 100,
  "PercentSampling": 100,
  "PhaseEncodingDirection": "j-",
  "PhaseEncodingSteps": 79,
  "PhaseResolution": 1,
  "PixelBandwidth": 2315,
  "ProcedureStepDescription": "dbic^QA",
  "ProtocolName": "func-bold_task-rest_acq-p2-s4-3.5mm",
  "PulseSequenceDetails": "%SiemensSeq%\\ep2d_bold",
  "ReceiveCoilActiveElements": "HEA;HEP",
  "ReceiveCoilName": "Head_32",
  "ReconMatrixPE": 80,
  "RefLinesPE": 24,
  "RepetitionTime": 2,
  "SAR": 0.0207894,
  "ScanOptions": "FS",
  "ScanningSequence": "EP",
  "SequenceName": "*epfid2d1_80",
  "SequenceVariant": "SK",
  "SeriesDescription": "func-bold_task-rest_acq-p2-s4-3.5mm",
  "SeriesNumber": 7,
  "ShimSetting": [4142, -7702, -7518, 267, -86, -37, -32, 81],
  "SliceThickness": 3.5,
  "SliceTiming": [1.485, 0, 0.99, 0.2475, 1.2375, 0.7425, 1.7325, 0.495, 1.485, 0, 0.99, 0.2475, 1.2375, 0.7425, 1.7325, 0.495, 1.485, 0, 0.99, 0.2475, 1.2375, 0.7425, 1.7325, 0.495, 1.485, 0, 0.99, 0.2475, 1.2375, 0.7425, 1.7325, 0.495],
  "SoftwareVersions": "syngo MR E11",
  "SpacingBetweenSlices": 3.99,
  "StationName": "AWP66112",
  "TaskName": "rest",
  "TotalReadoutTime": 0.0221199,
  "TxRefAmp": 223.007,
  "dcmmeta_affine": [
    [-2.977374315261841, -0.3555574417114258, -0.12491007149219513, 135.05026245117188],
    [-0.3671884834766388, 2.8318357467651367, 1.2232234477996826, -116.47454071044922],
    [0.02035123109817505, -0.9242756366729736, 3.795816421508789, -20.5228328704834],
    [0.0, 0.0, 0.0, 1.0]
],
  "dcmmeta_reorient_transform": [
    [0.0, -1.0, 0.0, 79.0],
    [1.0, 0.0, 0.0, 0.0],
    [0.0, 0.0, 1.0, 0.0],
    [0.0, 0.0, 0.0, 1.0]
],
  "dcmmeta_shape": [80, 80, 32, 200],
  "dcmmeta_slice_dim": 2,
  "dcmmeta_version": 0.6,
  "global": {
    "const": {
      "AccessionNumber": "qa",
      "AcquisitionMatrix": [80, 0, 0, 80],
      "AngioFlag": "N",
      "BitsAllocated": 16,
      "BitsStored": 12,
      "BodyPartExamined": "BRAIN",
      "Columns": 480,
      "EchoNumbers": 1,
      "EchoTime": 35.0,
      "EchoTrainLength": 39,
      "FlipAngle": 90.0,
      "HighBit": 11,
      "ImageOrientationPatient": [0.99245814029866, 0.12239616243445, 0.0067837435281, -0.1185191451466, 0.94394523286765, 0.30809188496316],
      "ImagePositionPatient": [-631.32462063982, -747.04531702291, -282.46598763944],
      "ImageType": [
        "ORIGINAL",
        "PRIMARY",
        "M",
        "ND",
        "NORM",
        "MOSAIC"
],
      "ImagedNucleus": "1H",
      "ImagingFrequency": 123.252354,
      "InPlanePhaseEncodingDirection": "COL",
      "MRAcquisitionType": "2D",
      "MagneticFieldStrength": 3.0,
      "Manufacturer": "SIEMENS",
      "ManufacturerModelName": "Prisma",
      "Modality": "MR",
      "NumberOfAverages": 1.0,
      "NumberOfPhaseEncodingSteps": 79,
      "PercentPhaseFieldOfView": 100.0,
      "PercentSampling": 100.0,
      "PerformedProcedureStepStartTime": "091157.467000",
      "PhotometricInterpretation": "MONOCHROME2",
      "PixelBandwidth": 2315.0,
      "PixelRepresentation": 0,
      "PixelSpacing": [3.0, 3.0],
      "ProtocolName": "func-bold_task-rest_acq-p2-s4-3.5mm",
      "RepetitionTime": 2000.0,
      "Rows": 480,
      "SAR": 0.020789358056,
      "SamplesPerPixel": 1,
      "ScanOptions": "FS",
      "ScanningSequence": "EP",
      "SequenceName": "*epfid2d1_80",
      "SequenceVariant": "SK",
      "SeriesDescription": "func-bold_task-rest_acq-p2-s4-3.5mm",
      "SeriesNumber": 7,
      "SeriesTime": "092125.184000",
      "SliceLocation": -59.459759199781,
      "SliceThickness": 3.5,
      "SmallestImagePixelValue": 0,
      "SoftwareVersions": "syngo MR E11",
      "SpacingBetweenSlices": 3.99000002199,
      "SpecificCharacterSet": "ISO_IR 100",
      "StudyID": "46",
      "StudyTime": "091157.415000",
      "TransmitCoilName": "Body",
      "VariableFlipAngleFlag": "N",
      "WindowCenter": 974.0,
      "WindowCenterWidthExplanation": "Algo1",
      "dBdt": 0.0},
    "slices": {}
  },
  "time": {
    "samples": {
      "AcquisitionNumber": [1, 2, 3, 4, 5, 6, 7, 8, 9, 10, 11, 12, 13, 14, 15, 16, 17, 18, 19, 20, 21, 22, 23, 24, 25, 26, 27, 28, 29, 30, 31, 32, 33, 34, 35, 36, 37, 38, 39, 40, 41, 42, 43, 44, 45, 46, 47, 48, 49, 50, 51, 52, 53, 54, 55, 56, 57, 58, 59, 60, 61, 62, 63, 64, 65, 66, 67, 68, 69, 70, 71, 72, 73, 74, 75, 76, 77, 78, 79, 80, 81, 82, 83, 84, 85, 86, 87, 88, 89, 90, 91, 92, 93, 94, 95, 96, 97, 98, 99, 100, 101, 102, 103, 104, 105, 106, 107, 108, 109, 110, 111, 112, 113, 114, 115, 116, 117, 118, 119, 120, 121, 122, 123, 124, 125, 126, 127, 128, 129, 130, 131, 132, 133, 134, 135, 136, 137, 138, 139, 140, 141, 142, 143, 144, 145, 146, 147, 148, 149, 150, 151, 152, 153, 154, 155, 156, 157, 158, 159, 160, 161, 162, 163, 164, 165, 166, 167, 168, 169, 170, 171, 172, 173, 174, 175, 176, 177, 178, 179, 180, 181, 182, 183, 184, 185, 186, 187, 188, 189, 190, 191, 192, 193, 194, 195, 196, 197, 198, 199, 200],
      "AcquisitionTime": ["092046.155000", "092048.155000", "092050.155000", "092052.155000", "092054.155000", "092056.155000", "092058.155000", "092100.155000", "092102.155000", "092104.155000", "092106.155000", "092108.155000", "092110.155000", "092112.155000", "092114.155000", "092116.155000", "092118.155000", "092120.155000", "092122.155000", "092124.155000", "092126.155000", "092128.155000", "092130.155000", "092132.155000", "092134.155000", "092136.155000", "092138.155000", "092140.155000", "092142.155000", "092144.155000", "092146.155000", "092148.155000", "092150.155000", "092152.155000", "092154.155000", "092156.155000", "092158.155000", "092200.155000", "092202.155000", "092204.155000", "092206.155000", "092208.155000", "092210.155000", "092212.155000", "092214.155000", "092216.155000", "092218.155000", "092220.155000", "092222.155000", "092224.155000", "092226.155000", "092228.155000", "092230.155000", "092232.155000", "092234.155000", "092236.155000", "092238.155000", "092240.155000", "092242.155000", "092244.155000", "092246.155000", "092248.155000", "092250.155000", "092252.155000", "092254.155000", "092256.155000", "092258.155000", "092300.155000", "092302.155000", "092304.155000", "092306.155000", "092308.155000", "092310.155000", "092312.155000", "092314.155000", "092316.155000", "092318.155000", "092320.155000", "092322.155000", "092324.155000", "092326.155000", "092328.155000", "092330.155000", "092332.155000", "092334.155000", "092336.155000", "092338.155000", "092340.155000", "092342.155000", "092344.155000", "092346.155000", "092348.155000", "092350.155000", "092352.155000", "092354.155000", "092356.155000", "092358.155000", "092400.155000", "092402.155000", "092404.155000", "092406.155000", "092408.155000", "092410.155000", "092412.155000", "092414.155000", "092416.155000", "092418.155000", "092420.155000", "092422.155000", "092424.155000", "092426.155000", "092428.155000", "092430.155000", "092432.155000", "092434.155000", "092436.155000", "092438.155000", "092440.155000", "092442.155000", "092444.155000", "092446.155000", "092448.155000", "092450.155000", "092452.155000", "092454.155000", "092456.155000", "092458.155000", "092500.155000", "092502.155000", "092504.155000", "092506.155000", "092508.155000", "092510.155000", "092512.155000", "092514.155000", "092516.155000", "092518.155000", "092520.155000", "092522.155000", "092524.155000", "092526.155000", "092528.155000", "092530.155000", "092532.155000", "092534.155000", "092536.155000", "092538.155000", "092540.155000", "092542.155000", "092544.155000", "092546.155000", "092548.155000", "092550.155000", "092552.155000", "092554.155000", "092556.155000", "092558.155000", "092600.155000", "092602.155000", "092604.155000", "092606.155000", "092608.155000", "092610.155000", "092612.155000", "092614.155000", "092616.155000", "092618.155000", "092620.155000", "092622.155000", "092624.155000", "092626.155000", "092628.155000", "092630.155000", "092632.155000", "092634.155000", "092636.155000", "092638.155000", "092640.155000", "092642.155000", "092644.155000", "092646.155000", "092648.155000", "092650.155000", "092652.155000", "092654.155000", "092656.155000", "092658.155000", "092700.155000", "092702.155000", "092704.155000", "092706.155000", "092708.155000", "092710.155000", "092712.155000", "092714.155000", "092716.155000", "092718.155000", "092720.155000", "092722.155000", "092724.155000"],
      "ContentTime": ["092125.187000", "092125.191000", "092125.193000", "092125.196000", "092125.199000", "092125.205000", "092125.208000", "092125.210000", "092125.213000", "092125.215000", "092125.218000", "092125.220000", "092125.223000", "092125.225000", "092125.228000", "092125.231000", "092125.233000", "092125.236000", "092125.238000", "092125.241000", "092205.183000", "092205.186000", "092205.188000", "092205.191000", "092205.193000", "092205.196000", "092205.198000", "092205.201000", "092205.203000", "092205.206000", "092205.209000", "092205.211000", "092205.214000", "092205.216000", "092205.219000", "092205.221000", "092205.224000", "092205.226000", "092205.229000", "092205.231000", "092245.183000", "092245.186000", "092245.189000", "092245.194000", "092245.196000", "092245.199000", "092245.201000", "092245.204000", "092245.206000", "092245.209000", "092245.212000", "092245.214000", "092245.217000", "092245.219000", "092245.222000", "092245.224000", "092245.227000", "092245.229000", "092245.232000", "092245.235000", "092325.182000", "092325.185000", "092325.188000", "092325.191000", "092325.193000", "092325.196000", "092325.198000", "092325.201000", "092325.203000", "092325.206000", "092325.208000", "092325.211000", "092325.213000", "092325.216000", "092325.218000", "092325.221000", "092325.224000", "092325.226000", "092325.229000", "092325.231000", "092405.183000", "092405.185000", "092405.188000", "092405.190000", "092405.193000", "092405.196000", "092405.198000", "092405.201000", "092405.203000", "092405.206000", "092405.208000", "092405.211000", "092405.218000", "092405.221000", "092405.223000", "092405.226000", "092405.229000", "092405.231000", "092405.234000", "092405.236000", "092445.182000", "092445.185000", "092445.188000", "092445.190000", "092445.193000", "092445.195000", "092445.198000", "092445.201000", "092445.203000", "092445.206000", "092445.208000", "092445.211000", "092445.213000", "092445.216000", "092445.218000", "092445.221000", "092445.223000", "092445.226000", "092445.229000", "092445.231000", "092525.182000", "092525.185000", "092525.188000", "092525.190000", "092525.193000", "092525.196000", "092525.198000", "092525.201000", "092525.203000", "092525.206000", "092525.208000", "092525.211000", "092525.213000", "092525.216000", "092525.218000", "092525.221000", "092525.223000", "092525.226000", "092525.228000", "092525.231000", "092605.182000", "092605.185000", "092605.188000", "092605.190000", "092605.193000", "092605.196000", "092605.198000", "092605.201000", "092605.203000", "092605.206000", "092605.209000", "092605.211000", "092605.214000", "092605.216000", "092605.219000", "092605.221000", "092605.224000", "092605.226000", "092605.229000", "092605.231000", "092645.183000", "092645.185000", "092645.188000", "092645.191000", "092645.193000", "092645.196000", "092645.198000", "092645.201000", "092645.203000", "092645.206000", "092645.209000", "092645.211000", "092645.214000", "092645.216000", "092645.219000", "092645.221000", "092645.224000", "092645.226000", "092645.229000", "092645.231000", "092725.053000", "092725.056000", "092725.059000", "092725.061000", "092725.064000", "092725.067000", "092725.069000", "092725.072000", "092725.074000", "092725.077000", "092725.080000", "092725.082000", "092725.089000", "092725.095000", "092725.099000", "092725.106000", "092725.108000", "092725.111000", "092725.114000", "092725.116000"],
      "InstanceCreationTime": ["092125.187000", "092125.191000", "092125.193000", "092125.196000", "092125.199000", "092125.205000", "092125.208000", "092125.210000", "092125.213000", "092125.215000", "092125.218000", "092125.220000", "092125.223000", "092125.225000", "092125.228000", "092125.231000", "092125.233000", "092125.236000", "092125.238000", "092125.241000", "092205.183000", "092205.186000", "092205.188000", "092205.191000", "092205.193000", "092205.196000", "092205.198000", "092205.201000", "092205.203000", "092205.206000", "092205.209000", "092205.211000", "092205.214000", "092205.216000", "092205.219000", "092205.221000", "092205.224000", "092205.226000", "092205.229000", "092205.231000", "092245.183000", "092245.186000", "092245.189000", "092245.194000", "092245.196000", "092245.199000", "092245.201000", "092245.204000", "092245.206000", "092245.209000", "092245.212000", "092245.214000", "092245.217000", "092245.219000", "092245.222000", "092245.224000", "092245.227000", "092245.229000", "092245.232000", "092245.235000", "092325.182000", "092325.185000", "092325.188000", "092325.191000", "092325.193000", "092325.196000", "092325.198000", "092325.201000", "092325.203000", "092325.206000", "092325.208000", "092325.211000", "092325.213000", "092325.216000", "092325.218000", "092325.221000", "092325.224000", "092325.226000", "092325.229000", "092325.231000", "092405.183000", "092405.185000", "092405.188000", "092405.190000", "092405.193000", "092405.196000", "092405.198000", "092405.201000", "092405.203000", "092405.206000", "092405.208000", "092405.211000", "092405.218000", "092405.221000", "092405.223000", "092405.226000", "092405.229000", "092405.231000", "092405.234000", "092405.236000", "092445.182000", "092445.185000", "092445.188000", "092445.190000", "092445.193000", "092445.195000", "092445.198000", "092445.201000", "092445.203000", "092445.206000", "092445.208000", "092445.211000", "092445.213000", "092445.216000", "092445.218000", "092445.221000", "092445.223000", "092445.226000", "092445.229000", "092445.231000", "092525.182000", "092525.185000", "092525.188000", "092525.190000", "092525.193000", "092525.196000", "092525.198000", "092525.201000", "092525.203000", "092525.206000", "092525.208000", "092525.211000", "092525.213000", "092525.216000", "092525.218000", "092525.221000", "092525.223000", "092525.226000", "092525.228000", "092525.231000", "092605.182000", "092605.185000", "092605.188000", "092605.190000", "092605.193000", "092605.196000", "092605.198000", "092605.201000", "092605.203000", "092605.206000", "092605.209000", "092605.211000", "092605.214000", "092605.216000", "092605.219000", "092605.221000", "092605.224000", "092605.226000", "092605.229000", "092605.231000", "092645.183000", "092645.185000", "092645.188000", "092645.191000", "092645.193000", "092645.196000", "092645.198000", "092645.201000", "092645.203000", "092645.206000", "092645.209000", "092645.211000", "092645.214000", "092645.216000", "092645.219000", "092645.221000", "092645.224000", "092645.226000", "092645.229000", "092645.231000", "092725.053000", "092725.056000", "092725.059000", "092725.061000", "092725.064000", "092725.067000", "092725.069000", "092725.072000", "092725.074000", "092725.077000", "092725.080000", "092725.082000", "092725.089000", "092725.095000", "092725.099000", "092725.106000", "092725.108000", "092725.111000", "092725.114000", "092725.116000"],
      "InstanceNumber": [1, 2, 3, 4, 5, 6, 7, 8, 9, 10, 11, 12, 13, 14, 15, 16, 17, 18, 19, 20, 21, 22, 23, 24, 25, 26, 27, 28, 29, 30, 31, 32, 33, 34, 35, 36, 37, 38, 39, 40, 41, 42, 43, 44, 45, 46, 47, 48, 49, 50, 51, 52, 53, 54, 55, 56, 57, 58, 59, 60, 61, 62, 63, 64, 65, 66, 67, 68, 69, 70, 71, 72, 73, 74, 75, 76, 77, 78, 79, 80, 81, 82, 83, 84, 85, 86, 87, 88, 89, 90, 91, 92, 93, 94, 95, 96, 97, 98, 99, 100, 101, 102, 103, 104, 105, 106, 107, 108, 109, 110, 111, 112, 113, 114, 115, 116, 117, 118, 119, 120, 121, 122, 123, 124, 125, 126, 127, 128, 129, 130, 131, 132, 133, 134, 135, 136, 137, 138, 139, 140, 141, 142, 143, 144, 145, 146, 147, 148, 149, 150, 151, 152, 153, 154, 155, 156, 157, 158, 159, 160, 161, 162, 163, 164, 165, 166, 167, 168, 169, 170, 171, 172, 173, 174, 175, 176, 177, 178, 179, 180, 181, 182, 183, 184, 185, 186, 187, 188, 189, 190, 191, 192, 193, 194, 195, 196, 197, 198, 199, 200],
      "LargestImagePixelValue": [2541, 2544, 2543, 2542, 2542, 2539, 2541, 2543, 2546, 2537, 2541, 2544, 2540, 2539, 2543, 2544, 2542, 2545, 2543, 2543, 2541, 2543, 2539, 2541, 2538, 2544, 2543, 2542, 2544, 2543, 2545, 2539, 2542, 2545, 2539, 2538, 2542, 2545, 2544, 2543, 2542, 2546, 2540, 2543, 2546, 2540, 2543, 2544, 2543, 2543, 2541, 2549, 2542, 2542, 2543, 2541, 2546, 2540, 2547, 2546, 2546, 2543, 2542, 2541, 2541, 2540, 2544, 2542, 2546, 2544, 2542, 2542, 2542, 2547, 2543, 2546, 2539, 2541, 2541, 2541, 2545, 2548, 2545, 2542, 2544, 2542, 2543, 2550, 2542, 2552, 2541, 2550, 2542, 2544, 2545, 2543, 2549, 2541, 2544, 2545, 2544, 2547, 2544, 2545, 2546, 2548, 2541, 2542, 2542, 2548, 2540, 2547, 2545, 2545, 2543, 2543, 2540, 2546, 2545, 2550, 2546, 2542, 2546, 2544, 2545, 2542, 2544, 2549, 2540, 2544, 2542, 2542, 2540, 2540, 2545, 2544, 2543, 2542, 2548, 2544, 2548, 2542, 2544, 2546, 2541, 2540, 2542, 2540, 2544, 2545, 2542, 2547, 2541, 2542, 2546, 2540, 2546, 2547, 2545, 2548, 2550, 2543, 2549, 2549, 2541, 2546, 2543, 2543, 2548, 2545, 2547, 2543, 2542, 2544, 2549, 2543, 2542, 2549, 2548, 2543, 2547, 2542, 2545, 2542, 2546, 2543, 2544, 2545, 2543, 2541, 2543, 2547, 2546, 2542, 2546, 2540, 2540, 2544, 2544, 2551],
      "WindowWidth": [2304.0, 2304.0, 2304.0, 2305.0, 2304.0, 2305.0, 2304.0, 2305.0, 2305.0, 2304.0, 2304.0, 2304.0, 2304.0, 2304.0, 2304.0, 2304.0, 2304.0, 2304.0, 2304.0, 2305.0, 2305.0, 2304.0, 2304.0, 2304.0, 2305.0, 2304.0, 2305.0, 2304.0, 2304.0, 2304.0, 2304.0, 2304.0, 2304.0, 2305.0, 2305.0, 2304.0, 2304.0, 2304.0, 2304.0, 2305.0, 2305.0, 2304.0, 2304.0, 2304.0, 2304.0, 2304.0, 2304.0, 2305.0, 2305.0, 2304.0, 2305.0, 2305.0, 2305.0, 2305.0, 2304.0, 2304.0, 2305.0, 2305.0, 2304.0, 2304.0, 2305.0, 2304.0, 2305.0, 2304.0, 2304.0, 2305.0, 2305.0, 2305.0, 2305.0, 2304.0, 2305.0, 2305.0, 2305.0, 2305.0, 2305.0, 2305.0, 2305.0, 2304.0, 2304.0, 2304.0, 2305.0, 2305.0, 2305.0, 2304.0, 2305.0, 2305.0, 2304.0, 2305.0, 2305.0, 2305.0, 2305.0, 2305.0, 2305.0, 2305.0, 2305.0, 2305.0, 2305.0, 2305.0, 2305.0, 2305.0, 2305.0, 2305.0, 2305.0, 2305.0, 2305.0, 2305.0, 2305.0, 2305.0, 2305.0, 2305.0, 2305.0, 2305.0, 2305.0, 2305.0, 2305.0, 2305.0, 2305.0, 2305.0, 2305.0, 2304.0, 2304.0, 2304.0, 2305.0, 2305.0, 2305.0, 2305.0, 2305.0, 2305.0, 2305.0, 2305.0, 2305.0, 2305.0, 2305.0, 2305.0, 2305.0, 2305.0, 2305.0, 2305.0, 2305.0, 2305.0, 2305.0, 2305.0, 2305.0, 2305.0, 2305.0, 2305.0, 2305.0, 2305.0, 2305.0, 2305.0, 2305.0, 2305.0, 2305.0, 2304.0, 2305.0, 2305.0, 2305.0, 2304.0, 2305.0, 2305.0, 2305.0, 2305.0, 2305.0, 2305.0, 2305.0, 2305.0, 2305.0, 2305.0, 2305.0, 2305.0, 2305.0, 2305.0, 2305.0, 2305.0, 2305.0, 2305.0, 2305.0, 2305.0, 2305.0, 2305.0, 2305.0, 2305.0, 2305.0, 2305.0, 2305.0, 2305.0, 2305.0, 2305.0, 2305.0, 2305.0, 2305.0, 2305.0, 2305.0, 2305.0, 2305.0, 2305.0, 2305.0, 2305.0, 2305.0, 2305.0]
    },
    "slices": {}
  }
}