{
  "AcquisitionMatrixPE": 122,
  "AcquisitionNumber": 1,
  "AcquisitionTime": "10:30:53.187500",
  "BandwidthPerPixelPhaseEncode": 28.76,
  "BaseResolution": 122,
  "BodyPartExamined": "BRAIN",
  "CoilCombinationMethod": "Adaptive Combine",
  "ConsistencyInfo": "N4_VE11C_LATEST_20160120",
  "ConversionSoftware": "dcm2niix",
  "ConversionSoftwareVersion": "v1.0.20220720",
  "DerivedVendorReportedEchoSpacing": 0.000570008,
  "DeviceSerialNumber": "66112",
  "DiffusionScheme": "Monopolar",
  "DwellTime": 2e-06,
  "EchoTime": 0.075,
  "EchoTrainLength": 61,
  "EffectiveEchoSpacing": 0.000285004,
  "FlipAngle": 90,
  "HeudiconvVersion": "0.13.1",
  "ImageOrientationPatientDICOM": [0.993526, -0.11348, -0.00541715, 0.106002, 0.908788, 0.403569],
  "ImageOrientationText": "Tra>Cor(23.7)>Sag(2.3)",
  "ImageType": [
    "ORIGINAL",
    "PRIMARY",
    "DIFFUSION",
    "NONE",
    "ND",
    "NORM"
],
  "ImagingFrequency": 123.252,
  "InPlanePhaseEncodingDirectionDICOM": "COL",
  "InstitutionAddress": "Maynard 3,Hanover,NH,US,03755",
  "InstitutionName": "Dartmouth College - PBS",
  "InstitutionalDepartmentName": "Department",
  "MRAcquisitionType": "2D",
  "MagneticFieldStrength": 3,
  "Manufacturer": "Siemens",
  "ManufacturersModelName": "Prisma",
  "MatrixCoilMode": "GRAPPA",
  "Modality": "MR",
  "NonlinearGradientCorrection": false,
  "ParallelReductionFactorInPlane": 2,
  "PartialFourier": 1,
  "PatientPosition": "HFS",
  "PercentPhaseFOV": 100,
  "PercentSampling": 100,
  "PhaseEncodingDirection": "j-",
  "PhaseEncodingSteps": 122,
  "PhaseResolution": 1,
  "PixelBandwidth": 2050,
  "ProcedureStepDescription": "dbic^QA",
  "ProtocolName": "dwi_acq-DTI-30-p2",
  "PulseSequenceDetails": "%SiemensSeq%\\ep2d_diff",
  "ReceiveCoilActiveElements": "HEA;HEP",
  "ReceiveCoilName": "Head_32",
  "ReconMatrixPE": 122,
  "RefLinesPE": 38,
  "RepetitionTime": 7.7,
  "SAR": 0.10186,
  "ScanOptions": "FS",
  "ScanningSequence": "EP",
  "SequenceName": "*ep_b0",
  "SequenceVariant": "SK\\SP",
  "SeriesDescription": "dwi_acq-DTI-30-p2",
  "SeriesNumber": 12,
  "ShimSetting": [4155, -7712, -7515, 232, -64, -137, -25, 93],
  "SliceThickness": 2,
  "SliceTiming": [3.84375, 0, 3.95312, 0.11719, 4.0625, 0.22656, 4.17188, 0.33594, 4.28125, 0.44531, 4.39062, 0.55469, 4.5, 0.66406, 4.61719, 0.77344, 4.71875, 0.88281, 4.82812, 0.99219, 4.9375, 1.10156, 5.05469, 1.21094, 5.16406, 1.32031, 5.27344, 1.42969, 5.38281, 1.53906, 5.49219, 1.64844, 5.60156, 1.75781, 5.71094, 1.86719, 5.82031, 1.97656, 5.92969, 2.08594, 6.03906, 2.19531, 6.14844, 2.3125, 6.25781, 2.42188, 6.36719, 2.53125, 6.47656, 2.64062, 6.58594, 2.75, 6.69531, 2.85938, 6.80469, 2.96875, 6.91406, 3.07812, 7.02344, 3.1875, 7.13281, 3.29688, 7.25, 3.40625, 7.35938, 3.51562, 7.46094, 3.625, 7.57031, 3.73438],
  "SoftwareVersions": "syngo MR E11",
  "SpacingBetweenSlices": 2,
  "SpoilingState": true,
  "StationName": "AWP66112",
  "TotalReadoutTime": 0.0344855,
  "TxRefAmp": 227.518,
  "dcmmeta_affine": [
    [-1.9544764757156372, 0.20852836966514587, 0.08174777030944824, 104.5560073852539],
    [0.22323964536190033, 1.7877800464630127, 0.8030624389648438, -139.27621459960938],
    [-0.010656679980456829, -0.7939055562019348, 1.8298721313476562, -7.716675281524658],
    [0.0, 0.0, 0.0, 1.0]
],
  "dcmmeta_reorient_transform": [
    [0.0, -1.0, 0.0, 121.0],
    [1.0, 0.0, 0.0, 0.0],
    [0.0, 0.0, -1.0, 69.0],
    [0.0, 0.0, 0.0, 1.0]
],
  "dcmmeta_shape": [122, 122, 70, 31],
  "dcmmeta_slice_dim": 2,
  "dcmmeta_version": 0.6,
  "global": {
    "const": {
      "AccessionNumber": "qa",
      "AcquisitionMatrix": [122, 0, 0, 122],
      "AngioFlag": "N",
      "BitsAllocated": 16,
      "BitsStored": 12,
      "BodyPartExamined": "BRAIN",
      "Columns": 122,
      "EchoNumbers": 1,
      "EchoTime": 75.0,
      "EchoTrainLength": 61,
      "FlipAngle": 90.0,
      "HighBit": 11,
      "ImageOrientationPatient": [0.99352549523186, -0.1134801518161, -0.0054171457508, 0.10600191897549, 0.90878816356257, 0.40356866446999],
      "ImageType": [
        "ORIGINAL",
        "PRIMARY",
        "DIFFUSION",
        "NONE",
        "ND",
        "NORM"
],
      "ImagedNucleus": "1H",
      "ImagingFrequency": 123.252326,
      "InPlanePhaseEncodingDirection": "COL",
      "MRAcquisitionType": "2D",
      "MagneticFieldStrength": 3.0,
      "Manufacturer": "SIEMENS",
      "ManufacturerModelName": "Prisma",
      "Modality": "MR",
      "NumberOfAverages": 1.0,
      "NumberOfPhaseEncodingSteps": 122,
      "PercentPhaseFieldOfView": 100.0,
      "PercentSampling": 100.0,
      "PerformedProcedureStepStartTime": "100144.282000",
      "PhotometricInterpretation": "MONOCHROME2",
      "PixelBandwidth": 2050.0,
      "PixelRepresentation": 0,
      "PixelSpacing": [1.9672131538391, 1.9672131538391],
      "ProtocolName": "dwi_acq-DTI-30-p2",
      "RepetitionTime": 7700.0,
      "Rows": 122,
      "SAR": 0.10185996129743,
      "SamplesPerPixel": 1,
      "ScanOptions": "FS",
      "ScanningSequence": "EP",
      "SequenceVariant": [
        "SK",
        "SP"
],
      "SeriesDescription": "dwi_acq-DTI-30-p2",
      "SeriesNumber": 12,
      "SeriesTime": "103056.368000",
      "SliceThickness": 2.0,
      "SmallestImagePixelValue": 0,
      "SoftwareVersions": "syngo MR E11",
      "SpacingBetweenSlices": 2.0,
      "SpecificCharacterSet": "ISO_IR 100",
      "StudyID": "8",
      "StudyTime": "100144.230000",
      "TransmitCoilName": "Body",
      "VariableFlipAngleFlag": "N",
      "WindowCenterWidthExplanation": "Algo1",
      "dBdt": 0.0},
    "slices": {
      "AcquisitionTime": ["103053.187500", "103049.347500", "103053.297500", "103049.457500", "103053.407500", "103049.567500", "103053.517500", "103049.677500", "103053.627500", "103049.787500", "103053.737500", "103049.897500", "103053.847500", "103050.007500", "103053.957500", "103050.117500", "103054.065000", "103050.225000", "103054.175000", "103050.335000", "103054.285000", "103050.445000", "103054.395000", "103050.555000", "103054.505000", "103050.665000", "103054.615000", "103050.775000", "103054.725000", "103050.885000", "103054.835000", "103050.995000", "103054.942500", "103051.105000", "103055.052500", "103051.212500", "103055.162500", "103051.322500", "103055.272500", "103051.432500", "103055.382500", "103051.542500", "103055.492500", "103051.652500", "103055.602500", "103051.762500", "103055.712500", "103051.872500", "103055.822500", "103051.982500", "103055.930000", "103052.090000", "103056.040000", "103052.200000", "103056.150000", "103052.310000", "103056.260000", "103052.420000", "103056.370000", "103052.530000", "103056.480000", "103052.640000", "103056.590000", "103052.750000", "103056.700000", "103052.860000", "103056.807500", "103052.970000", "103056.917500", "103053.077500", "103100.887500", "103057.047500", "103100.997500", "103057.157500", "103101.107500", "103057.267500", "103101.217500", "103057.377500", "103101.327500", "103057.487500", "103101.437500", "103057.597500", "103101.547500", "103057.707500", "103101.657500", "103057.817500", "103101.765000", "103057.925000", "103101.875000", "103058.035000", "103101.985000", "103058.145000", "103102.095000", "103058.255000", "103102.205000", "103058.365000", "103102.315000", "103058.475000", "103102.425000", "103058.585000", "103102.535000", "103058.695000", "103102.642500", "103058.805000", "103102.752500", "103058.912500", "103102.862500", "103059.022500", "103102.972500", "103059.132500", "103103.082500", "103059.242500", "103103.192500", "103059.352500", "103103.302500", "103059.462500", "103103.412500", "103059.572500", "103103.522500", "103059.682500", "103103.630000", "103059.790000", "103103.740000", "103059.900000", "103103.850000", "103100.010000", "103103.960000", "103100.120000", "103104.070000", "103100.230000", "103104.180000", "103100.340000", "103104.290000", "103100.450000", "103104.400000", "103100.560000", "103104.507500", "103100.670000", "103104.617500", "103100.777500", "103108.587500", "103104.747500", "103108.697500", "103104.857500", "103108.807500", "103104.967500", "103108.917500", "103105.077500", "103109.027500", "103105.187500", "103109.137500", "103105.297500", "103109.247500", "103105.407500", "103109.357500", "103105.517500", "103109.465000", "103105.625000", "103109.575000", "103105.735000", "103109.685000", "103105.845000", "103109.795000", "103105.955000", "103109.905000", "103106.065000", "103110.015000", "103106.175000", "103110.125000", "103106.285000", "103110.235000", "103106.395000", "103110.342500", "103106.505000", "103110.452500", "103106.612500", "103110.562500", "103106.722500", "103110.672500", "103106.832500", "103110.782500", "103106.942500", "103110.892500", "103107.052500", "103111.002500", "103107.162500", "103111.112500", "103107.272500", "103111.222500", "103107.382500", "103111.330000", "103107.490000", "103111.440000", "103107.600000", "103111.550000", "103107.710000", "103111.660000", "103107.820000", "103111.770000", "103107.930000", "103111.880000", "103108.040000", "103111.990000", "103108.150000", "103112.100000", "103108.260000", "103112.207500", "103108.370000", "103112.317500", "103108.477500", "103116.287500", "103112.447500", "103116.397500", "103112.557500", "103116.507500", "103112.667500", "103116.617500", "103112.777500", "103116.727500", "103112.887500", "103116.837500", "103112.997500", "103116.947500", "103113.107500", "103117.057500", "103113.217500", "103117.165000", "103113.325000", "103117.275000", "103113.435000", "103117.385000", "103113.545000", "103117.495000", "103113.655000", "103117.605000", "103113.765000", "103117.715000", "103113.875000", "103117.825000", "103113.985000", "103117.935000", "103114.095000", "103118.042500", "103114.205000", "103118.152500", "103114.312500", "103118.262500", "103114.422500", "103118.372500", "103114.532500", "103118.482500", "103114.642500", "103118.592500", "103114.752500", "103118.702500", "103114.862500", "103118.812500", "103114.972500", "103118.922500", "103115.082500", "103119.030000", "103115.190000", "103119.140000", "103115.300000", "103119.250000", "103115.410000", "103119.360000", "103115.520000", "103119.470000", "103115.630000", "103119.580000", "103115.740000", "103119.690000", "103115.850000", "103119.800000", "103115.960000", "103119.907500", "103116.070000", "103120.017500", "103116.177500", "103123.987500", "103120.147500", "103124.097500", "103120.257500", "103124.207500", "103120.367500", "103124.317500", "103120.477500", "103124.427500", "103120.587500", "103124.537500", "103120.697500", "103124.647500", "103120.807500", "103124.757500", "103120.917500", "103124.865000", "103121.025000", "103124.975000", "103121.135000", "103125.085000", "103121.245000", "103125.195000", "103121.355000", "103125.305000", "103121.465000", "103125.415000", "103121.575000", "103125.525000", "103121.685000", "103125.635000", "103121.795000", "103125.742500", "103121.905000", "103125.852500", "103122.012500", "103125.962500", "103122.122500", "103126.072500", "103122.232500", "103126.182500", "103122.342500", "103126.292500", "103122.452500", "103126.402500", "103122.562500", "103126.512500", "103122.672500", "103126.622500", "103122.782500", "103126.730000", "103122.890000", "103126.840000", "103123.000000", "103126.950000", "103123.110000", "103127.060000", "103123.220000", "103127.170000", "103123.330000", "103127.280000", "103123.440000", "103127.390000", "103123.550000", "103127.500000", "103123.660000", "103127.607500", "103123.770000", "103127.717500", "103123.877500", "103131.687500", "103127.847500", "103131.797500", "103127.957500", "103131.907500", "103128.067500", "103132.017500", "103128.177500", "103132.127500", "103128.287500", "103132.237500", "103128.397500", "103132.347500", "103128.507500", "103132.457500", "103128.617500", "103132.565000", "103128.725000", "103132.675000", "103128.835000", "103132.785000", "103128.945000", "103132.895000", "103129.055000", "103133.005000", "103129.165000", "103133.115000", "103129.275000", "103133.225000", "103129.385000", "103133.335000", "103129.495000", "103133.442500", "103129.605000", "103133.552500", "103129.712500", "103133.662500", "103129.822500", "103133.772500", "103129.932500", "103133.882500", "103130.042500", "103133.992500", "103130.152500", "103134.102500", "103130.262500", "103134.212500", "103130.372500", "103134.322500", "103130.482500", "103134.430000", "103130.590000", "103134.540000", "103130.700000", "103134.650000", "103130.810000", "103134.760000", "103130.920000", "103134.870000", "103131.030000", "103134.980000", "103131.140000", "103135.090000", "103131.250000", "103135.200000", "103131.360000", "103135.307500", "103131.470000", "103135.417500", "103131.577500", "103139.387500", "103135.547500", "103139.497500", "103135.657500", "103139.607500", "103135.767500", "103139.717500", "103135.877500", "103139.827500", "103135.987500", "103139.937500", "103136.097500", "103140.047500", "103136.207500", "103140.157500", "103136.317500", "103140.265000", "103136.425000", "103140.375000", "103136.535000", "103140.485000", "103136.645000", "103140.595000", "103136.755000", "103140.705000", "103136.865000", "103140.815000", "103136.975000", "103140.925000", "103137.085000", "103141.035000", "103137.195000", "103141.142500", "103137.305000", "103141.252500", "103137.412500", "103141.362500", "103137.522500", "103141.472500", "103137.632500", "103141.582500", "103137.742500", "103141.692500", "103137.852500", "103141.802500", "103137.962500", "103141.912500", "103138.072500", "103142.022500", "103138.182500", "103142.130000", "103138.290000", "103142.240000", "103138.400000", "103142.350000", "103138.510000", "103142.460000", "103138.620000", "103142.570000", "103138.730000", "103142.680000", "103138.840000", "103142.790000", "103138.950000", "103142.900000", "103139.060000", "103143.007500", "103139.170000", "103143.117500", "103139.277500", "103147.087500", "103143.247500", "103147.197500", "103143.357500", "103147.307500", "103143.467500", "103147.417500", "103143.577500", "103147.527500", "103143.687500", "103147.637500", "103143.797500", "103147.747500", "103143.907500", "103147.857500", "103144.017500", "103147.965000", "103144.125000", "103148.075000", "103144.235000", "103148.185000", "103144.345000", "103148.295000", "103144.455000", "103148.405000", "103144.565000", "103148.515000", "103144.675000", "103148.625000", "103144.785000", "103148.735000", "103144.895000", "103148.842500", "103145.005000", "103148.952500", "103145.112500", "103149.062500", "103145.222500", "103149.172500", "103145.332500", "103149.282500", "103145.442500", "103149.392500", "103145.552500", "103149.502500", "103145.662500", "103149.612500", "103145.772500", "103149.722500", "103145.882500", "103149.830000", "103145.990000", "103149.940000", "103146.100000", "103150.050000", "103146.210000", "103150.160000", "103146.320000", "103150.270000", "103146.430000", "103150.380000", "103146.540000", "103150.490000", "103146.650000", "103150.600000", "103146.760000", "103150.707500", "103146.870000", "103150.817500", "103146.977500", "103154.787500", "103150.947500", "103154.897500", "103151.057500", "103155.007500", "103151.167500", "103155.117500", "103151.277500", "103155.227500", "103151.387500", "103155.337500", "103151.497500", "103155.447500", "103151.607500", "103155.557500", "103151.717500", "103155.665000", "103151.825000", "103155.775000", "103151.935000", "103155.885000", "103152.045000", "103155.995000", "103152.155000", "103156.105000", "103152.265000", "103156.215000", "103152.375000", "103156.325000", "103152.485000", "103156.435000", "103152.595000", "103156.542500", "103152.705000", "103156.652500", "103152.812500", "103156.762500", "103152.922500", "103156.872500", "103153.032500", "103156.982500", "103153.142500", "103157.092500", "103153.252500", "103157.202500", "103153.362500", "103157.312500", "103153.472500", "103157.422500", "103153.582500", "103157.530000", "103153.690000", "103157.640000", "103153.800000", "103157.750000", "103153.910000", "103157.860000", "103154.020000", "103157.970000", "103154.130000", "103158.080000", "103154.240000", "103158.190000", "103154.350000", "103158.300000", "103154.460000", "103158.407500", "103154.570000", "103158.517500", "103154.677500", "103202.487500", "103158.647500", "103202.597500", "103158.757500", "103202.707500", "103158.867500", "103202.817500", "103158.977500", "103202.927500", "103159.087500", "103203.037500", "103159.197500", "103203.147500", "103159.307500", "103203.257500", "103159.417500", "103203.365000", "103159.525000", "103203.475000", "103159.635000", "103203.585000", "103159.745000", "103203.695000", "103159.855000", "103203.805000", "103159.965000", "103203.915000", "103200.075000", "103204.025000", "103200.185000", "103204.135000", "103200.295000", "103204.242500", "103200.405000", "103204.352500", "103200.512500", "103204.462500", "103200.622500", "103204.572500", "103200.732500", "103204.682500", "103200.842500", "103204.792500", "103200.952500", "103204.902500", "103201.062500", "103205.012500", "103201.172500", "103205.122500", "103201.282500", "103205.230000", "103201.390000", "103205.340000", "103201.500000", "103205.450000", "103201.610000", "103205.560000", "103201.720000", "103205.670000", "103201.830000", "103205.780000", "103201.940000", "103205.890000", "103202.050000", "103206.000000", "103202.160000", "103206.107500", "103202.270000", "103206.217500", "103202.377500", "103210.187500", "103206.347500", "103210.297500", "103206.457500", "103210.407500", "103206.567500", "103210.517500", "103206.677500", "103210.627500", "103206.787500", "103210.737500", "103206.897500", "103210.847500", "103207.007500", "103210.957500", "103207.117500", "103211.065000", "103207.225000", "103211.175000", "103207.335000", "103211.285000", "103207.445000", "103211.395000", "103207.555000", "103211.505000", "103207.665000", "103211.615000", "103207.775000", "103211.725000", "103207.885000", "103211.835000", "103207.995000", "103211.942500", "103208.105000", "103212.052500", "103208.212500", "103212.162500", "103208.322500", "103212.272500", "103208.432500", "103212.382500", "103208.542500", "103212.492500", "103208.652500", "103212.602500", "103208.762500", "103212.712500", "103208.872500", "103212.822500", "103208.982500", "103212.930000", "103209.090000", "103213.040000", "103209.200000", "103213.150000", "103209.310000", "103213.260000", "103209.420000", "103213.370000", "103209.530000", "103213.480000", "103209.640000", "103213.590000", "103209.750000", "103213.700000", "103209.860000", "103213.807500", "103209.970000", "103213.917500", "103210.077500", "103217.887500", "103214.047500", "103217.997500", "103214.157500", "103218.107500", "103214.267500", "103218.217500", "103214.377500", "103218.327500", "103214.487500", "103218.437500", "103214.597500", "103218.547500", "103214.707500", "103218.657500", "103214.817500", "103218.765000", "103214.925000", "103218.875000", "103215.035000", "103218.985000", "103215.145000", "103219.095000", "103215.255000", "103219.205000", "103215.365000", "103219.315000", "103215.475000", "103219.425000", "103215.585000", "103219.535000", "103215.695000", "103219.642500", "103215.805000", "103219.752500", "103215.912500", "103219.862500", "103216.022500", "103219.972500", "103216.132500", "103220.082500", "103216.242500", "103220.192500", "103216.352500", "103220.302500", "103216.462500", "103220.412500", "103216.572500", "103220.522500", "103216.682500", "103220.630000", "103216.790000", "103220.740000", "103216.900000", "103220.850000", "103217.010000", "103220.960000", "103217.120000", "103221.070000", "103217.230000", "103221.180000", "103217.340000", "103221.290000", "103217.450000", "103221.400000", "103217.560000", "103221.507500", "103217.670000", "103221.617500", "103217.777500", "103225.587500", "103221.747500", "103225.697500", "103221.857500", "103225.807500", "103221.967500", "103225.917500", "103222.077500", "103226.027500", "103222.187500", "103226.137500", "103222.297500", "103226.247500", "103222.407500", "103226.357500", "103222.517500", "103226.465000", "103222.625000", "103226.575000", "103222.735000", "103226.685000", "103222.845000", "103226.795000", "103222.955000", "103226.905000", "103223.065000", "103227.015000", "103223.175000", "103227.125000", "103223.285000", "103227.235000", "103223.395000", "103227.342500", "103223.505000", "103227.452500", "103223.612500", "103227.562500", "103223.722500", "103227.672500", "103223.832500", "103227.782500", "103223.942500", "103227.892500", "103224.052500", "103228.002500", "103224.162500", "103228.112500", "103224.272500", "103228.222500", "103224.382500", "103228.330000", "103224.490000", "103228.440000", "103224.600000", "103228.550000", "103224.710000", "103228.660000", "103224.820000", "103228.770000", "103224.930000", "103228.880000", "103225.040000", "103228.990000", "103225.150000", "103229.100000", "103225.260000", "103229.207500", "103225.370000", "103229.317500", "103225.477500", "103233.287500", "103229.447500", "103233.397500", "103229.557500", "103233.507500", "103229.667500", "103233.617500", "103229.777500", "103233.727500", "103229.887500", "103233.837500", "103229.997500", "103233.947500", "103230.107500", "103234.057500", "103230.217500", "103234.165000", "103230.325000", "103234.275000", "103230.435000", "103234.385000", "103230.545000", "103234.495000", "103230.655000", "103234.605000", "103230.765000", "103234.715000", "103230.875000", "103234.825000", "103230.985000", "103234.935000", "103231.095000", "103235.042500", "103231.205000", "103235.152500", "103231.312500", "103235.262500", "103231.422500", "103235.372500", "103231.532500", "103235.482500", "103231.642500", "103235.592500", "103231.752500", "103235.702500", "103231.862500", "103235.812500", "103231.972500", "103235.922500", "103232.082500", "103236.030000", "103232.190000", "103236.140000", "103232.300000", "103236.250000", "103232.410000", "103236.360000", "103232.520000", "103236.470000", "103232.630000", "103236.580000", "103232.740000", "103236.690000", "103232.850000", "103236.800000", "103232.960000", "103236.907500", "103233.070000", "103237.017500", "103233.177500", "103240.987500", "103237.147500", "103241.097500", "103237.257500", "103241.207500", "103237.367500", "103241.317500", "103237.477500", "103241.427500", "103237.587500", "103241.537500", "103237.697500", "103241.647500", "103237.807500", "103241.757500", "103237.917500", "103241.865000", "103238.025000", "103241.975000", "103238.135000", "103242.085000", "103238.245000", "103242.195000", "103238.355000", "103242.305000", "103238.465000", "103242.415000", "103238.575000", "103242.525000", "103238.685000", "103242.635000", "103238.795000", "103242.742500", "103238.905000", "103242.852500", "103239.012500", "103242.962500", "103239.122500", "103243.072500", "103239.232500", "103243.182500", "103239.342500", "103243.292500", "103239.452500", "103243.402500", "103239.562500", "103243.512500", "103239.672500", "103243.622500", "103239.782500", "103243.730000", "103239.890000", "103243.840000", "103240.000000", "103243.950000", "103240.110000", "103244.060000", "103240.220000", "103244.170000", "103240.330000", "103244.280000", "103240.440000", "103244.390000", "103240.550000", "103244.500000", "103240.660000", "103244.607500", "103240.770000", "103244.717500", "103240.877500", "103248.687500", "103244.847500", "103248.797500", "103244.957500", "103248.907500", "103245.067500", "103249.017500", "103245.177500", "103249.127500", "103245.287500", "103249.237500", "103245.397500", "103249.347500", "103245.507500", "103249.457500", "103245.617500", "103249.565000", "103245.725000", "103249.675000", "103245.835000", "103249.785000", "103245.945000", "103249.895000", "103246.055000", "103250.005000", "103246.165000", "103250.115000", "103246.275000", "103250.225000", "103246.385000", "103250.335000", "103246.495000", "103250.442500", "103246.605000", "103250.552500", "103246.712500", "103250.662500", "103246.822500", "103250.772500", "103246.932500", "103250.882500", "103247.042500", "103250.992500", "103247.152500", "103251.102500", "103247.262500", "103251.212500", "103247.372500", "103251.322500", "103247.482500", "103251.430000", "103247.590000", "103251.540000", "103247.700000", "103251.650000", "103247.810000", "103251.760000", "103247.920000", "103251.870000", "103248.030000", "103251.980000", "103248.140000", "103252.090000", "103248.250000", "103252.200000", "103248.360000", "103252.307500", "103248.470000", "103252.417500", "103248.577500", "103256.387500", "103252.547500", "103256.497500", "103252.657500", "103256.607500", "103252.767500", "103256.717500", "103252.877500", "103256.827500", "103252.987500", "103256.937500", "103253.097500", "103257.047500", "103253.207500", "103257.157500", "103253.317500", "103257.265000", "103253.425000", "103257.375000", "103253.535000", "103257.485000", "103253.645000", "103257.595000", "103253.755000", "103257.705000", "103253.865000", "103257.815000", "103253.975000", "103257.925000", "103254.085000", "103258.035000", "103254.195000", "103258.142500", "103254.305000", "103258.252500", "103254.412500", "103258.362500", "103254.522500", "103258.472500", "103254.632500", "103258.582500", "103254.742500", "103258.692500", "103254.852500", "103258.802500", "103254.962500", "103258.912500", "103255.072500", "103259.022500", "103255.182500", "103259.130000", "103255.290000", "103259.240000", "103255.400000", "103259.350000", "103255.510000", "103259.460000", "103255.620000", "103259.570000", "103255.730000", "103259.680000", "103255.840000", "103259.790000", "103255.950000", "103259.900000", "103256.060000", "103300.007500", "103256.170000", "103300.117500", "103256.277500", "103304.087500", "103300.247500", "103304.197500", "103300.357500", "103304.307500", "103300.467500", "103304.417500", "103300.577500", "103304.527500", "103300.687500", "103304.637500", "103300.797500", "103304.747500", "103300.907500", "103304.857500", "103301.017500", "103304.965000", "103301.125000", "103305.075000", "103301.235000", "103305.185000", "103301.345000", "103305.295000", "103301.455000", "103305.405000", "103301.565000", "103305.515000", "103301.675000", "103305.625000", "103301.785000", "103305.735000", "103301.895000", "103305.842500", "103302.005000", "103305.952500", "103302.112500", "103306.062500", "103302.222500", "103306.172500", "103302.332500", "103306.282500", "103302.442500", "103306.392500", "103302.552500", "103306.502500", "103302.662500", "103306.612500", "103302.772500", "103306.722500", "103302.882500", "103306.830000", "103302.990000", "103306.940000", "103303.100000", "103307.050000", "103303.210000", "103307.160000", "103303.320000", "103307.270000", "103303.430000", "103307.380000", "103303.540000", "103307.490000", "103303.650000", "103307.600000", "103303.760000", "103307.707500", "103303.870000", "103307.817500", "103303.977500", "103311.787500", "103307.947500", "103311.897500", "103308.057500", "103312.007500", "103308.167500", "103312.117500", "103308.277500", "103312.227500", "103308.387500", "103312.337500", "103308.497500", "103312.447500", "103308.607500", "103312.557500", "103308.717500", "103312.665000", "103308.825000", "103312.775000", "103308.935000", "103312.885000", "103309.045000", "103312.995000", "103309.155000", "103313.105000", "103309.265000", "103313.215000", "103309.375000", "103313.325000", "103309.485000", "103313.435000", "103309.595000", "103313.542500", "103309.705000", "103313.652500", "103309.812500", "103313.762500", "103309.922500", "103313.872500", "103310.032500", "103313.982500", "103310.142500", "103314.092500", "103310.252500", "103314.202500", "103310.362500", "103314.312500", "103310.472500", "103314.422500", "103310.582500", "103314.530000", "103310.690000", "103314.640000", "103310.800000", "103314.750000", "103310.910000", "103314.860000", "103311.020000", "103314.970000", "103311.130000", "103315.080000", "103311.240000", "103315.190000", "103311.350000", "103315.300000", "103311.460000", "103315.407500", "103311.570000", "103315.517500", "103311.677500", "103319.487500", "103315.647500", "103319.597500", "103315.757500", "103319.707500", "103315.867500", "103319.817500", "103315.977500", "103319.927500", "103316.087500", "103320.037500", "103316.197500", "103320.147500", "103316.307500", "103320.257500", "103316.417500", "103320.365000", "103316.525000", "103320.475000", "103316.635000", "103320.585000", "103316.745000", "103320.695000", "103316.855000", "103320.805000", "103316.965000", "103320.915000", "103317.075000", "103321.025000", "103317.185000", "103321.135000", "103317.295000", "103321.242500", "103317.405000", "103321.352500", "103317.512500", "103321.462500", "103317.622500", "103321.572500", "103317.732500", "103321.682500", "103317.842500", "103321.792500", "103317.952500", "103321.902500", "103318.062500", "103322.012500", "103318.172500", "103322.122500", "103318.282500", "103322.230000", "103318.390000", "103322.340000", "103318.500000", "103322.450000", "103318.610000", "103322.560000", "103318.720000", "103322.670000", "103318.830000", "103322.780000", "103318.940000", "103322.890000", "103319.050000", "103323.000000", "103319.160000", "103323.107500", "103319.270000", "103323.217500", "103319.377500", "103327.187500", "103323.347500", "103327.297500", "103323.457500", "103327.407500", "103323.567500", "103327.517500", "103323.677500", "103327.627500", "103323.787500", "103327.737500", "103323.897500", "103327.847500", "103324.007500", "103327.957500", "103324.117500", "103328.065000", "103324.225000", "103328.175000", "103324.335000", "103328.285000", "103324.445000", "103328.395000", "103324.555000", "103328.505000", "103324.665000", "103328.615000", "103324.775000", "103328.725000", "103324.885000", "103328.835000", "103324.995000", "103328.942500", "103325.105000", "103329.052500",