{
  "AcquisitionMatrixPE": 80,
  "AcquisitionNumber": 1,
  "AcquisitionTime": "09:40:8.830000",
  "BandwidthPerPixelPhaseEncode": 48.077,
  "BaseResolution": 80,
  "BodyPartExamined": "BRAIN",
  "CoilCombinationMethod": "Sum of Squares",
  "ConsistencyInfo": "N4_VE11C_LATEST_20160120",
  "ConversionSoftware": "dcm2niix",
  "ConversionSoftwareVersion": "v1.0.20220720",
  "DerivedVendorReportedEchoSpacing": 0.000519999,
  "DeviceSerialNumber": "66112",
  "DwellTime": 2.7e-06,
  "EchoTime": 0.035,
  "EchoTrainLength": 39,
  "EffectiveEchoSpacing": 0.00026,
  "FlipAngle": 90,
  "HeudiconvVersion": "0.13.1",
  "ImageOrientationPatientDICOM": [0.999947, 0.0076913, 0.00682206, -0.00942454, 0.950903, 0.309344],
  "ImageOrientationText": "Tra>Cor(18.0)>Sag(0.2)",
  "ImageType": [
    "ORIGINAL",
    "PRIMARY",
    "M",
    "ND",
    "NORM",
    "MOSAIC"
],
  "ImagingFrequency": 123.252,
  "InPlanePhaseEncodingDirectionDICOM": "COL",
  "InstitutionAddress": "Maynard 3,Hanover,NH,US,03755",
  "InstitutionName": "Dartmouth College - PBS",
  "InstitutionalDepartmentName": "Department",
  "MRAcquisitionType": "2D",
  "MagneticFieldStrength": 3,
  "Manufacturer": "Siemens",
  "ManufacturersModelName": "Prisma",
  "MatrixCoilMode": "GRAPPA",
  "Modality": "MR",
  "NonlinearGradientCorrection": false,
  "ParallelReductionFactorInPlane": 2,
  "PartialFourier": 1,
  "PatientPosition": "HFS",
  "PercentPhaseFOV": 100,
  "PercentSampling": 100,
  "PhaseEncodingDirection": "j-",
  "PhaseEncodingSteps": 79,
  "PhaseResolution": 1,
  "PixelBandwidth": 2315,
  "ProcedureStepDescription": "dbic^QA",
  "ProtocolName": "func-bold_task-rest_acq-p2",
  "PulseSequenceDetails": "%SiemensSeq%\\ep2d_bold",
  "ReceiveCoilActiveElements": "HEA;HEP",
  "ReceiveCoilName": "Head_32",
  "ReconMatrixPE": 80,
  "RefLinesPE": 24,
  "RepetitionTime": 2,
  "SAR": 0.0555712,
  "ScanOptions": "FS",
  "ScanningSequence": "EP",
  "SequenceName": "*epfid2d1_80",
  "SequenceVariant": "SK",
  "SeriesDescription": "func-bold_task-rest_acq-p2",
  "SeriesNumber": 5,
  "ShimSetting": [4146, -7692, -7515, 233, -72, -119, -27, 52],
  "SliceThickness": 3.5,
  "SliceTiming": [0.99, 0, 1.055, 0.0675, 1.1225, 0.1325, 1.1875, 0.1975, 1.255, 0.265, 1.32, 0.33, 1.385, 0.3975, 1.4525, 0.4625, 1.5175, 0.5275, 1.585, 0.595, 1.65, 0.66, 1.715, 0.725, 1.7825, 0.7925, 1.8475, 0.8575, 1.915, 0.925],
  "SoftwareVersions": "syngo MR E11",
  "SpacingBetweenSlices": 3.99,
  "StationName": "AWP66112",
  "TaskName": "rest",
  "TotalReadoutTime": 0.02054,
  "TxRefAmp": 238.357,
  "dcmmeta_affine": [
    [-2.9998414516448975, -0.02827363647520542, 0.016390370205044746, 120.8326644897461],
    [-0.023073891177773476, 2.852710008621216, 1.2344756126403809, -115.37860870361328],
    [0.020466187968850136, -0.9280333518981934, 3.7941930294036865, -13.149337768554688],
    [0.0, 0.0, 0.0, 1.0]
],
  "dcmmeta_reorient_transform": [
    [0.0, -1.0, 0.0, 79.0],
    [1.0, 0.0, 0.0, 0.0],
    [0.0, 0.0, 1.0, 0.0],
    [0.0, 0.0, 0.0, 1.0]
],
  "dcmmeta_shape": [80, 80, 30, 200],
  "dcmmeta_slice_dim": 2,
  "dcmmeta_version": 0.6,
  "global": {
    "const": {
      "AccessionNumber": "qa",
      "AcquisitionMatrix": [80, 0, 0, 80],
      "AngioFlag": "N",
      "BitsAllocated": 16,
      "BitsStored": 12,
      "BodyPartExamined": "BRAIN",
      "Columns": 480,
      "EchoNumbers": 1,
      "EchoTime": 35.0,
      "EchoTrainLength": 39,
      "FlipAngle": 90.0,
      "HighBit": 11,
      "ImageOrientationPatient": [0.99994715031096, 0.00769129680014, 0.00682206263019, -0.0094245451985, 0.95090335610739, 0.30934444441674],
      "ImagePositionPatient": [-712.91261301491, -685.14227597462, -276.16387570489],
      "ImageType": [
        "ORIGINAL",
        "PRIMARY",
        "M",
        "ND",
        "NORM",
        "MOSAIC"
],
      "ImagedNucleus": "1H",
      "ImagingFrequency": 123.252426,
      "InPlanePhaseEncodingDirection": "COL",
      "MRAcquisitionType": "2D",
      "MagneticFieldStrength": 3.0,
      "Manufacturer": "SIEMENS",
      "ManufacturerModelName": "Prisma",
      "Modality": "MR",
      "NumberOfAverages": 1.0,
      "NumberOfPhaseEncodingSteps": 79,
      "PercentPhaseFieldOfView": 100.0,
      "PercentSampling": 100.0,
      "PerformedProcedureStepStartTime": "093138.724000",
      "PhotometricInterpretation": "MONOCHROME2",
      "PixelBandwidth": 2315.0,
      "PixelRepresentation": 0,
      "PixelSpacing": [3.0, 3.0],
      "ProtocolName": "func-bold_task-rest_acq-p2",
      "RepetitionTime": 2000.0,
      "Rows": 480,
      "SAR": 0.05557115110767,
      "SamplesPerPixel": 1,
      "ScanOptions": "FS",
      "ScanningSequence": "EP",
      "SequenceName": "*epfid2d1_80",
      "SequenceVariant": "SK",
      "SeriesDescription": "func-bold_task-rest_acq-p2",
      "SeriesNumber": 5,
      "SeriesTime": "094050.981000",
      "SliceLocation": -47.704942475233,
      "SliceThickness": 3.5,
      "SmallestImagePixelValue": 0,
      "SoftwareVersions": "syngo MR E11",
      "SpacingBetweenSlices": 3.9899999148918,
      "SpecificCharacterSet": "ISO_IR 100",
      "StudyID": "4",
      "StudyTime": "093138.633000",
      "TransmitCoilName": "Body",
      "VariableFlipAngleFlag": "N",
      "WindowCenterWidthExplanation": "Algo1",
      "dBdt": 0.0},
    "slices": {}
  },
  "time": {
    "samples": {
      "AcquisitionNumber": [1, 2, 3, 4, 5, 6, 7, 8, 9, 10, 11, 12, 13, 14, 15, 16, 17, 18, 19, 20, 21, 22, 23, 24, 25, 26, 27, 28, 29, 30, 31, 32, 33, 34, 35, 36, 37, 38, 39, 40, 41, 42, 43, 44, 45, 46, 47, 48, 49, 50, 51, 52, 53, 54, 55, 56, 57, 58, 59, 60, 61, 62, 63, 64, 65, 66, 67, 68, 69, 70, 71, 72, 73, 74, 75, 76, 77, 78, 79, 80, 81, 82, 83, 84, 85, 86, 87, 88, 89, 90, 91, 92, 93, 94, 95, 96, 97, 98, 99, 100, 101, 102, 103, 104, 105, 106, 107, 108, 109, 110, 111, 112, 113, 114, 115, 116, 117, 118, 119, 120, 121, 122, 123, 124, 125, 126, 127, 128, 129, 130, 131, 132, 133, 134, 135, 136, 137, 138, 139, 140, 141, 142, 143, 144, 145, 146, 147, 148, 149, 150, 151, 152, 153, 154, 155, 156, 157, 158, 159, 160, 161, 162, 163, 164, 165, 166, 167, 168, 169, 170, 171, 172, 173, 174, 175, 176, 177, 178, 179, 180, 181, 182, 183, 184, 185, 186, 187, 188, 189, 190, 191, 192, 193, 194, 195, 196, 197, 198, 199, 200],
      "AcquisitionTime": ["094008.830000", "094010.830000", "094012.830000", "094014.830000", "094016.830000", "094018.830000", "094020.830000", "094022.830000", "094024.830000", "094026.830000", "094028.830000", "094030.830000", "094032.830000", "094034.830000", "094036.830000", "094038.830000", "094040.830000", "094042.830000", "094044.830000", "094046.830000", "094048.830000", "094050.830000", "094052.830000", "094054.830000", "094056.830000", "094058.830000", "094100.830000", "094102.830000", "094104.830000", "094106.830000", "094108.830000", "094110.830000", "094112.830000", "094114.830000", "094116.830000", "094118.830000", "094120.830000", "094122.830000", "094124.830000", "094126.830000", "094128.830000", "094130.830000", "094132.830000", "094134.830000", "094136.830000", "094138.830000", "094140.830000", "094142.830000", "094144.830000", "094146.830000", "094148.830000", "094150.830000", "094152.830000", "094154.830000", "094156.830000", "094158.830000", "094200.830000", "094202.830000", "094204.830000", "094206.830000", "094208.830000", "094210.830000", "094212.830000", "094214.830000", "094216.830000", "094218.830000", "094220.830000", "094222.830000", "094224.830000", "094226.830000", "094228.830000", "094230.830000", "094232.830000", "094234.830000", "094236.830000", "094238.830000", "094240.830000", "094242.830000", "094244.830000", "094246.830000", "094248.830000", "094250.830000", "094252.830000", "094254.830000", "094256.830000", "094258.830000", "094300.830000", "094302.830000", "094304.830000", "094306.830000", "094308.830000", "094310.830000", "094312.830000", "094314.830000", "094316.830000", "094318.830000", "094320.830000", "094322.830000", "094324.830000", "094326.830000", "094328.830000", "094330.830000", "094332.830000", "094334.830000", "094336.830000", "094338.830000", "094340.830000", "094342.830000", "094344.830000", "094346.830000", "094348.830000", "094350.830000", "094352.830000", "094354.830000", "094356.830000", "094358.830000", "094400.830000", "094402.830000", "094404.830000", "094406.830000", "094408.830000", "094410.830000", "094412.830000", "094414.830000", "094416.830000", "094418.830000", "094420.830000", "094422.830000", "094424.830000", "094426.830000", "094428.830000", "094430.830000", "094432.830000", "094434.830000", "094436.830000", "094438.830000", "094440.830000", "094442.830000", "094444.830000", "094446.830000", "094448.830000", "094450.830000", "094452.830000", "094454.830000", "094456.830000", "094458.830000", "094500.830000", "094502.830000", "094504.830000", "094506.830000", "094508.830000", "094510.830000", "094512.830000", "094514.830000", "094516.830000", "094518.830000", "094520.830000", "094522.830000", "094524.830000", "094526.830000", "094528.830000", "094530.830000", "094532.830000", "094534.830000", "094536.830000", "094538.830000", "094540.830000", "094542.830000", "094544.830000", "094546.830000", "094548.830000", "094550.830000", "094552.830000", "094554.830000", "094556.830000", "094558.830000", "094600.830000", "094602.830000", "094604.830000", "094606.830000", "094608.830000", "094610.830000", "094612.830000", "094614.830000", "094616.830000", "094618.830000", "094620.830000", "094622.830000", "094624.830000", "094626.830000", "094628.830000", "094630.830000", "094632.830000", "094634.830000", "094636.830000", "094638.830000", "094640.830000", "094642.830000", "094644.830000", "094646.830000"],
      "ContentTime": ["094050.985000", "094050.988000", "094050.991000", "094050.993000", "094050.996000", "094050.998000", "094051.002000", "094051.005000", "094051.007000", "094051.010000", "094051.012000", "094051.015000", "094051.022000", "094051.024000", "094051.027000", "094051.029000", "094051.032000", "094051.034000", "094051.037000", "094051.039000", "094051.042000", "094130.980000", "094130.983000", "094130.985000", "094130.988000", "094130.990000", "094130.993000", "094130.996000", "094130.998000", "094131.002000", "094131.005000", "094131.007000", "094131.010000", "094131.012000", "094131.015000", "094131.018000", "094131.020000", "094131.023000", "094131.026000", "094131.028000", "094131.031000", "094210.979000", "094210.982000", "094210.984000", "094210.987000", "094210.989000", "094210.992000", "094210.995000", "094210.997000", "094211.001000", "094211.004000", "094211.007000", "094211.010000", "094211.012000", "094211.015000", "094211.018000", "094211.020000", "094211.023000", "094211.026000", "094211.028000", "094211.031000", "094250.979000", "094250.982000", "094250.985000", "094250.988000", "094250.990000", "094250.993000", "094250.996000", "094250.998000", "094251.002000", "094251.005000", "094251.007000", "094251.010000", "094251.012000", "094251.015000", "094251.018000", "094251.020000", "094251.023000", "094251.026000", "094251.028000", "094251.031000", "094330.979000", "094330.982000", "094330.985000", "094330.988000", "094330.990000", "094330.993000", "094330.995000", "094330.998000", "094331.001000", "094331.003000", "094331.006000", "094331.008000", "094331.011000", "094331.014000", "094331.016000", "094331.019000", "094331.021000", "094331.024000", "094331.027000", "094331.029000", "094410.980000", "094410.982000", "094410.985000", "094410.988000", "094410.990000", "094410.993000", "094410.995000", "094410.998000", "094411.002000", "094411.004000", "094411.007000", "094411.009000", "094411.012000", "094411.014000", "094411.017000", "094411.020000", "094411.022000", "094411.025000", "094411.027000", "094411.030000", "094450.980000", "094450.982000", "094450.985000", "094450.988000", "094450.990000", "094450.993000", "094450.995000", "094450.998000", "094451.002000", "094451.004000", "094451.007000", "094451.010000", "094451.012000", "094451.015000", "094451.017000", "094451.020000", "094451.023000", "094451.025000", "094451.028000", "094451.030000", "094530.979000", "094530.982000", "094530.985000", "094530.987000", "094530.990000", "094530.993000", "094530.995000", "094530.998000", "094531.001000", "094531.004000", "094531.007000", "094531.009000", "094531.012000", "094531.014000", "094531.017000", "094531.020000", "094531.022000", "094531.025000", "094531.027000", "094531.030000", "094610.980000", "094610.982000", "094610.985000", "094610.988000", "094610.990000", "094610.993000", "094610.995000", "094610.998000", "094611.002000", "094611.004000", "094611.007000", "094611.009000", "094611.012000", "094611.014000", "094611.017000", "094611.020000", "094611.022000", "094611.025000", "094611.027000", "094611.030000", "094648.672000", "094648.675000", "094648.678000", "094648.681000", "094648.683000", "094648.686000", "094648.689000", "094648.691000", "094648.694000", "094648.697000", "094648.699000", "094648.705000", "094648.711000", "094648.714000", "094648.717000", "094648.720000", "094648.723000", "094648.726000", "094648.729000"],
      "InstanceCreationTime": ["094050.985000", "094050.988000", "094050.991000", "094050.993000", "094050.996000", "094050.998000", "094051.002000", "094051.005000", "094051.007000", "094051.010000", "094051.012000", "094051.015000", "094051.022000", "094051.024000", "094051.027000", "094051.029000", "094051.032000", "094051.034000", "094051.037000", "094051.039000", "094051.042000", "094130.980000", "094130.983000", "094130.985000", "094130.988000", "094130.990000", "094130.993000", "094130.996000", "094130.998000", "094131.002000", "094131.005000", "094131.007000", "094131.010000", "094131.012000", "094131.015000", "094131.018000", "094131.020000", "094131.023000", "094131.026000", "094131.028000", "094131.031000", "094210.979000", "094210.982000", "094210.984000", "094210.987000", "094210.989000", "094210.992000", "094210.995000", "094210.997000", "094211.001000", "094211.004000", "094211.007000", "094211.010000", "094211.012000", "094211.015000", "094211.018000", "094211.020000", "094211.023000", "094211.026000", "094211.028000", "094211.031000", "094250.979000", "094250.982000", "094250.985000", "094250.988000", "094250.990000", "094250.993000", "094250.996000", "094250.998000", "094251.002000", "094251.005000", "094251.007000", "094251.010000", "094251.012000", "094251.015000", "094251.018000", "094251.020000", "094251.023000", "094251.026000", "094251.028000", "094251.031000", "094330.979000", "094330.982000", "094330.985000", "094330.988000", "094330.990000", "094330.993000", "094330.995000", "094330.998000", "094331.001000", "094331.003000", "094331.006000", "094331.008000", "094331.011000", "094331.014000", "094331.016000", "094331.019000", "094331.021000", "094331.024000", "094331.027000", "094331.029000", "094410.980000", "094410.982000", "094410.985000", "094410.988000", "094410.990000", "094410.993000", "094410.995000", "094410.998000", "094411.002000", "094411.004000", "094411.007000", "094411.009000", "094411.012000", "094411.014000", "094411.017000", "094411.020000", "094411.022000", "094411.025000", "094411.027000", "094411.030000", "094450.980000", "094450.982000", "094450.985000", "094450.988000", "094450.990000", "094450.993000", "094450.995000", "094450.998000", "094451.002000", "094451.004000", "094451.007000", "094451.010000", "094451.012000", "094451.015000", "094451.017000", "094451.020000", "094451.023000", "094451.025000", "094451.028000", "094451.030000", "094530.979000", "094530.982000", "094530.985000", "094530.987000", "094530.990000", "094530.993000", "094530.995000", "094530.998000", "094531.001000", "094531.004000", "094531.007000", "094531.009000", "094531.012000", "094531.014000", "094531.017000", "094531.020000", "094531.022000", "094531.025000", "094531.027000", "094531.030000", "094610.980000", "094610.982000", "094610.985000", "094610.988000", "094610.990000", "094610.993000", "094610.995000", "094610.998000", "094611.002000", "094611.004000", "094611.007000", "094611.009000", "094611.012000", "094611.014000", "094611.017000", "094611.020000", "094611.022000", "094611.025000", "094611.027000", "094611.030000", "094648.672000", "094648.675000", "094648.678000", "094648.681000", "094648.683000", "094648.686000", "094648.689000", "094648.691000", "094648.694000", "094648.697000", "094648.699000", "094648.705000", "094648.711000", "094648.714000", "094648.717000", "094648.720000", "094648.723000", "094648.726000", "094648.729000"],
      "InstanceNumber": [1, 2, 3, 4, 5, 6, 7, 8, 9, 10, 11, 12, 13, 14, 15, 16, 17, 18, 19, 20, 21, 22, 23, 24, 25, 26, 27, 28, 29, 30, 31, 32, 33, 34, 35, 36, 37, 38, 39, 40, 41, 42, 43, 44, 45, 46, 47, 48, 49, 50, 51, 52, 53, 54, 55, 56, 57, 58, 59, 60, 61, 62, 63, 64, 65, 66, 67, 68, 69, 70, 71, 72, 73, 74, 75, 76, 77, 78, 79, 80, 81, 82, 83, 84, 85, 86, 87, 88, 89, 90, 91, 92, 93, 94, 95, 96, 97, 98, 99, 100, 101, 102, 103, 104, 105, 106, 107, 108, 109, 110, 111, 112, 113, 114, 115, 116, 117, 118, 119, 120, 121, 122, 123, 124, 125, 126, 127, 128, 129, 130, 131, 132, 133, 134, 135, 136, 137, 138, 139, 140, 141, 142, 143, 144, 145, 146, 147, 148, 149, 150, 151, 152, 153, 154, 155, 156, 157, 158, 159, 160, 161, 162, 163, 164, 165, 166, 167, 168, 169, 170, 171, 172, 173, 174, 175, 176, 177, 178, 179, 180, 181, 182, 183, 184, 185, 186, 187, 188, 189, 190, 191, 192, 193, 194, 195, 196, 197, 198, 199, 200],
      "LargestImagePixelValue": [2045, 2050, 2051, 2052, 2051, 2055, 2058, 2069, 2065, 2060, 2062, 2051, 2053, 2047, 2048, 2046, 2051, 2046, 2046, 2049, 2048, 2047, 2047, 2053, 2046, 2053, 2056, 2052, 2054, 2058, 2061, 2058, 2055, 2049, 2048, 2045, 2049, 2049, 2054, 2049, 2057, 2059, 2048, 2051, 2048, 2049, 2048, 2053, 2051, 2053, 2053, 2056, 2059, 2062, 2058, 2059, 2057, 2056, 2062, 2057, 2056, 2062, 2060, 2061, 2063, 2060, 2057, 2054, 2054, 2055, 2064, 2063, 2062, 2057, 2048, 2050, 2056, 2055, 2051, 2052, 2048, 2043, 2053, 2055, 2050, 2049, 2051, 2052, 2052, 2045, 2051, 2051, 2049, 2053, 2046, 2046, 2049, 2051, 2052, 2053, 2050, 2060, 2061, 2064, 2068, 2063, 2060, 2062, 2060, 2054, 2047, 2041, 2038, 2041, 2049, 2044, 2055, 2067, 2056, 2049, 2051, 2040, 2044, 2044, 2042, 2046, 2047, 2057, 2053, 2054, 2049, 2051, 2042, 2051, 2046, 2045, 2039, 2037, 2037, 2046, 2043, 2043, 2038, 2047, 2046, 2045, 2047, 2056, 2059, 2047, 2044, 2037, 2052, 2055, 2057, 2052, 2039, 2040, 2047, 2047, 2054, 2059, 2054, 2053, 2049, 2055, 2051, 2053, 2063, 2064, 2056, 2061, 2051, 2048, 2045, 2047, 2038, 2044, 2038, 2039, 2041, 2053, 2051, 2048, 2051, 2050, 2048, 2037, 2052, 2043, 2046, 2047, 2045, 2040, 2039, 2038, 2044, 2045, 2046, 2049],
      "WindowCenter": [997.0, 996.0, 996.0, 997.0, 997.0, 996.0, 996.0, 996.0, 997.0, 996.0, 996.0, 996.0, 996.0, 996.0, 996.0, 996.0, 995.0, 995.0, 996.0, 996.0, 996.0, 996.0, 996.0, 996.0, 996.0, 996.0, 996.0, 996.0, 996.0, 995.0, 996.0, 996.0, 996.0, 996.0, 996.0, 996.0, 996.0, 996.0, 996.0, 996.0, 996.0, 997.0, 996.0, 996.0, 996.0, 996.0, 995.0, 996.0, 996.0, 995.0, 996.0, 996.0, 996.0, 996.0, 996.0, 995.0, 997.0, 995.0, 996.0, 996.0, 996.0, 996.0, 995.0, 996.0, 995.0, 996.0, 996.0, 995.0, 996.0, 996.0, 996.0, 995.0, 996.0, 996.0, 996.0, 996.0, 996.0, 996.0, 996.0, 996.0, 996.0, 995.0, 996.0, 995.0, 996.0, 996.0, 996.0, 996.0, 995.0, 995.0, 996.0, 995.0, 996.0, 996.0, 997.0, 995.0, 995.0, 996.0, 995.0, 996.0, 996.0, 995.0, 995.0, 996.0, 996.0, 996.0, 996.0, 996.0, 996.0, 996.0, 997.0, 996.0, 995.0, 996.0, 996.0, 995.0, 996.0, 995.0, 995.0, 995.0, 995.0, 996.0, 996.0, 996.0, 996.0, 996.0, 995.0, 995.0, 995.0, 996.0, 995.0, 995.0, 996.0, 996.0, 995.0, 997.0, 996.0, 997.0, 995.0, 996.0, 997.0, 996.0, 996.0, 996.0, 995.0, 995.0, 995.0, 996.0, 996.0, 995.0, 996.0, 996.0, 996.0, 995.0, 996.0, 996.0, 996.0, 996.0, 996.0, 995.0, 996.0, 995.0, 995.0, 996.0, 996.0, 996.0, 995.0, 995.0, 996.0, 996.0, 995.0, 996.0, 996.0, 995.0, 995.0, 996.0, 996.0, 995.0, 995.0, 995.0, 995.0, 995.0, 995.0, 996.0, 996.0, 995.0, 996.0, 995.0, 996.0, 995.0, 995.0, 995.0, 996.0, 996.0, 997.0, 997.0, 996.0, 996.0, 995.0, 996.0],
      "WindowWidth": [2185.0, 2183.0, 2184.0, 2184.0, 2184.0, 2184.0, 2184.0, 2183.0, 2184.0, 2184.0, 2183.0, 2184.0, 2184.0, 2183.0, 2184.0, 2183.0, 2183.0, 2183.0, 2183.0, 2184.0, 2184.0, 2184.0, 2184.0, 2184.0, 2184.0, 2184.0, 2183.0, 2183.0, 2183.0, 2183.0, 2184.0, 2184.0, 2183.0, 2184.0, 2183.0, 2183.0, 2183.0, 2183.0, 2184.0, 2183.0, 2184.0, 2184.0, 2184.0, 2184.0, 2183.0, 2183.0, 2183.0, 2183.0, 2183.0, 2183.0, 2183.0, 2183.0, 2182.0, 2184.0, 2183.0, 2182.0, 2184.0, 2183.0, 2184.0, 2183.0, 2183.0, 2182.0, 2183.0, 2183.0, 2183.0, 2182.0, 2183.0, 2182.0, 2183.0, 2183.0, 2183.0, 2182.0, 2183.0, 2183.0, 2183.0, 2183.0, 2183.0, 2183.0, 2183.0, 2183.0, 2183.0, 2182.0, 2183.0, 2182.0, 2183.0, 2183.0, 2183.0, 2183.0, 2182.0, 2182.0, 2183.0, 2182.0, 2183.0, 2183.0, 2183.0, 2182.0, 2182.0, 2183.0, 2182.0, 2183.0, 2183.0, 2182.0, 2182.0, 2183.0, 2183.0, 2183.0, 2182.0, 2183.0, 2183.0, 2183.0, 2183.0, 2183.0, 2182.0, 2183.0, 2183.0, 2182.0, 2183.0, 2182.0, 2182.0, 2182.0, 2182.0, 2183.0, 2183.0, 2183.0, 2183.0, 2183.0, 2182.0, 2182.0, 2182.0, 2183.0, 2182.0, 2182.0, 2183.0, 2183.0, 2182.0, 2183.0, 2183.0, 2184.0, 2182.0, 2183.0, 2184.0, 2183.0, 2183.0, 2183.0, 2182.0, 2182.0, 2182.0, 2183.0, 2183.0, 2182.0, 2183.0, 2183.0, 2183.0, 2182.0, 2183.0, 2183.0, 2183.0, 2182.0, 2182.0, 2182.0, 2183.0, 2182.0, 2182.0, 2183.0, 2183.0, 2183.0, 2182.0, 2182.0, 2183.0, 2183.0, 2182.0, 2183.0, 2183.0, 2182.0, 2182.0, 2183.0, 2183.0, 2182.0, 2182.0, 2182.0, 2182.0, 2182.0, 2182.0, 2183.0, 2183.0, 2183.0, 2183.0, 2183.0, 2183.0, 2182.0, 2182.0, 2182.0, 2183.0, 2183.0, 2183.0, 2183.0, 2183.0, 2183.0, 2182.0, 2183.0]
    },
    "slices": {}
  }
}