{
  "AcquisitionMatrixPE": 80,
  "AcquisitionNumber": 1,
  "AcquisitionTime": "10:41:18.510000",
  "BandwidthPerPixelPhaseEncode": 25,
  "BaseResolution": 80,
  "BodyPartExamined": "BRAIN",
  "CoilCombinationMethod": "Sum of Squares",
  "ConsistencyInfo": "N4_VE11C_LATEST_20160120",
  "ConversionSoftware": "dcm2niix",
  "ConversionSoftwareVersion": "v1.0.20220720",
  "DerivedVendorReportedEchoSpacing": 0.0005,
  "DeviceSerialNumber": "66112",
  "DwellTime": 2.7e-06,
  "EchoTime": 0.03,
  "EchoTrainLength": 80,
  "EffectiveEchoSpacing": 0.0005,
  "FlipAngle": 10,
  "HeudiconvVersion": "0.13.1",
  "ImageOrientationPatientDICOM": [0.984751, 0.173569, 0.0117625, -0.168857, 0.93737, 0.304671],
  "ImageOrientationText": "Tra>Cor(17.6)>Sag(-2.4)",
  "ImageType": [
    "ORIGINAL",
    "PRIMARY",
    "M",
    "ND",
    "NORM",
    "MOSAIC"
],
  "ImagingFrequency": 123.252,
  "InPlanePhaseEncodingDirectionDICOM": "COL",
  "InstitutionAddress": "Maynard 3,Hanover,NH,US,03755",
  "InstitutionName": "Dartmouth College - PBS",
  "InstitutionalDepartmentName": "Department",
  "MRAcquisitionType": "2D",
  "MagneticFieldStrength": 3,
  "Manufacturer": "Siemens",
  "ManufacturersModelName": "Prisma",
  "MatrixCoilMode": "SENSE",
  "Modality": "MR",
  "NonlinearGradientCorrection": false,
  "PartialFourier": 1,
  "PatientPosition": "HFS",
  "PercentPhaseFOV": 100,
  "PercentSampling": 100,
  "PhaseEncodingDirection": "j-",
  "PhaseEncodingSteps": 80,
  "PhaseResolution": 1,
  "PixelBandwidth": 2315,
  "ProcedureStepDescription": "dbic^QA",
  "ProtocolName": "func-bold_fa-10",
  "PulseSequenceDetails": "%SiemensSeq%\\ep2d_bold",
  "ReceiveCoilActiveElements": "HEA;HEP",
  "ReceiveCoilName": "Head_32",
  "ReconMatrixPE": 80,
  "RepetitionTime": 2,
  "SAR": 0.0117037,
  "ScanOptions": "FS",
  "ScanningSequence": "EP",
  "SequenceName": "*epfid2d1_80",
  "SequenceVariant": "SK",
  "SeriesDescription": "func-bold_fa-10",
  "SeriesNumber": 10,
  "ShimSetting": [4146, -7689, -7508, 274, -60, -53, -67, 61],
  "SliceThickness": 3.5,
  "SliceTiming": [0.99, 0, 1.055, 0.065, 1.1225, 0.1325, 1.1875, 0.1975, 1.255, 0.265, 1.32, 0.33, 1.385, 0.395, 1.4525, 0.4625, 1.5175, 0.5275, 1.585, 0.595, 1.65, 0.66, 1.715, 0.725, 1.7825, 0.7925, 1.8475, 0.8575, 1.915, 0.925],
  "SoftwareVersions": "syngo MR E11",
  "SpacingBetweenSlices": 3.99,
  "StationName": "AWP66112",
  "TotalReadoutTime": 0.0395,
  "TxRefAmp": 225.106,
  "dcmmeta_affine": [
    [-2.954254150390625, -0.5065720677375793, -0.1670045703649521, 142.68544006347656],
    [-0.5207083225250244, 2.812110185623169, 1.2050261497497559, -96.724365234375],
    [0.03528754413127899, -0.9140135645866394, 3.800015926361084, -17.490707397460938],
    [0.0, 0.0, 0.0, 1.0]
],
  "dcmmeta_reorient_transform": [
    [0.0, -1.0, 0.0, 79.0],
    [1.0, 0.0, 0.0, 0.0],
    [0.0, 0.0, 1.0, 0.0],
    [0.0, 0.0, 0.0, 1.0]
],
  "dcmmeta_shape": [80, 80, 30, 200],
  "dcmmeta_slice_dim": 2,
  "dcmmeta_version": 0.6,
  "global": {
    "const": {
      "AccessionNumber": "qa",
      "AcquisitionMatrix": [80, 0, 0, 80],
      "AngioFlag": "N",
      "BitsAllocated": 16,
      "BitsStored": 12,
      "BodyPartExamined": "BRAIN",
      "Columns": 480,
      "EchoNumbers": 1,
      "EchoTime": 30.0,
      "EchoTrainLength": 80,
      "FlipAngle": 10.0,
      "HighBit": 11,
      "ImageOrientationPatient": [0.98475138451098, 0.17356944992919, 0.01176251482407, -0.1688573486406, 0.93737007564915, 0.30467119504079],
      "ImagePositionPatient": [-592.20267656416, -791.99605728191, -279.55800581339],
      "ImageType": [
        "ORIGINAL",
        "PRIMARY",
        "M",
        "ND",
        "NORM",
        "MOSAIC"
],
      "ImagedNucleus": "1H",
      "ImagingFrequency": 123.252481,
      "InPlanePhaseEncodingDirection": "COL",
      "MRAcquisitionType": "2D",
      "MagneticFieldStrength": 3.0,
      "Manufacturer": "SIEMENS",
      "ManufacturerModelName": "Prisma",
      "Modality": "MR",
      "NumberOfAverages": 1.0,
      "NumberOfPhaseEncodingSteps": 80,
      "PercentPhaseFieldOfView": 100.0,
      "PercentSampling": 100.0,
      "PerformedProcedureStepStartTime": "100513.466000",
      "PhotometricInterpretation": "MONOCHROME2",
      "PixelBandwidth": 2315.0,
      "PixelRepresentation": 0,
      "PixelSpacing": [3.0, 3.0],
      "ProtocolName": "func-bold_fa-10",
      "RepetitionTime": 2000.0,
      "Rows": 480,
      "SAR": 0.01170372283331,
      "SamplesPerPixel": 1,
      "ScanOptions": "FS",
      "ScanningSequence": "EP",
      "SequenceName": "*epfid2d1_80",
      "SequenceVariant": "SK",
      "SeriesDescription": "func-bold_fa-10",
      "SeriesNumber": 10,
      "SeriesTime": "104212.340000",
      "SliceLocation": -51.84197437179,
      "SliceThickness": 3.5,
      "SmallestImagePixelValue": 0,
      "SoftwareVersions": "syngo MR E11",
      "SpacingBetweenSlices": 3.9899999636669,
      "SpecificCharacterSet": "ISO_IR 100",
      "StudyID": "31",
      "StudyTime": "100513.424000",
      "TransmitCoilName": "Body",
      "VariableFlipAngleFlag": "N",
      "WindowCenterWidthExplanation": "Algo1",
      "dBdt": 0.0},
    "slices": {}
  },
  "time": {
    "samples": {
      "AcquisitionNumber": [1, 2, 3, 4, 5, 6, 7, 8, 9, 10, 11, 12, 13, 14, 15, 16, 17, 18, 19, 20, 21, 22, 23, 24, 25, 26, 27, 28, 29, 30, 31, 32, 33, 34, 35, 36, 37, 38, 39, 40, 41, 42, 43, 44, 45, 46, 47, 48, 49, 50, 51, 52, 53, 54, 55, 56, 57, 58, 59, 60, 61, 62, 63, 64, 65, 66, 67, 68, 69, 70, 71, 72, 73, 74, 75, 76, 77, 78, 79, 80, 81, 82, 83, 84, 85, 86, 87, 88, 89, 90, 91, 92, 93, 94, 95, 96, 97, 98, 99, 100, 101, 102, 103, 104, 105, 106, 107, 108, 109, 110, 111, 112, 113, 114, 115, 116, 117, 118, 119, 120, 121, 122, 123, 124, 125, 126, 127, 128, 129, 130, 131, 132, 133, 134, 135, 136, 137, 138, 139, 140, 141, 142, 143, 144, 145, 146, 147, 148, 149, 150, 151, 152, 153, 154, 155, 156, 157, 158, 159, 160, 161, 162, 163, 164, 165, 166, 167, 168, 169, 170, 171, 172, 173, 174, 175, 176, 177, 178, 179, 180, 181, 182, 183, 184, 185, 186, 187, 188, 189, 190, 191, 192, 193, 194, 195, 196, 197, 198, 199, 200],
      "AcquisitionTime": ["104118.510000", "104120.510000", "104122.510000", "104124.510000", "104126.510000", "104128.510000", "104130.510000", "104132.510000", "104134.510000", "104136.510000", "104138.510000", "104140.510000", "104142.510000", "104144.510000", "104146.510000", "104148.510000", "104150.510000", "104152.510000", "104154.510000", "104156.510000", "104158.510000", "104200.510000", "104202.510000", "104204.510000", "104206.510000", "104208.510000", "104210.510000", "104212.510000", "104214.510000", "104216.510000", "104218.510000", "104220.510000", "104222.510000", "104224.510000", "104226.510000", "104228.510000", "104230.510000", "104232.510000", "104234.510000", "104236.510000", "104238.510000", "104240.510000", "104242.510000", "104244.510000", "104246.510000", "104248.510000", "104250.510000", "104252.510000", "104254.510000", "104256.510000", "104258.510000", "104300.510000", "104302.510000", "104304.510000", "104306.510000", "104308.510000", "104310.510000", "104312.510000", "104314.510000", "104316.510000", "104318.510000", "104320.510000", "104322.510000", "104324.510000", "104326.510000", "104328.510000", "104330.510000", "104332.510000", "104334.510000", "104336.510000", "104338.510000", "104340.510000", "104342.510000", "104344.510000", "104346.510000", "104348.510000", "104350.510000", "104352.510000", "104354.510000", "104356.510000", "104358.510000", "104400.510000", "104402.510000", "104404.510000", "104406.510000", "104408.510000", "104410.510000", "104412.510000", "104414.510000", "104416.510000", "104418.510000", "104420.510000", "104422.510000", "104424.510000", "104426.510000", "104428.510000", "104430.510000", "104432.510000", "104434.510000", "104436.510000", "104438.510000", "104440.510000", "104442.510000", "104444.510000", "104446.510000", "104448.510000", "104450.510000", "104452.510000", "104454.510000", "104456.510000", "104458.510000", "104500.510000", "104502.510000", "104504.510000", "104506.510000", "104508.510000", "104510.510000", "104512.510000", "104514.510000", "104516.510000", "104518.510000", "104520.510000", "104522.510000", "104524.510000", "104526.510000", "104528.510000", "104530.510000", "104532.510000", "104534.510000", "104536.510000", "104538.510000", "104540.510000", "104542.510000", "104544.510000", "104546.510000", "104548.510000", "104550.510000", "104552.510000", "104554.510000", "104556.510000", "104558.510000", "104600.510000", "104602.510000", "104604.510000", "104606.510000", "104608.510000", "104610.510000", "104612.510000", "104614.510000", "104616.510000", "104618.510000", "104620.510000", "104622.510000", "104624.510000", "104626.510000", "104628.510000", "104630.510000", "104632.510000", "104634.510000", "104636.510000", "104638.510000", "104640.510000", "104642.510000", "104644.510000", "104646.510000", "104648.510000", "104650.510000", "104652.510000", "104654.510000", "104656.510000", "104658.510000", "104700.510000", "104702.510000", "104704.510000", "104706.510000", "104708.510000", "104710.510000", "104712.510000", "104714.510000", "104716.510000", "104718.510000", "104720.510000", "104722.510000", "104724.510000", "104726.510000", "104728.510000", "104730.510000", "104732.510000", "104734.510000", "104736.510000", "104738.510000", "104740.510000", "104742.510000", "104744.510000", "104746.510000", "104748.510000", "104750.510000", "104752.510000", "104754.510000", "104756.510000"],
      "ContentTime": ["104212.343000", "104212.346000", "104212.349000", "104212.351000", "104212.354000", "104212.356000", "104212.359000", "104212.361000", "104212.364000", "104212.366000", "104212.369000", "104212.371000", "104212.374000", "104212.376000", "104212.379000", "104212.382000", "104212.385000", "104212.387000", "104212.390000", "104212.392000", "104212.395000", "104212.397000", "104212.400000", "104212.402000", "104212.405000", "104212.407000", "104252.339000", "104252.342000", "104252.345000", "104252.347000", "104252.350000", "104252.352000", "104252.354000", "104252.357000", "104252.359000", "104252.362000", "104252.364000", "104252.367000", "104252.369000", "104252.372000", "104252.375000", "104252.377000", "104252.379000", "104252.383000", "104252.387000", "104252.403000", "104332.339000", "104332.342000", "104332.345000", "104332.347000", "104332.349000", "104332.352000", "104332.354000", "104332.357000", "104332.359000", "104332.362000", "104332.364000", "104332.367000", "104332.369000", "104332.372000", "104332.374000", "104332.377000", "104332.379000", "104332.383000", "104332.385000", "104332.388000", "104412.338000", "104412.341000", "104412.344000", "104412.346000", "104412.348000", "104412.351000", "104412.353000", "104412.356000", "104412.358000", "104412.361000", "104412.363000", "104412.366000", "104412.368000", "104412.371000", "104412.373000", "104412.376000", "104412.379000", "104412.382000", "104412.384000", "104412.387000", "104452.338000", "104452.341000", "104452.344000", "104452.346000", "104452.349000", "104452.351000", "104452.353000", "104452.356000", "104452.358000", "104452.361000", "104452.363000", "104452.366000", "104452.370000", "104452.372000", "104452.375000", "104452.378000", "104452.381000", "104452.383000", "104452.386000", "104452.388000", "104532.339000", "104532.342000", "104532.345000", "104532.347000", "104532.349000", "104532.352000", "104532.354000", "104532.357000", "104532.359000", "104532.362000", "104532.365000", "104532.367000", "104532.370000", "104532.372000", "104532.375000", "104532.378000", "104532.381000", "104532.384000", "104532.386000", "104532.389000", "104612.340000", "104612.342000", "104612.345000", "104612.347000", "104612.350000", "104612.352000", "104612.355000", "104612.357000", "104612.359000", "104612.362000", "104612.366000", "104612.369000", "104612.371000", "104612.373000", "104612.377000", "104612.379000", "104612.382000", "104612.385000", "104612.387000", "104612.389000", "104652.338000", "104652.341000", "104652.344000", "104652.346000", "104652.349000", "104652.351000", "104652.354000", "104652.356000", "104652.359000", "104652.361000", "104652.364000", "104652.366000", "104652.369000", "104652.371000", "104652.374000", "104652.377000", "104652.380000", "104652.382000", "104652.385000", "104652.387000", "104732.339000", "104732.342000", "104732.345000", "104732.347000", "104732.350000", "104732.352000", "104732.355000", "104732.357000", "104732.360000", "104732.362000", "104732.365000", "104732.368000", "104732.370000", "104732.373000", "104732.376000", "104732.379000", "104732.382000", "104732.384000", "104732.387000", "104732.389000", "104758.432000", "104758.434000", "104758.437000", "104758.440000", "104758.442000", "104758.445000", "104758.447000", "104758.450000", "104758.452000", "104758.455000", "104758.457000", "104758.460000", "104758.463000", "104758.468000"],
      "InstanceCreationTime": ["104212.343000", "104212.346000", "104212.349000", "104212.351000", "104212.354000", "104212.356000", "104212.359000", "104212.361000", "104212.364000", "104212.366000", "104212.369000", "104212.371000", "104212.374000", "104212.376000", "104212.379000", "104212.382000", "104212.385000", "104212.387000", "104212.390000", "104212.392000", "104212.395000", "104212.397000", "104212.400000", "104212.402000", "104212.405000", "104212.407000", "104252.339000", "104252.342000", "104252.345000", "104252.347000", "104252.350000", "104252.352000", "104252.354000", "104252.357000", "104252.359000", "104252.362000", "104252.364000", "104252.367000", "104252.369000", "104252.372000", "104252.375000", "104252.377000", "104252.379000", "104252.383000", "104252.387000", "104252.403000", "104332.339000", "104332.342000", "104332.345000", "104332.347000", "104332.349000", "104332.352000", "104332.354000", "104332.357000", "104332.359000", "104332.362000", "104332.364000", "104332.367000", "104332.369000", "104332.372000", "104332.374000", "104332.377000", "104332.379000", "104332.383000", "104332.385000", "104332.388000", "104412.338000", "104412.341000", "104412.344000", "104412.346000", "104412.348000", "104412.351000", "104412.353000", "104412.356000", "104412.358000", "104412.361000", "104412.363000", "104412.366000", "104412.368000", "104412.371000", "104412.373000", "104412.376000", "104412.379000", "104412.382000", "104412.384000", "104412.387000", "104452.338000", "104452.341000", "104452.344000", "104452.346000", "104452.349000", "104452.351000", "104452.353000", "104452.356000", "104452.358000", "104452.361000", "104452.363000", "104452.366000", "104452.370000", "104452.372000", "104452.375000", "104452.378000", "104452.381000", "104452.383000", "104452.386000", "104452.388000", "104532.339000", "104532.342000", "104532.345000", "104532.347000", "104532.349000", "104532.352000", "104532.354000", "104532.357000", "104532.359000", "104532.362000", "104532.365000", "104532.367000", "104532.370000", "104532.372000", "104532.375000", "104532.378000", "104532.381000", "104532.384000", "104532.386000", "104532.389000", "104612.340000", "104612.342000", "104612.345000", "104612.347000", "104612.350000", "104612.352000", "104612.355000", "104612.357000", "104612.359000", "104612.362000", "104612.366000", "104612.369000", "104612.371000", "104612.373000", "104612.377000", "104612.379000", "104612.382000", "104612.385000", "104612.387000", "104612.389000", "104652.338000", "104652.341000", "104652.344000", "104652.346000", "104652.349000", "104652.351000", "104652.354000", "104652.356000", "104652.359000", "104652.361000", "104652.364000", "104652.366000", "104652.369000", "104652.371000", "104652.374000", "104652.377000", "104652.380000", "104652.382000", "104652.385000", "104652.387000", "104732.339000", "104732.342000", "104732.345000", "104732.347000", "104732.350000", "104732.352000", "104732.355000", "104732.357000", "104732.360000", "104732.362000", "104732.365000", "104732.368000", "104732.370000", "104732.373000", "104732.376000", "104732.379000", "104732.382000", "104732.384000", "104732.387000", "104732.389000", "104758.432000", "104758.434000", "104758.437000", "104758.440000", "104758.442000", "104758.445000", "104758.447000", "104758.450000", "104758.452000", "104758.455000", "104758.457000", "104758.460000", "104758.463000", "104758.468000"],
      "InstanceNumber": [1, 2, 3, 4, 5, 6, 7, 8, 9, 10, 11, 12, 13, 14, 15, 16, 17, 18, 19, 20, 21, 22, 23, 24, 25, 26, 27, 28, 29, 30, 31, 32, 33, 34, 35, 36, 37, 38, 39, 40, 41, 42, 43, 44, 45, 46, 47, 48, 49, 50, 51, 52, 53, 54, 55, 56, 57, 58, 59, 60, 61, 62, 63, 64, 65, 66, 67, 68, 69, 70, 71, 72, 73, 74, 75, 76, 77, 78, 79, 80, 81, 82, 83, 84, 85, 86, 87, 88, 89, 90, 91, 92, 93, 94, 95, 96, 97, 98, 99, 100, 101, 102, 103, 104, 105, 106, 107, 108, 109, 110, 111, 112, 113, 114, 115, 116, 117, 118, 119, 120, 121, 122, 123, 124, 125, 126, 127, 128, 129, 130, 131, 132, 133, 134, 135, 136, 137, 138, 139, 140, 141, 142, 143, 144, 145, 146, 147, 148, 149, 150, 151, 152, 153, 154, 155, 156, 157, 158, 159, 160, 161, 162, 163, 164, 165, 166, 167, 168, 169, 170, 171, 172, 173, 174, 175, 176, 177, 178, 179, 180, 181, 182, 183, 184, 185, 186, 187, 188, 189, 190, 191, 192, 193, 194, 195, 196, 197, 198, 199, 200],
      "LargestImagePixelValue": [321, 319, 320, 322, 320, 320, 325, 320, 321, 322, 320, 324, 325, 322, 318, 321, 323, 323, 321, 319, 322, 323, 322, 320, 322, 322, 321, 323, 322, 319, 318, 320, 321, 319, 322, 321, 318, 320, 321, 321, 319, 321, 322, 319, 319, 320, 321, 323, 319, 321, 320, 319, 319, 318, 321, 319, 320, 319, 320, 320, 319, 325, 320, 321, 320, 319, 323, 320, 320, 319, 322, 319, 320, 323, 323, 318, 321, 321, 323, 319, 319, 319, 320, 320, 321, 322, 321, 323, 320, 320, 320, 321, 320, 318, 320, 319, 321, 320, 320, 322, 320, 320, 320, 320, 319, 320, 320, 318, 321, 317, 319, 322, 322, 319, 319, 319, 320, 319, 319, 322, 322, 321, 322, 319, 319, 322, 319, 319, 319, 319, 321, 321, 322, 321, 321, 323, 321, 320, 319, 321, 320, 320, 318, 319, 321, 321, 322, 320, 320, 320, 321, 321, 322, 322, 317, 319, 320, 320, 321, 320, 319, 319, 318, 321, 324, 323, 317, 319, 318, 321, 318, 318, 320, 322, 319, 320, 321, 322, 320, 320, 319, 322, 320, 318, 322, 319, 318, 317, 319, 319, 318, 320, 321, 320, 317, 322, 319, 321, 320, 322],
      "WindowCenter": [268.0, 268.0, 268.0, 268.0, 268.0, 268.0, 268.0, 268.0, 268.0, 268.0, 268.0, 268.0, 268.0, 268.0, 268.0, 268.0, 268.0, 268.0, 268.0, 268.0, 268.0, 268.0, 268.0, 268.0, 268.0, 268.0, 268.0, 268.0, 268.0, 268.0, 268.0, 268.0, 268.0, 268.0, 268.0, 268.0, 268.0, 268.0, 268.0, 268.0, 268.0, 268.0, 268.0, 268.0, 268.0, 268.0, 268.0, 268.0, 268.0, 268.0, 268.0, 268.0, 268.0, 268.0, 268.0, 268.0, 268.0, 268.0, 268.0, 268.0, 268.0, 268.0, 268.0, 268.0, 268.0, 268.0, 268.0, 268.0, 268.0, 268.0, 268.0, 268.0, 268.0, 268.0, 268.0, 268.0, 268.0, 268.0, 268.0, 268.0, 268.0, 268.0, 268.0, 268.0, 268.0, 268.0, 268.0, 268.0, 268.0, 268.0, 268.0, 268.0, 268.0, 268.0, 268.0, 268.0, 268.0, 268.0, 268.0, 268.0, 268.0, 268.0, 268.0, 268.0, 268.0, 268.0, 268.0, 268.0, 268.0, 268.0, 268.0, 268.0, 268.0, 268.0, 268.0, 268.0, 268.0, 268.0, 268.0, 268.0, 268.0, 268.0, 268.0, 268.0, 268.0, 268.0, 268.0, 268.0, 268.0, 268.0, 268.0, 268.0, 268.0, 268.0, 267.0, 268.0, 268.0, 268.0, 268.0, 268.0, 268.0, 268.0, 268.0, 268.0, 268.0, 268.0, 268.0, 268.0, 268.0, 268.0, 268.0, 267.0, 268.0, 268.0, 268.0, 268.0, 268.0, 268.0, 268.0, 268.0, 268.0, 268.0, 268.0, 268.0, 268.0, 268.0, 268.0, 268.0, 268.0, 268.0, 268.0, 268.0, 268.0, 268.0, 268.0, 268.0, 268.0, 268.0, 268.0, 267.0, 267.0, 268.0, 268.0, 267.0, 268.0, 268.0, 267.0, 268.0, 268.0, 268.0, 268.0, 268.0, 268.0, 267.0, 268.0, 268.0, 268.0, 268.0, 268.0, 268.0],
      "WindowWidth": [591.0, 591.0, 591.0, 591.0, 591.0, 591.0, 591.0, 591.0, 591.0, 591.0, 591.0, 591.0, 591.0, 591.0, 591.0, 591.0, 590.0, 591.0, 591.0, 591.0, 591.0, 591.0, 591.0, 590.0, 591.0, 591.0, 591.0, 591.0, 591.0, 591.0, 591.0, 590.0, 590.0, 591.0, 591.0, 590.0, 591.0, 591.0, 591.0, 591.0, 591.0, 590.0, 590.0, 591.0, 590.0, 591.0, 591.0, 591.0, 591.0, 591.0, 591.0, 590.0, 591.0, 591.0, 591.0, 591.0, 590.0, 591.0, 591.0, 591.0, 591.0, 591.0, 591.0, 591.0, 591.0, 591.0, 591.0, 590.0, 591.0, 590.0, 591.0, 591.0, 591.0, 590.0, 591.0, 591.0, 590.0, 591.0, 591.0, 591.0, 590.0, 591.0, 591.0, 590.0, 591.0, 590.0, 591.0, 591.0, 590.0, 590.0, 591.0, 590.0, 590.0, 591.0, 591.0, 591.0, 590.0, 590.0, 590.0, 590.0, 590.0, 590.0, 590.0, 590.0, 590.0, 591.0, 590.0, 590.0, 591.0, 591.0, 590.0, 591.0, 591.0, 590.0, 590.0, 591.0, 591.0, 590.0, 591.0, 590.0, 590.0, 590.0, 591.0, 591.0, 590.0, 591.0, 590.0, 590.0, 590.0, 591.0, 590.0, 591.0, 590.0, 591.0, 590.0, 591.0, 590.0, 591.0, 590.0, 590.0, 591.0, 590.0, 591.0, 590.0, 590.0, 590.0, 591.0, 590.0, 590.0, 591.0, 590.0, 589.0, 590.0, 590.0, 590.0, 590.0, 590.0, 590.0, 590.0, 591.0, 590.0, 590.0, 591.0, 590.0, 591.0, 590.0, 590.0, 590.0, 590.0, 590.0, 590.0, 590.0, 591.0, 590.0, 590.0, 590.0, 590.0, 590.0, 590.0, 589.0, 590.0, 590.0, 590.0, 589.0, 590.0, 590.0, 589.0, 590.0, 590.0, 590.0, 590.0, 590.0, 590.0, 589.0, 590.0, 590.0, 590.0, 590.0, 590.0, 590.0]
    },
    "slices": {}
  }
}