{
  "AcquisitionMatrixPE": 80,
  "AcquisitionNumber": 1,
  "AcquisitionTime": "10:20:48.467500",
  "BandwidthPerPixelPhaseEncode": 48.077,
  "BaseResolution": 80,
  "BodyPartExamined": "BRAIN",
  "CoilCombinationMethod": "Sum of Squares",
  "ConsistencyInfo": "N4_VE11C_LATEST_20160120",
  "ConversionSoftware": "dcm2niix",
  "ConversionSoftwareVersion": "v1.0.20220720",
  "DerivedVendorReportedEchoSpacing": 0.000519999,
  "DeviceSerialNumber": "66112",
  "DwellTime": 2.7e-06,
  "EchoTime": 0.035,
  "EchoTrainLength": 39,
  "EffectiveEchoSpacing": 0.00026,
  "FlipAngle": 90,
  "HeudiconvVersion": "0.13.1",
  "ImageOrientationPatientDICOM": [0.984751, 0.173569, 0.0117625, -0.168857, 0.93737, 0.304671],
  "ImageOrientationText": "Tra>Cor(17.6)>Sag(-2.4)",
  "ImageType": [
    "ORIGINAL",
    "PRIMARY",
    "M",
    "ND",
    "NORM",
    "MOSAIC"
],
  "ImagingFrequency": 123.252,
  "InPlanePhaseEncodingDirectionDICOM": "COL",
  "InstitutionAddress": "Maynard 3,Hanover,NH,US,03755",
  "InstitutionName": "Dartmouth College - PBS",
  "InstitutionalDepartmentName": "Department",
  "MRAcquisitionType": "2D",
  "MagneticFieldStrength": 3,
  "Manufacturer": "Siemens",
  "ManufacturersModelName": "Prisma",
  "MatrixCoilMode": "GRAPPA",
  "Modality": "MR",
  "NonlinearGradientCorrection": false,
  "ParallelReductionFactorInPlane": 2,
  "PartialFourier": 1,
  "PatientPosition": "HFS",
  "PercentPhaseFOV": 100,
  "PercentSampling": 100,
  "PhaseEncodingDirection": "j-",
  "PhaseEncodingSteps": 79,
  "PhaseResolution": 1,
  "PixelBandwidth": 2315,
  "ProcedureStepDescription": "dbic^QA",
  "ProtocolName": "func-bold_task-rest_acq-p2",
  "PulseSequenceDetails": "%SiemensSeq%\\ep2d_bold",
  "ReceiveCoilActiveElements": "HEA;HEP",
  "ReceiveCoilName": "Head_32",
  "ReconMatrixPE": 80,
  "RefLinesPE": 24,
  "RepetitionTime": 2,
  "SAR": 0.0555196,
  "ScanOptions": "FS",
  "ScanningSequence": "EP",
  "SequenceName": "*epfid2d1_80",
  "SequenceVariant": "SK",
  "SeriesDescription": "func-bold_task-rest_acq-p2",
  "SeriesNumber": 5,
  "ShimSetting": [4146, -7689, -7508, 279, -62, -56, -69, 62],
  "SliceThickness": 3.5,
  "SliceTiming": [0.99, 0, 1.0575, 0.0675, 1.1225, 0.1325, 1.1875, 0.1975, 1.255, 0.265, 1.32, 0.33, 1.3875, 0.3975, 1.4525, 0.4625, 1.5175, 0.5275, 1.585, 0.595, 1.65, 0.66, 1.7175, 0.7275, 1.7825, 0.7925, 1.8475, 0.8575, 1.915, 0.925],
  "SoftwareVersions": "syngo MR E11",
  "SpacingBetweenSlices": 3.99,
  "StationName": "AWP66112",
  "TaskName": "rest",
  "TotalReadoutTime": 0.02054,
  "TxRefAmp": 225.106,
  "dcmmeta_affine": [
    [-2.954254150390625, -0.5065720677375793, -0.1670045703649521, 143.2516326904297],
    [-0.5207083225250244, 2.812110185623169, 1.2050261497497559, -100.09033203125],
    [0.03528754413127899, -0.9140135645866394, 3.800015926361084, -19.759674072265625],
    [0.0, 0.0, 0.0, 1.0]
],
  "dcmmeta_reorient_transform": [
    [0.0, -1.0, 0.0, 79.0],
    [1.0, 0.0, 0.0, 0.0],
    [0.0, 0.0, 1.0, 0.0],
    [0.0, 0.0, 0.0, 1.0]
],
  "dcmmeta_shape": [80, 80, 30, 200],
  "dcmmeta_slice_dim": 2,
  "dcmmeta_version": 0.6,
  "global": {
    "const": {
      "AccessionNumber": "qa",
      "AcquisitionMatrix": [80, 0, 0, 80],
      "AngioFlag": "N",
      "BitsAllocated": 16,
      "BitsStored": 12,
      "BodyPartExamined": "BRAIN",
      "Columns": 480,
      "EchoNumbers": 1,
      "EchoTime": 35.0,
      "EchoTrainLength": 39,
      "FlipAngle": 90.0,
      "HighBit": 11,
      "ImageOrientationPatient": [0.98475138451098, 0.17356944992919, 0.01176251482407, -0.1688573486406, 0.93737007564915, 0.30467119504079],
      "ImagePositionPatient": [-592.76886585325, -788.63009191555, -281.8269724882],
      "ImageType": [
        "ORIGINAL",
        "PRIMARY",
        "M",
        "ND",
        "NORM",
        "MOSAIC"
],
      "ImagedNucleus": "1H",
      "ImagingFrequency": 123.252474,
      "InPlanePhaseEncodingDirection": "COL",
      "MRAcquisitionType": "2D",
      "MagneticFieldStrength": 3.0,
      "Manufacturer": "SIEMENS",
      "ManufacturerModelName": "Prisma",
      "Modality": "MR",
      "NumberOfAverages": 1.0,
      "NumberOfPhaseEncodingSteps": 79,
      "PercentPhaseFieldOfView": 100.0,
      "PercentSampling": 100.0,
      "PerformedProcedureStepStartTime": "100513.466000",
      "PhotometricInterpretation": "MONOCHROME2",
      "PixelBandwidth": 2315.0,
      "PixelRepresentation": 0,
      "PixelSpacing": [3.0, 3.0],
      "ProtocolName": "func-bold_task-rest_acq-p2",
      "RepetitionTime": 2000.0,
      "Rows": 480,
      "SAR": 0.05551957332555,
      "SamplesPerPixel": 1,
      "ScanOptions": "FS",
      "ScanningSequence": "EP",
      "SequenceName": "*epfid2d1_80",
      "SequenceVariant": "SK",
      "SeriesDescription": "func-bold_task-rest_acq-p2",
      "SeriesNumber": 5,
      "SeriesTime": "102132.340000",
      "SliceLocation": -55.043162875067,
      "SliceThickness": 3.5,
      "SmallestImagePixelValue": 0,
      "SoftwareVersions": "syngo MR E11",
      "SpacingBetweenSlices": 3.9899999483392,
      "SpecificCharacterSet": "ISO_IR 100",
      "StudyID": "31",
      "StudyTime": "100513.424000",
      "TransmitCoilName": "Body",
      "VariableFlipAngleFlag": "N",
      "WindowCenterWidthExplanation": "Algo1",
      "dBdt": 0.0},
    "slices": {}
  },
  "time": {
    "samples": {
      "AcquisitionNumber": [1, 2, 3, 4, 5, 6, 7, 8, 9, 10, 11, 12, 13, 14, 15, 16, 17, 18, 19, 20, 21, 22, 23, 24, 25, 26, 27, 28, 29, 30, 31, 32, 33, 34, 35, 36, 37, 38, 39, 40, 41, 42, 43, 44, 45, 46, 47, 48, 49, 50, 51, 52, 53, 54, 55, 56, 57, 58, 59, 60, 61, 62, 63, 64, 65, 66, 67, 68, 69, 70, 71, 72, 73, 74, 75, 76, 77, 78, 79, 80, 81, 82, 83, 84, 85, 86, 87, 88, 89, 90, 91, 92, 93, 94, 95, 96, 97, 98, 99, 100, 101, 102, 103, 104, 105, 106, 107, 108, 109, 110, 111, 112, 113, 114, 115, 116, 117, 118, 119, 120, 121, 122, 123, 124, 125, 126, 127, 128, 129, 130, 131, 132, 133, 134, 135, 136, 137, 138, 139, 140, 141, 142, 143, 144, 145, 146, 147, 148, 149, 150, 151, 152, 153, 154, 155, 156, 157, 158, 159, 160, 161, 162, 163, 164, 165, 166, 167, 168, 169, 170, 171, 172, 173, 174, 175, 176, 177, 178, 179, 180, 181, 182, 183, 184, 185, 186, 187, 188, 189, 190, 191, 192, 193, 194, 195, 196, 197, 198, 199, 200],
      "AcquisitionTime": ["102048.467500", "102050.467500", "102052.467500", "102054.467500", "102056.467500", "102058.467500", "102100.467500", "102102.467500", "102104.467500", "102106.467500", "102108.467500", "102110.467500", "102112.467500", "102114.467500", "102116.467500", "102118.467500", "102120.467500", "102122.467500", "102124.467500", "102126.467500", "102128.467500", "102130.467500", "102132.467500", "102134.467500", "102136.467500", "102138.467500", "102140.467500", "102142.467500", "102144.467500", "102146.467500", "102148.467500", "102150.467500", "102152.467500", "102154.467500", "102156.467500", "102158.467500", "102200.467500", "102202.467500", "102204.467500", "102206.467500", "102208.467500", "102210.467500", "102212.467500", "102214.467500", "102216.467500", "102218.467500", "102220.467500", "102222.467500", "102224.467500", "102226.467500", "102228.467500", "102230.467500", "102232.467500", "102234.467500", "102236.467500", "102238.467500", "102240.467500", "102242.467500", "102244.467500", "102246.467500", "102248.467500", "102250.467500", "102252.467500", "102254.467500", "102256.467500", "102258.467500", "102300.467500", "102302.467500", "102304.467500", "102306.467500", "102308.467500", "102310.467500", "102312.467500", "102314.467500", "102316.467500", "102318.467500", "102320.467500", "102322.467500", "102324.467500", "102326.467500", "102328.467500", "102330.467500", "102332.467500", "102334.467500", "102336.467500", "102338.467500", "102340.467500", "102342.467500", "102344.467500", "102346.467500", "102348.467500", "102350.467500", "102352.467500", "102354.467500", "102356.467500", "102358.467500", "102400.467500", "102402.467500", "102404.467500", "102406.467500", "102408.467500", "102410.467500", "102412.467500", "102414.467500", "102416.467500", "102418.467500", "102420.467500", "102422.467500", "102424.467500", "102426.467500", "102428.467500", "102430.467500", "102432.467500", "102434.467500", "102436.467500", "102438.467500", "102440.467500", "102442.467500", "102444.467500", "102446.467500", "102448.467500", "102450.467500", "102452.467500", "102454.467500", "102456.467500", "102458.467500", "102500.467500", "102502.467500", "102504.467500", "102506.467500", "102508.467500", "102510.467500", "102512.467500", "102514.467500", "102516.467500", "102518.467500", "102520.467500", "102522.467500", "102524.467500", "102526.467500", "102528.467500", "102530.467500", "102532.467500", "102534.467500", "102536.467500", "102538.467500", "102540.467500", "102542.467500", "102544.467500", "102546.467500", "102548.467500", "102550.467500", "102552.467500", "102554.467500", "102556.467500", "102558.467500", "102600.467500", "102602.467500", "102604.467500", "102606.467500", "102608.467500", "102610.467500", "102612.467500", "102614.467500", "102616.467500", "102618.467500", "102620.467500", "102622.467500", "102624.467500", "102626.467500", "102628.467500", "102630.467500", "102632.467500", "102634.467500", "102636.467500", "102638.467500", "102640.467500", "102642.467500", "102644.467500", "102646.467500", "102648.467500", "102650.467500", "102652.467500", "102654.467500", "102656.467500", "102658.467500", "102700.467500", "102702.467500", "102704.467500", "102706.467500", "102708.467500", "102710.467500", "102712.467500", "102714.467500", "102716.467500", "102718.467500", "102720.467500", "102722.467500", "102724.467500", "102726.467500"],
      "ContentTime": ["102132.344000", "102132.347000", "102132.350000", "102132.352000", "102132.355000", "102132.357000", "102132.360000", "102132.362000", "102132.365000", "102132.367000", "102132.370000", "102132.380000", "102132.383000", "102132.385000", "102132.388000", "102132.390000", "102132.393000", "102132.395000", "102132.398000", "102132.400000", "102132.403000", "102132.405000", "102212.339000", "102212.342000", "102212.345000", "102212.347000", "102212.350000", "102212.353000", "102212.355000", "102212.358000", "102212.360000", "102212.363000", "102212.365000", "102212.368000", "102212.370000", "102212.372000", "102212.375000", "102212.377000", "102212.380000", "102212.382000", "102212.385000", "102212.387000", "102252.349000", "102252.351000", "102252.354000", "102252.356000", "102252.359000", "102252.361000", "102252.364000", "102252.366000", "102252.369000", "102252.371000", "102252.374000", "102252.376000", "102252.379000", "102252.381000", "102252.384000", "102252.386000", "102252.389000", "102252.391000", "102252.394000", "102252.396000", "102332.338000", "102332.341000", "102332.344000", "102332.346000", "102332.349000", "102332.351000", "102332.354000", "102332.356000", "102332.359000", "102332.361000", "102332.364000", "102332.366000", "102332.369000", "102332.371000", "102332.374000", "102332.376000", "102332.379000", "102332.381000", "102332.384000", "102332.386000", "102412.338000", "102412.341000", "102412.344000", "102412.346000", "102412.349000", "102412.351000", "102412.354000", "102412.356000", "102412.359000", "102412.361000", "102412.364000", "102412.366000", "102412.369000", "102412.371000", "102412.374000", "102412.376000", "102412.379000", "102412.381000", "102412.384000", "102412.386000", "102452.340000", "102452.342000", "102452.345000", "102452.347000", "102452.350000", "102452.352000", "102452.355000", "102452.357000", "102452.360000", "102452.362000", "102452.365000", "102452.367000", "102452.370000", "102452.372000", "102452.375000", "102452.377000", "102452.380000", "102452.382000", "102452.385000", "102452.387000", "102532.338000", "102532.341000", "102532.344000", "102532.346000", "102532.349000", "102532.351000", "102532.354000", "102532.356000", "102532.359000", "102532.361000", "102532.364000", "102532.366000", "102532.369000", "102532.371000", "102532.374000", "102532.376000", "102532.379000", "102532.381000", "102532.384000", "102532.386000", "102552.338000", "102552.341000", "102552.344000", "102552.346000", "102552.349000", "102552.351000", "102552.354000", "102552.356000", "102552.359000", "102552.361000", "102632.339000", "102632.341000", "102632.344000", "102632.346000", "102632.349000", "102632.351000", "102632.354000", "102632.356000", "102632.359000", "102632.361000", "102632.364000", "102632.366000", "102632.369000", "102632.371000", "102632.374000", "102632.377000", "102632.379000", "102632.382000", "102632.384000", "102632.387000", "102712.339000", "102712.342000", "102712.345000", "102712.347000", "102712.350000", "102712.352000", "102712.355000", "102712.357000", "102712.360000", "102712.362000", "102712.365000", "102712.367000", "102712.370000", "102712.372000", "102712.375000", "102712.377000", "102712.380000", "102712.382000", "102712.385000", "102712.387000", "102727.769000", "102727.772000", "102727.774000", "102727.777000", "102727.780000", "102727.782000", "102727.808000", "102727.810000"],
      "InstanceCreationTime": ["102132.344000", "102132.347000", "102132.350000", "102132.352000", "102132.355000", "102132.357000", "102132.360000", "102132.362000", "102132.365000", "102132.367000", "102132.370000", "102132.380000", "102132.383000", "102132.385000", "102132.388000", "102132.390000", "102132.393000", "102132.395000", "102132.398000", "102132.400000", "102132.403000", "102132.405000", "102212.339000", "102212.342000", "102212.345000", "102212.347000", "102212.350000", "102212.353000", "102212.355000", "102212.358000", "102212.360000", "102212.363000", "102212.365000", "102212.368000", "102212.370000", "102212.372000", "102212.375000", "102212.377000", "102212.380000", "102212.382000", "102212.385000", "102212.387000", "102252.349000", "102252.351000", "102252.354000", "102252.356000", "102252.359000", "102252.361000", "102252.364000", "102252.366000", "102252.369000", "102252.371000", "102252.374000", "102252.376000", "102252.379000", "102252.381000", "102252.384000", "102252.386000", "102252.389000", "102252.391000", "102252.394000", "102252.396000", "102332.338000", "102332.341000", "102332.344000", "102332.346000", "102332.349000", "102332.351000", "102332.354000", "102332.356000", "102332.359000", "102332.361000", "102332.364000", "102332.366000", "102332.369000", "102332.371000", "102332.374000", "102332.376000", "102332.379000", "102332.381000", "102332.384000", "102332.386000", "102412.338000", "102412.341000", "102412.344000", "102412.346000", "102412.349000", "102412.351000", "102412.354000", "102412.356000", "102412.359000", "102412.361000", "102412.364000", "102412.366000", "102412.369000", "102412.371000", "102412.374000", "102412.376000", "102412.379000", "102412.381000", "102412.384000", "102412.386000", "102452.340000", "102452.342000", "102452.345000", "102452.347000", "102452.350000", "102452.352000", "102452.355000", "102452.357000", "102452.360000", "102452.362000", "102452.365000", "102452.367000", "102452.370000", "102452.372000", "102452.375000", "102452.377000", "102452.380000", "102452.382000", "102452.385000", "102452.387000", "102532.338000", "102532.341000", "102532.344000", "102532.346000", "102532.349000", "102532.351000", "102532.354000", "102532.356000", "102532.359000", "102532.361000", "102532.364000", "102532.366000", "102532.369000", "102532.371000", "102532.374000", "102532.376000", "102532.379000", "102532.381000", "102532.384000", "102532.386000", "102552.338000", "102552.341000", "102552.344000", "102552.346000", "102552.349000", "102552.351000", "102552.354000", "102552.356000", "102552.359000", "102552.361000", "102632.339000", "102632.341000", "102632.344000", "102632.346000", "102632.349000", "102632.351000", "102632.354000", "102632.356000", "102632.359000", "102632.361000", "102632.364000", "102632.366000", "102632.369000", "102632.371000", "102632.374000", "102632.377000", "102632.379000", "102632.382000", "102632.384000", "102632.387000", "102712.339000", "102712.342000", "102712.345000", "102712.347000", "102712.350000", "102712.352000", "102712.355000", "102712.357000", "102712.360000", "102712.362000", "102712.365000", "102712.367000", "102712.370000", "102712.372000", "102712.375000", "102712.377000", "102712.380000", "102712.382000", "102712.385000", "102712.387000", "102727.769000", "102727.772000", "102727.774000", "102727.777000", "102727.780000", "102727.782000", "102727.808000", "102727.810000"],
      "InstanceNumber": [1, 2, 3, 4, 5, 6, 7, 8, 9, 10, 11, 12, 13, 14, 15, 16, 17, 18, 19, 20, 21, 22, 23, 24, 25, 26, 27, 28, 29, 30, 31, 32, 33, 34, 35, 36, 37, 38, 39, 40, 41, 42, 43, 44, 45, 46, 47, 48, 49, 50, 51, 52, 53, 54, 55, 56, 57, 58, 59, 60, 61, 62, 63, 64, 65, 66, 67, 68, 69, 70, 71, 72, 73, 74, 75, 76, 77, 78, 79, 80, 81, 82, 83, 84, 85, 86, 87, 88, 89, 90, 91, 92, 93, 94, 95, 96, 97, 98, 99, 100, 101, 102, 103, 104, 105, 106, 107, 108, 109, 110, 111, 112, 113, 114, 115, 116, 117, 118, 119, 120, 121, 122, 123, 124, 125, 126, 127, 128, 129, 130, 131, 132, 133, 134, 135, 136, 137, 138, 139, 140, 141, 142, 143, 144, 145, 146, 147, 148, 149, 150, 151, 152, 153, 154, 155, 156, 157, 158, 159, 160, 161, 162, 163, 164, 165, 166, 167, 168, 169, 170, 171, 172, 173, 174, 175, 176, 177, 178, 179, 180, 181, 182, 183, 184, 185, 186, 187, 188, 189, 190, 191, 192, 193, 194, 195, 196, 197, 198, 199, 200],
      "LargestImagePixelValue": [1926, 1911, 1915, 1911, 1915, 1919, 1916, 1919, 1923, 1917, 1920, 1917, 1919, 1910, 1916, 1924, 1920, 1911, 1909, 1912, 1925, 1919, 1911, 1911, 1916, 1919, 1909, 1921, 1913, 1909, 1919, 1911, 1920, 1922, 1916, 1918, 1926, 1922, 1921, 1914, 1921, 1914, 1920, 1909, 1920, 1914, 1915, 1917, 1918, 1918, 1919, 1918, 1914, 1919, 1917, 1922, 1915, 1923, 1911, 1914, 1921, 1915, 1913, 1916, 1917, 1916, 1924, 1925, 1911, 1916, 1916, 1913, 1918, 1911, 1916, 1914, 1923, 1919, 1913, 1908, 1915, 1911, 1924, 1919, 1915, 1909, 1927, 1919, 1907, 1921, 1917, 1914, 1918, 1913, 1917, 1917, 1909, 1918, 1908, 1917, 1915, 1909, 1922, 1915, 1911, 1914, 1915, 1914, 1916, 1917, 1916, 1915, 1916, 1915, 1915, 1916, 1917, 1918, 1912, 1911, 1909, 1919, 1914, 1918, 1909, 1916, 1913, 1913, 1916, 1906, 1919, 1914, 1910, 1910, 1909, 1922, 1912, 1916, 1915, 1912, 1916, 1912, 1913, 1911, 1913, 1914, 1923, 1910, 1918, 1908, 1916, 1907, 1909, 1917, 1909, 1913, 1909, 1910, 1913, 1914, 1910, 1912, 1912, 1911, 1915, 1913, 1913, 1911, 1912, 1917, 1912, 1907, 1908, 1914, 1910, 1915, 1911, 1915, 1910, 1910, 1919, 1914, 1911, 1911, 1914, 1914, 1912, 1910, 1911, 1916, 1912, 1910, 1917, 1915, 1920, 1914, 1916, 1912, 1916, 1905],
      "WindowCenter": [970.0, 970.0, 969.0, 969.0, 969.0, 970.0, 970.0, 970.0, 970.0, 969.0, 969.0, 969.0, 969.0, 969.0, 969.0, 969.0, 969.0, 970.0, 969.0, 970.0, 970.0, 970.0, 970.0, 970.0, 970.0, 970.0, 969.0, 969.0, 969.0, 969.0, 970.0, 969.0, 969.0, 969.0, 969.0, 969.0, 969.0, 969.0, 969.0, 969.0, 969.0, 969.0, 969.0, 969.0, 969.0, 969.0, 969.0, 969.0, 969.0, 969.0, 969.0, 969.0, 969.0, 969.0, 969.0, 968.0, 969.0, 969.0, 969.0, 969.0, 969.0, 969.0, 969.0, 969.0, 969.0, 969.0, 969.0, 969.0, 969.0, 968.0, 969.0, 969.0, 968.0, 969.0, 968.0, 968.0, 968.0, 968.0, 968.0, 968.0, 968.0, 969.0, 970.0, 969.0, 968.0, 968.0, 969.0, 969.0, 968.0, 968.0, 969.0, 968.0, 968.0, 969.0, 968.0, 968.0, 968.0, 968.0, 969.0, 968.0, 968.0, 970.0, 969.0, 969.0, 968.0, 968.0, 968.0, 968.0, 968.0, 969.0, 968.0, 968.0, 968.0, 968.0, 968.0, 968.0, 968.0, 968.0, 969.0, 968.0, 968.0, 968.0, 968.0, 968.0, 968.0, 968.0, 968.0, 968.0, 968.0, 968.0, 969.0, 968.0, 968.0, 968.0, 969.0, 970.0, 968.0, 968.0, 969.0, 968.0, 968.0, 969.0, 968.0, 968.0, 968.0, 969.0, 968.0, 968.0, 968.0, 969.0, 969.0, 968.0, 968.0, 968.0, 968.0, 968.0, 968.0, 968.0, 968.0, 968.0, 968.0, 968.0, 968.0, 968.0, 969.0, 968.0, 969.0, 969.0, 968.0, 969.0, 968.0, 968.0, 969.0, 968.0, 968.0, 968.0, 969.0, 969.0, 968.0, 968.0, 968.0, 968.0, 969.0, 969.0, 968.0, 968.0, 968.0, 968.0, 969.0, 969.0, 968.0, 969.0, 968.0, 968.0, 968.0, 968.0, 969.0, 968.0, 969.0, 968.0],
      "WindowWidth": [2110.0, 2110.0, 2109.0, 2109.0, 2109.0, 2109.0, 2109.0, 2109.0, 2109.0, 2109.0, 2109.0, 2109.0, 2109.0, 2109.0, 2109.0, 2109.0, 2108.0, 2109.0, 2109.0, 2109.0, 2109.0, 2109.0, 2109.0, 2109.0, 2109.0, 2109.0, 2109.0, 2108.0, 2108.0, 2108.0, 2109.0, 2108.0, 2108.0, 2108.0, 2108.0, 2108.0, 2108.0, 2108.0, 2108.0, 2108.0, 2108.0, 2108.0, 2108.0, 2108.0, 2108.0, 2108.0, 2108.0, 2108.0, 2108.0, 2108.0, 2108.0, 2108.0, 2108.0, 2108.0, 2108.0, 2108.0, 2108.0, 2108.0, 2108.0, 2109.0, 2108.0, 2108.0, 2108.0, 2108.0, 2108.0, 2108.0, 2108.0, 2108.0, 2108.0, 2108.0, 2108.0, 2108.0, 2107.0, 2108.0, 2107.0, 2107.0, 2107.0, 2107.0, 2107.0, 2107.0, 2107.0, 2108.0, 2109.0, 2108.0, 2107.0, 2107.0, 2108.0, 2108.0, 2107.0, 2107.0, 2108.0, 2107.0, 2107.0, 2108.0, 2107.0, 2107.0, 2107.0, 2107.0, 2108.0, 2107.0, 2107.0, 2108.0, 2108.0, 2108.0, 2107.0, 2107.0, 2107.0, 2107.0, 2107.0, 2108.0, 2107.0, 2107.0, 2107.0, 2106.0, 2107.0, 2107.0, 2107.0, 2107.0, 2108.0, 2107.0, 2107.0, 2106.0, 2106.0, 2106.0, 2106.0, 2107.0, 2107.0, 2106.0, 2107.0, 2106.0, 2108.0, 2107.0, 2107.0, 2107.0, 2107.0, 2108.0, 2107.0, 2107.0, 2107.0, 2107.0, 2106.0, 2107.0, 2106.0, 2106.0, 2106.0, 2107.0, 2107.0, 2106.0, 2107.0, 2107.0, 2107.0, 2106.0, 2106.0, 2106.0, 2106.0, 2107.0, 2106.0, 2106.0, 2106.0, 2106.0, 2106.0, 2106.0, 2107.0, 2106.0, 2107.0, 2106.0, 2107.0, 2107.0, 2106.0, 2107.0, 2106.0, 2106.0, 2107.0, 2106.0, 2107.0, 2106.0, 2107.0, 2107.0, 2106.0, 2106.0, 2106.0, 2106.0, 2107.0, 2107.0, 2106.0, 2106.0, 2107.0, 2106.0, 2107.0, 2107.0, 2106.0, 2107.0, 2106.0, 2106.0, 2106.0, 2107.0, 2107.0, 2106.0, 2107.0, 2107.0]
    },
    "slices": {}
  }
}