{
  "AcquisitionMatrixPE": 122,
  "AcquisitionNumber": 1,
  "AcquisitionTime": "11:42:21.195000",
  "BandwidthPerPixelPhaseEncode": 28.76,
  "BaseResolution": 122,
  "BodyPartExamined": "BRAIN",
  "CoilCombinationMethod": "Adaptive Combine",
  "ConsistencyInfo": "N4_VE11C_LATEST_20160120",
  "ConversionSoftware": "dcm2niix",
  "ConversionSoftwareVersion": "v1.0.20220720",
  "DerivedVendorReportedEchoSpacing": 0.000570008,
  "DeviceSerialNumber": "66112",
  "DiffusionScheme": "Monopolar",
  "DwellTime": 2e-06,
  "EchoTime": 0.075,
  "EchoTrainLength": 61,
  "EffectiveEchoSpacing": 0.000285004,
  "FlipAngle": 90,
  "HeudiconvVersion": "0.13.1",
  "ImageOrientationPatientDICOM": [0.999985, 0.00480886, 0.00279776, -0.0054105, 0.9577, 0.287716],
  "ImageOrientationText": "Tra>Cor(16.7)>Sag(0.1)",
  "ImageType": [
    "ORIGINAL",
    "PRIMARY",
    "DIFFUSION",
    "NONE",
    "ND",
    "NORM"
],
  "ImagingFrequency": 123.252,
  "InPlanePhaseEncodingDirectionDICOM": "COL",
  "InstitutionAddress": "Maynard 3,Hanover,NH,US,03755",
  "InstitutionName": "Dartmouth College - PBS",
  "InstitutionalDepartmentName": "Department",
  "MRAcquisitionType": "2D",
  "MagneticFieldStrength": 3,
  "Manufacturer": "Siemens",
  "ManufacturersModelName": "Prisma",
  "MatrixCoilMode": "GRAPPA",
  "Modality": "MR",
  "NonlinearGradientCorrection": false,
  "ParallelReductionFactorInPlane": 2,
  "PartialFourier": 1,
  "PatientPosition": "HFS",
  "PercentPhaseFOV": 100,
  "PercentSampling": 100,
  "PhaseEncodingDirection": "j-",
  "PhaseEncodingSteps": 122,
  "PhaseResolution": 1,
  "PixelBandwidth": 2050,
  "ProcedureStepDescription": "dbic^QA",
  "ProtocolName": "dwi_acq-DTI-30-p2",
  "PulseSequenceDetails": "%SiemensSeq%\\ep2d_diff",
  "ReceiveCoilActiveElements": "HEA;HEP",
  "ReceiveCoilName": "Head_32",
  "ReconMatrixPE": 122,
  "RefLinesPE": 38,
  "RepetitionTime": 7.7,
  "SAR": 0.102078,
  "ScanOptions": "FS",
  "ScanningSequence": "EP",
  "SequenceName": "*ep_b0",
  "SequenceVariant": "SK\\SP",
  "SeriesDescription": "dwi_acq-DTI-30-p2",
  "SeriesNumber": 8,
  "ShimSetting": [4143, -7688, -7515, 285, -71, -150, -31, 72],
  "SliceThickness": 2,
  "SliceTiming": [3.84375, 0, 3.95312, 0.11719, 4.0625, 0.22656, 4.17188, 0.33594, 4.28125, 0.44531, 4.39062, 0.55469, 4.5, 0.66406, 4.60938, 0.77344, 4.71875, 0.88281, 4.82812, 0.99219, 4.9375, 1.10156, 5.05469, 1.21094, 5.16406, 1.32031, 5.26562, 1.42969, 5.375, 1.53906, 5.49219, 1.64844, 5.60156, 1.75781, 5.71094, 1.86719, 5.82031, 1.97656, 5.92969, 2.08594, 6.03906, 2.19531, 6.14844, 2.30469, 6.25781, 2.41406, 6.36719, 2.52344, 6.47656, 2.63281, 6.58594, 2.74219, 6.69531, 2.85938, 6.80469, 2.96875, 6.91406, 3.07812, 7.02344, 3.1875, 7.13281, 3.29688, 7.24219, 3.40625, 7.35156, 3.51562, 7.46094, 3.625, 7.57031, 3.73438],
  "SoftwareVersions": "syngo MR E11",
  "SpacingBetweenSlices": 2,
  "SpoilingState": true,
  "StationName": "AWP66112",
  "TotalReadoutTime": 0.0344855,
  "TxRefAmp": 227.526,
  "dcmmeta_affine": [
    [-1.9671827554702759, -0.01064360048621893, 0.0025916099548339844, 121.0999984741211],
    [-0.00946006178855896, 1.8840007781982422, 0.5754547119140625, -133.13714599609375],
    [0.005503789987415075, -0.565999448299408, 1.9154205322265625, -33.03887939453125],
    [0.0, 0.0, 0.0, 1.0]
],
  "dcmmeta_reorient_transform": [
    [0.0, -1.0, 0.0, 121.0],
    [1.0, 0.0, 0.0, 0.0],
    [0.0, 0.0, -1.0, 69.0],
    [0.0, 0.0, 0.0, 1.0]
],
  "dcmmeta_shape": [122, 122, 70, 31],
  "dcmmeta_slice_dim": 2,
  "dcmmeta_version": 0.6,
  "global": {
    "const": {
      "AccessionNumber": "qa",
      "AcquisitionMatrix": [122, 0, 0, 122],
      "AngioFlag": "N",
      "BitsAllocated": 16,
      "BitsStored": 12,
      "BodyPartExamined": "BRAIN",
      "Columns": 122,
      "EchoNumbers": 1,
      "EchoTime": 75.0,
      "EchoTrainLength": 61,
      "FlipAngle": 90.0,
      "HighBit": 11,
      "ImageOrientationPatient": [0.99998452355989, 0.0048088647321, 0.00279775993959, -0.005410496658, 0.95770037735663, 0.28771637724829],
      "ImageType": [
        "ORIGINAL",
        "PRIMARY",
        "DIFFUSION",
        "NONE",
        "ND",
        "NORM"
],
      "ImagedNucleus": "1H",
      "ImagingFrequency": 123.252435,
      "InPlanePhaseEncodingDirection": "COL",
      "MRAcquisitionType": "2D",
      "MagneticFieldStrength": 3.0,
      "Manufacturer": "SIEMENS",
      "ManufacturerModelName": "Prisma",
      "Modality": "MR",
      "NumberOfAverages": 1.0,
      "NumberOfPhaseEncodingSteps": 122,
      "PercentPhaseFieldOfView": 100.0,
      "PercentSampling": 100.0,
      "PerformedProcedureStepStartTime": "111857.211000",
      "PhotometricInterpretation": "MONOCHROME2",
      "PixelBandwidth": 2050.0,
      "PixelRepresentation": 0,
      "PixelSpacing": [1.9672131538391, 1.9672131538391],
      "ProtocolName": "dwi_acq-DTI-30-p2",
      "RepetitionTime": 7700.0,
      "Rows": 122,
      "SAR": 0.1020780569874,
      "SamplesPerPixel": 1,
      "ScanOptions": "FS",
      "ScanningSequence": "EP",
      "SequenceVariant": [
        "SK",
        "SP"
],
      "SeriesDescription": "dwi_acq-DTI-30-p2",
      "SeriesNumber": 8,
      "SeriesTime": "114222.813000",
      "SliceThickness": 2.0,
      "SmallestImagePixelValue": 0,
      "SoftwareVersions": "syngo MR E11",
      "SpacingBetweenSlices": 2.0,
      "SpecificCharacterSet": "ISO_IR 100",
      "StudyID": "22",
      "StudyTime": "111857.133000",
      "TransmitCoilName": "Body",
      "VariableFlipAngleFlag": "N",
      "WindowCenterWidthExplanation": "Algo1",
      "dBdt": 0.0},
    "slices": {
      "AcquisitionTime": ["114221.195000", "114217.355000", "114221.305000", "114217.465000", "114221.415000", "114217.575000", "114221.525000", "114217.685000", "114221.632500", "114217.795000", "114221.742500", "114217.902500", "114221.852500", "114218.012500", "114221.962500", "114218.122500", "114222.072500", "114218.232500", "114222.182500", "114218.342500", "114222.292500", "114218.452500", "114222.402500", "114218.562500", "114222.512500", "114218.672500", "114222.620000", "114218.780000", "114222.730000", "114218.890000", "114222.840000", "114219.000000", "114222.950000", "114219.110000", "114223.060000", "114219.220000", "114223.170000", "114219.330000", "114223.280000", "114219.440000", "114223.390000", "114219.550000", "114223.497500", "114219.660000", "114223.607500", "114219.767500", "114223.717500", "114219.877500", "114223.827500", "114219.987500", "114223.937500", "114220.097500", "114224.047500", "114220.207500", "114224.157500", "114220.317500", "114224.267500", "114220.427500", "114224.377500", "114220.537500", "114224.485000", "114220.645000", "114224.595000", "114220.755000", "114224.705000", "114220.865000", "114224.815000", "114220.975000", "114224.925000", "114221.085000", "114228.895000", "114225.055000", "114229.005000", "114225.165000", "114229.115000", "114225.275000", "114229.225000", "114225.385000", "114229.332500", "114225.495000", "114229.442500", "114225.602500", "114229.552500", "114225.712500", "114229.662500", "114225.822500", "114229.772500", "114225.932500", "114229.882500", "114226.042500", "114229.992500", "114226.152500", "114230.102500", "114226.262500", "114230.212500", "114226.372500", "114230.320000", "114226.480000", "114230.430000", "114226.590000", "114230.540000", "114226.700000", "114230.650000", "114226.810000", "114230.760000", "114226.920000", "114230.870000", "114227.030000", "114230.980000", "114227.140000", "114231.090000", "114227.250000", "114231.197500", "114227.360000", "114231.307500", "114227.467500", "114231.417500", "114227.577500", "114231.527500", "114227.687500", "114231.637500", "114227.797500", "114231.747500", "114227.907500", "114231.857500", "114228.017500", "114231.967500", "114228.127500", "114232.077500", "114228.237500", "114232.185000", "114228.345000", "114232.295000", "114228.455000", "114232.405000", "114228.565000", "114232.515000", "114228.675000", "114232.625000", "114228.785000", "114236.595000", "114232.755000", "114236.705000", "114232.865000", "114236.815000", "114232.975000", "114236.925000", "114233.085000", "114237.032500", "114233.195000", "114237.142500", "114233.302500", "114237.252500", "114233.412500", "114237.362500", "114233.522500", "114237.472500", "114233.632500", "114237.582500", "114233.742500", "114237.692500", "114233.852500", "114237.802500", "114233.962500", "114237.912500", "114234.072500", "114238.020000", "114234.180000", "114238.130000", "114234.290000", "114238.240000", "114234.400000", "114238.350000", "114234.510000", "114238.460000", "114234.620000", "114238.570000", "114234.730000", "114238.680000", "114234.840000", "114238.790000", "114234.950000", "114238.897500", "114235.060000", "114239.007500", "114235.167500", "114239.117500", "114235.277500", "114239.227500", "114235.387500", "114239.337500", "114235.497500", "114239.447500", "114235.607500", "114239.557500", "114235.717500", "114239.667500", "114235.827500", "114239.777500", "114235.937500", "114239.885000", "114236.045000", "114239.995000", "114236.155000", "114240.105000", "114236.265000", "114240.215000", "114236.375000", "114240.325000", "114236.485000", "114244.295000", "114240.455000", "114244.405000", "114240.565000", "114244.515000", "114240.675000", "114244.625000", "114240.785000", "114244.732500", "114240.895000", "114244.842500", "114241.002500", "114244.952500", "114241.112500", "114245.062500", "114241.222500", "114245.172500", "114241.332500", "114245.282500", "114241.442500", "114245.392500", "114241.552500", "114245.502500", "114241.662500", "114245.612500", "114241.772500", "114245.720000", "114241.880000", "114245.830000", "114241.990000", "114245.940000", "114242.100000", "114246.050000", "114242.210000", "114246.160000", "114242.320000", "114246.270000", "114242.430000", "114246.380000", "114242.540000", "114246.490000", "114242.650000", "114246.597500", "114242.760000", "114246.707500", "114242.867500", "114246.817500", "114242.977500", "114246.927500", "114243.087500", "114247.037500", "114243.197500", "114247.147500", "114243.307500", "114247.257500", "114243.417500", "114247.367500", "114243.527500", "114247.477500", "114243.637500", "114247.585000", "114243.745000", "114247.695000", "114243.855000", "114247.805000", "114243.965000", "114247.915000", "114244.075000", "114248.025000", "114244.185000", "114251.995000", "114248.155000", "114252.105000", "114248.265000", "114252.215000", "114248.375000", "114252.325000", "114248.485000", "114252.432500", "114248.595000", "114252.542500", "114248.702500", "114252.652500", "114248.812500", "114252.762500", "114248.922500", "114252.872500", "114249.032500", "114252.982500", "114249.142500", "114253.092500", "114249.252500", "114253.202500", "114249.362500", "114253.312500", "114249.472500", "114253.420000", "114249.580000", "114253.530000", "114249.690000", "114253.640000", "114249.800000", "114253.750000", "114249.910000", "114253.860000", "114250.020000", "114253.970000", "114250.130000", "114254.080000", "114250.240000", "114254.190000", "114250.350000", "114254.297500", "114250.460000", "114254.407500", "114250.567500", "114254.517500", "114250.677500", "114254.627500", "114250.787500", "114254.737500", "114250.897500", "114254.847500", "114251.007500", "114254.957500", "114251.117500", "114255.067500", "114251.227500", "114255.177500", "114251.337500", "114255.285000", "114251.445000", "114255.395000", "114251.555000", "114255.505000", "114251.665000", "114255.615000", "114251.775000", "114255.725000", "114251.885000", "114259.695000", "114255.855000", "114259.805000", "114255.965000", "114259.915000", "114256.075000", "114300.025000", "114256.185000", "114300.132500", "114256.295000", "114300.242500", "114256.402500", "114300.352500", "114256.512500", "114300.462500", "114256.622500", "114300.572500", "114256.732500", "114300.682500", "114256.842500", "114300.792500", "114256.952500", "114300.902500", "114257.062500", "114301.012500", "114257.172500", "114301.120000", "114257.280000", "114301.230000", "114257.390000", "114301.340000", "114257.500000", "114301.450000", "114257.610000", "114301.560000", "114257.720000", "114301.670000", "114257.830000", "114301.780000", "114257.940000", "114301.890000", "114258.050000", "114301.997500", "114258.160000", "114302.107500", "114258.267500", "114302.217500", "114258.377500", "114302.327500", "114258.487500", "114302.437500", "114258.597500", "114302.547500", "114258.707500", "114302.657500", "114258.817500", "114302.767500", "114258.927500", "114302.877500", "114259.037500", "114302.985000", "114259.145000", "114303.095000", "114259.255000", "114303.205000", "114259.365000", "114303.315000", "114259.475000", "114303.425000", "114259.585000", "114307.395000", "114303.555000", "114307.505000", "114303.665000", "114307.615000", "114303.775000", "114307.725000", "114303.885000", "114307.832500", "114303.995000", "114307.942500", "114304.102500", "114308.052500", "114304.212500", "114308.162500", "114304.322500", "114308.272500", "114304.432500", "114308.382500", "114304.542500", "114308.492500", "114304.652500", "114308.602500", "114304.762500", "114308.712500", "114304.872500", "114308.820000", "114304.980000", "114308.930000", "114305.090000", "114309.040000", "114305.200000", "114309.150000", "114305.310000", "114309.260000", "114305.420000", "114309.370000", "114305.530000", "114309.480000", "114305.640000", "114309.590000", "114305.750000", "114309.697500", "114305.860000", "114309.807500", "114305.967500", "114309.917500", "114306.077500", "114310.027500", "114306.187500", "114310.137500", "114306.297500", "114310.247500", "114306.407500", "114310.357500", "114306.517500", "114310.467500", "114306.627500", "114310.577500", "114306.737500", "114310.685000", "114306.845000", "114310.795000", "114306.955000", "114310.905000", "114307.065000", "114311.015000", "114307.175000", "114311.125000", "114307.285000", "114315.095000", "114311.255000", "114315.205000", "114311.365000", "114315.315000", "114311.475000", "114315.425000", "114311.585000", "114315.532500", "114311.695000", "114315.642500", "114311.802500", "114315.752500", "114311.912500", "114315.862500", "114312.022500", "114315.972500", "114312.132500", "114316.082500", "114312.242500", "114316.192500", "114312.352500", "114316.302500", "114312.462500", "114316.412500", "114312.572500", "114316.520000", "114312.680000", "114316.630000", "114312.790000", "114316.740000", "114312.900000", "114316.850000", "114313.010000", "114316.960000", "114313.120000", "114317.070000", "114313.230000", "114317.180000", "114313.340000", "114317.290000", "114313.450000", "114317.397500", "114313.560000", "114317.507500", "114313.667500", "114317.617500", "114313.777500", "114317.727500", "114313.887500", "114317.837500", "114313.997500", "114317.947500", "114314.107500", "114318.057500", "114314.217500", "114318.167500", "114314.327500", "114318.277500", "114314.437500", "114318.385000", "114314.545000", "114318.495000", "114314.655000", "114318.605000", "114314.765000", "114318.715000", "114314.875000", "114318.825000", "114314.985000", "114322.795000", "114318.955000", "114322.905000", "114319.065000", "114323.015000", "114319.175000", "114323.125000", "114319.285000", "114323.232500", "114319.395000", "114323.342500", "114319.502500", "114323.452500", "114319.612500", "114323.562500", "114319.722500", "114323.672500", "114319.832500", "114323.782500", "114319.942500", "114323.892500", "114320.052500", "114324.002500", "114320.162500", "114324.112500", "114320.272500", "114324.220000", "114320.380000", "114324.330000", "114320.490000", "114324.440000", "114320.600000", "114324.550000", "114320.710000", "114324.660000", "114320.820000", "114324.770000", "114320.930000", "114324.880000", "114321.040000", "114324.990000", "114321.150000", "114325.097500", "114321.260000", "114325.207500", "114321.367500", "114325.317500", "114321.477500", "114325.427500", "114321.587500", "114325.537500", "114321.697500", "114325.647500", "114321.807500", "114325.757500", "114321.917500", "114325.867500", "114322.027500", "114325.977500", "114322.137500", "114326.085000", "114322.245000", "114326.195000", "114322.355000", "114326.305000", "114322.465000", "114326.415000", "114322.575000", "114326.525000", "114322.685000", "114330.495000", "114326.655000", "114330.605000", "114326.765000", "114330.715000", "114326.875000", "114330.825000", "114326.985000", "114330.932500", "114327.095000", "114331.042500", "114327.202500", "114331.152500", "114327.312500", "114331.262500", "114327.422500", "114331.372500", "114327.532500", "114331.482500", "114327.642500", "114331.592500", "114327.752500", "114331.702500", "114327.862500", "114331.812500", "114327.972500", "114331.920000", "114328.080000", "114332.030000", "114328.190000", "114332.140000", "114328.300000", "114332.250000", "114328.410000", "114332.360000", "114328.520000", "114332.470000", "114328.630000", "114332.580000", "114328.740000", "114332.690000", "114328.850000", "114332.797500", "114328.960000", "114332.907500", "114329.067500", "114333.017500", "114329.177500", "114333.127500", "114329.287500", "114333.237500", "114329.397500", "114333.347500", "114329.507500", "114333.457500", "114329.617500", "114333.567500", "114329.727500", "114333.677500", "114329.837500", "114333.785000", "114329.945000", "114333.895000", "114330.055000", "114334.005000", "114330.165000", "114334.115000", "114330.275000", "114334.225000", "114330.385000", "114338.195000", "114334.355000", "114338.305000", "114334.465000", "114338.415000", "114334.575000", "114338.525000", "114334.685000", "114338.632500", "114334.795000", "114338.742500", "114334.902500", "114338.852500", "114335.012500", "114338.962500", "114335.122500", "114339.072500", "114335.232500", "114339.182500", "114335.342500", "114339.292500", "114335.452500", "114339.402500", "114335.562500", "114339.512500", "114335.672500", "114339.620000", "114335.780000", "114339.730000", "114335.890000", "114339.840000", "114336.000000", "114339.950000", "114336.110000", "114340.060000", "114336.220000", "114340.170000", "114336.330000", "114340.280000", "114336.440000", "114340.390000", "114336.550000", "114340.497500", "114336.660000", "114340.607500", "114336.767500", "114340.717500", "114336.877500", "114340.827500", "114336.987500", "114340.937500", "114337.097500", "114341.047500", "114337.207500", "114341.157500", "114337.317500", "114341.267500", "114337.427500", "114341.377500", "114337.537500", "114341.485000", "114337.645000", "114341.595000", "114337.755000", "114341.705000", "114337.865000", "114341.815000", "114337.975000", "114341.925000", "114338.085000", "114345.895000", "114342.055000", "114346.005000", "114342.165000", "114346.115000", "114342.275000", "114346.225000", "114342.385000", "114346.332500", "114342.495000", "114346.442500", "114342.602500", "114346.552500", "114342.712500", "114346.662500", "114342.822500", "114346.772500", "114342.932500", "114346.882500", "114343.042500", "114346.992500", "114343.152500", "114347.102500", "114343.262500", "114347.212500", "114343.372500", "114347.320000", "114343.480000", "114347.430000", "114343.590000", "114347.540000", "114343.700000", "114347.650000", "114343.810000", "114347.760000", "114343.920000", "114347.870000", "114344.030000", "114347.980000", "114344.140000", "114348.090000", "114344.250000", "114348.197500", "114344.360000", "114348.307500", "114344.467500", "114348.417500", "114344.577500", "114348.527500", "114344.687500", "114348.637500", "114344.797500", "114348.747500", "114344.907500", "114348.857500", "114345.017500", "114348.967500", "114345.127500", "114349.077500", "114345.237500", "114349.185000", "114345.345000", "114349.295000", "114345.455000", "114349.405000", "114345.565000", "114349.515000", "114345.675000", "114349.625000", "114345.785000", "114353.595000", "114349.755000", "114353.705000", "114349.865000", "114353.815000", "114349.975000", "114353.925000", "114350.085000", "114354.032500", "114350.195000", "114354.142500", "114350.302500", "114354.252500", "114350.412500", "114354.362500", "114350.522500", "114354.472500", "114350.632500", "114354.582500", "114350.742500", "114354.692500", "114350.852500", "114354.802500", "114350.962500", "114354.912500", "114351.072500", "114355.020000", "114351.180000", "114355.130000", "114351.290000", "114355.240000", "114351.400000", "114355.350000", "114351.510000", "114355.460000", "114351.620000", "114355.570000", "114351.730000", "114355.680000", "114351.840000", "114355.790000", "114351.950000", "114355.897500", "114352.060000", "114356.007500", "114352.167500", "114356.117500", "114352.277500", "114356.227500", "114352.387500", "114356.337500", "114352.497500", "114356.447500", "114352.607500", "114356.557500", "114352.717500", "114356.667500", "114352.827500", "114356.777500", "114352.937500", "114356.885000", "114353.045000", "114356.995000", "114353.155000", "114357.105000", "114353.265000", "114357.215000", "114353.375000", "114357.325000", "114353.485000", "114401.295000", "114357.455000", "114401.405000", "114357.565000", "114401.515000", "114357.675000", "114401.625000", "114357.785000", "114401.732500", "114357.895000", "114401.842500", "114358.002500", "114401.952500", "114358.112500", "114402.062500", "114358.222500", "114402.172500", "114358.332500", "114402.282500", "114358.442500", "114402.392500", "114358.552500", "114402.502500", "114358.662500", "114402.612500", "114358.772500", "114402.720000", "114358.880000", "114402.830000", "114358.990000", "114402.940000", "114359.100000", "114403.050000", "114359.210000", "114403.160000", "114359.320000", "114403.270000", "114359.430000", "114403.380000", "114359.540000", "114403.490000", "114359.650000", "114403.597500", "114359.760000", "114403.707500", "114359.867500", "114403.817500", "114359.977500", "114403.927500", "114400.087500", "114404.037500", "114400.197500", "114404.147500", "114400.307500", "114404.257500", "114400.417500", "114404.367500", "114400.527500", "114404.477500", "114400.637500", "114404.585000", "114400.745000", "114404.695000", "114400.855000", "114404.805000", "114400.965000", "114404.915000", "114401.075000", "114405.025000", "114401.185000", "114408.995000", "114405.155000", "114409.105000", "114405.265000", "114409.215000", "114405.375000", "114409.325000", "114405.485000", "114409.432500", "114405.595000", "114409.542500", "114405.702500", "114409.652500", "114405.812500", "114409.762500", "114405.922500", "114409.872500", "114406.032500", "114409.982500", "114406.142500", "114410.092500", "114406.252500", "114410.202500", "114406.362500", "114410.312500", "114406.472500", "114410.420000", "114406.580000", "114410.530000", "114406.690000", "114410.640000", "114406.800000", "114410.750000", "114406.910000", "114410.860000", "114407.020000", "114410.970000", "114407.130000", "114411.080000", "114407.240000", "114411.190000", "114407.350000", "114411.297500", "114407.460000", "114411.407500", "114407.567500", "114411.517500", "114407.677500", "114411.627500", "114407.787500", "114411.737500", "114407.897500", "114411.847500", "114408.007500", "114411.957500", "114408.117500", "114412.067500", "114408.227500", "114412.177500", "114408.337500", "114412.285000", "114408.445000", "114412.395000", "114408.555000", "114412.505000", "114408.665000", "114412.615000", "114408.775000", "114412.725000", "114408.885000", "114416.695000", "114412.855000", "114416.805000", "114412.965000", "114416.915000", "114413.075000", "114417.025000", "114413.185000", "114417.132500", "114413.295000", "114417.242500", "114413.402500", "114417.352500", "114413.512500", "114417.462500", "114413.622500", "114417.572500", "114413.732500", "114417.682500", "114413.842500", "114417.792500", "114413.952500", "114417.902500", "114414.062500", "114418.012500", "114414.172500", "114418.120000", "114414.280000", "114418.230000", "114414.390000", "114418.340000", "114414.500000", "114418.450000", "114414.610000", "114418.560000", "114414.720000", "114418.670000", "114414.830000", "114418.780000", "114414.940000", "114418.890000", "114415.050000", "114418.997500", "114415.160000", "114419.107500", "114415.267500", "114419.217500", "114415.377500", "114419.327500", "114415.487500", "114419.437500", "114415.597500", "114419.547500", "114415.707500", "114419.657500", "114415.817500", "114419.767500", "114415.927500", "114419.877500", "114416.037500", "114419.985000", "114416.145000", "114420.095000", "114416.255000", "114420.205000", "114416.365000", "114420.315000", "114416.475000", "114420.425000", "114416.585000", "114424.395000", "114420.555000", "114424.505000", "114420.665000", "114424.615000", "114420.775000", "114424.725000", "114420.885000", "114424.832500", "114420.995000", "114424.942500", "114421.102500", "114425.052500", "114421.212500", "114425.162500", "114421.322500", "114425.272500", "114421.432500", "114425.382500", "114421.542500", "114425.492500", "114421.652500", "114425.602500", "114421.762500", "114425.712500", "114421.872500", "114425.820000", "114421.980000", "114425.930000", "114422.090000", "114426.040000", "114422.200000", "114426.150000", "114422.310000", "114426.260000", "114422.420000", "114426.370000", "114422.530000", "114426.480000", "114422.640000", "114426.590000", "114422.750000", "114426.697500", "114422.860000", "114426.807500", "114422.967500", "114426.917500", "114423.077500", "114427.027500", "114423.187500", "114427.137500", "114423.297500", "114427.247500", "114423.407500", "114427.357500", "114423.517500", "114427.467500", "114423.627500", "114427.577500", "114423.737500", "114427.685000", "114423.845000", "114427.795000", "114423.955000", "114427.905000", "114424.065000", "114428.015000", "114424.175000", "114428.125000", "114424.285000", "114432.095000", "114428.255000", "114432.205000", "114428.365000", "114432.315000", "114428.475000", "114432.425000", "114428.585000", "114432.532500", "114428.695000", "114432.642500", "114428.802500", "114432.752500", "114428.912500", "114432.862500", "114429.022500", "114432.972500", "114429.132500", "114433.082500", "114429.242500", "114433.192500", "114429.352500", "114433.302500", "114429.462500", "114433.412500", "114429.572500", "114433.520000", "114429.680000", "114433.630000", "114429.790000", "114433.740000", "114429.900000", "114433.850000", "114430.010000", "114433.960000", "114430.120000", "114434.070000", "114430.230000", "114434.180000", "114430.340000", "114434.290000", "114430.450000", "114434.397500", "114430.560000", "114434.507500", "114430.667500", "114434.617500", "114430.777500", "114434.727500", "114430.887500", "114434.837500", "114430.997500", "114434.947500", "114431.107500", "114435.057500", "114431.217500", "114435.167500", "114431.327500", "114435.277500", "114431.437500", "114435.385000", "114431.545000", "114435.495000", "114431.655000", "114435.605000", "114431.765000", "114435.715000", "114431.875000", "114435.825000", "114431.985000", "114439.795000", "114435.955000", "114439.905000", "114436.065000", "114440.015000", "114436.175000", "114440.125000", "114436.285000", "114440.232500", "114436.395000", "114440.342500", "114436.502500", "114440.452500", "114436.612500", "114440.562500", "114436.722500", "114440.672500", "114436.832500", "114440.782500", "114436.942500", "114440.892500", "114437.052500", "114441.002500", "114437.162500", "114441.112500", "114437.272500", "114441.220000", "114437.380000", "114441.330000", "114437.490000", "114441.440000", "114437.600000", "114441.550000", "114437.710000", "114441.660000", "114437.820000", "114441.770000", "114437.930000", "114441.880000", "114438.040000", "114441.990000", "114438.150000", "114442.097500", "114438.260000", "114442.207500", "114438.367500", "114442.317500", "114438.477500", "114442.427500", "114438.587500", "114442.537500", "114438.697500", "114442.647500", "114438.807500", "114442.757500", "114438.917500", "114442.867500", "114439.027500", "114442.977500", "114439.137500", "114443.085000", "114439.245000", "114443.195000", "114439.355000", "114443.305000", "114439.465000", "114443.415000", "114439.575000", "114443.525000", "114439.685000", "114447.495000", "114443.655000", "114447.605000", "114443.765000", "114447.715000", "114443.875000", "114447.825000", "114443.985000", "114447.932500", "114444.095000", "114448.042500", "114444.202500", "114448.152500", "114444.312500", "114448.262500", "114444.422500", "114448.372500", "114444.532500", "114448.482500", "114444.642500", "114448.592500", "114444.752500", "114448.702500", "114444.862500", "114448.812500", "114444.972500", "114448.920000", "114445.080000", "114449.030000", "114445.190000", "114449.140000", "114445.300000", "114449.250000", "114445.410000", "114449.360000", "114445.520000", "114449.470000", "114445.630000", "114449.580000", "114445.740000", "114449.690000", "114445.850000", "114449.797500", "114445.960000", "114449.907500", "114446.067500", "114450.017500", "114446.177500", "114450.127500", "114446.287500", "114450.237500", "114446.397500", "114450.347500", "114446.507500", "114450.457500", "114446.617500", "114450.567500", "114446.727500", "114450.677500", "114446.837500", "114450.785000", "114446.945000", "114450.895000", "114447.055000", "114451.005000", "114447.165000", "114451.115000", "114447.275000", "114451.225000", "114447.385000", "114455.195000", "114451.355000", "114455.305000", "114451.465000", "114455.415000", "114451.575000", "114455.525000", "114451.685000", "114455.632500", "114451.795000", "114455.742500", "114451.902500", "114455.852500", "114452.012500", "114455.962500", "114452.122500", "114456.072500", "114452.232500", "114456.182500", "114452.342500", "114456.292500", "114452.452500", "114456.402500", "114452.562500", "114456.512500", "114452.672500", "114456.620000", "114452.780000", "114456.730000", "114452.890000", "114456.840000", "114453.000000", "114456.950000", "114453.110000", "114457.060