{
  "AcquisitionMatrixPE": 80,
  "AcquisitionNumber": 1,
  "AcquisitionTime": "10:06:28.135000",
  "BandwidthPerPixelPhaseEncode": 44.643,
  "BaseResolution": 80,
  "BodyPartExamined": "BRAIN",
  "CoilCombinationMethod": "Sum of Squares",
  "ConsistencyInfo": "N4_VE11C_LATEST_20160120",
  "ConversionSoftware": "dcm2niix",
  "ConversionSoftwareVersion": "v1.0.20220720",
  "DerivedVendorReportedEchoSpacing": 0.000559998,
  "DeviceSerialNumber": "66112",
  "DwellTime": 2.7e-06,
  "EchoTime": 0.035,
  "EchoTrainLength": 39,
  "EffectiveEchoSpacing": 0.000279999,
  "FlipAngle": 90,
  "HeudiconvVersion": "0.13.1",
  "ImageOrientationPatientDICOM": [0.987448, -0.155738, -0.0263127, 0.15622, 0.93846, 0.308039],
  "ImageOrientationText": "Tra>Cor(18.0)>Sag(1.3)",
  "ImageType": [
    "ORIGINAL",
    "PRIMARY",
    "M",
    "ND",
    "NORM",
    "MOSAIC"
],
  "ImagingFrequency": 123.252,
  "InPlanePhaseEncodingDirectionDICOM": "COL",
  "InstitutionAddress": "Maynard 3,Hanover,NH,US,03755",
  "InstitutionName": "Dartmouth College - PBS",
  "InstitutionalDepartmentName": "Department",
  "MRAcquisitionType": "2D",
  "MagneticFieldStrength": 3,
  "Manufacturer": "Siemens",
  "ManufacturersModelName": "Prisma",
  "Modality": "MR",
  "MultibandAccelerationFactor": 4,
  "NonlinearGradientCorrection": false,
  "ParallelReductionFactorInPlane": 2,
  "PartialFourier": 1,
  "PatientPosition": "HFS",
  "PercentPhaseFOV": 100,
  "PercentSampling": 100,
  "PhaseEncodingDirection": "j-",
  "PhaseEncodingSteps": 79,
  "PhaseResolution": 1,
  "PixelBandwidth": 2315,
  "ProcedureStepDescription": "dbic^QA",
  "ProtocolName": "func-bold_task-rest_acq-p2-s4-3.5mm",
  "PulseSequenceDetails": "%SiemensSeq%\\ep2d_bold",
  "ReceiveCoilActiveElements": "HEA;HEP",
  "ReceiveCoilName": "Head_32",
  "ReconMatrixPE": 80,
  "RefLinesPE": 24,
  "RepetitionTime": 2,
  "SAR": 0.020928,
  "ScanOptions": "FS",
  "ScanningSequence": "EP",
  "SequenceName": "*epfid2d1_80",
  "SequenceVariant": "SK",
  "SeriesDescription": "func-bold_task-rest_acq-p2-s4-3.5mm",
  "SeriesNumber": 7,
  "ShimSetting": [4145, -7685, -7507, 293, -51, -174, -94, 52],
  "SliceThickness": 3.5,
  "SliceTiming": [1.485, 0, 0.99, 0.2475, 1.2375, 0.7425, 1.7325, 0.495, 1.485, 0, 0.99, 0.2475, 1.2375, 0.7425, 1.7325, 0.495, 1.485, 0, 0.99, 0.2475, 1.2375, 0.7425, 1.7325, 0.495, 1.485, 0, 0.99, 0.2475, 1.2375, 0.7425, 1.7325, 0.495],
  "SoftwareVersions": "syngo MR E11",
  "SpacingBetweenSlices": 3.99,
  "StationName": "AWP66112",
  "TaskName": "rest",
  "TotalReadoutTime": 0.0221199,
  "TxRefAmp": 235.564,
  "dcmmeta_affine": [
    [-2.96234393119812, 0.46865904331207275, 0.09288672357797623, 96.85515594482422],
    [0.46721261739730835, 2.8153798580169678, 1.2300511598587036, -142.2179412841797],
    [-0.07893813401460648, -0.9241183400154114, 3.7945284843444824, -25.253801345825195],
    [0.0, 0.0, 0.0, 1.0]
],
  "dcmmeta_reorient_transform": [
    [0.0, -1.0, 0.0, 79.0],
    [1.0, 0.0, 0.0, 0.0],
    [0.0, 0.0, 1.0, 0.0],
    [0.0, 0.0, 0.0, 1.0]
],
  "dcmmeta_shape": [80, 80, 32, 200],
  "dcmmeta_slice_dim": 2,
  "dcmmeta_version": 0.6,
  "global": {
    "const": {
      "AccessionNumber": "qa",
      "AcquisitionMatrix": [80, 0, 0, 80],
      "AngioFlag": "N",
      "BitsAllocated": 16,
      "BitsStored": 12,
      "BodyPartExamined": "BRAIN",
      "Columns": 480,
      "EchoNumbers": 1,
      "EchoTime": 35.0,
      "EchoTrainLength": 39,
      "FlipAngle": 90.0,
      "HighBit": 11,
      "ImageOrientationPatient": [0.98744795297333, -0.1557375401061, -0.0263127111957, 0.15621967659292, 0.93845996730067, 0.30803944945288],
      "ImagePositionPatient": [-820.07979622349, -549.83052569286, -267.29519398899],
      "ImageType": [
        "ORIGINAL",
        "PRIMARY",
        "M",
        "ND",
        "NORM",
        "MOSAIC"
],
      "ImagedNucleus": "1H",
      "ImagingFrequency": 123.252457,
      "InPlanePhaseEncodingDirection": "COL",
      "MRAcquisitionType": "2D",
      "MagneticFieldStrength": 3.0,
      "Manufacturer": "SIEMENS",
      "ManufacturerModelName": "Prisma",
      "Modality": "MR",
      "NumberOfAverages": 1.0,
      "NumberOfPhaseEncodingSteps": 79,
      "PercentPhaseFieldOfView": 100.0,
      "PercentSampling": 100.0,
      "PerformedProcedureStepStartTime": "094511.614000",
      "PhotometricInterpretation": "MONOCHROME2",
      "PixelBandwidth": 2315.0,
      "PixelRepresentation": 0,
      "PixelSpacing": [3.0, 3.0],
      "ProtocolName": "func-bold_task-rest_acq-p2-s4-3.5mm",
      "RepetitionTime": 2000.0,
      "Rows": 480,
      "SAR": 0.02092800056108,
      "SamplesPerPixel": 1,
      "ScanOptions": "FS",
      "ScanningSequence": "EP",
      "SequenceName": "*epfid2d1_80",
      "SequenceVariant": "SK",
      "SeriesDescription": "func-bold_task-rest_acq-p2-s4-3.5mm",
      "SeriesNumber": 7,
      "SeriesTime": "100713.573000",
      "SliceLocation": -65.605275688734,
      "SliceThickness": 3.5,
      "SmallestImagePixelValue": 0,
      "SoftwareVersions": "syngo MR E11",
      "SpacingBetweenSlices": 3.9899999955357,
      "SpecificCharacterSet": "ISO_IR 100",
      "StudyID": "27",
      "StudyTime": "094511.553000",
      "TransmitCoilName": "Body",
      "VariableFlipAngleFlag": "N",
      "WindowCenter": 887.0,
      "WindowCenterWidthExplanation": "Algo1",
      "dBdt": 0.0},
    "slices": {}
  },
  "time": {
    "samples": {
      "AcquisitionNumber": [1, 2, 3, 4, 5, 6, 7, 8, 9, 10, 11, 12, 13, 14, 15, 16, 17, 18, 19, 20, 21, 22, 23, 24, 25, 26, 27, 28, 29, 30, 31, 32, 33, 34, 35, 36, 37, 38, 39, 40, 41, 42, 43, 44, 45, 46, 47, 48, 49, 50, 51, 52, 53, 54, 55, 56, 57, 58, 59, 60, 61, 62, 63, 64, 65, 66, 67, 68, 69, 70, 71, 72, 73, 74, 75, 76, 77, 78, 79, 80, 81, 82, 83, 84, 85, 86, 87, 88, 89, 90, 91, 92, 93, 94, 95, 96, 97, 98, 99, 100, 101, 102, 103, 104, 105, 106, 107, 108, 109, 110, 111, 112, 113, 114, 115, 116, 117, 118, 119, 120, 121, 122, 123, 124, 125, 126, 127, 128, 129, 130, 131, 132, 133, 134, 135, 136, 137, 138, 139, 140, 141, 142, 143, 144, 145, 146, 147, 148, 149, 150, 151, 152, 153, 154, 155, 156, 157, 158, 159, 160, 161, 162, 163, 164, 165, 166, 167, 168, 169, 170, 171, 172, 173, 174, 175, 176, 177, 178, 179, 180, 181, 182, 183, 184, 185, 186, 187, 188, 189, 190, 191, 192, 193, 194, 195, 196, 197, 198, 199, 200],
      "AcquisitionTime": ["100628.135000", "100630.135000", "100632.135000", "100634.135000", "100636.135000", "100638.135000", "100640.135000", "100642.135000", "100644.135000", "100646.135000", "100648.135000", "100650.135000", "100652.135000", "100654.135000", "100656.135000", "100658.135000", "100700.135000", "100702.135000", "100704.135000", "100706.135000", "100708.135000", "100710.135000", "100712.135000", "100714.135000", "100716.135000", "100718.135000", "100720.135000", "100722.135000", "100724.135000", "100726.135000", "100728.135000", "100730.135000", "100732.135000", "100734.135000", "100736.135000", "100738.135000", "100740.135000", "100742.135000", "100744.135000", "100746.135000", "100748.135000", "100750.135000", "100752.135000", "100754.135000", "100756.135000", "100758.135000", "100800.135000", "100802.135000", "100804.135000", "100806.135000", "100808.135000", "100810.135000", "100812.135000", "100814.135000", "100816.135000", "100818.135000", "100820.135000", "100822.135000", "100824.135000", "100826.135000", "100828.135000", "100830.135000", "100832.135000", "100834.135000", "100836.135000", "100838.135000", "100840.135000", "100842.135000", "100844.135000", "100846.135000", "100848.135000", "100850.135000", "100852.135000", "100854.135000", "100856.135000", "100858.135000", "100900.135000", "100902.135000", "100904.135000", "100906.135000", "100908.135000", "100910.135000", "100912.135000", "100914.135000", "100916.135000", "100918.135000", "100920.135000", "100922.135000", "100924.135000", "100926.135000", "100928.135000", "100930.135000", "100932.135000", "100934.135000", "100936.135000", "100938.135000", "100940.135000", "100942.135000", "100944.135000", "100946.135000", "100948.135000", "100950.135000", "100952.135000", "100954.135000", "100956.135000", "100958.135000", "101000.135000", "101002.135000", "101004.135000", "101006.135000", "101008.135000", "101010.135000", "101012.135000", "101014.135000", "101016.135000", "101018.135000", "101020.135000", "101022.135000", "101024.135000", "101026.135000", "101028.135000", "101030.135000", "101032.135000", "101034.135000", "101036.135000", "101038.135000", "101040.135000", "101042.135000", "101044.135000", "101046.135000", "101048.135000", "101050.135000", "101052.135000", "101054.135000", "101056.135000", "101058.135000", "101100.135000", "101102.135000", "101104.135000", "101106.135000", "101108.135000", "101110.135000", "101112.135000", "101114.135000", "101116.135000", "101118.135000", "101120.135000", "101122.135000", "101124.135000", "101126.135000", "101128.135000", "101130.135000", "101132.135000", "101134.135000", "101136.135000", "101138.135000", "101140.135000", "101142.135000", "101144.135000", "101146.135000", "101148.135000", "101150.135000", "101152.135000", "101154.135000", "101156.135000", "101158.135000", "101200.135000", "101202.135000", "101204.135000", "101206.135000", "101208.135000", "101210.135000", "101212.135000", "101214.135000", "101216.135000", "101218.135000", "101220.135000", "101222.135000", "101224.135000", "101226.135000", "101228.135000", "101230.135000", "101232.135000", "101234.135000", "101236.135000", "101238.135000", "101240.135000", "101242.135000", "101244.135000", "101246.135000", "101248.135000", "101250.135000", "101252.135000", "101254.135000", "101256.135000", "101258.135000", "101300.135000", "101302.135000", "101304.135000", "101306.135000"],
      "ContentTime": ["100713.576000", "100713.580000", "100713.582000", "100713.585000", "100713.587000", "100713.590000", "100713.592000", "100713.601000", "100713.604000", "100713.606000", "100713.609000", "100713.616000", "100713.618000", "100713.621000", "100713.623000", "100713.626000", "100713.628000", "100713.631000", "100713.633000", "100713.636000", "100713.638000", "100713.641000", "100713.643000", "100753.556000", "100753.559000", "100753.562000", "100753.564000", "100753.567000", "100753.569000", "100753.572000", "100753.574000", "100753.577000", "100753.579000", "100753.582000", "100753.584000", "100753.587000", "100753.589000", "100753.592000", "100753.594000", "100753.597000", "100753.599000", "100753.602000", "100753.605000", "100833.556000", "100833.559000", "100833.561000", "100833.564000", "100833.567000", "100833.569000", "100833.572000", "100833.574000", "100833.577000", "100833.579000", "100833.582000", "100833.584000", "100833.591000", "100833.594000", "100833.596000", "100833.599000", "100833.601000", "100833.604000", "100833.606000", "100833.609000", "100913.556000", "100913.559000", "100913.562000", "100913.564000", "100913.567000", "100913.569000", "100913.572000", "100913.574000", "100913.577000", "100913.579000", "100913.582000", "100913.584000", "100913.587000", "100913.589000", "100913.592000", "100913.594000", "100913.597000", "100913.599000", "100913.602000", "100913.605000", "100953.556000", "100953.559000", "100953.562000", "100953.564000", "100953.567000", "100953.569000", "100953.572000", "100953.574000", "100953.577000", "100953.579000", "100953.582000", "100953.584000", "100953.587000", "100953.589000", "100953.592000", "100953.594000", "100953.597000", "100953.599000", "100953.602000", "100953.604000", "101033.556000", "101033.559000", "101033.564000", "101033.567000", "101033.569000", "101033.572000", "101033.574000", "101033.577000", "101033.579000", "101033.582000", "101033.584000", "101033.587000", "101033.589000", "101033.592000", "101033.594000", "101033.597000", "101033.600000", "101033.602000", "101033.605000", "101033.607000", "101113.557000", "101113.560000", "101113.562000", "101113.565000", "101113.567000", "101113.570000", "101113.573000", "101113.575000", "101113.578000", "101113.580000", "101113.583000", "101113.585000", "101113.588000", "101113.590000", "101113.593000", "101113.595000", "101113.598000", "101113.600000", "101113.603000", "101113.605000", "101153.556000", "101153.559000", "101153.562000", "101153.564000", "101153.567000", "101153.569000", "101153.572000", "101153.574000", "101153.577000", "101153.579000", "101153.582000", "101153.585000", "101153.587000", "101153.589000", "101153.592000", "101153.595000", "101153.597000", "101153.600000", "101153.602000", "101153.605000", "101233.556000", "101233.559000", "101233.562000", "101233.564000", "101233.567000", "101233.569000", "101233.572000", "101233.574000", "101233.577000", "101233.579000", "101233.582000", "101233.584000", "101233.587000", "101233.589000", "101233.592000", "101233.594000", "101233.597000", "101233.599000", "101233.602000", "101233.604000", "101307.413000", "101307.416000", "101307.418000", "101307.421000", "101307.424000", "101307.426000", "101307.429000", "101307.431000", "101307.434000", "101307.436000", "101307.439000", "101307.442000", "101307.445000", "101307.451000", "101307.454000", "101307.458000", "101307.461000"],
      "InstanceCreationTime": ["100713.576000", "100713.580000", "100713.582000", "100713.585000", "100713.587000", "100713.590000", "100713.592000", "100713.601000", "100713.604000", "100713.606000", "100713.609000", "100713.616000", "100713.618000", "100713.621000", "100713.623000", "100713.626000", "100713.628000", "100713.631000", "100713.633000", "100713.636000", "100713.638000", "100713.641000", "100713.643000", "100753.556000", "100753.559000", "100753.562000", "100753.564000", "100753.567000", "100753.569000", "100753.572000", "100753.574000", "100753.577000", "100753.579000", "100753.582000", "100753.584000", "100753.587000", "100753.589000", "100753.592000", "100753.594000", "100753.597000", "100753.599000", "100753.602000", "100753.605000", "100833.556000", "100833.559000", "100833.561000", "100833.564000", "100833.567000", "100833.569000", "100833.572000", "100833.574000", "100833.577000", "100833.579000", "100833.582000", "100833.584000", "100833.591000", "100833.594000", "100833.596000", "100833.599000", "100833.601000", "100833.604000", "100833.606000", "100833.609000", "100913.556000", "100913.559000", "100913.562000", "100913.564000", "100913.567000", "100913.569000", "100913.572000", "100913.574000", "100913.577000", "100913.579000", "100913.582000", "100913.584000", "100913.587000", "100913.589000", "100913.592000", "100913.594000", "100913.597000", "100913.599000", "100913.602000", "100913.605000", "100953.556000", "100953.559000", "100953.562000", "100953.564000", "100953.567000", "100953.569000", "100953.572000", "100953.574000", "100953.577000", "100953.579000", "100953.582000", "100953.584000", "100953.587000", "100953.589000", "100953.592000", "100953.594000", "100953.597000", "100953.599000", "100953.602000", "100953.604000", "101033.556000", "101033.559000", "101033.564000", "101033.567000", "101033.569000", "101033.572000", "101033.574000", "101033.577000", "101033.579000", "101033.582000", "101033.584000", "101033.587000", "101033.589000", "101033.592000", "101033.594000", "101033.597000", "101033.600000", "101033.602000", "101033.605000", "101033.607000", "101113.557000", "101113.560000", "101113.562000", "101113.565000", "101113.567000", "101113.570000", "101113.573000", "101113.575000", "101113.578000", "101113.580000", "101113.583000", "101113.585000", "101113.588000", "101113.590000", "101113.593000", "101113.595000", "101113.598000", "101113.600000", "101113.603000", "101113.605000", "101153.556000", "101153.559000", "101153.562000", "101153.564000", "101153.567000", "101153.569000", "101153.572000", "101153.574000", "101153.577000", "101153.579000", "101153.582000", "101153.585000", "101153.587000", "101153.589000", "101153.592000", "101153.595000", "101153.597000", "101153.600000", "101153.602000", "101153.605000", "101233.556000", "101233.559000", "101233.562000", "101233.564000", "101233.567000", "101233.569000", "101233.572000", "101233.574000", "101233.577000", "101233.579000", "101233.582000", "101233.584000", "101233.587000", "101233.589000", "101233.592000", "101233.594000", "101233.597000", "101233.599000", "101233.602000", "101233.604000", "101307.413000", "101307.416000", "101307.418000", "101307.421000", "101307.424000", "101307.426000", "101307.429000", "101307.431000", "101307.434000", "101307.436000", "101307.439000", "101307.442000", "101307.445000", "101307.451000", "101307.454000", "101307.458000", "101307.461000"],
      "InstanceNumber": [1, 2, 3, 4, 5, 6, 7, 8, 9, 10, 11, 12, 13, 14, 15, 16, 17, 18, 19, 20, 21, 22, 23, 24, 25, 26, 27, 28, 29, 30, 31, 32, 33, 34, 35, 36, 37, 38, 39, 40, 41, 42, 43, 44, 45, 46, 47, 48, 49, 50, 51, 52, 53, 54, 55, 56, 57, 58, 59, 60, 61, 62, 63, 64, 65, 66, 67, 68, 69, 70, 71, 72, 73, 74, 75, 76, 77, 78, 79, 80, 81, 82, 83, 84, 85, 86, 87, 88, 89, 90, 91, 92, 93, 94, 95, 96, 97, 98, 99, 100, 101, 102, 103, 104, 105, 106, 107, 108, 109, 110, 111, 112, 113, 114, 115, 116, 117, 118, 119, 120, 121, 122, 123, 124, 125, 126, 127, 128, 129, 130, 131, 132, 133, 134, 135, 136, 137, 138, 139, 140, 141, 142, 143, 144, 145, 146, 147, 148, 149, 150, 151, 152, 153, 154, 155, 156, 157, 158, 159, 160, 161, 162, 163, 164, 165, 166, 167, 168, 169, 170, 171, 172, 173, 174, 175, 176, 177, 178, 179, 180, 181, 182, 183, 184, 185, 186, 187, 188, 189, 190, 191, 192, 193, 194, 195, 196, 197, 198, 199, 200],
      "LargestImagePixelValue": [1972, 1970, 1973, 1973, 1976, 1968, 1972, 1970, 1971, 1967, 1969, 1972, 1974, 1975, 1976, 1970, 1967, 1972, 1973, 1965, 1968, 1963, 1972, 1974, 1971, 1970, 1971, 1966, 1971, 1966, 1968, 1974, 1967, 1974, 1963, 1965, 1969, 1970, 1974, 1968, 1968, 1971, 1969, 1966, 1975, 1969, 1968, 1975, 1960, 1971, 1974, 1973, 1967, 1967, 1977, 1971, 1972, 1975, 1978, 1970, 1971, 1972, 1973, 1975, 1971, 1976, 1975, 1968, 1977, 1968, 1972, 1971, 1970, 1968, 1970, 1975, 1974, 1970, 1968, 1966, 1970, 1971, 1975, 1970, 1977, 1970, 1963, 1975, 1974, 1971, 1985, 1974, 1969, 1979, 1972, 1973, 1973, 1966, 1968, 1971, 1967, 1965, 1968, 1973, 1967, 1980, 1974, 1972, 1974, 1968, 1964, 1968, 1965, 1968, 1970, 1967, 1966, 1973, 1975, 1967, 1968, 1964, 1972, 1965, 1969, 1967, 1965, 1969, 1963, 1967, 1959, 1967, 1968, 1967, 1970, 1964, 1956, 1963, 1967, 1968, 1969, 1969, 1971, 1961, 1964, 1962, 1966, 1973, 1966, 1965, 1964, 1960, 1961, 1960, 1969, 1968, 1969, 1961, 1968, 1965, 1973, 1974, 1971, 1964, 1967, 1967, 1966, 1972, 1962, 1967, 1967, 1972, 1967, 1967, 1974, 1965, 1972, 1975, 1968, 1966, 1970, 1965, 1967, 1969, 1966, 1966, 1969, 1974, 1968, 1973, 1970, 1970, 1969, 1974, 1976, 1964, 1964, 1969, 1967, 1975],
      "WindowWidth": [1985.0, 1985.0, 1985.0, 1985.0, 1985.0, 1985.0, 1985.0, 1984.0, 1985.0, 1985.0, 1985.0, 1985.0, 1985.0, 1985.0, 1985.0, 1985.0, 1985.0, 1985.0, 1985.0, 1985.0, 1985.0, 1985.0, 1985.0, 1985.0, 1985.0, 1985.0, 1985.0, 1985.0, 1985.0, 1985.0, 1985.0, 1985.0, 1985.0, 1985.0, 1985.0, 1985.0, 1985.0, 1985.0, 1985.0, 1985.0, 1985.0, 1985.0, 1985.0, 1985.0, 1984.0, 1985.0, 1985.0, 1985.0, 1985.0, 1985.0, 1985.0, 1985.0, 1985.0, 1985.0, 1985.0, 1985.0, 1985.0, 1985.0, 1985.0, 1985.0, 1985.0, 1985.0, 1985.0, 1985.0, 1985.0, 1985.0, 1985.0, 1985.0, 1985.0, 1985.0, 1985.0, 1985.0, 1985.0, 1985.0, 1985.0, 1985.0, 1985.0, 1985.0, 1985.0, 1985.0, 1985.0, 1985.0, 1985.0, 1985.0, 1985.0, 1985.0, 1985.0, 1985.0, 1985.0, 1985.0, 1985.0, 1985.0, 1985.0, 1985.0, 1985.0, 1985.0, 1985.0, 1985.0, 1985.0, 1985.0, 1985.0, 1985.0, 1985.0, 1985.0, 1985.0, 1985.0, 1985.0, 1985.0, 1985.0, 1985.0, 1985.0, 1985.0, 1985.0, 1985.0, 1985.0, 1985.0, 1985.0, 1985.0, 1985.0, 1985.0, 1985.0, 1985.0, 1985.0, 1985.0, 1985.0, 1985.0, 1985.0, 1985.0, 1985.0, 1985.0, 1985.0, 1985.0, 1985.0, 1985.0, 1985.0, 1985.0, 1985.0, 1984.0, 1985.0, 1985.0, 1985.0, 1985.0, 1985.0, 1985.0, 1985.0, 1985.0, 1985.0, 1985.0, 1985.0, 1984.0, 1985.0, 1985.0, 1984.0, 1985.0, 1985.0, 1985.0, 1985.0, 1985.0, 1985.0, 1985.0, 1985.0, 1985.0, 1985.0, 1985.0, 1985.0, 1985.0, 1985.0, 1985.0, 1985.0, 1985.0, 1985.0, 1985.0, 1985.0, 1985.0, 1985.0, 1985.0, 1985.0, 1985.0, 1985.0, 1985.0, 1985.0, 1985.0, 1984.0, 1985.0, 1985.0, 1985.0, 1985.0, 1985.0, 1985.0, 1985.0, 1985.0, 1985.0, 1985.0, 1985.0, 1985.0, 1985.0, 1985.0, 1985.0, 1985.0, 1985.0]
    },
    "slices": {}
  }
}