{
  "AcquisitionMatrixPE": 80,
  "AcquisitionNumber": 1,
  "AcquisitionTime": "10:14:16.225000",
  "BandwidthPerPixelPhaseEncode": 48.077,
  "BaseResolution": 80,
  "BodyPartExamined": "BRAIN",
  "CoilCombinationMethod": "Sum of Squares",
  "ConsistencyInfo": "N4_VE11C_LATEST_20160120",
  "ConversionSoftware": "dcm2niix",
  "ConversionSoftwareVersion": "v1.0.20220720",
  "DerivedVendorReportedEchoSpacing": 0.000519999,
  "DeviceSerialNumber": "66112",
  "DwellTime": 2.7e-06,
  "EchoTime": 0.035,
  "EchoTrainLength": 39,
  "EffectiveEchoSpacing": 0.00026,
  "FlipAngle": 90,
  "HeudiconvVersion": "0.13.1",
  "ImageOrientationPatientDICOM": [0.999763, 0.0112702, -0.0186148, -0.00610728, 0.966372, 0.257075],
  "ImageOrientationText": "Tra>Cor(14.9)>Sag(-1.2)",
  "ImageType": [
    "ORIGINAL",
    "PRIMARY",
    "M",
    "ND",
    "NORM",
    "MOSAIC"
],
  "ImagingFrequency": 123.252,
  "InPlanePhaseEncodingDirectionDICOM": "COL",
  "InstitutionAddress": "Maynard 3,Hanover,NH,US,03755",
  "InstitutionName": "Dartmouth College - PBS",
  "InstitutionalDepartmentName": "Department",
  "MRAcquisitionType": "2D",
  "MagneticFieldStrength": 3,
  "Manufacturer": "Siemens",
  "ManufacturersModelName": "Prisma",
  "MatrixCoilMode": "GRAPPA",
  "Modality": "MR",
  "NonlinearGradientCorrection": false,
  "ParallelReductionFactorInPlane": 2,
  "PartialFourier": 1,
  "PatientPosition": "HFS",
  "PercentPhaseFOV": 100,
  "PercentSampling": 100,
  "PhaseEncodingDirection": "j-",
  "PhaseEncodingSteps": 79,
  "PhaseResolution": 1,
  "PixelBandwidth": 2315,
  "ProcedureStepDescription": "dbic^QA",
  "ProtocolName": "func-bold_task-rest_acq-p2",
  "PulseSequenceDetails": "%SiemensSeq%\\ep2d_bold",
  "ReceiveCoilActiveElements": "HC1-7;NC1,2",
  "ReceiveCoilName": "HeadNeck_64",
  "ReconMatrixPE": 80,
  "RefLinesPE": 24,
  "RepetitionTime": 2,
  "SAR": 0.0362099,
  "ScanOptions": "FS",
  "ScanningSequence": "EP",
  "SequenceName": "*epfid2d1_80",
  "SequenceVariant": "SK",
  "SeriesDescription": "func-bold_task-rest_acq-p2",
  "SeriesNumber": 5,
  "ShimSetting": [4139, -7679, -7502, 172, -44, -355, -86, 98],
  "SliceThickness": 3.5,
  "SliceTiming": [0.99, 0, 1.055, 0.065, 1.1225, 0.1325, 1.1875, 0.1975, 1.2525, 0.2625, 1.32, 0.33, 1.385, 0.395, 1.4525, 0.4625, 1.5175, 0.5275, 1.5825, 0.5925, 1.65, 0.66, 1.715, 0.725, 1.78, 0.7925, 1.8475, 0.8575, 1.9125, 0.9225],
  "SoftwareVersions": "syngo MR E11",
  "SpacingBetweenSlices": 3.99,
  "StationName": "AWP66112",
  "TaskName": "rest",
  "TotalReadoutTime": 0.02054,
  "TxRefAmp": 214.731,
  "dcmmeta_affine": [
    [-2.9992895126342773, -0.018321847543120384, -0.0833355039358139, 123.10317993164062],
    [-0.033810656517744064, 2.8991167545318604, 1.0250319242477417, -125.70098114013672],
    [-0.055844325572252274, -0.7712243795394897, 3.855186939239502, -46.43639373779297],
    [0.0, 0.0, 0.0, 1.0]
],
  "dcmmeta_reorient_transform": [
    [0.0, -1.0, 0.0, 79.0],
    [1.0, 0.0, 0.0, 0.0],
    [0.0, 0.0, 1.0, 0.0],
    [0.0, 0.0, 0.0, 1.0]
],
  "dcmmeta_shape": [80, 80, 30, 200],
  "dcmmeta_slice_dim": 2,
  "dcmmeta_version": 0.6,
  "global": {
    "const": {
      "AccessionNumber": "qa64",
      "AcquisitionMatrix": [80, 0, 0, 80],
      "AngioFlag": "N",
      "BitsAllocated": 16,
      "BitsStored": 12,
      "BodyPartExamined": "BRAIN",
      "Columns": 480,
      "EchoNumbers": 1,
      "EchoTime": 35.0,
      "EchoTrainLength": 39,
      "FlipAngle": 90.0,
      "HighBit": 11,
      "ImageOrientationPatient": [0.99976320813812, 0.01127021830678, -0.018614774581, -0.0061072827973, 0.96637221398961, 0.25707478508336],
      "ImagePositionPatient": [-717.84930802393, -689.91469057377, -250.43912473697],
      "ImageType": [
        "ORIGINAL",
        "PRIMARY",
        "M",
        "ND",
        "NORM",
        "MOSAIC"
],
      "ImagedNucleus": "1H",
      "ImagingFrequency": 123.252357,
      "InPlanePhaseEncodingDirection": "COL",
      "LargestImagePixelValue": 4095,
      "MRAcquisitionType": "2D",
      "MagneticFieldStrength": 3.0,
      "Manufacturer": "SIEMENS",
      "ManufacturerModelName": "Prisma",
      "Modality": "MR",
      "NumberOfAverages": 1.0,
      "NumberOfPhaseEncodingSteps": 79,
      "PercentPhaseFieldOfView": 100.0,
      "PercentSampling": 100.0,
      "PerformedProcedureStepStartTime": "101218.842000",
      "PhotometricInterpretation": "MONOCHROME2",
      "PixelBandwidth": 2315.0,
      "PixelRepresentation": 0,
      "PixelSpacing": [3.0, 3.0],
      "ProtocolName": "func-bold_task-rest_acq-p2",
      "RepetitionTime": 2000.0,
      "Rows": 480,
      "SAR": 0.03620987378265,
      "SamplesPerPixel": 1,
      "ScanOptions": "FS",
      "ScanningSequence": "EP",
      "SequenceName": "*epfid2d1_80",
      "SequenceVariant": "SK",
      "SeriesDescription": "func-bold_task-rest_acq-p2",
      "SeriesNumber": 5,
      "SeriesTime": "101503.788000",
      "SliceLocation": -79.731166630203,
      "SliceThickness": 3.5,
      "SmallestImagePixelValue": 0,
      "SoftwareVersions": "syngo MR E11",
      "SpacingBetweenSlices": 3.9900001165894,
      "SpecificCharacterSet": "ISO_IR 100",
      "StudyID": "20",
      "StudyTime": "101218.767000",
      "TransmitCoilName": "Body",
      "VariableFlipAngleFlag": "N",
      "WindowCenterWidthExplanation": "Algo1",
      "dBdt": 0.0},
    "slices": {}
  },
  "time": {
    "samples": {
      "AcquisitionNumber": [1, 2, 3, 4, 5, 6, 7, 8, 9, 10, 11, 12, 13, 14, 15, 16, 17, 18, 19, 20, 21, 22, 23, 24, 25, 26, 27, 28, 29, 30, 31, 32, 33, 34, 35, 36, 37, 38, 39, 40, 41, 42, 43, 44, 45, 46, 47, 48, 49, 50, 51, 52, 53, 54, 55, 56, 57, 58, 59, 60, 61, 62, 63, 64, 65, 66, 67, 68, 69, 70, 71, 72, 73, 74, 75, 76, 77, 78, 79, 80, 81, 82, 83, 84, 85, 86, 87, 88, 89, 90, 91, 92, 93, 94, 95, 96, 97, 98, 99, 100, 101, 102, 103, 104, 105, 106, 107, 108, 109, 110, 111, 112, 113, 114, 115, 116, 117, 118, 119, 120, 121, 122, 123, 124, 125, 126, 127, 128, 129, 130, 131, 132, 133, 134, 135, 136, 137, 138, 139, 140, 141, 142, 143, 144, 145, 146, 147, 148, 149, 150, 151, 152, 153, 154, 155, 156, 157, 158, 159, 160, 161, 162, 163, 164, 165, 166, 167, 168, 169, 170, 171, 172, 173, 174, 175, 176, 177, 178, 179, 180, 181, 182, 183, 184, 185, 186, 187, 188, 189, 190, 191, 192, 193, 194, 195, 196, 197, 198, 199, 200],
      "AcquisitionTime": ["101416.225000", "101418.225000", "101420.225000", "101422.225000", "101424.225000", "101426.225000", "101428.225000", "101430.225000", "101432.225000", "101434.225000", "101436.225000", "101438.225000", "101440.225000", "101442.225000", "101444.225000", "101446.225000", "101448.225000", "101450.225000", "101452.225000", "101454.225000", "101456.225000", "101458.225000", "101500.225000", "101502.225000", "101504.225000", "101506.225000", "101508.225000", "101510.225000", "101512.225000", "101514.225000", "101516.225000", "101518.225000", "101520.225000", "101522.225000", "101524.225000", "101526.225000", "101528.225000", "101530.225000", "101532.225000", "101534.225000", "101536.225000", "101538.225000", "101540.225000", "101542.225000", "101544.225000", "101546.225000", "101548.225000", "101550.225000", "101552.225000", "101554.225000", "101556.225000", "101558.225000", "101600.225000", "101602.225000", "101604.225000", "101606.225000", "101608.225000", "101610.225000", "101612.225000", "101614.225000", "101616.225000", "101618.225000", "101620.225000", "101622.225000", "101624.225000", "101626.225000", "101628.225000", "101630.225000", "101632.225000", "101634.225000", "101636.225000", "101638.225000", "101640.225000", "101642.225000", "101644.225000", "101646.225000", "101648.225000", "101650.225000", "101652.225000", "101654.225000", "101656.225000", "101658.225000", "101700.225000", "101702.225000", "101704.225000", "101706.225000", "101708.225000", "101710.225000", "101712.225000", "101714.225000", "101716.225000", "101718.225000", "101720.225000", "101722.225000", "101724.225000", "101726.225000", "101728.225000", "101730.225000", "101732.225000", "101734.225000", "101736.225000", "101738.225000", "101740.225000", "101742.225000", "101744.225000", "101746.225000", "101748.225000", "101750.225000", "101752.225000", "101754.225000", "101756.225000", "101758.225000", "101800.225000", "101802.225000", "101804.225000", "101806.225000", "101808.225000", "101810.225000", "101812.225000", "101814.225000", "101816.225000", "101818.225000", "101820.225000", "101822.225000", "101824.225000", "101826.225000", "101828.225000", "101830.225000", "101832.225000", "101834.225000", "101836.225000", "101838.225000", "101840.225000", "101842.225000", "101844.225000", "101846.225000", "101848.225000", "101850.225000", "101852.225000", "101854.225000", "101856.225000", "101858.225000", "101900.225000", "101902.225000", "101904.225000", "101906.225000", "101908.225000", "101910.225000", "101912.225000", "101914.225000", "101916.225000", "101918.225000", "101920.225000", "101922.225000", "101924.225000", "101926.225000", "101928.225000", "101930.225000", "101932.225000", "101934.225000", "101936.225000", "101938.225000", "101940.225000", "101942.225000", "101944.225000", "101946.225000", "101948.225000", "101950.225000", "101952.225000", "101954.225000", "101956.225000", "101958.225000", "102000.225000", "102002.225000", "102004.225000", "102006.225000", "102008.225000", "102010.225000", "102012.225000", "102014.225000", "102016.225000", "102018.225000", "102020.225000", "102022.225000", "102024.225000", "102026.225000", "102028.225000", "102030.225000", "102032.225000", "102034.225000", "102036.225000", "102038.225000", "102040.225000", "102042.225000", "102044.225000", "102046.225000", "102048.225000", "102050.225000", "102052.225000", "102054.225000"],
      "ContentTime": ["101503.792000", "101503.795000", "101503.798000", "101503.801000", "101503.803000", "101503.806000", "101503.809000", "101503.811000", "101503.814000", "101503.817000", "101503.819000", "101503.822000", "101503.824000", "101503.827000", "101503.830000", "101503.841000", "101503.844000", "101503.847000", "101503.849000", "101503.852000", "101503.854000", "101503.857000", "101503.860000", "101543.787000", "101543.789000", "101543.792000", "101543.795000", "101543.797000", "101543.800000", "101543.802000", "101543.805000", "101543.808000", "101543.810000", "101543.813000", "101543.816000", "101543.819000", "101543.821000", "101543.824000", "101543.826000", "101543.829000", "101543.832000", "101543.834000", "101543.837000", "101623.786000", "101623.789000", "101623.792000", "101623.795000", "101623.797000", "101623.800000", "101623.802000", "101623.805000", "101623.808000", "101623.810000", "101623.813000", "101623.816000", "101623.818000", "101623.821000", "101623.824000", "101623.826000", "101623.829000", "101623.831000", "101623.834000", "101623.837000", "101703.787000", "101703.789000", "101703.792000", "101703.795000", "101703.797000", "101703.800000", "101703.802000", "101703.805000", "101703.808000", "101703.810000", "101703.813000", "101703.816000", "101703.818000", "101703.821000", "101703.824000", "101703.826000", "101703.829000", "101703.832000", "101703.834000", "101703.837000", "101743.787000", "101743.790000", "101743.793000", "101743.796000", "101743.798000", "101743.801000", "101743.804000", "101743.806000", "101743.809000", "101743.812000", "101743.814000", "101743.817000", "101743.819000", "101743.822000", "101743.825000", "101743.827000", "101743.830000", "101743.832000", "101743.835000", "101743.838000", "101823.786000", "101823.789000", "101823.792000", "101823.795000", "101823.797000", "101823.800000", "101823.802000", "101823.805000", "101823.808000", "101823.810000", "101823.813000", "101823.816000", "101823.818000", "101823.821000", "101823.824000", "101823.826000", "101823.829000", "101823.832000", "101823.834000", "101823.837000", "101903.787000", "101903.789000", "101903.792000", "101903.795000", "101903.797000", "101903.800000", "101903.803000", "101903.805000", "101903.808000", "101903.811000", "101903.813000", "101903.816000", "101903.819000", "101903.821000", "101903.824000", "101903.827000", "101903.829000", "101903.832000", "101903.834000", "101903.837000", "101943.787000", "101943.789000", "101943.792000", "101943.795000", "101943.797000", "101943.800000", "101943.803000", "101943.805000", "101943.808000", "101943.811000", "101943.813000", "101943.816000", "101943.819000", "101943.821000", "101943.824000", "101943.827000", "101943.829000", "101943.832000", "101943.834000", "101943.837000", "102023.786000", "102023.789000", "102023.792000", "102023.795000", "102023.797000", "102023.800000", "102023.803000", "102023.805000", "102023.808000", "102023.810000", "102023.813000", "102023.816000", "102023.818000", "102023.821000", "102023.824000", "102023.827000", "102023.829000", "102023.832000", "102023.834000", "102023.837000", "102056.214000", "102056.217000", "102056.220000", "102056.222000", "102056.225000", "102056.228000", "102056.230000", "102056.233000", "102056.236000", "102056.238000", "102056.241000", "102056.245000", "102056.248000", "102056.252000", "102056.255000", "102056.258000", "102056.264000"],
      "InstanceCreationTime": ["101503.792000", "101503.795000", "101503.798000", "101503.801000", "101503.803000", "101503.806000", "101503.809000", "101503.811000", "101503.814000", "101503.817000", "101503.819000", "101503.822000", "101503.824000", "101503.827000", "101503.830000", "101503.841000", "101503.844000", "101503.847000", "101503.849000", "101503.852000", "101503.854000", "101503.857000", "101503.860000", "101543.787000", "101543.789000", "101543.792000", "101543.795000", "101543.797000", "101543.800000", "101543.802000", "101543.805000", "101543.808000", "101543.810000", "101543.813000", "101543.816000", "101543.819000", "101543.821000", "101543.824000", "101543.826000", "101543.829000", "101543.832000", "101543.834000", "101543.837000", "101623.786000", "101623.789000", "101623.792000", "101623.795000", "101623.797000", "101623.800000", "101623.802000", "101623.805000", "101623.808000", "101623.810000", "101623.813000", "101623.816000", "101623.818000", "101623.821000", "101623.824000", "101623.826000", "101623.829000", "101623.831000", "101623.834000", "101623.837000", "101703.787000", "101703.789000", "101703.792000", "101703.795000", "101703.797000", "101703.800000", "101703.802000", "101703.805000", "101703.808000", "101703.810000", "101703.813000", "101703.816000", "101703.818000", "101703.821000", "101703.824000", "101703.826000", "101703.829000", "101703.832000", "101703.834000", "101703.837000", "101743.787000", "101743.790000", "101743.793000", "101743.796000", "101743.798000", "101743.801000", "101743.804000", "101743.806000", "101743.809000", "101743.812000", "101743.814000", "101743.817000", "101743.819000", "101743.822000", "101743.825000", "101743.827000", "101743.830000", "101743.832000", "101743.835000", "101743.838000", "101823.786000", "101823.789000", "101823.792000", "101823.795000", "101823.797000", "101823.800000", "101823.802000", "101823.805000", "101823.808000", "101823.810000", "101823.813000", "101823.816000", "101823.818000", "101823.821000", "101823.824000", "101823.826000", "101823.829000", "101823.832000", "101823.834000", "101823.837000", "101903.787000", "101903.789000", "101903.792000", "101903.795000", "101903.797000", "101903.800000", "101903.803000", "101903.805000", "101903.808000", "101903.811000", "101903.813000", "101903.816000", "101903.819000", "101903.821000", "101903.824000", "101903.827000", "101903.829000", "101903.832000", "101903.834000", "101903.837000", "101943.787000", "101943.789000", "101943.792000", "101943.795000", "101943.797000", "101943.800000", "101943.803000", "101943.805000", "101943.808000", "101943.811000", "101943.813000", "101943.816000", "101943.819000", "101943.821000", "101943.824000", "101943.827000", "101943.829000", "101943.832000", "101943.834000", "101943.837000", "102023.786000", "102023.789000", "102023.792000", "102023.795000", "102023.797000", "102023.800000", "102023.803000", "102023.805000", "102023.808000", "102023.810000", "102023.813000", "102023.816000", "102023.818000", "102023.821000", "102023.824000", "102023.827000", "102023.829000", "102023.832000", "102023.834000", "102023.837000", "102056.214000", "102056.217000", "102056.220000", "102056.222000", "102056.225000", "102056.228000", "102056.230000", "102056.233000", "102056.236000", "102056.238000", "102056.241000", "102056.245000", "102056.248000", "102056.252000", "102056.255000", "102056.258000", "102056.264000"],
      "InstanceNumber": [1, 2, 3, 4, 5, 6, 7, 8, 9, 10, 11, 12, 13, 14, 15, 16, 17, 18, 19, 20, 21, 22, 23, 24, 25, 26, 27, 28, 29, 30, 31, 32, 33, 34, 35, 36, 37, 38, 39, 40, 41, 42, 43, 44, 45, 46, 47, 48, 49, 50, 51, 52, 53, 54, 55, 56, 57, 58, 59, 60, 61, 62, 63, 64, 65, 66, 67, 68, 69, 70, 71, 72, 73, 74, 75, 76, 77, 78, 79, 80, 81, 82, 83, 84, 85, 86, 87, 88, 89, 90, 91, 92, 93, 94, 95, 96, 97, 98, 99, 100, 101, 102, 103, 104, 105, 106, 107, 108, 109, 110, 111, 112, 113, 114, 115, 116, 117, 118, 119, 120, 121, 122, 123, 124, 125, 126, 127, 128, 129, 130, 131, 132, 133, 134, 135, 136, 137, 138, 139, 140, 141, 142, 143, 144, 145, 146, 147, 148, 149, 150, 151, 152, 153, 154, 155, 156, 157, 158, 159, 160, 161, 162, 163, 164, 165, 166, 167, 168, 169, 170, 171, 172, 173, 174, 175, 176, 177, 178, 179, 180, 181, 182, 183, 184, 185, 186, 187, 188, 189, 190, 191, 192, 193, 194, 195, 196, 197, 198, 199, 200],
      "WindowCenter": [1529.0, 1528.0, 1528.0, 1529.0, 1528.0, 1528.0, 1529.0, 1529.0, 1528.0, 1527.0, 1527.0, 1527.0, 1528.0, 1527.0, 1526.0, 1526.0, 1527.0, 1527.0, 1527.0, 1526.0, 1527.0, 1527.0, 1526.0, 1526.0, 1526.0, 1527.0, 1526.0, 1525.0, 1527.0, 1526.0, 1526.0, 1525.0, 1526.0, 1526.0, 1525.0, 1525.0, 1525.0, 1524.0, 1525.0, 1525.0, 1524.0, 1525.0, 1526.0, 1524.0, 1524.0, 1524.0, 1524.0, 1525.0, 1524.0, 1524.0, 1525.0, 1525.0, 1525.0, 1525.0, 1525.0, 1523.0, 1524.0, 1524.0, 1524.0, 1524.0, 1524.0, 1523.0, 1523.0, 1524.0, 1523.0, 1523.0, 1523.0, 1524.0, 1523.0, 1523.0, 1523.0, 1524.0, 1523.0, 1523.0, 1524.0, 1523.0, 1523.0, 1524.0, 1524.0, 1523.0, 1523.0, 1523.0, 1523.0, 1523.0, 1523.0, 1523.0, 1523.0, 1523.0, 1524.0, 1523.0, 1523.0, 1523.0, 1522.0, 1523.0, 1523.0, 1523.0, 1523.0, 1522.0, 1522.0, 1522.0, 1523.0, 1523.0, 1523.0, 1522.0, 1522.0, 1522.0, 1522.0, 1523.0, 1523.0, 1522.0, 1521.0, 1522.0, 1522.0, 1521.0, 1522.0, 1521.0, 1522.0, 1522.0, 1521.0, 1521.0, 1521.0, 1522.0, 1521.0, 1521.0, 1521.0, 1521.0, 1520.0, 1521.0, 1521.0, 1521.0, 1521.0, 1521.0, 1521.0, 1521.0, 1521.0, 1521.0, 1520.0, 1520.0, 1521.0, 1521.0, 1520.0, 1519.0, 1521.0, 1522.0, 1521.0, 1521.0, 1521.0, 1520.0, 1520.0, 1521.0, 1520.0, 1521.0, 1520.0, 1520.0, 1521.0, 1521.0, 1519.0, 1520.0, 1520.0, 1521.0, 1521.0, 1520.0, 1519.0, 1521.0, 1520.0, 1519.0, 1520.0, 1520.0, 1519.0, 1519.0, 1519.0, 1520.0, 1520.0, 1519.0, 1519.0, 1520.0, 1520.0, 1520.0, 1519.0, 1519.0, 1519.0, 1520.0, 1519.0, 1519.0, 1519.0, 1519.0, 1519.0, 1519.0, 1519.0, 1520.0, 1518.0, 1519.0, 1518.0, 1519.0, 1519.0, 1519.0, 1518.0, 1519.0, 1519.0, 1519.0],
      "WindowWidth": [3432.0, 3431.0, 3431.0, 3431.0, 3431.0, 3431.0, 3430.0, 3430.0, 3430.0, 3430.0, 3430.0, 3430.0, 3430.0, 3430.0, 3430.0, 3431.0, 3430.0, 3430.0, 3430.0, 3431.0, 3430.0, 3430.0, 3429.0, 3430.0, 3431.0, 3430.0, 3431.0, 3430.0, 3430.0, 3431.0, 3431.0, 3430.0, 3430.0, 3430.0, 3430.0, 3430.0, 3430.0, 3430.0, 3430.0, 3430.0, 3430.0, 3430.0, 3429.0, 3430.0, 3430.0, 3430.0, 3430.0, 3430.0, 3430.0, 3430.0, 3429.0, 3429.0, 3429.0, 3429.0, 3429.0, 3429.0, 3429.0, 3429.0, 3429.0, 3429.0, 3429.0, 3429.0, 3429.0, 3429.0, 3429.0, 3429.0, 3429.0, 3428.0, 3429.0, 3429.0, 3429.0, 3428.0, 3428.0, 3428.0, 3428.0, 3428.0, 3428.0, 3428.0, 3428.0, 3428.0, 3428.0, 3428.0, 3428.0, 3428.0, 3428.0, 3428.0, 3428.0, 3428.0, 3428.0, 3428.0, 3428.0, 3428.0, 3428.0, 3428.0, 3428.0, 3428.0, 3427.0, 3428.0, 3428.0, 3428.0, 3427.0, 3427.0, 3427.0, 3427.0, 3427.0, 3427.0, 3427.0, 3427.0, 3427.0, 3427.0, 3427.0, 3427.0, 3427.0, 3427.0, 3427.0, 3427.0, 3427.0, 3427.0, 3427.0, 3427.0, 3427.0, 3427.0, 3427.0, 3427.0, 3426.0, 3426.0, 3427.0, 3426.0, 3426.0, 3426.0, 3426.0, 3426.0, 3426.0, 3426.0, 3426.0, 3426.0, 3426.0, 3426.0, 3426.0, 3426.0, 3426.0, 3426.0, 3426.0, 3426.0, 3426.0, 3426.0, 3426.0, 3426.0, 3426.0, 3426.0, 3426.0, 3426.0, 3426.0, 3426.0, 3426.0, 3426.0, 3426.0, 3426.0, 3426.0, 3426.0, 3426.0, 3426.0, 3426.0, 3425.0, 3425.0, 3425.0, 3425.0, 3425.0, 3425.0, 3425.0, 3425.0, 3425.0, 3425.0, 3425.0, 3425.0, 3425.0, 3425.0, 3425.0, 3425.0, 3425.0, 3425.0, 3425.0, 3426.0, 3425.0, 3425.0, 3425.0, 3425.0, 3425.0, 3425.0, 3425.0, 3425.0, 3424.0, 3424.0, 3425.0, 3425.0, 3424.0, 3424.0, 3424.0, 3424.0, 3424.0]
    },
    "slices": {}
  }
}