{
  "AcquisitionMatrixPE": 80,
  "AcquisitionNumber": 1,
  "AcquisitionTime": "10:34:18.457500",
  "BandwidthPerPixelPhaseEncode": 25,
  "BaseResolution": 80,
  "BodyPartExamined": "BRAIN",
  "CoilCombinationMethod": "Sum of Squares",
  "ConsistencyInfo": "N4_VE11E_LATEST_20181129",
  "ConversionSoftware": "dcm2niix",
  "ConversionSoftwareVersion": "v1.0.20220720",
  "DerivedVendorReportedEchoSpacing": 0.0005,
  "DeviceSerialNumber": "66112",
  "DwellTime": 2.7e-06,
  "EchoTime": 0.03,
  "EchoTrainLength": 80,
  "EffectiveEchoSpacing": 0.0005,
  "FlipAngle": 10,
  "HeudiconvVersion": "0.13.1",
  "ImageOrientationPatientDICOM": [0.987776, -0.155867, 0.00190677, 0.147977, 0.941475, 0.302865],
  "ImageOrientationText": "Tra>Cor(17.4)>Sag(2.8)",
  "ImageType": [
    "ORIGINAL",
    "PRIMARY",
    "M",
    "ND",
    "NORM",
    "MOSAIC"
],
  "ImagingFrequency": 123.259,
  "InPlanePhaseEncodingDirectionDICOM": "COL",
  "InstitutionAddress": "Maynard 3,Hanover,NH,US,03755",
  "InstitutionName": "Dartmouth College - PBS",
  "InstitutionalDepartmentName": "Department",
  "MRAcquisitionType": "2D",
  "MagneticFieldStrength": 3,
  "Manufacturer": "Siemens",
  "ManufacturersModelName": "Prisma",
  "MatrixCoilMode": "SENSE",
  "Modality": "MR",
  "NonlinearGradientCorrection": false,
  "PartialFourier": 1,
  "PatientPosition": "HFS",
  "PercentPhaseFOV": 100,
  "PercentSampling": 100,
  "PhaseEncodingDirection": "j-",
  "PhaseEncodingSteps": 80,
  "PhaseResolution": 1,
  "PixelBandwidth": 2315,
  "ProcedureStepDescription": "dbic^QA",
  "ProtocolName": "func-bold_fa-10",
  "PulseSequenceDetails": "%SiemensSeq%\\ep2d_bold",
  "ReceiveCoilActiveElements": "HEA;HEP",
  "ReceiveCoilName": "Head_32",
  "ReconMatrixPE": 80,
  "RepetitionTime": 2,
  "SAR": 0.0112787,
  "ScanOptions": "FS",
  "ScanningSequence": "EP",
  "SequenceName": "*epfid2d1_80",
  "SequenceVariant": "SK",
  "SeriesDescription": "func-bold_fa-10",
  "SeriesNumber": 10,
  "ShimSetting": [4219, -7739, -7488, -12, -151, 27, 44, 60],
  "SliceThickness": 3.5,
  "SliceTiming": [0.99, 0, 1.055, 0.0675, 1.1225, 0.1325, 1.1875, 0.1975, 1.255, 0.265, 1.32, 0.33, 1.385, 0.3975, 1.4525, 0.4625, 1.5175, 0.5275, 1.585, 0.595, 1.65, 0.66, 1.715, 0.725, 1.7825, 0.7925, 1.8475, 0.8575, 1.915, 0.925],
  "SoftwareVersions": "syngo MR E11",
  "SpacingBetweenSlices": 3.99,
  "StationName": "AWP66112",
  "TotalReadoutTime": 0.0395,
  "TxRefAmp": 229.883,
  "dcmmeta_affine": [
    [-2.9633283615112305, 0.44392988085746765, 0.1955178827047348, 97.19158172607422],
    [0.4676021337509155, 2.82442569732666, 1.1925344467163086, -141.91661071777344],
    [0.0057203080505132675, -0.9085954427719116, 3.802595853805542, -6.459343433380127],
    [0.0, 0.0, 0.0, 1.0]
],
  "dcmmeta_reorient_transform": [
    [0.0, -1.0, 0.0, 79.0],
    [1.0, 0.0, 0.0, 0.0],
    [0.0, 0.0, 1.0, 0.0],
    [0.0, 0.0, 0.0, 1.0]
],
  "dcmmeta_shape": [80, 80, 30, 200],
  "dcmmeta_slice_dim": 2,
  "dcmmeta_version": 0.6,
  "global": {
    "const": {
      "AccessionNumber": "qa",
      "AcquisitionMatrix": [80, 0, 0, 80],
      "AngioFlag": "N",
      "BitsAllocated": 16,
      "BitsStored": 12,
      "BodyPartExamined": "BRAIN",
      "Columns": 480,
      "EchoNumbers": 1,
      "EchoTime": 30.0,
      "EchoTrainLength": 80,
      "FlipAngle": 10.0,
      "HighBit": 11,
      "ImageOrientationPatient": [0.98777615066075, -0.1558673808619, 0.00190676927485, 0.14797662954811, 0.94147523783752, 0.30286514102217],
      "ImagePositionPatient": [-813.71370814076, -552.57773194307, -261.10152782475],
      "ImageType": [
        "ORIGINAL",
        "PRIMARY",
        "M",
        "ND",
        "NORM",
        "MOSAIC"
],
      "ImagedNucleus": "1H",
      "ImagingFrequency": 123.259229,
      "InPlanePhaseEncodingDirection": "COL",
      "MRAcquisitionType": "2D",
      "MagneticFieldStrength": 3.0,
      "Manufacturer": "SIEMENS",
      "ManufacturerModelName": "Prisma",
      "Modality": "MR",
      "NumberOfAverages": 1.0,
      "NumberOfPhaseEncodingSteps": 80,
      "PercentPhaseFieldOfView": 100.0,
      "PercentSampling": 100.0,
      "PerformedProcedureStepStartTime": "101216.540000",
      "PhotometricInterpretation": "MONOCHROME2",
      "PixelBandwidth": 2315.0,
      "PixelRepresentation": 0,
      "PixelSpacing": [3.0, 3.0],
      "ProtocolName": "func-bold_fa-10",
      "RepetitionTime": 2000.0,
      "Rows": 480,
      "SAR": 0.01127872252399,
      "SamplesPerPixel": 1,
      "ScanOptions": "FS",
      "ScanningSequence": "EP",
      "SequenceName": "*epfid2d1_80",
      "SequenceVariant": "SK",
      "SeriesDescription": "func-bold_fa-10",
      "SeriesNumber": 10,
      "SeriesTime": "103518.109000",
      "SliceLocation": -43.809530451973,
      "SliceThickness": 3.5,
      "SmallestImagePixelValue": 0,
      "SoftwareVersions": "syngo MR E11",
      "SpacingBetweenSlices": 3.9900001286268,
      "SpecificCharacterSet": "ISO_IR 100",
      "StudyID": "22",
      "StudyTime": "101216.481000",
      "TransmitCoilName": "Body",
      "VariableFlipAngleFlag": "N",
      "WindowCenterWidthExplanation": "Algo1"
    },
    "slices": {}
  },
  "time": {
    "samples": {
      "AcquisitionNumber": [1, 2, 3, 4, 5, 6, 7, 8, 9, 10, 11, 12, 13, 14, 15, 16, 17, 18, 19, 20, 21, 22, 23, 24, 25, 26, 27, 28, 29, 30, 31, 32, 33, 34, 35, 36, 37, 38, 39, 40, 41, 42, 43, 44, 45, 46, 47, 48, 49, 50, 51, 52, 53, 54, 55, 56, 57, 58, 59, 60, 61, 62, 63, 64, 65, 66, 67, 68, 69, 70, 71, 72, 73, 74, 75, 76, 77, 78, 79, 80, 81, 82, 83, 84, 85, 86, 87, 88, 89, 90, 91, 92, 93, 94, 95, 96, 97, 98, 99, 100, 101, 102, 103, 104, 105, 106, 107, 108, 109, 110, 111, 112, 113, 114, 115, 116, 117, 118, 119, 120, 121, 122, 123, 124, 125, 126, 127, 128, 129, 130, 131, 132, 133, 134, 135, 136, 137, 138, 139, 140, 141, 142, 143, 144, 145, 146, 147, 148, 149, 150, 151, 152, 153, 154, 155, 156, 157, 158, 159, 160, 161, 162, 163, 164, 165, 166, 167, 168, 169, 170, 171, 172, 173, 174, 175, 176, 177, 178, 179, 180, 181, 182, 183, 184, 185, 186, 187, 188, 189, 190, 191, 192, 193, 194, 195, 196, 197, 198, 199, 200],
      "AcquisitionTime": ["103418.457500", "103420.457500", "103422.457500", "103424.457500", "103426.457500", "103428.457500", "103430.457500", "103432.457500", "103434.457500", "103436.457500", "103438.457500", "103440.457500", "103442.457500", "103444.457500", "103446.457500", "103448.457500", "103450.457500", "103452.457500", "103454.457500", "103456.457500", "103458.457500", "103500.457500", "103502.457500", "103504.457500", "103506.457500", "103508.457500", "103510.457500", "103512.457500", "103514.457500", "103516.457500", "103518.457500", "103520.457500", "103522.457500", "103524.457500", "103526.457500", "103528.457500", "103530.457500", "103532.457500", "103534.457500", "103536.457500", "103538.457500", "103540.457500", "103542.457500", "103544.457500", "103546.457500", "103548.457500", "103550.457500", "103552.457500", "103554.457500", "103556.457500", "103558.457500", "103600.457500", "103602.457500", "103604.457500", "103606.457500", "103608.457500", "103610.457500", "103612.457500", "103614.457500", "103616.457500", "103618.457500", "103620.457500", "103622.457500", "103624.457500", "103626.457500", "103628.457500", "103630.457500", "103632.457500", "103634.457500", "103636.457500", "103638.457500", "103640.457500", "103642.457500", "103644.457500", "103646.457500", "103648.457500", "103650.457500", "103652.457500", "103654.457500", "103656.457500", "103658.457500", "103700.457500", "103702.457500", "103704.457500", "103706.457500", "103708.457500", "103710.457500", "103712.457500", "103714.457500", "103716.457500", "103718.457500", "103720.457500", "103722.457500", "103724.457500", "103726.457500", "103728.457500", "103730.457500", "103732.457500", "103734.457500", "103736.457500", "103738.457500", "103740.457500", "103742.457500", "103744.457500", "103746.457500", "103748.457500", "103750.457500", "103752.457500", "103754.457500", "103756.457500", "103758.457500", "103800.457500", "103802.457500", "103804.457500", "103806.457500", "103808.457500", "103810.457500", "103812.457500", "103814.457500", "103816.457500", "103818.457500", "103820.457500", "103822.457500", "103824.457500", "103826.457500", "103828.457500", "103830.457500", "103832.457500", "103834.457500", "103836.457500", "103838.457500", "103840.457500", "103842.457500", "103844.457500", "103846.457500", "103848.457500", "103850.457500", "103852.457500", "103854.457500", "103856.457500", "103858.457500", "103900.457500", "103902.457500", "103904.457500", "103906.457500", "103908.457500", "103910.457500", "103912.457500", "103914.457500", "103916.457500", "103918.457500", "103920.457500", "103922.457500", "103924.457500", "103926.457500", "103928.457500", "103930.457500", "103932.457500", "103934.457500", "103936.457500", "103938.457500", "103940.457500", "103942.457500", "103944.457500", "103946.457500", "103948.457500", "103950.457500", "103952.457500", "103954.457500", "103956.457500", "103958.457500", "104000.457500", "104002.457500", "104004.457500", "104006.457500", "104008.457500", "104010.457500", "104012.457500", "104014.457500", "104016.457500", "104018.457500", "104020.457500", "104022.457500", "104024.457500", "104026.457500", "104028.457500", "104030.457500", "104032.457500", "104034.457500", "104036.457500", "104038.457500", "104040.457500", "104042.457500", "104044.457500", "104046.457500", "104048.457500", "104050.457500", "104052.457500", "104054.457500", "104056.457500"],
      "ContentTime": ["103518.113000", "103518.116000", "103518.118000", "103518.120000", "103518.123000", "103518.126000", "103518.132000", "103518.134000", "103518.137000", "103518.139000", "103518.141000", "103518.143000", "103518.146000", "103518.148000", "103518.150000", "103518.153000", "103518.155000", "103518.157000", "103518.159000", "103518.162000", "103518.164000", "103518.170000", "103518.172000", "103518.174000", "103518.177000", "103518.179000", "103518.181000", "103518.183000", "103518.186000", "103558.108000", "103558.111000", "103558.113000", "103558.116000", "103558.118000", "103558.120000", "103558.122000", "103558.125000", "103558.128000", "103558.130000", "103558.133000", "103558.135000", "103558.137000", "103558.140000", "103558.142000", "103558.144000", "103558.147000", "103558.149000", "103558.151000", "103558.154000", "103638.109000", "103638.112000", "103638.114000", "103638.117000", "103638.119000", "103638.122000", "103638.124000", "103638.127000", "103638.129000", "103638.131000", "103638.143000", "103638.145000", "103638.147000", "103638.150000", "103638.152000", "103638.154000", "103638.156000", "103638.159000", "103638.161000", "103638.163000", "103718.109000", "103718.112000", "103718.114000", "103718.116000", "103718.118000", "103718.121000", "103718.123000", "103718.126000", "103718.129000", "103718.131000", "103718.133000", "103718.135000", "103718.138000", "103718.140000", "103718.143000", "103718.145000", "103718.152000", "103718.154000", "103718.156000", "103718.159000", "103758.109000", "103758.111000", "103758.113000", "103758.116000", "103758.118000", "103758.120000", "103758.123000", "103758.125000", "103758.127000", "103758.129000", "103758.132000", "103758.135000", "103758.137000", "103758.140000", "103758.142000", "103758.145000", "103758.147000", "103758.149000", "103758.151000", "103758.158000", "103818.108000", "103818.111000", "103818.113000", "103818.115000", "103818.118000", "103818.120000", "103818.122000", "103818.124000", "103818.127000", "103818.129000", "103818.131000", "103858.109000", "103858.112000", "103858.114000", "103858.116000", "103858.125000", "103858.127000", "103858.130000", "103858.132000", "103858.134000", "103858.137000", "103858.139000", "103858.141000", "103858.144000", "103858.146000", "103858.148000", "103858.151000", "103858.153000", "103858.155000", "103858.157000", "103938.109000", "103938.112000", "103938.114000", "103938.116000", "103938.129000", "103938.131000", "103938.134000", "103938.136000", "103938.139000", "103938.141000", "103938.143000", "103938.146000", "103938.148000", "103938.150000", "103938.153000", "103938.155000", "103938.157000", "103938.160000", "103938.162000", "103938.164000", "103938.166000", "104018.108000", "104018.111000", "104018.113000", "104018.115000", "104018.118000", "104018.120000", "104018.123000", "104018.125000", "104018.128000", "104018.130000", "104018.133000", "104018.135000", "104018.137000", "104018.140000", "104018.142000", "104018.144000", "104018.146000", "104018.149000", "104018.151000", "104058.108000", "104058.111000", "104058.113000", "104058.115000", "104058.119000", "104058.122000", "104058.125000", "104058.127000", "104058.129000", "104058.132000", "104058.134000", "104058.137000", "104058.139000", "104058.141000", "104058.143000", "104058.146000", "104058.148000", "104058.150000", "104058.153000", "104058.155000", "104058.166000"],
      "InstanceCreationTime": ["103518.113000", "103518.116000", "103518.118000", "103518.120000", "103518.123000", "103518.126000", "103518.132000", "103518.134000", "103518.137000", "103518.139000", "103518.141000", "103518.143000", "103518.146000", "103518.148000", "103518.150000", "103518.153000", "103518.155000", "103518.157000", "103518.159000", "103518.162000", "103518.164000", "103518.170000", "103518.172000", "103518.174000", "103518.177000", "103518.179000", "103518.181000", "103518.183000", "103518.186000", "103558.108000", "103558.111000", "103558.113000", "103558.116000", "103558.118000", "103558.120000", "103558.122000", "103558.125000", "103558.128000", "103558.130000", "103558.133000", "103558.135000", "103558.137000", "103558.140000", "103558.142000", "103558.144000", "103558.147000", "103558.149000", "103558.151000", "103558.154000", "103638.109000", "103638.112000", "103638.114000", "103638.117000", "103638.119000", "103638.122000", "103638.124000", "103638.127000", "103638.129000", "103638.131000", "103638.143000", "103638.145000", "103638.147000", "103638.150000", "103638.152000", "103638.154000", "103638.156000", "103638.159000", "103638.161000", "103638.163000", "103718.109000", "103718.112000", "103718.114000", "103718.116000", "103718.118000", "103718.121000", "103718.123000", "103718.126000", "103718.129000", "103718.131000", "103718.133000", "103718.135000", "103718.138000", "103718.140000", "103718.143000", "103718.145000", "103718.152000", "103718.154000", "103718.156000", "103718.159000", "103758.109000", "103758.111000", "103758.113000", "103758.116000", "103758.118000", "103758.120000", "103758.123000", "103758.125000", "103758.127000", "103758.129000", "103758.132000", "103758.135000", "103758.137000", "103758.140000", "103758.142000", "103758.145000", "103758.147000", "103758.149000", "103758.151000", "103758.158000", "103818.108000", "103818.111000", "103818.113000", "103818.115000", "103818.118000", "103818.120000", "103818.122000", "103818.124000", "103818.127000", "103818.129000", "103818.131000", "103858.109000", "103858.112000", "103858.114000", "103858.116000", "103858.125000", "103858.127000", "103858.130000", "103858.132000", "103858.134000", "103858.137000", "103858.139000", "103858.141000", "103858.144000", "103858.146000", "103858.148000", "103858.151000", "103858.153000", "103858.155000", "103858.157000", "103938.109000", "103938.112000", "103938.114000", "103938.116000", "103938.129000", "103938.131000", "103938.134000", "103938.136000", "103938.139000", "103938.141000", "103938.143000", "103938.146000", "103938.148000", "103938.150000", "103938.153000", "103938.155000", "103938.157000", "103938.160000", "103938.162000", "103938.164000", "103938.166000", "104018.108000", "104018.111000", "104018.113000", "104018.115000", "104018.118000", "104018.120000", "104018.123000", "104018.125000", "104018.128000", "104018.130000", "104018.133000", "104018.135000", "104018.137000", "104018.140000", "104018.142000", "104018.144000", "104018.146000", "104018.149000", "104018.151000", "104058.108000", "104058.111000", "104058.113000", "104058.115000", "104058.119000", "104058.122000", "104058.125000", "104058.127000", "104058.129000", "104058.132000", "104058.134000", "104058.137000", "104058.139000", "104058.141000", "104058.143000", "104058.146000", "104058.148000", "104058.150000", "104058.153000", "104058.155000", "104058.166000"],
      "InstanceNumber": [1, 2, 3, 4, 5, 6, 7, 8, 9, 10, 11, 12, 13, 14, 15, 16, 17, 18, 19, 20, 21, 22, 23, 24, 25, 26, 27, 28, 29, 30, 31, 32, 33, 34, 35, 36, 37, 38, 39, 40, 41, 42, 43, 44, 45, 46, 47, 48, 49, 50, 51, 52, 53, 54, 55, 56, 57, 58, 59, 60, 61, 62, 63, 64, 65, 66, 67, 68, 69, 70, 71, 72, 73, 74, 75, 76, 77, 78, 79, 80, 81, 82, 83, 84, 85, 86, 87, 88, 89, 90, 91, 92, 93, 94, 95, 96, 97, 98, 99, 100, 101, 102, 103, 104, 105, 106, 107, 108, 109, 110, 111, 112, 113, 114, 115, 116, 117, 118, 119, 120, 121, 122, 123, 124, 125, 126, 127, 128, 129, 130, 131, 132, 133, 134, 135, 136, 137, 138, 139, 140, 141, 142, 143, 144, 145, 146, 147, 148, 149, 150, 151, 152, 153, 154, 155, 156, 157, 158, 159, 160, 161, 162, 163, 164, 165, 166, 167, 168, 169, 170, 171, 172, 173, 174, 175, 176, 177, 178, 179, 180, 181, 182, 183, 184, 185, 186, 187, 188, 189, 190, 191, 192, 193, 194, 195, 196, 197, 198, 199, 200],
      "LargestImagePixelValue": [385, 379, 380, 380, 381, 383, 381, 381, 378, 383, 381, 380, 380, 383, 381, 380, 379, 380, 380, 378, 382, 380, 382, 381, 379, 384, 381, 381, 380, 383, 381, 380, 385, 380, 381, 384, 382, 380, 381, 382, 382, 384, 380, 385, 381, 380, 380, 382, 380, 383, 378, 381, 380, 380, 382, 380, 379, 379, 381, 381, 379, 380, 382, 381, 379, 379, 380, 381, 380, 382, 383, 380, 379, 379, 381, 380, 378, 385, 381, 382, 379, 381, 380, 379, 380, 381, 382, 379, 382, 380, 378, 381, 381, 381, 381, 385, 383, 378, 380, 379, 382, 379, 380, 380, 380, 380, 379, 380, 381, 380, 380, 382, 381, 380, 379, 379, 380, 381, 381, 384, 381, 381, 380, 380, 380, 380, 380, 380, 382, 381, 380, 380, 379, 378, 384, 382, 380, 378, 380, 381, 383, 379, 380, 379, 381, 381, 380, 378, 380, 379, 380, 379, 379, 379, 380, 383, 381, 380, 379, 381, 379, 380, 379, 379, 380, 381, 380, 378, 379, 379, 381, 380, 379, 381, 381, 379, 378, 380, 380, 382, 378, 381, 380, 380, 380, 380, 380, 380, 379, 380, 380, 380, 381, 379, 377, 381, 379, 379, 382, 378],
      "WindowCenter": [310.0, 310.0, 310.0, 310.0, 309.0, 310.0, 310.0, 310.0, 310.0, 310.0, 309.0, 310.0, 310.0, 310.0, 309.0, 310.0, 310.0, 310.0, 310.0, 310.0, 310.0, 310.0, 310.0, 310.0, 310.0, 310.0, 310.0, 310.0, 310.0, 310.0, 310.0, 310.0, 310.0, 309.0, 310.0, 310.0, 310.0, 310.0, 310.0, 310.0, 309.0, 310.0, 310.0, 310.0, 310.0, 310.0, 310.0, 310.0, 309.0, 310.0, 310.0, 310.0, 310.0, 309.0, 310.0, 310.0, 310.0, 309.0, 310.0, 310.0, 310.0, 310.0, 309.0, 309.0, 310.0, 310.0, 310.0, 309.0, 310.0, 310.0, 310.0, 310.0, 310.0, 309.0, 309.0, 310.0, 310.0, 310.0, 309.0, 310.0, 309.0, 310.0, 310.0, 309.0, 310.0, 310.0, 310.0, 309.0, 309.0, 309.0, 310.0, 309.0, 309.0, 310.0, 310.0, 310.0, 309.0, 309.0, 309.0, 310.0, 309.0, 309.0, 309.0, 310.0, 310.0, 310.0, 310.0, 310.0, 310.0, 309.0, 309.0, 309.0, 309.0, 309.0, 309.0, 309.0, 310.0, 309.0, 309.0, 309.0, 309.0, 309.0, 310.0, 310.0, 309.0, 310.0, 310.0, 309.0, 309.0, 309.0, 309.0, 309.0, 309.0, 309.0, 309.0, 309.0, 309.0, 309.0, 309.0, 309.0, 309.0, 309.0, 309.0, 309.0, 308.0, 309.0, 309.0, 309.0, 309.0, 309.0, 309.0, 309.0, 309.0, 309.0, 309.0, 309.0, 309.0, 309.0, 309.0, 309.0, 309.0, 309.0, 309.0, 309.0, 310.0, 309.0, 308.0, 309.0, 309.0, 309.0, 309.0, 310.0, 310.0, 309.0, 309.0, 309.0, 309.0, 309.0, 309.0, 309.0, 309.0, 309.0, 309.0, 309.0, 309.0, 309.0, 309.0, 308.0, 309.0, 309.0, 309.0, 309.0, 309.0, 309.0, 309.0, 309.0, 309.0, 309.0, 309.0, 309.0],
      "WindowWidth": [669.0, 669.0, 669.0, 669.0, 668.0, 669.0, 669.0, 669.0, 669.0, 669.0, 668.0, 669.0, 669.0, 669.0, 668.0, 669.0, 669.0, 669.0, 669.0, 669.0, 669.0, 669.0, 669.0, 669.0, 669.0, 669.0, 669.0, 669.0, 669.0, 669.0, 669.0, 669.0, 669.0, 668.0, 669.0, 669.0, 669.0, 669.0, 669.0, 669.0, 668.0, 669.0, 669.0, 669.0, 669.0, 669.0, 669.0, 669.0, 668.0, 669.0, 668.0, 669.0, 669.0, 668.0, 669.0, 669.0, 669.0, 668.0, 669.0, 669.0, 669.0, 669.0, 668.0, 668.0, 669.0, 669.0, 669.0, 668.0, 669.0, 669.0, 669.0, 669.0, 668.0, 668.0, 668.0, 669.0, 669.0, 669.0, 668.0, 669.0, 668.0, 669.0, 668.0, 668.0, 669.0, 669.0, 669.0, 668.0, 668.0, 668.0, 669.0, 668.0, 668.0, 669.0, 668.0, 669.0, 668.0, 667.0, 668.0, 668.0, 668.0, 667.0, 667.0, 669.0, 668.0, 668.0, 669.0, 669.0, 669.0, 668.0, 667.0, 667.0, 668.0, 667.0, 667.0, 668.0, 669.0, 668.0, 668.0, 667.0, 668.0, 668.0, 669.0, 668.0, 667.0, 668.0, 668.0, 668.0, 668.0, 668.0, 667.0, 667.0, 667.0, 667.0, 667.0, 667.0, 667.0, 668.0, 668.0, 668.0, 667.0, 667.0, 667.0, 668.0, 667.0, 667.0, 667.0, 667.0, 667.0, 668.0, 668.0, 668.0, 667.0, 667.0, 667.0, 668.0, 668.0, 667.0, 667.0, 667.0, 667.0, 668.0, 667.0, 668.0, 668.0, 667.0, 667.0, 668.0, 668.0, 667.0, 668.0, 668.0, 668.0, 667.0, 667.0, 667.0, 667.0, 667.0, 668.0, 667.0, 667.0, 667.0, 667.0, 667.0, 668.0, 668.0, 667.0, 667.0, 667.0, 667.0, 667.0, 667.0, 667.0, 667.0, 667.0, 667.0, 667.0, 667.0, 667.0, 667.0]
    },
    "slices": {}
  }
}