{
  "AcquisitionMatrixPE": 80,
  "AcquisitionNumber": 1,
  "AcquisitionTime": "08:54:27.487500",
  "BandwidthPerPixelPhaseEncode": 25,
  "BaseResolution": 80,
  "BodyPartExamined": "BRAIN",
  "CoilCombinationMethod": "Sum of Squares",
  "ConsistencyInfo": "N4_VE11C_LATEST_20160120",
  "ConversionSoftware": "dcm2niix",
  "ConversionSoftwareVersion": "v1.0.20220720",
  "DerivedVendorReportedEchoSpacing": 0.0005,
  "DeviceSerialNumber": "66112",
  "DwellTime": 2.7e-06,
  "EchoTime": 0.03,
  "EchoTrainLength": 80,
  "EffectiveEchoSpacing": 0.0005,
  "FlipAngle": 77,
  "HeudiconvVersion": "0.13.1",
  "ImageOrientationPatientDICOM": [0.999962, 0.00443565, -0.00753915, -0.00209438, 0.958232, 0.285985],
  "ImageOrientationText": "Tra>Cor(16.6)>Sag(-0.5)",
  "ImageType": [
    "ORIGINAL",
    "PRIMARY",
    "M",
    "ND",
    "NORM",
    "MOSAIC"
],
  "ImagingFrequency": 123.252,
  "InPlanePhaseEncodingDirectionDICOM": "COL",
  "InstitutionAddress": "Maynard 3,Hanover,NH,US,03755",
  "InstitutionName": "Dartmouth College - PBS",
  "InstitutionalDepartmentName": "Department",
  "MRAcquisitionType": "2D",
  "MagneticFieldStrength": 3,
  "Manufacturer": "Siemens",
  "ManufacturersModelName": "Prisma",
  "MatrixCoilMode": "SENSE",
  "Modality": "MR",
  "NonlinearGradientCorrection": false,
  "PartialFourier": 1,
  "PatientPosition": "HFS",
  "PercentPhaseFOV": 100,
  "PercentSampling": 100,
  "PhaseEncodingDirection": "j-",
  "PhaseEncodingSteps": 80,
  "PhaseResolution": 1,
  "PixelBandwidth": 2315,
  "ProcedureStepDescription": "dbic^QA",
  "ProtocolName": "func-bold_acq-32ch-77flip",
  "PulseSequenceDetails": "%SiemensSeq%\\ep2d_bold",
  "ReceiveCoilActiveElements": "HEA;HEP",
  "ReceiveCoilName": "Head_32",
  "ReconMatrixPE": 80,
  "RepetitionTime": 2,
  "SAR": 0.0438481,
  "ScanOptions": "FS",
  "ScanningSequence": "EP",
  "SequenceName": "*epfid2d1_80",
  "SequenceVariant": "SK",
  "SeriesDescription": "func-bold_acq-32ch-77flip",
  "SeriesNumber": 8,
  "ShimSetting": [4139, -7710, -7503, 363, -102, -37, 85, 32],
  "SliceThickness": 3.5,
  "SliceTiming": [0.99, 0, 1.0575, 0.0675, 1.1225, 0.1325, 1.1875, 0.1975, 1.255, 0.265, 1.32, 0.33, 1.3875, 0.3975, 1.4525, 0.4625, 1.5175, 0.5275, 1.585, 0.595, 1.65, 0.66, 1.7175, 0.7275, 1.7825, 0.7925, 1.8475, 0.8575, 1.915, 0.925],
  "SoftwareVersions": "syngo MR E11",
  "SpacingBetweenSlices": 3.99,
  "StationName": "AWP66112",
  "TotalReadoutTime": 0.0395,
  "TxRefAmp": 234.03,
  "dcmmeta_affine": [
    [-2.999885320663452, -0.0062831309624016285, -0.03388618305325508, 120.24581146240234],
    [-0.013306942768394947, 2.8746955394744873, 1.1409730911254883, -125.74319458007812],
    [-0.022617436945438385, -0.8579546809196472, 3.8232357501983643, -11.758406639099121],
    [0.0, 0.0, 0.0, 1.0]
],
  "dcmmeta_reorient_transform": [
    [0.0, -1.0, 0.0, 79.0],
    [1.0, 0.0, 0.0, 0.0],
    [0.0, 0.0, 1.0, 0.0],
    [0.0, 0.0, 0.0, 1.0]
],
  "dcmmeta_shape": [80, 80, 30, 200],
  "dcmmeta_slice_dim": 2,
  "dcmmeta_version": 0.6,
  "global": {
    "const": {
      "AccessionNumber": "qa",
      "AcquisitionMatrix": [80, 0, 0, 80],
      "AngioFlag": "N",
      "BitsAllocated": 16,
      "BitsStored": 12,
      "BodyPartExamined": "BRAIN",
      "Columns": 480,
      "EchoNumbers": 1,
      "EchoTime": 30.0,
      "EchoTrainLength": 80,
      "FlipAngle": 77.0,
      "HighBit": 11,
      "ImageOrientationPatient": [0.99996174242569, 0.00443564746954, -0.0075391456084, -0.002094376968, 0.95823183646356, 0.28598489675645],
      "ImagePositionPatient": [-718.46986232148, -678.95824063825, -246.60427761857],
      "ImageType": [
        "ORIGINAL",
        "PRIMARY",
        "M",
        "ND",
        "NORM",
        "MOSAIC"
],
      "ImagedNucleus": "1H",
      "ImagingFrequency": 123.252443,
      "InPlanePhaseEncodingDirection": "COL",
      "MRAcquisitionType": "2D",
      "MagneticFieldStrength": 3.0,
      "Manufacturer": "SIEMENS",
      "ManufacturerModelName": "Prisma",
      "Modality": "MR",
      "NumberOfAverages": 1.0,
      "NumberOfPhaseEncodingSteps": 80,
      "PercentPhaseFieldOfView": 100.0,
      "PercentSampling": 100.0,
      "PerformedProcedureStepStartTime": "083913.850000",
      "PhotometricInterpretation": "MONOCHROME2",
      "PixelBandwidth": 2315.0,
      "PixelRepresentation": 0,
      "PixelSpacing": [3.0, 3.0],
      "ProtocolName": "func-bold_acq-32ch-77flip",
      "RepetitionTime": 2000.0,
      "Rows": 480,
      "SAR": 0.04384810339206,
      "SamplesPerPixel": 1,
      "ScanOptions": "FS",
      "ScanningSequence": "EP",
      "SequenceName": "*epfid2d1_80",
      "SequenceVariant": "SK",
      "SeriesDescription": "func-bold_acq-32ch-77flip",
      "SeriesNumber": 8,
      "SeriesTime": "085511.758000",
      "SliceLocation": -48.245471849446,
      "SliceThickness": 3.5,
      "SmallestImagePixelValue": 0,
      "SoftwareVersions": "syngo MR E11",
      "SpacingBetweenSlices": 3.9900000419685,
      "SpecificCharacterSet": "ISO_IR 100",
      "StudyID": "3",
      "StudyTime": "083913.768000",
      "TransmitCoilName": "Body",
      "VariableFlipAngleFlag": "N",
      "WindowCenterWidthExplanation": "Algo1",
      "dBdt": 0.0},
    "slices": {}
  },
  "time": {
    "samples": {
      "AcquisitionNumber": [1, 2, 3, 4, 5, 6, 7, 8, 9, 10, 11, 12, 13, 14, 15, 16, 17, 18, 19, 20, 21, 22, 23, 24, 25, 26, 27, 28, 29, 30, 31, 32, 33, 34, 35, 36, 37, 38, 39, 40, 41, 42, 43, 44, 45, 46, 47, 48, 49, 50, 51, 52, 53, 54, 55, 56, 57, 58, 59, 60, 61, 62, 63, 64, 65, 66, 67, 68, 69, 70, 71, 72, 73, 74, 75, 76, 77, 78, 79, 80, 81, 82, 83, 84, 85, 86, 87, 88, 89, 90, 91, 92, 93, 94, 95, 96, 97, 98, 99, 100, 101, 102, 103, 104, 105, 106, 107, 108, 109, 110, 111, 112, 113, 114, 115, 116, 117, 118, 119, 120, 121, 122, 123, 124, 125, 126, 127, 128, 129, 130, 131, 132, 133, 134, 135, 136, 137, 138, 139, 140, 141, 142, 143, 144, 145, 146, 147, 148, 149, 150, 151, 152, 153, 154, 155, 156, 157, 158, 159, 160, 161, 162, 163, 164, 165, 166, 167, 168, 169, 170, 171, 172, 173, 174, 175, 176, 177, 178, 179, 180, 181, 182, 183, 184, 185, 186, 187, 188, 189, 190, 191, 192, 193, 194, 195, 196, 197, 198, 199, 200],
      "AcquisitionTime": ["085427.487500", "085429.487500", "085431.487500", "085433.487500", "085435.487500", "085437.487500", "085439.487500", "085441.487500", "085443.487500", "085445.487500", "085447.487500", "085449.487500", "085451.487500", "085453.487500", "085455.487500", "085457.487500", "085459.487500", "085501.487500", "085503.487500", "085505.487500", "085507.487500", "085509.487500", "085511.487500", "085513.487500", "085515.487500", "085517.487500", "085519.487500", "085521.487500", "085523.487500", "085525.487500", "085527.487500", "085529.487500", "085531.487500", "085533.487500", "085535.487500", "085537.487500", "085539.487500", "085541.487500", "085543.487500", "085545.487500", "085547.487500", "085549.487500", "085551.487500", "085553.487500", "085555.487500", "085557.487500", "085559.487500", "085601.487500", "085603.487500", "085605.487500", "085607.487500", "085609.487500", "085611.487500", "085613.487500", "085615.487500", "085617.487500", "085619.487500", "085621.487500", "085623.487500", "085625.487500", "085627.487500", "085629.487500", "085631.487500", "085633.487500", "085635.487500", "085637.487500", "085639.487500", "085641.487500", "085643.487500", "085645.487500", "085647.487500", "085649.487500", "085651.487500", "085653.487500", "085655.487500", "085657.487500", "085659.487500", "085701.487500", "085703.487500", "085705.487500", "085707.487500", "085709.487500", "085711.487500", "085713.487500", "085715.487500", "085717.487500", "085719.487500", "085721.487500", "085723.487500", "085725.487500", "085727.487500", "085729.487500", "085731.487500", "085733.487500", "085735.487500", "085737.487500", "085739.487500", "085741.487500", "085743.487500", "085745.487500", "085747.487500", "085749.487500", "085751.487500", "085753.487500", "085755.487500", "085757.487500", "085759.487500", "085801.487500", "085803.487500", "085805.487500", "085807.487500", "085809.487500", "085811.487500", "085813.487500", "085815.487500", "085817.487500", "085819.487500", "085821.487500", "085823.487500", "085825.487500", "085827.487500", "085829.487500", "085831.487500", "085833.487500", "085835.487500", "085837.487500", "085839.487500", "085841.487500", "085843.487500", "085845.487500", "085847.487500", "085849.487500", "085851.487500", "085853.487500", "085855.487500", "085857.487500", "085859.487500", "085901.487500", "085903.487500", "085905.487500", "085907.487500", "085909.487500", "085911.487500", "085913.487500", "085915.487500", "085917.487500", "085919.487500", "085921.487500", "085923.487500", "085925.487500", "085927.487500", "085929.487500", "085931.487500", "085933.487500", "085935.487500", "085937.487500", "085939.487500", "085941.487500", "085943.487500", "085945.487500", "085947.487500", "085949.487500", "085951.487500", "085953.487500", "085955.487500", "085957.487500", "085959.487500", "090001.487500", "090003.487500", "090005.487500", "090007.487500", "090009.487500", "090011.487500", "090013.487500", "090015.487500", "090017.487500", "090019.487500", "090021.487500", "090023.487500", "090025.487500", "090027.487500", "090029.487500", "090031.487500", "090033.487500", "090035.487500", "090037.487500", "090039.487500", "090041.487500", "090043.487500", "090045.487500", "090047.487500", "090049.487500", "090051.487500", "090053.487500", "090055.487500", "090057.487500", "090059.487500", "090101.487500", "090103.487500", "090105.487500"],
      "ContentTime": ["085511.761000", "085511.770000", "085511.773000", "085511.775000", "085511.778000", "085511.781000", "085511.783000", "085511.786000", "085511.788000", "085511.791000", "085511.793000", "085511.796000", "085511.798000", "085511.801000", "085511.804000", "085511.806000", "085511.813000", "085511.815000", "085511.818000", "085511.820000", "085511.823000", "085511.826000", "085551.756000", "085551.759000", "085551.762000", "085551.765000", "085551.767000", "085551.770000", "085551.772000", "085551.775000", "085551.777000", "085551.780000", "085551.782000", "085551.785000", "085551.788000", "085551.790000", "085551.793000", "085551.795000", "085551.798000", "085551.800000", "085551.803000", "085551.805000", "085631.757000", "085631.759000", "085631.762000", "085631.765000", "085631.767000", "085631.770000", "085631.772000", "085631.775000", "085631.778000", "085631.780000", "085631.783000", "085631.785000", "085631.788000", "085631.790000", "085631.793000", "085631.796000", "085631.798000", "085631.801000", "085631.803000", "085631.806000", "085711.757000", "085711.760000", "085711.763000", "085711.766000", "085711.768000", "085711.771000", "085711.773000", "085711.776000", "085711.778000", "085711.781000", "085711.783000", "085711.786000", "085711.789000", "085711.791000", "085711.794000", "085711.796000", "085711.799000", "085711.801000", "085711.804000", "085711.806000", "085751.756000", "085751.759000", "085751.762000", "085751.764000", "085751.767000", "085751.786000", "085751.788000", "085751.791000", "085751.793000", "085751.796000", "085751.798000", "085751.801000", "085751.803000", "085751.806000", "085751.808000", "085751.811000", "085751.814000", "085751.816000", "085751.819000", "085751.822000", "085831.756000", "085831.759000", "085831.762000", "085831.764000", "085831.767000", "085831.770000", "085831.772000", "085831.775000", "085831.777000", "085831.780000", "085831.782000", "085831.785000", "085831.787000", "085831.790000", "085831.792000", "085831.795000", "085831.797000", "085831.800000", "085831.802000", "085831.805000", "085911.757000", "085911.759000", "085911.762000", "085911.765000", "085911.767000", "085911.770000", "085911.772000", "085911.775000", "085911.777000", "085911.780000", "085911.783000", "085911.785000", "085911.788000", "085911.790000", "085911.793000", "085911.795000", "085911.798000", "085911.800000", "085911.803000", "085911.806000", "085951.756000", "085951.759000", "085951.762000", "085951.764000", "085951.767000", "085951.770000", "085951.772000", "085951.775000", "085951.777000", "085951.780000", "085951.782000", "085951.785000", "085951.787000", "085951.790000", "085951.792000", "085951.795000", "085951.798000", "085951.800000", "085951.803000", "085951.805000", "090031.757000", "090031.759000", "090031.762000", "090031.764000", "090031.767000", "090031.770000", "090031.772000", "090031.775000", "090031.777000", "090031.780000", "090031.782000", "090031.785000", "090031.787000", "090031.790000", "090031.792000", "090031.795000", "090031.798000", "090031.800000", "090031.803000", "090031.805000", "090106.647000", "090106.650000", "090106.653000", "090106.655000", "090106.658000", "090106.660000", "090106.663000", "090106.665000", "090106.668000", "090106.671000", "090106.673000", "090106.676000", "090106.687000", "090106.693000", "090106.697000", "090106.701000", "090106.704000", "090106.707000"],
      "InstanceCreationTime": ["085511.761000", "085511.770000", "085511.773000", "085511.775000", "085511.778000", "085511.781000", "085511.783000", "085511.786000", "085511.788000", "085511.791000", "085511.793000", "085511.796000", "085511.798000", "085511.801000", "085511.804000", "085511.806000", "085511.813000", "085511.815000", "085511.818000", "085511.820000", "085511.823000", "085511.826000", "085551.756000", "085551.759000", "085551.762000", "085551.765000", "085551.767000", "085551.770000", "085551.772000", "085551.775000", "085551.777000", "085551.780000", "085551.782000", "085551.785000", "085551.788000", "085551.790000", "085551.793000", "085551.795000", "085551.798000", "085551.800000", "085551.803000", "085551.805000", "085631.757000", "085631.759000", "085631.762000", "085631.765000", "085631.767000", "085631.770000", "085631.772000", "085631.775000", "085631.778000", "085631.780000", "085631.783000", "085631.785000", "085631.788000", "085631.790000", "085631.793000", "085631.796000", "085631.798000", "085631.801000", "085631.803000", "085631.806000", "085711.757000", "085711.760000", "085711.763000", "085711.766000", "085711.768000", "085711.771000", "085711.773000", "085711.776000", "085711.778000", "085711.781000", "085711.783000", "085711.786000", "085711.789000", "085711.791000", "085711.794000", "085711.796000", "085711.799000", "085711.801000", "085711.804000", "085711.806000", "085751.756000", "085751.759000", "085751.762000", "085751.764000", "085751.767000", "085751.786000", "085751.788000", "085751.791000", "085751.793000", "085751.796000", "085751.798000", "085751.801000", "085751.803000", "085751.806000", "085751.808000", "085751.811000", "085751.814000", "085751.816000", "085751.819000", "085751.822000", "085831.756000", "085831.759000", "085831.762000", "085831.764000", "085831.767000", "085831.770000", "085831.772000", "085831.775000", "085831.777000", "085831.780000", "085831.782000", "085831.785000", "085831.787000", "085831.790000", "085831.792000", "085831.795000", "085831.797000", "085831.800000", "085831.802000", "085831.805000", "085911.757000", "085911.759000", "085911.762000", "085911.765000", "085911.767000", "085911.770000", "085911.772000", "085911.775000", "085911.777000", "085911.780000", "085911.783000", "085911.785000", "085911.788000", "085911.790000", "085911.793000", "085911.795000", "085911.798000", "085911.800000", "085911.803000", "085911.806000", "085951.756000", "085951.759000", "085951.762000", "085951.764000", "085951.767000", "085951.770000", "085951.772000", "085951.775000", "085951.777000", "085951.780000", "085951.782000", "085951.785000", "085951.787000", "085951.790000", "085951.792000", "085951.795000", "085951.798000", "085951.800000", "085951.803000", "085951.805000", "090031.757000", "090031.759000", "090031.762000", "090031.764000", "090031.767000", "090031.770000", "090031.772000", "090031.775000", "090031.777000", "090031.780000", "090031.782000", "090031.785000", "090031.787000", "090031.790000", "090031.792000", "090031.795000", "090031.798000", "090031.800000", "090031.803000", "090031.805000", "090106.647000", "090106.650000", "090106.653000", "090106.655000", "090106.658000", "090106.660000", "090106.663000", "090106.665000", "090106.668000", "090106.671000", "090106.673000", "090106.676000", "090106.687000", "090106.693000", "090106.697000", "090106.701000", "090106.704000", "090106.707000"],
      "InstanceNumber": [1, 2, 3, 4, 5, 6, 7, 8, 9, 10, 11, 12, 13, 14, 15, 16, 17, 18, 19, 20, 21, 22, 23, 24, 25, 26, 27, 28, 29, 30, 31, 32, 33, 34, 35, 36, 37, 38, 39, 40, 41, 42, 43, 44, 45, 46, 47, 48, 49, 50, 51, 52, 53, 54, 55, 56, 57, 58, 59, 60, 61, 62, 63, 64, 65, 66, 67, 68, 69, 70, 71, 72, 73, 74, 75, 76, 77, 78, 79, 80, 81, 82, 83, 84, 85, 86, 87, 88, 89, 90, 91, 92, 93, 94, 95, 96, 97, 98, 99, 100, 101, 102, 103, 104, 105, 106, 107, 108, 109, 110, 111, 112, 113, 114, 115, 116, 117, 118, 119, 120, 121, 122, 123, 124, 125, 126, 127, 128, 129, 130, 131, 132, 133, 134, 135, 136, 137, 138, 139, 140, 141, 142, 143, 144, 145, 146, 147, 148, 149, 150, 151, 152, 153, 154, 155, 156, 157, 158, 159, 160, 161, 162, 163, 164, 165, 166, 167, 168, 169, 170, 171, 172, 173, 174, 175, 176, 177, 178, 179, 180, 181, 182, 183, 184, 185, 186, 187, 188, 189, 190, 191, 192, 193, 194, 195, 196, 197, 198, 199, 200],
      "LargestImagePixelValue": [2287, 2287, 2284, 2288, 2289, 2287, 2285, 2280, 2281, 2284, 2284, 2284, 2285, 2286, 2285, 2286, 2285, 2285, 2283, 2283, 2285, 2285, 2287, 2285, 2288, 2284, 2284, 2284, 2283, 2284, 2282, 2284, 2282, 2283, 2281, 2280, 2281, 2281, 2283, 2279, 2282, 2281, 2281, 2281, 2281, 2281, 2280, 2282, 2279, 2281, 2280, 2280, 2280, 2281, 2282, 2280, 2280, 2280, 2280, 2274, 2278, 2277, 2278, 2279, 2281, 2281, 2280, 2276, 2276, 2278, 2282, 2279, 2277, 2273, 2273, 2279, 2280, 2274, 2275, 2272, 2276, 2277, 2275, 2274, 2276, 2276, 2277, 2274, 2272, 2270, 2273, 2273, 2274, 2272, 2272, 2273, 2272, 2276, 2276, 2273, 2273, 2272, 2272, 2274, 2273, 2272, 2270, 2265, 2268, 2273, 2281, 2282, 2278, 2275, 2275, 2278, 2276, 2275, 2274, 2274, 2274, 2276, 2274, 2276, 2275, 2276, 2275, 2274, 2277, 2276, 2277, 2277, 2276, 2278, 2276, 2278, 2275, 2278, 2277, 2276, 2275, 2277, 2276, 2277, 2274, 2276, 2277, 2275, 2273, 2277, 2276, 2277, 2277, 2276, 2274, 2274, 2274, 2275, 2276, 2273, 2276, 2277, 2275, 2275, 2274, 2274, 2276, 2273, 2276, 2274, 2275, 2274, 2274, 2274, 2274, 2276, 2274, 2276, 2274, 2275, 2274, 2275, 2274, 2276, 2276, 2275, 2275, 2275, 2273, 2274, 2276, 2276, 2274, 2274, 2273, 2276, 2274, 2273, 2274, 2273],
      "WindowCenter": [1032.0, 1032.0, 1031.0, 1032.0, 1032.0, 1032.0, 1031.0, 1031.0, 1030.0, 1031.0, 1032.0, 1031.0, 1031.0, 1031.0, 1032.0, 1031.0, 1031.0, 1031.0, 1031.0, 1030.0, 1031.0, 1031.0, 1030.0, 1032.0, 1031.0, 1031.0, 1031.0, 1030.0, 1030.0, 1032.0, 1031.0, 1030.0, 1030.0, 1031.0, 1031.0, 1031.0, 1031.0, 1031.0, 1031.0, 1032.0, 1031.0, 1031.0, 1032.0, 1031.0, 1031.0, 1030.0, 1032.0, 1031.0, 1031.0, 1031.0, 1031.0, 1031.0, 1030.0, 1032.0, 1031.0, 1031.0, 1032.0, 1031.0, 1031.0, 1031.0, 1032.0, 1030.0, 1030.0, 1031.0, 1031.0, 1030.0, 1032.0, 1031.0, 1030.0, 1031.0, 1031.0, 1031.0, 1032.0, 1031.0, 1031.0, 1031.0, 1032.0, 1030.0, 1030.0, 1032.0, 1031.0, 1030.0, 1032.0, 1031.0, 1031.0, 1031.0, 1031.0, 1031.0, 1031.0, 1031.0, 1031.0, 1031.0, 1031.0, 1031.0, 1030.0, 1030.0, 1030.0, 1031.0, 1030.0, 1031.0, 1030.0, 1030.0, 1030.0, 1031.0, 1030.0, 1031.0, 1030.0, 1030.0, 1031.0, 1030.0, 1030.0, 1030.0, 1030.0, 1030.0, 1030.0, 1030.0, 1029.0, 1030.0, 1031.0, 1030.0, 1030.0, 1030.0, 1031.0, 1030.0, 1030.0, 1030.0, 1030.0, 1030.0, 1029.0, 1031.0, 1029.0, 1030.0, 1030.0, 1030.0, 1029.0, 1030.0, 1030.0, 1029.0, 1030.0, 1030.0, 1030.0, 1030.0, 1030.0, 1030.0, 1029.0, 1030.0, 1029.0, 1031.0, 1030.0, 1030.0, 1031.0, 1030.0, 1029.0, 1031.0, 1031.0, 1030.0, 1031.0, 1030.0, 1030.0, 1031.0, 1030.0, 1030.0, 1030.0, 1030.0, 1030.0, 1030.0, 1030.0, 1030.0, 1029.0, 1030.0, 1031.0, 1030.0, 1030.0, 1031.0, 1030.0, 1031.0, 1030.0, 1030.0, 1030.0, 1030.0, 1029.0, 1030.0, 1030.0, 1031.0, 1030.0, 1030.0, 1030.0, 1031.0, 1029.0, 1030.0, 1030.0, 1029.0, 1030.0, 1029.0, 1030.0, 1030.0, 1030.0, 1030.0, 1030.0, 1030.0],
      "WindowWidth": [2297.0, 2297.0, 2297.0, 2297.0, 2297.0, 2298.0, 2297.0, 2297.0, 2295.0, 2296.0, 2297.0, 2296.0, 2296.0, 2296.0, 2297.0, 2296.0, 2296.0, 2296.0, 2296.0, 2295.0, 2296.0, 2296.0, 2295.0, 2297.0, 2296.0, 2296.0, 2296.0, 2295.0, 2295.0, 2297.0, 2296.0, 2295.0, 2295.0, 2296.0, 2296.0, 2296.0, 2296.0, 2296.0, 2296.0, 2297.0, 2296.0, 2296.0, 2297.0, 2296.0, 2296.0, 2295.0, 2297.0, 2296.0, 2296.0, 2296.0, 2296.0, 2296.0, 2295.0, 2297.0, 2296.0, 2296.0, 2297.0, 2296.0, 2296.0, 2296.0, 2296.0, 2295.0, 2295.0, 2296.0, 2296.0, 2295.0, 2296.0, 2296.0, 2295.0, 2296.0, 2296.0, 2296.0, 2296.0, 2296.0, 2296.0, 2296.0, 2296.0, 2295.0, 2295.0, 2296.0, 2295.0, 2295.0, 2296.0, 2295.0, 2295.0, 2295.0, 2295.0, 2295.0, 2295.0, 2295.0, 2295.0, 2295.0, 2295.0, 2296.0, 2295.0, 2295.0, 2294.0, 2295.0, 2295.0, 2295.0, 2295.0, 2295.0, 2294.0, 2295.0, 2295.0, 2295.0, 2295.0, 2294.0, 2295.0, 2294.0, 2295.0, 2295.0, 2295.0, 2295.0, 2295.0, 2295.0, 2294.0, 2295.0, 2295.0, 2294.0, 2294.0, 2295.0, 2295.0, 2295.0, 2295.0, 2294.0, 2294.0, 2294.0, 2294.0, 2295.0, 2294.0, 2294.0, 2294.0, 2294.0, 2294.0, 2294.0, 2294.0, 2294.0, 2294.0, 2294.0, 2294.0, 2294.0, 2294.0, 2294.0, 2294.0, 2294.0, 2294.0, 2295.0, 2294.0, 2294.0, 2295.0, 2294.0, 2294.0, 2295.0, 2295.0, 2294.0, 2295.0, 2294.0, 2294.0, 2295.0, 2294.0, 2294.0, 2294.0, 2294.0, 2294.0, 2294.0, 2294.0, 2294.0, 2293.0, 2294.0, 2294.0, 2294.0, 2294.0, 2295.0, 2294.0, 2295.0, 2294.0, 2294.0, 2294.0, 2294.0, 2293.0, 2294.0, 2294.0, 2294.0, 2294.0, 2294.0, 2294.0, 2294.0, 2293.0, 2294.0, 2294.0, 2293.0, 2293.0, 2293.0, 2294.0, 2293.0, 2293.0, 2293.0, 2293.0, 2293.0]
    },
    "slices": {}
  }
}