{
  "AcquisitionMatrixPE": 80,
  "AcquisitionNumber": 1,
  "AcquisitionTime": "09:01:13.492500",
  "BandwidthPerPixelPhaseEncode": 25,
  "BaseResolution": 80,
  "BodyPartExamined": "BRAIN",
  "CoilCombinationMethod": "Sum of Squares",
  "ConsistencyInfo": "N4_VE11C_LATEST_20160120",
  "ConversionSoftware": "dcm2niix",
  "ConversionSoftwareVersion": "v1.0.20220720",
  "DerivedVendorReportedEchoSpacing": 0.0005,
  "DeviceSerialNumber": "66112",
  "DwellTime": 2.7e-06,
  "EchoTime": 0.03,
  "EchoTrainLength": 80,
  "EffectiveEchoSpacing": 0.0005,
  "FlipAngle": 10,
  "HeudiconvVersion": "0.13.1",
  "ImageOrientationPatientDICOM": [0.999962, 0.00443565, -0.00753915, -0.00209438, 0.958232, 0.285985],
  "ImageOrientationText": "Tra>Cor(16.6)>Sag(-0.5)",
  "ImageType": [
    "ORIGINAL",
    "PRIMARY",
    "M",
    "ND",
    "NORM",
    "MOSAIC"
],
  "ImagingFrequency": 123.252,
  "InPlanePhaseEncodingDirectionDICOM": "COL",
  "InstitutionAddress": "Maynard 3,Hanover,NH,US,03755",
  "InstitutionName": "Dartmouth College - PBS",
  "InstitutionalDepartmentName": "Department",
  "MRAcquisitionType": "2D",
  "MagneticFieldStrength": 3,
  "Manufacturer": "Siemens",
  "ManufacturersModelName": "Prisma",
  "MatrixCoilMode": "SENSE",
  "Modality": "MR",
  "NonlinearGradientCorrection": false,
  "PartialFourier": 1,
  "PatientPosition": "HFS",
  "PercentPhaseFOV": 100,
  "PercentSampling": 100,
  "PhaseEncodingDirection": "j-",
  "PhaseEncodingSteps": 80,
  "PhaseResolution": 1,
  "PixelBandwidth": 2315,
  "ProcedureStepDescription": "dbic^QA",
  "ProtocolName": "func-bold_acq-32ch-10flip",
  "PulseSequenceDetails": "%SiemensSeq%\\ep2d_bold",
  "ReceiveCoilActiveElements": "HEA;HEP",
  "ReceiveCoilName": "Head_32",
  "ReconMatrixPE": 80,
  "RepetitionTime": 2,
  "SAR": 0.0117622,
  "ScanOptions": "FS",
  "ScanningSequence": "EP",
  "SequenceName": "*epfid2d1_80",
  "SequenceVariant": "SK",
  "SeriesDescription": "func-bold_acq-32ch-10flip",
  "SeriesNumber": 10,
  "ShimSetting": [4139, -7710, -7503, 363, -102, -37, 85, 32],
  "SliceThickness": 3.5,
  "SliceTiming": [0.9875, 0, 1.055, 0.065, 1.12, 0.13, 1.1875, 0.1975, 1.2525, 0.2625, 1.3175, 0.3275, 1.385, 0.395, 1.45, 0.46, 1.5175, 0.5275, 1.5825, 0.5925, 1.6475, 0.6575, 1.715, 0.725, 1.78, 0.79, 1.8475, 0.8575, 1.9125, 0.9225],
  "SoftwareVersions": "syngo MR E11",
  "SpacingBetweenSlices": 3.99,
  "StationName": "AWP66112",
  "TotalReadoutTime": 0.0395,
  "TxRefAmp": 234.03,
  "dcmmeta_affine": [
    [-2.999885320663452, -0.0062831309624016285, -0.03388618305325508, 120.24581146240234],
    [-0.013306942768394947, 2.8746955394744873, 1.1409730911254883, -125.74319458007812],
    [-0.022617436945438385, -0.8579546809196472, 3.8232357501983643, -11.758406639099121],
    [0.0, 0.0, 0.0, 1.0]
],
  "dcmmeta_reorient_transform": [
    [0.0, -1.0, 0.0, 79.0],
    [1.0, 0.0, 0.0, 0.0],
    [0.0, 0.0, 1.0, 0.0],
    [0.0, 0.0, 0.0, 1.0]
],
  "dcmmeta_shape": [80, 80, 30, 200],
  "dcmmeta_slice_dim": 2,
  "dcmmeta_version": 0.6,
  "global": {
    "const": {
      "AccessionNumber": "qa",
      "AcquisitionMatrix": [80, 0, 0, 80],
      "AngioFlag": "N",
      "BitsAllocated": 16,
      "BitsStored": 12,
      "BodyPartExamined": "BRAIN",
      "Columns": 480,
      "EchoNumbers": 1,
      "EchoTime": 30.0,
      "EchoTrainLength": 80,
      "FlipAngle": 10.0,
      "HighBit": 11,
      "ImageOrientationPatient": [0.99996174242569, 0.00443564746954, -0.0075391456084, -0.002094376968, 0.95823183646356, 0.28598489675645],
      "ImagePositionPatient": [-718.46986232148, -678.95824063825, -246.60427761857],
      "ImageType": [
        "ORIGINAL",
        "PRIMARY",
        "M",
        "ND",
        "NORM",
        "MOSAIC"
],
      "ImagedNucleus": "1H",
      "ImagingFrequency": 123.252442,
      "InPlanePhaseEncodingDirection": "COL",
      "MRAcquisitionType": "2D",
      "MagneticFieldStrength": 3.0,
      "Manufacturer": "SIEMENS",
      "ManufacturerModelName": "Prisma",
      "Modality": "MR",
      "NumberOfAverages": 1.0,
      "NumberOfPhaseEncodingSteps": 80,
      "PercentPhaseFieldOfView": 100.0,
      "PercentSampling": 100.0,
      "PerformedProcedureStepStartTime": "083913.850000",
      "PhotometricInterpretation": "MONOCHROME2",
      "PixelBandwidth": 2315.0,
      "PixelRepresentation": 0,
      "PixelSpacing": [3.0, 3.0],
      "ProtocolName": "func-bold_acq-32ch-10flip",
      "RepetitionTime": 2000.0,
      "Rows": 480,
      "SAR": 0.01176221530593,
      "SamplesPerPixel": 1,
      "ScanOptions": "FS",
      "ScanningSequence": "EP",
      "SequenceName": "*epfid2d1_80",
      "SequenceVariant": "SK",
      "SeriesDescription": "func-bold_acq-32ch-10flip",
      "SeriesNumber": 10,
      "SeriesTime": "090211.617000",
      "SliceLocation": -48.245471849446,
      "SliceThickness": 3.5,
      "SmallestImagePixelValue": 0,
      "SoftwareVersions": "syngo MR E11",
      "SpacingBetweenSlices": 3.9900000419685,
      "SpecificCharacterSet": "ISO_IR 100",
      "StudyID": "3",
      "StudyTime": "083913.768000",
      "TransmitCoilName": "Body",
      "VariableFlipAngleFlag": "N",
      "WindowCenterWidthExplanation": "Algo1",
      "dBdt": 0.0},
    "slices": {}
  },
  "time": {
    "samples": {
      "AcquisitionNumber": [1, 2, 3, 4, 5, 6, 7, 8, 9, 10, 11, 12, 13, 14, 15, 16, 17, 18, 19, 20, 21, 22, 23, 24, 25, 26, 27, 28, 29, 30, 31, 32, 33, 34, 35, 36, 37, 38, 39, 40, 41, 42, 43, 44, 45, 46, 47, 48, 49, 50, 51, 52, 53, 54, 55, 56, 57, 58, 59, 60, 61, 62, 63, 64, 65, 66, 67, 68, 69, 70, 71, 72, 73, 74, 75, 76, 77, 78, 79, 80, 81, 82, 83, 84, 85, 86, 87, 88, 89, 90, 91, 92, 93, 94, 95, 96, 97, 98, 99, 100, 101, 102, 103, 104, 105, 106, 107, 108, 109, 110, 111, 112, 113, 114, 115, 116, 117, 118, 119, 120, 121, 122, 123, 124, 125, 126, 127, 128, 129, 130, 131, 132, 133, 134, 135, 136, 137, 138, 139, 140, 141, 142, 143, 144, 145, 146, 147, 148, 149, 150, 151, 152, 153, 154, 155, 156, 157, 158, 159, 160, 161, 162, 163, 164, 165, 166, 167, 168, 169, 170, 171, 172, 173, 174, 175, 176, 177, 178, 179, 180, 181, 182, 183, 184, 185, 186, 187, 188, 189, 190, 191, 192, 193, 194, 195, 196, 197, 198, 199, 200],
      "AcquisitionTime": ["090113.492500", "090115.492500", "090117.492500", "090119.492500", "090121.492500", "090123.492500", "090125.492500", "090127.492500", "090129.492500", "090131.492500", "090133.492500", "090135.492500", "090137.492500", "090139.492500", "090141.492500", "090143.492500", "090145.492500", "090147.492500", "090149.492500", "090151.492500", "090153.492500", "090155.492500", "090157.492500", "090159.492500", "090201.492500", "090203.492500", "090205.492500", "090207.492500", "090209.492500", "090211.492500", "090213.492500", "090215.492500", "090217.492500", "090219.492500", "090221.492500", "090223.492500", "090225.492500", "090227.492500", "090229.492500", "090231.492500", "090233.492500", "090235.492500", "090237.492500", "090239.492500", "090241.492500", "090243.492500", "090245.492500", "090247.492500", "090249.492500", "090251.492500", "090253.492500", "090255.492500", "090257.492500", "090259.492500", "090301.492500", "090303.492500", "090305.492500", "090307.492500", "090309.492500", "090311.492500", "090313.492500", "090315.492500", "090317.492500", "090319.492500", "090321.492500", "090323.492500", "090325.492500", "090327.492500", "090329.492500", "090331.492500", "090333.492500", "090335.492500", "090337.492500", "090339.492500", "090341.492500", "090343.492500", "090345.492500", "090347.492500", "090349.492500", "090351.492500", "090353.492500", "090355.492500", "090357.492500", "090359.492500", "090401.492500", "090403.492500", "090405.492500", "090407.492500", "090409.492500", "090411.492500", "090413.492500", "090415.492500", "090417.492500", "090419.492500", "090421.492500", "090423.492500", "090425.492500", "090427.492500", "090429.492500", "090431.492500", "090433.492500", "090435.492500", "090437.492500", "090439.492500", "090441.492500", "090443.492500", "090445.492500", "090447.492500", "090449.492500", "090451.492500", "090453.492500", "090455.492500", "090457.492500", "090459.492500", "090501.492500", "090503.492500", "090505.492500", "090507.492500", "090509.492500", "090511.492500", "090513.492500", "090515.492500", "090517.492500", "090519.492500", "090521.492500", "090523.492500", "090525.492500", "090527.492500", "090529.492500", "090531.492500", "090533.492500", "090535.492500", "090537.492500", "090539.492500", "090541.492500", "090543.492500", "090545.492500", "090547.492500", "090549.492500", "090551.492500", "090553.492500", "090555.492500", "090557.492500", "090559.492500", "090601.492500", "090603.492500", "090605.492500", "090607.492500", "090609.492500", "090611.492500", "090613.492500", "090615.492500", "090617.492500", "090619.492500", "090621.492500", "090623.492500", "090625.492500", "090627.492500", "090629.492500", "090631.492500", "090633.492500", "090635.492500", "090637.492500", "090639.492500", "090641.492500", "090643.492500", "090645.492500", "090647.492500", "090649.492500", "090651.492500", "090653.492500", "090655.492500", "090657.492500", "090659.492500", "090701.492500", "090703.492500", "090705.492500", "090707.492500", "090709.492500", "090711.492500", "090713.492500", "090715.492500", "090717.492500", "090719.492500", "090721.492500", "090723.492500", "090725.492500", "090727.492500", "090729.492500", "090731.492500", "090733.492500", "090735.492500", "090737.492500", "090739.492500", "090741.492500", "090743.492500", "090745.492500", "090747.492500", "090749.492500", "090751.492500"],
      "ContentTime": ["090211.620000", "090211.624000", "090211.626000", "090211.629000", "090211.631000", "090211.634000", "090211.636000", "090211.639000", "090211.641000", "090211.644000", "090211.646000", "090211.649000", "090211.651000", "090211.663000", "090211.666000", "090211.668000", "090211.671000", "090211.673000", "090211.676000", "090211.678000", "090211.681000", "090211.683000", "090211.686000", "090211.688000", "090211.691000", "090211.693000", "090211.696000", "090211.698000", "090211.701000", "090251.616000", "090251.619000", "090251.622000", "090251.624000", "090251.627000", "090251.629000", "090251.632000", "090251.634000", "090251.637000", "090251.639000", "090251.642000", "090251.644000", "090251.647000", "090251.649000", "090251.652000", "090251.654000", "090251.657000", "090251.659000", "090251.662000", "090251.664000", "090331.615000", "090331.635000", "090331.637000", "090331.640000", "090331.642000", "090331.645000", "090331.647000", "090331.650000", "090331.652000", "090331.655000", "090331.657000", "090331.660000", "090331.662000", "090331.665000", "090331.667000", "090331.670000", "090331.672000", "090331.675000", "090331.677000", "090331.680000", "090411.616000", "090411.619000", "090411.622000", "090411.624000", "090411.627000", "090411.629000", "090411.632000", "090411.634000", "090411.637000", "090411.639000", "090411.642000", "090411.644000", "090411.647000", "090411.649000", "090411.652000", "090411.654000", "090411.657000", "090411.668000", "090411.671000", "090411.673000", "090451.615000", "090451.618000", "090451.621000", "090451.623000", "090451.626000", "090451.628000", "090451.631000", "090451.633000", "090451.636000", "090451.638000", "090451.641000", "090451.643000", "090451.646000", "090451.648000", "090451.651000", "090451.653000", "090451.656000", "090451.659000", "090451.661000", "090451.664000", "090531.616000", "090531.618000", "090531.621000", "090531.624000", "090531.626000", "090531.629000", "090531.631000", "090531.634000", "090531.636000", "090531.639000", "090531.641000", "090531.644000", "090531.646000", "090531.649000", "090531.651000", "090531.654000", "090531.656000", "090531.659000", "090531.662000", "090531.664000", "090611.616000", "090611.619000", "090611.622000", "090611.624000", "090611.627000", "090611.629000", "090611.632000", "090611.634000", "090611.648000", "090611.650000", "090611.653000", "090611.655000", "090611.658000", "090611.660000", "090611.663000", "090611.665000", "090611.668000", "090611.670000", "090611.673000", "090611.675000", "090651.615000", "090651.618000", "090651.621000", "090651.624000", "090651.626000", "090651.629000", "090651.631000", "090651.634000", "090651.636000", "090651.639000", "090651.641000", "090651.644000", "090651.647000", "090651.649000", "090651.652000", "090651.654000", "090651.657000", "090651.659000", "090651.662000", "090651.664000", "090731.616000", "090731.618000", "090731.621000", "090731.623000", "090731.632000", "090731.634000", "090731.637000", "090731.639000", "090731.642000", "090731.644000", "090731.647000", "090731.649000", "090731.652000", "090731.654000", "090731.657000", "090731.659000", "090731.662000", "090731.664000", "090731.667000", "090731.669000", "090752.956000", "090752.959000", "090752.961000", "090752.964000", "090752.967000", "090752.969000", "090752.972000", "090752.974000", "090752.977000", "090752.979000", "090752.982000"],
      "InstanceCreationTime": ["090211.620000", "090211.624000", "090211.626000", "090211.629000", "090211.631000", "090211.634000", "090211.636000", "090211.639000", "090211.641000", "090211.644000", "090211.646000", "090211.649000", "090211.651000", "090211.663000", "090211.666000", "090211.668000", "090211.671000", "090211.673000", "090211.676000", "090211.678000", "090211.681000", "090211.683000", "090211.686000", "090211.688000", "090211.691000", "090211.693000", "090211.696000", "090211.698000", "090211.701000", "090251.616000", "090251.619000", "090251.622000", "090251.624000", "090251.627000", "090251.629000", "090251.632000", "090251.634000", "090251.637000", "090251.639000", "090251.642000", "090251.644000", "090251.647000", "090251.649000", "090251.652000", "090251.654000", "090251.657000", "090251.659000", "090251.662000", "090251.664000", "090331.615000", "090331.635000", "090331.637000", "090331.640000", "090331.642000", "090331.645000", "090331.647000", "090331.650000", "090331.652000", "090331.655000", "090331.657000", "090331.660000", "090331.662000", "090331.665000", "090331.667000", "090331.670000", "090331.672000", "090331.675000", "090331.677000", "090331.680000", "090411.616000", "090411.619000", "090411.622000", "090411.624000", "090411.627000", "090411.629000", "090411.632000", "090411.634000", "090411.637000", "090411.639000", "090411.642000", "090411.644000", "090411.647000", "090411.649000", "090411.652000", "090411.654000", "090411.657000", "090411.668000", "090411.671000", "090411.673000", "090451.615000", "090451.618000", "090451.621000", "090451.623000", "090451.626000", "090451.628000", "090451.631000", "090451.633000", "090451.636000", "090451.638000", "090451.641000", "090451.643000", "090451.646000", "090451.648000", "090451.651000", "090451.653000", "090451.656000", "090451.659000", "090451.661000", "090451.664000", "090531.616000", "090531.618000", "090531.621000", "090531.624000", "090531.626000", "090531.629000", "090531.631000", "090531.634000", "090531.636000", "090531.639000", "090531.641000", "090531.644000", "090531.646000", "090531.649000", "090531.651000", "090531.654000", "090531.656000", "090531.659000", "090531.662000", "090531.664000", "090611.616000", "090611.619000", "090611.622000", "090611.624000", "090611.627000", "090611.629000", "090611.632000", "090611.634000", "090611.648000", "090611.650000", "090611.653000", "090611.655000", "090611.658000", "090611.660000", "090611.663000", "090611.665000", "090611.668000", "090611.670000", "090611.673000", "090611.675000", "090651.615000", "090651.618000", "090651.621000", "090651.624000", "090651.626000", "090651.629000", "090651.631000", "090651.634000", "090651.636000", "090651.639000", "090651.641000", "090651.644000", "090651.647000", "090651.649000", "090651.652000", "090651.654000", "090651.657000", "090651.659000", "090651.662000", "090651.664000", "090731.616000", "090731.618000", "090731.621000", "090731.623000", "090731.632000", "090731.634000", "090731.637000", "090731.639000", "090731.642000", "090731.644000", "090731.647000", "090731.649000", "090731.652000", "090731.654000", "090731.657000", "090731.659000", "090731.662000", "090731.664000", "090731.667000", "090731.669000", "090752.956000", "090752.959000", "090752.961000", "090752.964000", "090752.967000", "090752.969000", "090752.972000", "090752.974000", "090752.977000", "090752.979000", "090752.982000"],
      "InstanceNumber": [1, 2, 3, 4, 5, 6, 7, 8, 9, 10, 11, 12, 13, 14, 15, 16, 17, 18, 19, 20, 21, 22, 23, 24, 25, 26, 27, 28, 29, 30, 31, 32, 33, 34, 35, 36, 37, 38, 39, 40, 41, 42, 43, 44, 45, 46, 47, 48, 49, 50, 51, 52, 53, 54, 55, 56, 57, 58, 59, 60, 61, 62, 63, 64, 65, 66, 67, 68, 69, 70, 71, 72, 73, 74, 75, 76, 77, 78, 79, 80, 81, 82, 83, 84, 85, 86, 87, 88, 89, 90, 91, 92, 93, 94, 95, 96, 97, 98, 99, 100, 101, 102, 103, 104, 105, 106, 107, 108, 109, 110, 111, 112, 113, 114, 115, 116, 117, 118, 119, 120, 121, 122, 123, 124, 125, 126, 127, 128, 129, 130, 131, 132, 133, 134, 135, 136, 137, 138, 139, 140, 141, 142, 143, 144, 145, 146, 147, 148, 149, 150, 151, 152, 153, 154, 155, 156, 157, 158, 159, 160, 161, 162, 163, 164, 165, 166, 167, 168, 169, 170, 171, 172, 173, 174, 175, 176, 177, 178, 179, 180, 181, 182, 183, 184, 185, 186, 187, 188, 189, 190, 191, 192, 193, 194, 195, 196, 197, 198, 199, 200],
      "LargestImagePixelValue": [392, 393, 393, 395, 393, 394, 394, 391, 394, 393, 392, 393, 393, 392, 392, 394, 392, 392, 393, 393, 393, 392, 393, 392, 394, 392, 391, 393, 393, 393, 392, 392, 393, 395, 394, 394, 393, 391, 394, 395, 391, 393, 392, 391, 392, 393, 393, 393, 393, 392, 393, 393, 393, 392, 391, 394, 392, 392, 393, 394, 393, 392, 394, 394, 392, 391, 392, 394, 392, 394, 392, 393, 393, 391, 393, 393, 393, 392, 393, 394, 394, 394, 393, 393, 392, 392, 391, 392, 392, 393, 394, 392, 392, 392, 392, 392, 394, 392, 392, 392, 393, 393, 392, 392, 392, 393, 394, 391, 394, 391, 392, 391, 392, 392, 393, 392, 392, 393, 393, 392, 392, 393, 393, 392, 393, 392, 392, 392, 392, 391, 392, 392, 392, 393, 393, 392, 391, 392, 394, 394, 393, 391, 392, 392, 391, 391, 391, 392, 392, 394, 393, 392, 393, 393, 394, 393, 392, 393, 392, 391, 392, 391, 393, 393, 391, 391, 390, 391, 393, 392, 392, 392, 392, 393, 393, 392, 391, 392, 391, 391, 392, 392, 391, 392, 393, 393, 392, 392, 392, 390, 392, 392, 391, 393, 392, 394, 392, 391, 392, 393],
      "WindowCenter": [307.0, 307.0, 307.0, 307.0, 307.0, 307.0, 307.0, 307.0, 307.0, 307.0, 306.0, 307.0, 306.0, 306.0, 307.0, 307.0, 306.0, 307.0, 306.0, 306.0, 307.0, 307.0, 306.0, 307.0, 306.0, 306.0, 307.0, 307.0, 307.0, 306.0, 306.0, 306.0, 306.0, 307.0, 307.0, 306.0, 306.0, 306.0, 306.0, 307.0, 306.0, 306.0, 306.0, 306.0, 306.0, 306.0, 306.0, 306.0, 306.0, 306.0, 306.0, 306.0, 306.0, 306.0, 306.0, 306.0, 307.0, 307.0, 306.0, 306.0, 306.0, 306.0, 306.0, 306.0, 306.0, 306.0, 306.0, 306.0, 306.0, 306.0, 306.0, 306.0, 306.0, 306.0, 306.0, 306.0, 306.0, 306.0, 306.0, 306.0, 307.0, 306.0, 307.0, 306.0, 306.0, 306.0, 306.0, 306.0, 306.0, 306.0, 306.0, 306.0, 306.0, 306.0, 306.0, 306.0, 306.0, 306.0, 306.0, 306.0, 307.0, 307.0, 306.0, 306.0, 306.0, 306.0, 306.0, 306.0, 306.0, 307.0, 306.0, 306.0, 306.0, 306.0, 306.0, 306.0, 306.0, 306.0, 306.0, 306.0, 306.0, 306.0, 306.0, 306.0, 306.0, 306.0, 306.0, 306.0, 306.0, 306.0, 306.0, 306.0, 306.0, 306.0, 306.0, 306.0, 306.0, 306.0, 306.0, 306.0, 306.0, 306.0, 306.0, 306.0, 306.0, 306.0, 306.0, 306.0, 306.0, 306.0, 306.0, 306.0, 306.0, 306.0, 306.0, 306.0, 306.0, 306.0, 306.0, 306.0, 307.0, 306.0, 306.0, 307.0, 306.0, 306.0, 306.0, 306.0, 306.0, 306.0, 306.0, 306.0, 306.0, 306.0, 306.0, 306.0, 306.0, 306.0, 306.0, 306.0, 306.0, 306.0, 306.0, 306.0, 306.0, 306.0, 306.0, 306.0, 306.0, 306.0, 306.0, 306.0, 306.0, 306.0, 306.0, 306.0, 306.0, 306.0, 306.0, 306.0],
      "WindowWidth": [662.0, 662.0, 662.0, 662.0, 662.0, 662.0, 662.0, 661.0, 662.0, 662.0, 661.0, 662.0, 661.0, 661.0, 661.0, 661.0, 661.0, 661.0, 661.0, 661.0, 662.0, 661.0, 661.0, 661.0, 661.0, 661.0, 661.0, 661.0, 661.0, 661.0, 661.0, 661.0, 661.0, 661.0, 662.0, 661.0, 661.0, 661.0, 661.0, 661.0, 661.0, 661.0, 661.0, 661.0, 661.0, 661.0, 661.0, 661.0, 661.0, 661.0, 661.0, 661.0, 661.0, 661.0, 661.0, 661.0, 661.0, 661.0, 661.0, 661.0, 661.0, 661.0, 661.0, 661.0, 661.0, 661.0, 661.0, 661.0, 661.0, 661.0, 661.0, 661.0, 661.0, 661.0, 661.0, 661.0, 661.0, 661.0, 661.0, 661.0, 661.0, 661.0, 661.0, 661.0, 661.0, 661.0, 661.0, 661.0, 661.0, 661.0, 661.0, 661.0, 661.0, 661.0, 661.0, 661.0, 661.0, 661.0, 660.0, 661.0, 661.0, 661.0, 661.0, 661.0, 661.0, 661.0, 661.0, 661.0, 661.0, 661.0, 661.0, 661.0, 661.0, 660.0, 661.0, 661.0, 661.0, 660.0, 661.0, 661.0, 661.0, 661.0, 661.0, 661.0, 661.0, 660.0, 661.0, 660.0, 661.0, 661.0, 661.0, 661.0, 660.0, 661.0, 661.0, 660.0, 660.0, 661.0, 661.0, 661.0, 661.0, 661.0, 661.0, 660.0, 661.0, 660.0, 660.0, 661.0, 661.0, 660.0, 661.0, 661.0, 660.0, 661.0, 660.0, 661.0, 660.0, 661.0, 660.0, 661.0, 661.0, 660.0, 660.0, 661.0, 661.0, 660.0, 661.0, 660.0, 660.0, 660.0, 660.0, 661.0, 660.0, 660.0, 660.0, 660.0, 660.0, 661.0, 660.0, 661.0, 660.0, 661.0, 661.0, 661.0, 661.0, 660.0, 660.0, 660.0, 660.0, 660.0, 661.0, 661.0, 660.0, 661.0, 660.0, 660.0, 660.0, 660.0, 660.0, 660.0]
    },
    "slices": {}
  }
}