{
  "AcquisitionMatrixPE": 80,
  "AcquisitionNumber": 1,
  "AcquisitionTime": "14:42:38.475000",
  "BandwidthPerPixelPhaseEncode": 48.077,
  "BaseResolution": 80,
  "BodyPartExamined": "BRAIN",
  "CoilCombinationMethod": "Sum of Squares",
  "ConsistencyInfo": "N4_VE11C_LATEST_20160120",
  "ConversionSoftware": "dcm2niix",
  "ConversionSoftwareVersion": "v1.0.20220720",
  "DerivedVendorReportedEchoSpacing": 0.000519999,
  "DeviceSerialNumber": "66112",
  "DwellTime": 2.7e-06,
  "EchoTime": 0.035,
  "EchoTrainLength": 39,
  "EffectiveEchoSpacing": 0.00026,
  "FlipAngle": 90,
  "HeudiconvVersion": "0.13.1",
  "ImageOrientationPatientDICOM": [0.987889, 0.154909, 0.00883895, -0.15011, 0.939761, 0.307109],
  "ImageOrientationText": "Tra>Cor(17.8)>Sag(-2.3)",
  "ImageType": [
    "ORIGINAL",
    "PRIMARY",
    "M",
    "ND",
    "NORM",
    "MOSAIC"
],
  "ImagingFrequency": 123.252,
  "InPlanePhaseEncodingDirectionDICOM": "COL",
  "InstitutionAddress": "Maynard 3,Hanover,NH,US,03755",
  "InstitutionName": "Dartmouth College - PBS",
  "InstitutionalDepartmentName": "Department",
  "MRAcquisitionType": "2D",
  "MagneticFieldStrength": 3,
  "Manufacturer": "Siemens",
  "ManufacturersModelName": "Prisma",
  "MatrixCoilMode": "GRAPPA",
  "Modality": "MR",
  "NonlinearGradientCorrection": false,
  "ParallelReductionFactorInPlane": 2,
  "PartialFourier": 1,
  "PatientPosition": "HFS",
  "PercentPhaseFOV": 100,
  "PercentSampling": 100,
  "PhaseEncodingDirection": "j-",
  "PhaseEncodingSteps": 79,
  "PhaseResolution": 1,
  "PixelBandwidth": 2315,
  "ProcedureStepDescription": "dbic^QA",
  "ProtocolName": "func-bold_task-rest_acq-p2",
  "PulseSequenceDetails": "%SiemensSeq%\\ep2d_bold",
  "ReceiveCoilActiveElements": "HEA;HEP",
  "ReceiveCoilName": "Head_32",
  "ReconMatrixPE": 80,
  "RefLinesPE": 24,
  "RepetitionTime": 2,
  "SAR": 0.0558661,
  "ScanOptions": "FS",
  "ScanningSequence": "EP",
  "SequenceName": "*epfid2d1_80",
  "SequenceVariant": "SK",
  "SeriesDescription": "func-bold_task-rest_acq-p2",
  "SeriesNumber": 5,
  "ShimSetting": [4145, -7685, -7514, 348, -51, -206, -69, 70],
  "SliceThickness": 3.5,
  "SliceTiming": [0.99, 0, 1.055, 0.065, 1.1225, 0.1325, 1.1875, 0.1975, 1.255, 0.265, 1.32, 0.33, 1.385, 0.395, 1.4525, 0.4625, 1.5175, 0.5275, 1.585, 0.595, 1.65, 0.66, 1.715, 0.725, 1.7825, 0.7925, 1.8475, 0.8575, 1.915, 0.925],
  "SoftwareVersions": "syngo MR E11",
  "SpacingBetweenSlices": 3.99,
  "StationName": "AWP66112",
  "TaskName": "rest",
  "TotalReadoutTime": 0.02054,
  "TxRefAmp": 233.036,
  "dcmmeta_affine": [
    [-2.963667631149292, -0.4503293037414551, -0.1566772311925888, 138.61343383789062],
    [-0.4647265374660492, 2.8192832469940186, 1.2158207893371582, -104.97222900390625],
    [0.026516851037740707, -0.9213284850120544, 3.7970163822174072, -31.887142181396484],
    [0.0, 0.0, 0.0, 1.0]
],
  "dcmmeta_reorient_transform": [
    [0.0, -1.0, 0.0, 79.0],
    [1.0, 0.0, 0.0, 0.0],
    [0.0, 0.0, 1.0, 0.0],
    [0.0, 0.0, 0.0, 1.0]
],
  "dcmmeta_shape": [80, 80, 30, 200],
  "dcmmeta_slice_dim": 2,
  "dcmmeta_version": 0.6,
  "global": {
    "const": {
      "AccessionNumber": "qa",
      "AcquisitionMatrix": [80, 0, 0, 80],
      "AngioFlag": "N",
      "BitsAllocated": 16,
      "BitsStored": 12,
      "BodyPartExamined": "BRAIN",
      "Columns": 480,
      "EchoNumbers": 1,
      "EchoTime": 35.0,
      "EchoTrainLength": 39,
      "FlipAngle": 90.0,
      "HighBit": 11,
      "ImageOrientationPatient": [0.98788922579645, 0.15490884582088, 0.00883895026243, -0.1501097697439, 0.93976104446724, 0.3071094858992],
      "ImagePositionPatient": [-605.7050914812, -774.55306998511, -294.24115192944],
      "ImageType": [
        "ORIGINAL",
        "PRIMARY",
        "M",
        "ND",
        "NORM",
        "MOSAIC"
],
      "ImagedNucleus": "1H",
      "ImagingFrequency": 123.252461,
      "InPlanePhaseEncodingDirection": "COL",
      "MRAcquisitionType": "2D",
      "MagneticFieldStrength": 3.0,
      "Manufacturer": "SIEMENS",
      "ManufacturerModelName": "Prisma",
      "Modality": "MR",
      "NumberOfAverages": 1.0,
      "NumberOfPhaseEncodingSteps": 79,
      "PercentPhaseFieldOfView": 100.0,
      "PercentSampling": 100.0,
      "PerformedProcedureStepStartTime": "143642.564000",
      "PhotometricInterpretation": "MONOCHROME2",
      "PixelBandwidth": 2315.0,
      "PixelRepresentation": 0,
      "PixelSpacing": [3.0, 3.0],
      "ProtocolName": "func-bold_task-rest_acq-p2",
      "RepetitionTime": 2000.0,
      "Rows": 480,
      "SAR": 0.05586607805952,
      "SamplesPerPixel": 1,
      "ScanOptions": "FS",
      "ScanningSequence": "EP",
      "SequenceName": "*epfid2d1_80",
      "SequenceVariant": "SK",
      "SeriesDescription": "func-bold_task-rest_acq-p2",
      "SeriesNumber": 5,
      "SeriesTime": "144304.248000",
      "SliceLocation": -67.774680570266,
      "SliceThickness": 3.5,
      "SmallestImagePixelValue": 0,
      "SoftwareVersions": "syngo MR E11",
      "SpacingBetweenSlices": 3.9900001673103,
      "SpecificCharacterSet": "ISO_IR 100",
      "StudyID": "26",
      "StudyTime": "143642.508000",
      "TransmitCoilName": "Body",
      "VariableFlipAngleFlag": "N",
      "WindowCenterWidthExplanation": "Algo1",
      "dBdt": 0.0},
    "slices": {}
  },
  "time": {
    "samples": {
      "AcquisitionNumber": [1, 2, 3, 4, 5, 6, 7, 8, 9, 10, 11, 12, 13, 14, 15, 16, 17, 18, 19, 20, 21, 22, 23, 24, 25, 26, 27, 28, 29, 30, 31, 32, 33, 34, 35, 36, 37, 38, 39, 40, 41, 42, 43, 44, 45, 46, 47, 48, 49, 50, 51, 52, 53, 54, 55, 56, 57, 58, 59, 60, 61, 62, 63, 64, 65, 66, 67, 68, 69, 70, 71, 72, 73, 74, 75, 76, 77, 78, 79, 80, 81, 82, 83, 84, 85, 86, 87, 88, 89, 90, 91, 92, 93, 94, 95, 96, 97, 98, 99, 100, 101, 102, 103, 104, 105, 106, 107, 108, 109, 110, 111, 112, 113, 114, 115, 116, 117, 118, 119, 120, 121, 122, 123, 124, 125, 126, 127, 128, 129, 130, 131, 132, 133, 134, 135, 136, 137, 138, 139, 140, 141, 142, 143, 144, 145, 146, 147, 148, 149, 150, 151, 152, 153, 154, 155, 156, 157, 158, 159, 160, 161, 162, 163, 164, 165, 166, 167, 168, 169, 170, 171, 172, 173, 174, 175, 176, 177, 178, 179, 180, 181, 182, 183, 184, 185, 186, 187, 188, 189, 190, 191, 192, 193, 194, 195, 196, 197, 198, 199, 200],
      "AcquisitionTime": ["144238.475000", "144240.475000", "144242.475000", "144244.475000", "144246.475000", "144248.475000", "144250.475000", "144252.475000", "144254.475000", "144256.475000", "144258.475000", "144300.475000", "144302.475000", "144304.475000", "144306.475000", "144308.475000", "144310.475000", "144312.475000", "144314.475000", "144316.475000", "144318.475000", "144320.475000", "144322.475000", "144324.475000", "144326.475000", "144328.475000", "144330.475000", "144332.475000", "144334.475000", "144336.475000", "144338.475000", "144340.475000", "144342.475000", "144344.475000", "144346.475000", "144348.475000", "144350.475000", "144352.475000", "144354.475000", "144356.475000", "144358.475000", "144400.475000", "144402.475000", "144404.475000", "144406.475000", "144408.475000", "144410.475000", "144412.475000", "144414.475000", "144416.475000", "144418.475000", "144420.475000", "144422.475000", "144424.475000", "144426.475000", "144428.475000", "144430.475000", "144432.475000", "144434.475000", "144436.475000", "144438.475000", "144440.475000", "144442.475000", "144444.475000", "144446.475000", "144448.475000", "144450.475000", "144452.475000", "144454.475000", "144456.475000", "144458.475000", "144500.475000", "144502.475000", "144504.475000", "144506.475000", "144508.475000", "144510.475000", "144512.475000", "144514.475000", "144516.475000", "144518.475000", "144520.475000", "144522.475000", "144524.475000", "144526.475000", "144528.475000", "144530.475000", "144532.475000", "144534.475000", "144536.475000", "144538.475000", "144540.475000", "144542.475000", "144544.475000", "144546.475000", "144548.475000", "144550.475000", "144552.475000", "144554.475000", "144556.475000", "144558.475000", "144600.475000", "144602.475000", "144604.475000", "144606.475000", "144608.475000", "144610.475000", "144612.475000", "144614.475000", "144616.475000", "144618.475000", "144620.475000", "144622.475000", "144624.475000", "144626.475000", "144628.475000", "144630.475000", "144632.475000", "144634.475000", "144636.475000", "144638.475000", "144640.475000", "144642.475000", "144644.475000", "144646.475000", "144648.475000", "144650.475000", "144652.475000", "144654.475000", "144656.475000", "144658.475000", "144700.475000", "144702.475000", "144704.475000", "144706.475000", "144708.475000", "144710.475000", "144712.475000", "144714.475000", "144716.475000", "144718.475000", "144720.475000", "144722.475000", "144724.475000", "144726.475000", "144728.475000", "144730.475000", "144732.475000", "144734.475000", "144736.475000", "144738.475000", "144740.475000", "144742.475000", "144744.475000", "144746.475000", "144748.475000", "144750.475000", "144752.475000", "144754.475000", "144756.475000", "144758.475000", "144800.475000", "144802.475000", "144804.475000", "144806.475000", "144808.475000", "144810.475000", "144812.475000", "144814.475000", "144816.475000", "144818.475000", "144820.475000", "144822.475000", "144824.475000", "144826.475000", "144828.475000", "144830.475000", "144832.475000", "144834.475000", "144836.475000", "144838.475000", "144840.475000", "144842.475000", "144844.475000", "144846.475000", "144848.475000", "144850.475000", "144852.475000", "144854.475000", "144856.475000", "144858.475000", "144900.475000", "144902.475000", "144904.475000", "144906.475000", "144908.475000", "144910.475000", "144912.475000", "144914.475000", "144916.475000"],
      "ContentTime": ["144304.251000", "144304.255000", "144304.257000", "144304.260000", "144304.262000", "144304.265000", "144304.274000", "144304.276000", "144304.279000", "144304.281000", "144304.284000", "144304.287000", "144304.289000", "144344.246000", "144344.249000", "144344.252000", "144344.254000", "144344.257000", "144344.259000", "144344.262000", "144344.264000", "144344.267000", "144344.276000", "144344.279000", "144344.281000", "144344.284000", "144344.286000", "144344.289000", "144344.291000", "144344.294000", "144344.296000", "144344.299000", "144344.301000", "144424.245000", "144424.248000", "144424.251000", "144424.253000", "144424.256000", "144424.258000", "144424.261000", "144424.263000", "144424.266000", "144424.268000", "144424.271000", "144424.273000", "144424.276000", "144424.278000", "144424.281000", "144424.283000", "144424.286000", "144424.288000", "144424.291000", "144424.294000", "144504.246000", "144504.249000", "144504.252000", "144504.254000", "144504.257000", "144504.259000", "144504.262000", "144504.264000", "144504.267000", "144504.269000", "144504.272000", "144504.274000", "144504.277000", "144504.279000", "144504.282000", "144504.284000", "144504.287000", "144504.289000", "144504.292000", "144504.294000", "144544.246000", "144544.249000", "144544.265000", "144544.267000", "144544.270000", "144544.272000", "144544.275000", "144544.277000", "144544.280000", "144544.282000", "144544.294000", "144544.296000", "144544.299000", "144544.301000", "144544.304000", "144544.306000", "144544.309000", "144544.311000", "144544.314000", "144544.316000", "144624.245000", "144624.248000", "144624.251000", "144624.253000", "144624.256000", "144624.258000", "144624.261000", "144624.263000", "144624.266000", "144624.268000", "144624.271000", "144624.273000", "144624.276000", "144624.278000", "144624.281000", "144624.283000", "144624.286000", "144624.289000", "144624.291000", "144624.294000", "144704.245000", "144704.248000", "144704.251000", "144704.253000", "144704.256000", "144704.258000", "144704.261000", "144704.263000", "144704.266000", "144704.268000", "144704.271000", "144704.273000", "144704.276000", "144704.278000", "144704.281000", "144704.283000", "144704.286000", "144704.289000", "144704.291000", "144704.294000", "144744.246000", "144744.249000", "144744.252000", "144744.254000", "144744.257000", "144744.259000", "144744.262000", "144744.264000", "144744.267000", "144744.269000", "144744.272000", "144744.275000", "144744.277000", "144744.280000", "144744.282000", "144744.285000", "144744.287000", "144744.290000", "144744.292000", "144744.295000", "144824.247000", "144824.249000", "144824.252000", "144824.255000", "144824.257000", "144824.260000", "144824.262000", "144824.265000", "144824.267000", "144824.270000", "144824.272000", "144824.275000", "144824.277000", "144824.280000", "144824.282000", "144824.285000", "144824.287000", "144824.290000", "144824.292000", "144824.295000", "144904.245000", "144904.248000", "144904.251000", "144904.253000", "144904.256000", "144904.259000", "144904.261000", "144904.264000", "144904.266000", "144904.269000", "144904.271000", "144904.274000", "144904.276000", "144904.279000", "144904.281000", "144904.284000", "144904.286000", "144904.289000", "144904.291000", "144904.294000", "144917.892000", "144917.895000", "144917.898000", "144917.900000", "144917.903000", "144917.906000", "144917.908000"],
      "InstanceCreationTime": ["144304.251000", "144304.255000", "144304.257000", "144304.260000", "144304.262000", "144304.265000", "144304.274000", "144304.276000", "144304.279000", "144304.281000", "144304.284000", "144304.287000", "144304.289000", "144344.246000", "144344.249000", "144344.252000", "144344.254000", "144344.257000", "144344.259000", "144344.262000", "144344.264000", "144344.267000", "144344.276000", "144344.279000", "144344.281000", "144344.284000", "144344.286000", "144344.289000", "144344.291000", "144344.294000", "144344.296000", "144344.299000", "144344.301000", "144424.245000", "144424.248000", "144424.251000", "144424.253000", "144424.256000", "144424.258000", "144424.261000", "144424.263000", "144424.266000", "144424.268000", "144424.271000", "144424.273000", "144424.276000", "144424.278000", "144424.281000", "144424.283000", "144424.286000", "144424.288000", "144424.291000", "144424.294000", "144504.246000", "144504.249000", "144504.252000", "144504.254000", "144504.257000", "144504.259000", "144504.262000", "144504.264000", "144504.267000", "144504.269000", "144504.272000", "144504.274000", "144504.277000", "144504.279000", "144504.282000", "144504.284000", "144504.287000", "144504.289000", "144504.292000", "144504.294000", "144544.246000", "144544.249000", "144544.265000", "144544.267000", "144544.270000", "144544.272000", "144544.275000", "144544.277000", "144544.280000", "144544.282000", "144544.294000", "144544.296000", "144544.299000", "144544.301000", "144544.304000", "144544.306000", "144544.309000", "144544.311000", "144544.314000", "144544.316000", "144624.245000", "144624.248000", "144624.251000", "144624.253000", "144624.256000", "144624.258000", "144624.261000", "144624.263000", "144624.266000", "144624.268000", "144624.271000", "144624.273000", "144624.276000", "144624.278000", "144624.281000", "144624.283000", "144624.286000", "144624.289000", "144624.291000", "144624.294000", "144704.245000", "144704.248000", "144704.251000", "144704.253000", "144704.256000", "144704.258000", "144704.261000", "144704.263000", "144704.266000", "144704.268000", "144704.271000", "144704.273000", "144704.276000", "144704.278000", "144704.281000", "144704.283000", "144704.286000", "144704.289000", "144704.291000", "144704.294000", "144744.246000", "144744.249000", "144744.252000", "144744.254000", "144744.257000", "144744.259000", "144744.262000", "144744.264000", "144744.267000", "144744.269000", "144744.272000", "144744.275000", "144744.277000", "144744.280000", "144744.282000", "144744.285000", "144744.287000", "144744.290000", "144744.292000", "144744.295000", "144824.247000", "144824.249000", "144824.252000", "144824.255000", "144824.257000", "144824.260000", "144824.262000", "144824.265000", "144824.267000", "144824.270000", "144824.272000", "144824.275000", "144824.277000", "144824.280000", "144824.282000", "144824.285000", "144824.287000", "144824.290000", "144824.292000", "144824.295000", "144904.245000", "144904.248000", "144904.251000", "144904.253000", "144904.256000", "144904.259000", "144904.261000", "144904.264000", "144904.266000", "144904.269000", "144904.271000", "144904.274000", "144904.276000", "144904.279000", "144904.281000", "144904.284000", "144904.286000", "144904.289000", "144904.291000", "144904.294000", "144917.892000", "144917.895000", "144917.898000", "144917.900000", "144917.903000", "144917.906000", "144917.908000"],
      "InstanceNumber": [1, 2, 3, 4, 5, 6, 7, 8, 9, 10, 11, 12, 13, 14, 15, 16, 17, 18, 19, 20, 21, 22, 23, 24, 25, 26, 27, 28, 29, 30, 31, 32, 33, 34, 35, 36, 37, 38, 39, 40, 41, 42, 43, 44, 45, 46, 47, 48, 49, 50, 51, 52, 53, 54, 55, 56, 57, 58, 59, 60, 61, 62, 63, 64, 65, 66, 67, 68, 69, 70, 71, 72, 73, 74, 75, 76, 77, 78, 79, 80, 81, 82, 83, 84, 85, 86, 87, 88, 89, 90, 91, 92, 93, 94, 95, 96, 97, 98, 99, 100, 101, 102, 103, 104, 105, 106, 107, 108, 109, 110, 111, 112, 113, 114, 115, 116, 117, 118, 119, 120, 121, 122, 123, 124, 125, 126, 127, 128, 129, 130, 131, 132, 133, 134, 135, 136, 137, 138, 139, 140, 141, 142, 143, 144, 145, 146, 147, 148, 149, 150, 151, 152, 153, 154, 155, 156, 157, 158, 159, 160, 161, 162, 163, 164, 165, 166, 167, 168, 169, 170, 171, 172, 173, 174, 175, 176, 177, 178, 179, 180, 181, 182, 183, 184, 185, 186, 187, 188, 189, 190, 191, 192, 193, 194, 195, 196, 197, 198, 199, 200],
      "LargestImagePixelValue": [2094, 2074, 2093, 2090, 2086, 2092, 2100, 2084, 2086, 2079, 2080, 2080, 2096, 2087, 2077, 2095, 2089, 2088, 2089, 2093, 2090, 2084, 2089, 2096, 2087, 2093, 2089, 2084, 2084, 2086, 2091, 2088, 2087, 2086, 2081, 2100, 2098, 2087, 2097, 2094, 2084, 2087, 2085, 2090, 2087, 2083, 2087, 2084, 2089, 2088, 2089, 2081, 2088, 2087, 2081, 2082, 2085, 2082, 2082, 2087, 2089, 2096, 2087, 2090, 2087, 2090, 2089, 2086, 2093, 2086, 2093, 2090, 2089, 2087, 2091, 2086, 2082, 2088, 2085, 2087, 2093, 2087, 2083, 2096, 2096, 2088, 2083, 2085, 2077, 2090, 2093, 2087, 2088, 2083, 2088, 2084, 2076, 2076, 2090, 2084, 2088, 2088, 2083, 2090, 2087, 2086, 2100, 2097, 2078, 2083, 2084, 2083, 2081, 2080, 2086, 2089, 2082, 2079, 2089, 2074, 2091, 2075, 2081, 2088, 2088, 2087, 2071, 2090, 2087, 2085, 2077, 2086, 2092, 2082, 2093, 2089, 2073, 2083, 2079, 2089, 2084, 2084, 2093, 2084, 2080, 2094, 2090, 2079, 2086, 2082, 2088, 2084, 2087, 2091, 2082, 2086, 2085, 2086, 2084, 2088, 2076, 2077, 2083, 2083, 2084, 2089, 2096, 2086, 2075, 2091, 2087, 2086, 2084, 2079, 2089, 2085, 2085, 2082, 2082, 2085, 2087, 2087, 2081, 2079, 2082, 2085, 2085, 2080, 2081, 2084, 2099, 2088, 2087, 2094, 2072, 2074, 2083, 2080, 2070, 2094],
      "WindowCenter": [990.0, 990.0, 990.0, 990.0, 990.0, 990.0, 990.0, 990.0, 990.0, 990.0, 990.0, 990.0, 990.0, 990.0, 990.0, 990.0, 990.0, 990.0, 990.0, 990.0, 990.0, 990.0, 990.0, 990.0, 990.0, 990.0, 990.0, 990.0, 990.0, 990.0, 990.0, 990.0, 991.0, 990.0, 990.0, 990.0, 990.0, 990.0, 990.0, 990.0, 990.0, 990.0, 990.0, 990.0, 990.0, 990.0, 990.0, 990.0, 990.0, 990.0, 990.0, 990.0, 990.0, 990.0, 990.0, 990.0, 990.0, 990.0, 990.0, 990.0, 990.0, 990.0, 990.0, 990.0, 990.0, 990.0, 990.0, 990.0, 990.0, 990.0, 990.0, 990.0, 990.0, 990.0, 990.0, 991.0, 990.0, 990.0, 990.0, 990.0, 990.0, 990.0, 990.0, 990.0, 990.0, 990.0, 990.0, 990.0, 990.0, 990.0, 990.0, 990.0, 990.0, 990.0, 990.0, 990.0, 990.0, 990.0, 990.0, 990.0, 990.0, 990.0, 990.0, 990.0, 990.0, 990.0, 990.0, 990.0, 990.0, 990.0, 990.0, 990.0, 990.0, 990.0, 990.0, 990.0, 990.0, 990.0, 990.0, 990.0, 990.0, 990.0, 990.0, 989.0, 990.0, 990.0, 990.0, 990.0, 990.0, 990.0, 990.0, 990.0, 990.0, 990.0, 990.0, 990.0, 990.0, 990.0, 990.0, 990.0, 990.0, 990.0, 990.0, 990.0, 990.0, 989.0, 990.0, 989.0, 990.0, 989.0, 990.0, 989.0, 990.0, 990.0, 989.0, 990.0, 990.0, 989.0, 989.0, 989.0, 989.0, 989.0, 989.0, 989.0, 989.0, 989.0, 989.0, 989.0, 989.0, 989.0, 989.0, 989.0, 989.0, 989.0, 989.0, 989.0, 989.0, 989.0, 989.0, 990.0, 989.0, 989.0, 989.0, 989.0, 989.0, 989.0, 989.0, 989.0, 989.0, 989.0, 989.0, 989.0, 989.0, 989.0, 989.0, 989.0, 989.0, 989.0, 989.0, 989.0],
      "WindowWidth": [2173.0, 2172.0, 2172.0, 2172.0, 2172.0, 2172.0, 2172.0, 2172.0, 2172.0, 2172.0, 2172.0, 2172.0, 2172.0, 2172.0, 2172.0, 2172.0, 2172.0, 2172.0, 2172.0, 2172.0, 2172.0, 2172.0, 2172.0, 2172.0, 2172.0, 2172.0, 2172.0, 2172.0, 2172.0, 2172.0, 2172.0, 2172.0, 2172.0, 2172.0, 2172.0, 2172.0, 2172.0, 2172.0, 2171.0, 2172.0, 2171.0, 2172.0, 2172.0, 2172.0, 2171.0, 2172.0, 2172.0, 2172.0, 2172.0, 2171.0, 2171.0, 2171.0, 2171.0, 2171.0, 2171.0, 2172.0, 2172.0, 2171.0, 2171.0, 2171.0, 2171.0, 2171.0, 2171.0, 2171.0, 2171.0, 2172.0, 2171.0, 2171.0, 2171.0, 2171.0, 2171.0, 2171.0, 2171.0, 2171.0, 2171.0, 2172.0, 2171.0, 2171.0, 2171.0, 2172.0, 2171.0, 2171.0, 2171.0, 2171.0, 2171.0, 2171.0, 2171.0, 2171.0, 2171.0, 2171.0, 2171.0, 2171.0, 2171.0, 2171.0, 2171.0, 2171.0, 2171.0, 2171.0, 2171.0, 2171.0, 2171.0, 2171.0, 2171.0, 2171.0, 2171.0, 2171.0, 2171.0, 2171.0, 2171.0, 2171.0, 2171.0, 2171.0, 2171.0, 2171.0, 2171.0, 2171.0, 2171.0, 2171.0, 2171.0, 2171.0, 2171.0, 2171.0, 2171.0, 2171.0, 2171.0, 2171.0, 2171.0, 2171.0, 2171.0, 2171.0, 2171.0, 2171.0, 2171.0, 2171.0, 2171.0, 2171.0, 2171.0, 2171.0, 2171.0, 2171.0, 2171.0, 2171.0, 2171.0, 2171.0, 2171.0, 2171.0, 2171.0, 2171.0, 2171.0, 2171.0, 2170.0, 2170.0, 2170.0, 2171.0, 2171.0, 2171.0, 2171.0, 2171.0, 2171.0, 2170.0, 2170.0, 2171.0, 2171.0, 2171.0, 2170.0, 2171.0, 2171.0, 2170.0, 2170.0, 2170.0, 2170.0, 2170.0, 2170.0, 2170.0, 2170.0, 2170.0, 2170.0, 2170.0, 2170.0, 2170.0, 2170.0, 2170.0, 2170.0, 2170.0, 2170.0, 2170.0, 2170.0, 2170.0, 2170.0, 2170.0, 2170.0, 2170.0, 2170.0, 2170.0, 2170.0, 2170.0, 2170.0, 2170.0, 2170.0, 2170.0]
    },
    "slices": {}
  }
}