{
  "AcquisitionMatrixPE": 80,
  "AcquisitionNumber": 1,
  "AcquisitionTime": "08:26:59.542500",
  "BandwidthPerPixelPhaseEncode": 25,
  "BaseResolution": 80,
  "BodyPartExamined": "BRAIN",
  "CoilCombinationMethod": "Sum of Squares",
  "ConsistencyInfo": "N4_VE11C_LATEST_20160120",
  "ConversionSoftware": "dcm2niix",
  "ConversionSoftwareVersion": "v1.0.20220720",
  "DerivedVendorReportedEchoSpacing": 0.0005,
  "DeviceSerialNumber": "66112",
  "DwellTime": 2.7e-06,
  "EchoTime": 0.03,
  "EchoTrainLength": 80,
  "EffectiveEchoSpacing": 0.0005,
  "FlipAngle": 77,
  "HeudiconvVersion": "0.13.1",
  "ImageOrientationPatientDICOM": [0.988064, -0.154032, -0.00175465, 0.146962, 0.939174, 0.31041],
  "ImageOrientationText": "Tra>Cor(17.9)>Sag(2.6)",
  "ImageType": [
    "ORIGINAL",
    "PRIMARY",
    "M",
    "ND",
    "NORM",
    "MOSAIC"
],
  "ImagingFrequency": 123.252,
  "InPlanePhaseEncodingDirectionDICOM": "COL",
  "InstitutionAddress": "Maynard 3,Hanover,NH,US,03755",
  "InstitutionName": "Dartmouth College - PBS",
  "InstitutionalDepartmentName": "Department",
  "MRAcquisitionType": "2D",
  "MagneticFieldStrength": 3,
  "Manufacturer": "Siemens",
  "ManufacturersModelName": "Prisma",
  "MatrixCoilMode": "SENSE",
  "Modality": "MR",
  "NonlinearGradientCorrection": false,
  "PartialFourier": 1,
  "PatientPosition": "HFS",
  "PercentPhaseFOV": 100,
  "PercentSampling": 100,
  "PhaseEncodingDirection": "j-",
  "PhaseEncodingSteps": 80,
  "PhaseResolution": 1,
  "PixelBandwidth": 2315,
  "ProcedureStepDescription": "dbic^QA",
  "ProtocolName": "func-bold_fa-77",
  "PulseSequenceDetails": "%SiemensSeq%\\ep2d_bold",
  "ReceiveCoilActiveElements": "HC1-7;NC1,2",
  "ReceiveCoilName": "HeadNeck_64",
  "ReconMatrixPE": 80,
  "RepetitionTime": 2,
  "SAR": 0.0283235,
  "ScanOptions": "FS",
  "ScanningSequence": "EP",
  "SequenceName": "*epfid2d1_80",
  "SequenceVariant": "SK",
  "SeriesDescription": "func-bold_fa-77",
  "SeriesNumber": 7,
  "ShimSetting": [4140, -7704, -7512, 216, -81, -287, -10, 83],
  "SliceThickness": 3.5,
  "SliceTiming": [0.99, 0, 1.055, 0.065, 1.1225, 0.1325, 1.1875, 0.1975, 1.255, 0.265, 1.32, 0.33, 1.385, 0.395, 1.4525, 0.4625, 1.5175, 0.5275, 1.585, 0.595, 1.65, 0.66, 1.715, 0.725, 1.7825, 0.7925, 1.8475, 0.8575, 1.915, 0.925],
  "SoftwareVersions": "syngo MR E11",
  "SpacingBetweenSlices": 3.99,
  "StationName": "AWP66112",
  "TotalReadoutTime": 0.0395,
  "TxRefAmp": 210.914,
  "dcmmeta_affine": [
    [-2.9641926288604736, 0.4408860206604004, 0.1841994971036911, 97.6675033569336],
    [0.46209728717803955, 2.8175220489501953, 1.22478187084198, -130.2880096435547],
    [-0.005263937171548605, -0.9312300086021423, 3.792898416519165, -19.19304084777832],
    [0.0, 0.0, 0.0, 1.0]
],
  "dcmmeta_reorient_transform": [
    [0.0, -1.0, 0.0, 79.0],
    [1.0, 0.0, 0.0, 0.0],
    [0.0, 0.0, 1.0, 0.0],
    [0.0, 0.0, 0.0, 1.0]
],
  "dcmmeta_shape": [80, 80, 30, 200],
  "dcmmeta_slice_dim": 2,
  "dcmmeta_version": 0.6,
  "global": {
    "const": {
      "AccessionNumber": "qa64",
      "AcquisitionMatrix": [80, 0, 0, 80],
      "AngioFlag": "N",
      "BitsAllocated": 16,
      "BitsStored": 12,
      "BodyPartExamined": "BRAIN",
      "Columns": 480,
      "EchoNumbers": 1,
      "EchoTime": 30.0,
      "EchoTrainLength": 80,
      "FlipAngle": 77.0,
      "HighBit": 11,
      "ImageOrientationPatient": [0.98806423546134, -0.1540324245757, -0.0017546457013, 0.14696201164167, 0.93917399860932, 0.31040999898587],
      "ImagePositionPatient": [-813.51324686932, -563.38117577209, -277.95342342619],
      "ImageType": [
        "ORIGINAL",
        "PRIMARY",
        "M",
        "ND",
        "NORM",
        "MOSAIC"
],
      "ImagedNucleus": "1H",
      "ImagingFrequency": 123.252327,
      "InPlanePhaseEncodingDirection": "COL",
      "MRAcquisitionType": "2D",
      "MagneticFieldStrength": 3.0,
      "Manufacturer": "SIEMENS",
      "ManufacturerModelName": "Prisma",
      "Modality": "MR",
      "NumberOfAverages": 1.0,
      "NumberOfPhaseEncodingSteps": 80,
      "PercentPhaseFieldOfView": 100.0,
      "PercentSampling": 100.0,
      "PerformedProcedureStepStartTime": "081829.097000",
      "PhotometricInterpretation": "MONOCHROME2",
      "PixelBandwidth": 2315.0,
      "PixelRepresentation": 0,
      "PixelSpacing": [3.0, 3.0],
      "ProtocolName": "func-bold_fa-77",
      "RepetitionTime": 2000.0,
      "Rows": 480,
      "SAR": 0.02832348475435,
      "SamplesPerPixel": 1,
      "ScanOptions": "FS",
      "ScanningSequence": "EP",
      "SequenceName": "*epfid2d1_80",
      "SequenceVariant": "SK",
      "SeriesDescription": "func-bold_fa-77",
      "SeriesNumber": 7,
      "SeriesTime": "082746.134000",
      "SliceLocation": -53.729661562536,
      "SliceThickness": 3.5,
      "SmallestImagePixelValue": 0,
      "SoftwareVersions": "syngo MR E11",
      "SpacingBetweenSlices": 3.9899999257857,
      "SpecificCharacterSet": "ISO_IR 100",
      "StudyID": "58",
      "StudyTime": "081829.023000",
      "TransmitCoilName": "Body",
      "VariableFlipAngleFlag": "N",
      "WindowCenterWidthExplanation": "Algo1",
      "dBdt": 0.0},
    "slices": {}
  },
  "time": {
    "samples": {
      "AcquisitionNumber": [1, 2, 3, 4, 5, 6, 7, 8, 9, 10, 11, 12, 13, 14, 15, 16, 17, 18, 19, 20, 21, 22, 23, 24, 25, 26, 27, 28, 29, 30, 31, 32, 33, 34, 35, 36, 37, 38, 39, 40, 41, 42, 43, 44, 45, 46, 47, 48, 49, 50, 51, 52, 53, 54, 55, 56, 57, 58, 59, 60, 61, 62, 63, 64, 65, 66, 67, 68, 69, 70, 71, 72, 73, 74, 75, 76, 77, 78, 79, 80, 81, 82, 83, 84, 85, 86, 87, 88, 89, 90, 91, 92, 93, 94, 95, 96, 97, 98, 99, 100, 101, 102, 103, 104, 105, 106, 107, 108, 109, 110, 111, 112, 113, 114, 115, 116, 117, 118, 119, 120, 121, 122, 123, 124, 125, 126, 127, 128, 129, 130, 131, 132, 133, 134, 135, 136, 137, 138, 139, 140, 141, 142, 143, 144, 145, 146, 147, 148, 149, 150, 151, 152, 153, 154, 155, 156, 157, 158, 159, 160, 161, 162, 163, 164, 165, 166, 167, 168, 169, 170, 171, 172, 173, 174, 175, 176, 177, 178, 179, 180, 181, 182, 183, 184, 185, 186, 187, 188, 189, 190, 191, 192, 193, 194, 195, 196, 197, 198, 199, 200],
      "AcquisitionTime": ["082659.542500", "082701.542500", "082703.542500", "082705.542500", "082707.542500", "082709.542500", "082711.542500", "082713.542500", "082715.542500", "082717.542500", "082719.542500", "082721.542500", "082723.542500", "082725.542500", "082727.542500", "082729.542500", "082731.542500", "082733.542500", "082735.542500", "082737.542500", "082739.542500", "082741.542500", "082743.542500", "082745.542500", "082747.542500", "082749.542500", "082751.542500", "082753.542500", "082755.542500", "082757.542500", "082759.542500", "082801.542500", "082803.542500", "082805.542500", "082807.542500", "082809.542500", "082811.542500", "082813.542500", "082815.542500", "082817.542500", "082819.542500", "082821.542500", "082823.542500", "082825.542500", "082827.542500", "082829.542500", "082831.542500", "082833.542500", "082835.542500", "082837.542500", "082839.542500", "082841.542500", "082843.542500", "082845.542500", "082847.542500", "082849.542500", "082851.542500", "082853.542500", "082855.542500", "082857.542500", "082859.542500", "082901.542500", "082903.542500", "082905.542500", "082907.542500", "082909.542500", "082911.542500", "082913.542500", "082915.542500", "082917.542500", "082919.542500", "082921.542500", "082923.542500", "082925.542500", "082927.542500", "082929.542500", "082931.542500", "082933.542500", "082935.542500", "082937.542500", "082939.542500", "082941.542500", "082943.542500", "082945.542500", "082947.542500", "082949.542500", "082951.542500", "082953.542500", "082955.542500", "082957.542500", "082959.542500", "083001.542500", "083003.542500", "083005.542500", "083007.542500", "083009.542500", "083011.542500", "083013.542500", "083015.542500", "083017.542500", "083019.542500", "083021.542500", "083023.542500", "083025.542500", "083027.542500", "083029.542500", "083031.542500", "083033.542500", "083035.542500", "083037.542500", "083039.542500", "083041.542500", "083043.542500", "083045.542500", "083047.542500", "083049.542500", "083051.542500", "083053.542500", "083055.542500", "083057.542500", "083059.542500", "083101.542500", "083103.542500", "083105.542500", "083107.542500", "083109.542500", "083111.542500", "083113.542500", "083115.542500", "083117.542500", "083119.542500", "083121.542500", "083123.542500", "083125.542500", "083127.542500", "083129.542500", "083131.542500", "083133.542500", "083135.542500", "083137.542500", "083139.542500", "083141.542500", "083143.542500", "083145.542500", "083147.542500", "083149.542500", "083151.542500", "083153.542500", "083155.542500", "083157.542500", "083159.542500", "083201.542500", "083203.542500", "083205.542500", "083207.542500", "083209.542500", "083211.542500", "083213.542500", "083215.542500", "083217.542500", "083219.542500", "083221.542500", "083223.542500", "083225.542500", "083227.542500", "083229.542500", "083231.542500", "083233.542500", "083235.542500", "083237.542500", "083239.542500", "083241.542500", "083243.542500", "083245.542500", "083247.542500", "083249.542500", "083251.542500", "083253.542500", "083255.542500", "083257.542500", "083259.542500", "083301.542500", "083303.542500", "083305.542500", "083307.542500", "083309.542500", "083311.542500", "083313.542500", "083315.542500", "083317.542500", "083319.542500", "083321.542500", "083323.542500", "083325.542500", "083327.542500", "083329.542500", "083331.542500", "083333.542500", "083335.542500", "083337.542500"],
      "ContentTime": ["082746.137000", "082746.141000", "082746.143000", "082746.146000", "082746.148000", "082746.151000", "082746.153000", "082746.156000", "082746.159000", "082746.161000", "082746.164000", "082746.166000", "082746.169000", "082746.171000", "082746.182000", "082746.185000", "082746.188000", "082746.190000", "082746.193000", "082746.195000", "082746.198000", "082746.200000", "082746.212000", "082826.132000", "082826.135000", "082826.138000", "082826.140000", "082826.143000", "082826.145000", "082826.148000", "082826.150000", "082826.153000", "082826.165000", "082826.168000", "082826.170000", "082826.173000", "082826.175000", "082826.178000", "082826.180000", "082826.183000", "082826.186000", "082826.188000", "082826.191000", "082906.133000", "082906.136000", "082906.139000", "082906.142000", "082906.148000", "082906.150000", "082906.153000", "082906.162000", "082906.165000", "082906.167000", "082906.170000", "082906.172000", "082906.175000", "082906.177000", "082906.180000", "082906.182000", "082906.185000", "082906.187000", "082906.190000", "082906.192000", "082946.133000", "082946.136000", "082946.139000", "082946.141000", "082946.144000", "082946.146000", "082946.149000", "082946.151000", "082946.154000", "082946.156000", "082946.159000", "082946.162000", "082946.164000", "082946.167000", "082946.169000", "082946.172000", "082946.174000", "082946.177000", "082946.179000", "082946.182000", "083026.132000", "083026.136000", "083026.138000", "083026.141000", "083026.144000", "083026.146000", "083026.149000", "083026.151000", "083026.154000", "083026.156000", "083026.159000", "083026.161000", "083026.164000", "083026.166000", "083026.169000", "083026.171000", "083026.174000", "083026.176000", "083026.179000", "083026.181000", "083106.132000", "083106.135000", "083106.138000", "083106.147000", "083106.150000", "083106.152000", "083106.171000", "083106.174000", "083106.176000", "083106.179000", "083106.181000", "083106.184000", "083106.186000", "083106.189000", "083106.191000", "083106.194000", "083106.196000", "083106.199000", "083106.201000", "083106.204000", "083146.133000", "083146.136000", "083146.139000", "083146.141000", "083146.144000", "083146.146000", "083146.149000", "083146.151000", "083146.154000", "083146.157000", "083146.159000", "083146.162000", "083146.164000", "083146.167000", "083146.169000", "083146.172000", "083146.174000", "083146.177000", "083146.179000", "083146.182000", "083226.133000", "083226.135000", "083226.138000", "083226.141000", "083226.143000", "083226.146000", "083226.149000", "083226.151000", "083226.154000", "083226.156000", "083226.159000", "083226.161000", "083226.164000", "083226.166000", "083226.169000", "083226.171000", "083226.174000", "083226.176000", "083226.179000", "083226.181000", "083306.133000", "083306.135000", "083306.138000", "083306.141000", "083306.143000", "083306.146000", "083306.148000", "083306.151000", "083306.153000", "083306.156000", "083306.158000", "083306.161000", "083306.163000", "083306.166000", "083306.168000", "083306.171000", "083306.174000", "083306.176000", "083306.179000", "083306.181000", "083339.563000", "083339.566000", "083339.569000", "083339.571000", "083339.574000", "083339.577000", "083339.579000", "083339.582000", "083339.584000", "083339.587000", "083339.590000", "083339.592000", "083339.601000", "083339.606000", "083339.613000", "083339.616000", "083339.622000"],
      "InstanceCreationTime": ["082746.137000", "082746.141000", "082746.143000", "082746.146000", "082746.148000", "082746.151000", "082746.153000", "082746.156000", "082746.159000", "082746.161000", "082746.164000", "082746.166000", "082746.169000", "082746.171000", "082746.182000", "082746.185000", "082746.188000", "082746.190000", "082746.193000", "082746.195000", "082746.198000", "082746.200000", "082746.212000", "082826.132000", "082826.135000", "082826.138000", "082826.140000", "082826.143000", "082826.145000", "082826.148000", "082826.150000", "082826.153000", "082826.165000", "082826.168000", "082826.170000", "082826.173000", "082826.175000", "082826.178000", "082826.180000", "082826.183000", "082826.186000", "082826.188000", "082826.191000", "082906.133000", "082906.136000", "082906.139000", "082906.142000", "082906.148000", "082906.150000", "082906.153000", "082906.162000", "082906.165000", "082906.167000", "082906.170000", "082906.172000", "082906.175000", "082906.177000", "082906.180000", "082906.182000", "082906.185000", "082906.187000", "082906.190000", "082906.192000", "082946.133000", "082946.136000", "082946.139000", "082946.141000", "082946.144000", "082946.146000", "082946.149000", "082946.151000", "082946.154000", "082946.156000", "082946.159000", "082946.162000", "082946.164000", "082946.167000", "082946.169000", "082946.172000", "082946.174000", "082946.177000", "082946.179000", "082946.182000", "083026.132000", "083026.136000", "083026.138000", "083026.141000", "083026.144000", "083026.146000", "083026.149000", "083026.151000", "083026.154000", "083026.156000", "083026.159000", "083026.161000", "083026.164000", "083026.166000", "083026.169000", "083026.171000", "083026.174000", "083026.176000", "083026.179000", "083026.181000", "083106.132000", "083106.135000", "083106.138000", "083106.147000", "083106.150000", "083106.152000", "083106.171000", "083106.174000", "083106.176000", "083106.179000", "083106.181000", "083106.184000", "083106.186000", "083106.189000", "083106.191000", "083106.194000", "083106.196000", "083106.199000", "083106.201000", "083106.204000", "083146.133000", "083146.136000", "083146.139000", "083146.141000", "083146.144000", "083146.146000", "083146.149000", "083146.151000", "083146.154000", "083146.157000", "083146.159000", "083146.162000", "083146.164000", "083146.167000", "083146.169000", "083146.172000", "083146.174000", "083146.177000", "083146.179000", "083146.182000", "083226.133000", "083226.135000", "083226.138000", "083226.141000", "083226.143000", "083226.146000", "083226.149000", "083226.151000", "083226.154000", "083226.156000", "083226.159000", "083226.161000", "083226.164000", "083226.166000", "083226.169000", "083226.171000", "083226.174000", "083226.176000", "083226.179000", "083226.181000", "083306.133000", "083306.135000", "083306.138000", "083306.141000", "083306.143000", "083306.146000", "083306.148000", "083306.151000", "083306.153000", "083306.156000", "083306.158000", "083306.161000", "083306.163000", "083306.166000", "083306.168000", "083306.171000", "083306.174000", "083306.176000", "083306.179000", "083306.181000", "083339.563000", "083339.566000", "083339.569000", "083339.571000", "083339.574000", "083339.577000", "083339.579000", "083339.582000", "083339.584000", "083339.587000", "083339.590000", "083339.592000", "083339.601000", "083339.606000", "083339.613000", "083339.616000", "083339.622000"],
      "InstanceNumber": [1, 2, 3, 4, 5, 6, 7, 8, 9, 10, 11, 12, 13, 14, 15, 16, 17, 18, 19, 20, 21, 22, 23, 24, 25, 26, 27, 28, 29, 30, 31, 32, 33, 34, 35, 36, 37, 38, 39, 40, 41, 42, 43, 44, 45, 46, 47, 48, 49, 50, 51, 52, 53, 54, 55, 56, 57, 58, 59, 60, 61, 62, 63, 64, 65, 66, 67, 68, 69, 70, 71, 72, 73, 74, 75, 76, 77, 78, 79, 80, 81, 82, 83, 84, 85, 86, 87, 88, 89, 90, 91, 92, 93, 94, 95, 96, 97, 98, 99, 100, 101, 102, 103, 104, 105, 106, 107, 108, 109, 110, 111, 112, 113, 114, 115, 116, 117, 118, 119, 120, 121, 122, 123, 124, 125, 126, 127, 128, 129, 130, 131, 132, 133, 134, 135, 136, 137, 138, 139, 140, 141, 142, 143, 144, 145, 146, 147, 148, 149, 150, 151, 152, 153, 154, 155, 156, 157, 158, 159, 160, 161, 162, 163, 164, 165, 166, 167, 168, 169, 170, 171, 172, 173, 174, 175, 176, 177, 178, 179, 180, 181, 182, 183, 184, 185, 186, 187, 188, 189, 190, 191, 192, 193, 194, 195, 196, 197, 198, 199, 200],
      "LargestImagePixelValue": [3784, 3787, 3795, 3791, 3788, 3781, 3776, 3770, 3776, 3774, 3788, 3791, 3793, 3790, 3792, 3790, 3786, 3775, 3775, 3776, 3785, 3785, 3786, 3788, 3786, 3791, 3785, 3784, 3785, 3788, 3782, 3784, 3783, 3786, 3786, 3784, 3783, 3783, 3785, 3784, 3784, 3785, 3786, 3786, 3786, 3783, 3786, 3782, 3786, 3780, 3784, 3781, 3786, 3785, 3785, 3782, 3786, 3782, 3785, 3783, 3786, 3785, 3783, 3779, 3785, 3783, 3785, 3785, 3783, 3784, 3781, 3784, 3784, 3781, 3778, 3783, 3787, 3786, 3783, 3781, 3783, 3784, 3785, 3785, 3782, 3784, 3784, 3779, 3784, 3784, 3785, 3779, 3780, 3784, 3788, 3782, 3782, 3781, 3782, 3784, 3783, 3782, 3782, 3787, 3785, 3780, 3780, 3787, 3779, 3782, 3783, 3781, 3784, 3780, 3783, 3781, 3782, 3788, 3784, 3787, 3781, 3785, 3782, 3778, 3776, 3780, 3781, 3785, 3780, 3786, 3787, 3781, 3778, 3777, 3777, 3777, 3781, 3784, 3785, 3784, 3783, 3781, 3783, 3780, 3783, 3779, 3787, 3779, 3782, 3782, 3784, 3781, 3779, 3781, 3780, 3775, 3780, 3780, 3781, 3776, 3780, 3785, 3778, 3780, 3778, 3774, 3781, 3777, 3781, 3782, 3780, 3777, 3787, 3777, 3782, 3782, 3781, 3779, 3784, 3782, 3777, 3779, 3778, 3778, 3778, 3775, 3781, 3779, 3778, 3776, 3775, 3781, 3775, 3779, 3781, 3778, 3773, 3782, 3778, 3783],
      "WindowCenter": [1366.0, 1365.0, 1365.0, 1366.0, 1366.0, 1366.0, 1365.0, 1366.0, 1366.0, 1366.0, 1366.0, 1365.0, 1365.0, 1365.0, 1364.0, 1365.0, 1365.0, 1365.0, 1365.0, 1365.0, 1365.0, 1365.0, 1365.0, 1365.0, 1365.0, 1365.0, 1365.0, 1364.0, 1365.0, 1365.0, 1364.0, 1365.0, 1364.0, 1365.0, 1365.0, 1365.0, 1364.0, 1365.0, 1365.0, 1366.0, 1365.0, 1365.0, 1364.0, 1364.0, 1365.0, 1365.0, 1365.0, 1364.0, 1365.0, 1365.0, 1365.0, 1365.0, 1365.0, 1365.0, 1365.0, 1364.0, 1365.0, 1364.0, 1365.0, 1365.0, 1365.0, 1365.0, 1365.0, 1364.0, 1364.0, 1364.0, 1363.0, 1365.0, 1364.0, 1365.0, 1364.0, 1364.0, 1364.0, 1364.0, 1364.0, 1364.0, 1364.0, 1364.0, 1364.0, 1364.0, 1364.0, 1364.0, 1364.0, 1364.0, 1364.0, 1365.0, 1364.0, 1364.0, 1364.0, 1363.0, 1364.0, 1364.0, 1364.0, 1364.0, 1364.0, 1364.0, 1364.0, 1364.0, 1364.0, 1363.0, 1363.0, 1364.0, 1363.0, 1364.0, 1363.0, 1364.0, 1364.0, 1364.0, 1364.0, 1363.0, 1364.0, 1364.0, 1364.0, 1364.0, 1363.0, 1363.0, 1364.0, 1363.0, 1363.0, 1363.0, 1363.0, 1363.0, 1363.0, 1363.0, 1364.0, 1363.0, 1363.0, 1363.0, 1364.0, 1363.0, 1364.0, 1363.0, 1363.0, 1364.0, 1363.0, 1363.0, 1363.0, 1363.0, 1363.0, 1363.0, 1363.0, 1363.0, 1363.0, 1363.0, 1364.0, 1363.0, 1363.0, 1363.0, 1363.0, 1363.0, 1363.0, 1363.0, 1363.0, 1363.0, 1363.0, 1363.0, 1363.0, 1363.0, 1363.0, 1363.0, 1363.0, 1363.0, 1363.0, 1363.0, 1363.0, 1363.0, 1363.0, 1363.0, 1362.0, 1362.0, 1363.0, 1363.0, 1363.0, 1363.0, 1362.0, 1362.0, 1362.0, 1362.0, 1363.0, 1363.0, 1363.0, 1363.0, 1363.0, 1363.0, 1362.0, 1362.0, 1362.0, 1362.0, 1363.0, 1362.0, 1362.0, 1362.0, 1362.0, 1362.0, 1362.0, 1362.0, 1362.0, 1362.0, 1362.0, 1362.0],
      "WindowWidth": [3269.0, 3269.0, 3269.0, 3269.0, 3269.0, 3269.0, 3269.0, 3269.0, 3269.0, 3269.0, 3269.0, 3269.0, 3268.0, 3268.0, 3268.0, 3268.0, 3268.0, 3268.0, 3268.0, 3268.0, 3268.0, 3268.0, 3268.0, 3268.0, 3268.0, 3268.0, 3268.0, 3268.0, 3268.0, 3268.0, 3268.0, 3268.0, 3268.0, 3268.0, 3268.0, 3268.0, 3268.0, 3268.0, 3268.0, 3268.0, 3268.0, 3268.0, 3268.0, 3268.0, 3268.0, 3268.0, 3268.0, 3268.0, 3268.0, 3268.0, 3268.0, 3268.0, 3268.0, 3268.0, 3268.0, 3268.0, 3268.0, 3268.0, 3268.0, 3268.0, 3268.0, 3268.0, 3268.0, 3267.0, 3267.0, 3267.0, 3267.0, 3267.0, 3267.0, 3267.0, 3267.0, 3267.0, 3267.0, 3267.0, 3267.0, 3267.0, 3267.0, 3267.0, 3266.0, 3267.0, 3267.0, 3267.0, 3267.0, 3267.0, 3267.0, 3266.0, 3267.0, 3266.0, 3266.0, 3266.0, 3266.0, 3266.0, 3266.0, 3266.0, 3266.0, 3266.0, 3266.0, 3266.0, 3266.0, 3267.0, 3267.0, 3266.0, 3267.0, 3266.0, 3267.0, 3266.0, 3266.0, 3266.0, 3266.0, 3266.0, 3266.0, 3266.0, 3266.0, 3266.0, 3266.0, 3266.0, 3266.0, 3266.0, 3266.0, 3266.0, 3266.0, 3266.0, 3266.0, 3266.0, 3265.0, 3266.0, 3266.0, 3266.0, 3265.0, 3266.0, 3265.0, 3266.0, 3265.0, 3265.0, 3265.0, 3265.0, 3265.0, 3265.0, 3265.0, 3266.0, 3265.0, 3265.0, 3265.0, 3265.0, 3265.0, 3265.0, 3265.0, 3265.0, 3265.0, 3265.0, 3265.0, 3264.0, 3265.0, 3264.0, 3264.0, 3264.0, 3264.0, 3264.0, 3264.0, 3264.0, 3264.0, 3264.0, 3264.0, 3264.0, 3264.0, 3264.0, 3264.0, 3264.0, 3264.0, 3264.0, 3264.0, 3264.0, 3264.0, 3264.0, 3264.0, 3264.0, 3264.0, 3264.0, 3264.0, 3264.0, 3264.0, 3264.0, 3264.0, 3264.0, 3263.0, 3264.0, 3264.0, 3263.0, 3264.0, 3264.0, 3263.0, 3264.0, 3263.0, 3264.0, 3263.0, 3263.0, 3263.0, 3263.0, 3263.0, 3263.0]
    },
    "slices": {}
  }
}