{
  "AcquisitionMatrixPE": 80,
  "AcquisitionNumber": 1,
  "AcquisitionTime": "08:33:46.527500",
  "BandwidthPerPixelPhaseEncode": 25,
  "BaseResolution": 80,
  "BodyPartExamined": "BRAIN",
  "CoilCombinationMethod": "Sum of Squares",
  "ConsistencyInfo": "N4_VE11C_LATEST_20160120",
  "ConversionSoftware": "dcm2niix",
  "ConversionSoftwareVersion": "v1.0.20220720",
  "DerivedVendorReportedEchoSpacing": 0.0005,
  "DeviceSerialNumber": "66112",
  "DwellTime": 2.7e-06,
  "EchoTime": 0.03,
  "EchoTrainLength": 80,
  "EffectiveEchoSpacing": 0.0005,
  "FlipAngle": 10,
  "HeudiconvVersion": "0.13.1",
  "ImageOrientationPatientDICOM": [0.988064, -0.154032, -0.00175465, 0.146962, 0.939174, 0.31041],
  "ImageOrientationText": "Tra>Cor(17.9)>Sag(2.6)",
  "ImageType": [
    "ORIGINAL",
    "PRIMARY",
    "M",
    "ND",
    "NORM",
    "MOSAIC"
],
  "ImagingFrequency": 123.252,
  "InPlanePhaseEncodingDirectionDICOM": "COL",
  "InstitutionAddress": "Maynard 3,Hanover,NH,US,03755",
  "InstitutionName": "Dartmouth College - PBS",
  "InstitutionalDepartmentName": "Department",
  "MRAcquisitionType": "2D",
  "MagneticFieldStrength": 3,
  "Manufacturer": "Siemens",
  "ManufacturersModelName": "Prisma",
  "MatrixCoilMode": "SENSE",
  "Modality": "MR",
  "NonlinearGradientCorrection": false,
  "PartialFourier": 1,
  "PatientPosition": "HFS",
  "PercentPhaseFOV": 100,
  "PercentSampling": 100,
  "PhaseEncodingDirection": "j-",
  "PhaseEncodingSteps": 80,
  "PhaseResolution": 1,
  "PixelBandwidth": 2315,
  "ProcedureStepDescription": "dbic^QA",
  "ProtocolName": "func-bold_fa-10",
  "PulseSequenceDetails": "%SiemensSeq%\\ep2d_bold",
  "ReceiveCoilActiveElements": "HC1-7;NC1,2",
  "ReceiveCoilName": "HeadNeck_64",
  "ReconMatrixPE": 80,
  "RepetitionTime": 2,
  "SAR": 0.00759775,
  "ScanOptions": "FS",
  "ScanningSequence": "EP",
  "SequenceName": "*epfid2d1_80",
  "SequenceVariant": "SK",
  "SeriesDescription": "func-bold_fa-10",
  "SeriesNumber": 9,
  "ShimSetting": [4140, -7704, -7512, 216, -81, -287, -10, 83],
  "SliceThickness": 3.5,
  "SliceTiming": [0.9875, 0, 1.055, 0.065, 1.12, 0.13, 1.1875, 0.1975, 1.2525, 0.2625, 1.3175, 0.3275, 1.385, 0.395, 1.45, 0.46, 1.5175, 0.5275, 1.5825, 0.5925, 1.6475, 0.6575, 1.715, 0.725, 1.78, 0.79, 1.8475, 0.8575, 1.9125, 0.9225],
  "SoftwareVersions": "syngo MR E11",
  "SpacingBetweenSlices": 3.99,
  "StationName": "AWP66112",
  "TotalReadoutTime": 0.0395,
  "TxRefAmp": 210.914,
  "dcmmeta_affine": [
    [-2.9641926288604736, 0.4408860206604004, 0.1841994971036911, 97.6675033569336],
    [0.46209728717803955, 2.8175220489501953, 1.22478187084198, -130.2880096435547],
    [-0.005263937171548605, -0.9312300086021423, 3.792898416519165, -19.19304084777832],
    [0.0, 0.0, 0.0, 1.0]
],
  "dcmmeta_reorient_transform": [
    [0.0, -1.0, 0.0, 79.0],
    [1.0, 0.0, 0.0, 0.0],
    [0.0, 0.0, 1.0, 0.0],
    [0.0, 0.0, 0.0, 1.0]
],
  "dcmmeta_shape": [80, 80, 30, 200],
  "dcmmeta_slice_dim": 2,
  "dcmmeta_version": 0.6,
  "global": {
    "const": {
      "AccessionNumber": "qa64",
      "AcquisitionMatrix": [80, 0, 0, 80],
      "AngioFlag": "N",
      "BitsAllocated": 16,
      "BitsStored": 12,
      "BodyPartExamined": "BRAIN",
      "Columns": 480,
      "EchoNumbers": 1,
      "EchoTime": 30.0,
      "EchoTrainLength": 80,
      "FlipAngle": 10.0,
      "HighBit": 11,
      "ImageOrientationPatient": [0.98806423546134, -0.1540324245757, -0.0017546457013, 0.14696201164167, 0.93917399860932, 0.31040999898587],
      "ImagePositionPatient": [-813.51324686932, -563.38117577209, -277.95342342619],
      "ImageType": [
        "ORIGINAL",
        "PRIMARY",
        "M",
        "ND",
        "NORM",
        "MOSAIC"
],
      "ImagedNucleus": "1H",
      "ImagingFrequency": 123.252329,
      "InPlanePhaseEncodingDirection": "COL",
      "MRAcquisitionType": "2D",
      "MagneticFieldStrength": 3.0,
      "Manufacturer": "SIEMENS",
      "ManufacturerModelName": "Prisma",
      "Modality": "MR",
      "NumberOfAverages": 1.0,
      "NumberOfPhaseEncodingSteps": 80,
      "PercentPhaseFieldOfView": 100.0,
      "PercentSampling": 100.0,
      "PerformedProcedureStepStartTime": "081829.097000",
      "PhotometricInterpretation": "MONOCHROME2",
      "PixelBandwidth": 2315.0,
      "PixelRepresentation": 0,
      "PixelSpacing": [3.0, 3.0],
      "ProtocolName": "func-bold_fa-10",
      "RepetitionTime": 2000.0,
      "Rows": 480,
      "SAR": 0.00759774922985,
      "SamplesPerPixel": 1,
      "ScanOptions": "FS",
      "ScanningSequence": "EP",
      "SequenceName": "*epfid2d1_80",
      "SequenceVariant": "SK",
      "SeriesDescription": "func-bold_fa-10",
      "SeriesNumber": 9,
      "SeriesTime": "083445.993000",
      "SliceLocation": -53.729661562536,
      "SliceThickness": 3.5,
      "SmallestImagePixelValue": 0,
      "SoftwareVersions": "syngo MR E11",
      "SpacingBetweenSlices": 3.9899999257857,
      "SpecificCharacterSet": "ISO_IR 100",
      "StudyID": "58",
      "StudyTime": "081829.023000",
      "TransmitCoilName": "Body",
      "VariableFlipAngleFlag": "N",
      "WindowCenterWidthExplanation": "Algo1",
      "dBdt": 0.0},
    "slices": {}
  },
  "time": {
    "samples": {
      "AcquisitionNumber": [1, 2, 3, 4, 5, 6, 7, 8, 9, 10, 11, 12, 13, 14, 15, 16, 17, 18, 19, 20, 21, 22, 23, 24, 25, 26, 27, 28, 29, 30, 31, 32, 33, 34, 35, 36, 37, 38, 39, 40, 41, 42, 43, 44, 45, 46, 47, 48, 49, 50, 51, 52, 53, 54, 55, 56, 57, 58, 59, 60, 61, 62, 63, 64, 65, 66, 67, 68, 69, 70, 71, 72, 73, 74, 75, 76, 77, 78, 79, 80, 81, 82, 83, 84, 85, 86, 87, 88, 89, 90, 91, 92, 93, 94, 95, 96, 97, 98, 99, 100, 101, 102, 103, 104, 105, 106, 107, 108, 109, 110, 111, 112, 113, 114, 115, 116, 117, 118, 119, 120, 121, 122, 123, 124, 125, 126, 127, 128, 129, 130, 131, 132, 133, 134, 135, 136, 137, 138, 139, 140, 141, 142, 143, 144, 145, 146, 147, 148, 149, 150, 151, 152, 153, 154, 155, 156, 157, 158, 159, 160, 161, 162, 163, 164, 165, 166, 167, 168, 169, 170, 171, 172, 173, 174, 175, 176, 177, 178, 179, 180, 181, 182, 183, 184, 185, 186, 187, 188, 189, 190, 191, 192, 193, 194, 195, 196, 197, 198, 199, 200],
      "AcquisitionTime": ["083346.527500", "083348.527500", "083350.527500", "083352.527500", "083354.527500", "083356.527500", "083358.527500", "083400.527500", "083402.527500", "083404.527500", "083406.527500", "083408.527500", "083410.527500", "083412.527500", "083414.527500", "083416.527500", "083418.527500", "083420.527500", "083422.527500", "083424.527500", "083426.527500", "083428.527500", "083430.527500", "083432.527500", "083434.527500", "083436.527500", "083438.527500", "083440.527500", "083442.527500", "083444.527500", "083446.527500", "083448.527500", "083450.527500", "083452.527500", "083454.527500", "083456.527500", "083458.527500", "083500.527500", "083502.527500", "083504.527500", "083506.527500", "083508.527500", "083510.527500", "083512.527500", "083514.527500", "083516.527500", "083518.527500", "083520.527500", "083522.527500", "083524.527500", "083526.527500", "083528.527500", "083530.527500", "083532.527500", "083534.527500", "083536.527500", "083538.527500", "083540.527500", "083542.527500", "083544.527500", "083546.527500", "083548.527500", "083550.527500", "083552.527500", "083554.527500", "083556.527500", "083558.527500", "083600.527500", "083602.527500", "083604.527500", "083606.527500", "083608.527500", "083610.527500", "083612.527500", "083614.527500", "083616.527500", "083618.527500", "083620.527500", "083622.527500", "083624.527500", "083626.527500", "083628.527500", "083630.527500", "083632.527500", "083634.527500", "083636.527500", "083638.527500", "083640.527500", "083642.527500", "083644.527500", "083646.527500", "083648.527500", "083650.527500", "083652.527500", "083654.527500", "083656.527500", "083658.527500", "083700.527500", "083702.527500", "083704.527500", "083706.527500", "083708.527500", "083710.527500", "083712.527500", "083714.527500", "083716.527500", "083718.527500", "083720.527500", "083722.527500", "083724.527500", "083726.527500", "083728.527500", "083730.527500", "083732.527500", "083734.527500", "083736.527500", "083738.527500", "083740.527500", "083742.527500", "083744.527500", "083746.527500", "083748.527500", "083750.527500", "083752.527500", "083754.527500", "083756.527500", "083758.527500", "083800.527500", "083802.527500", "083804.527500", "083806.527500", "083808.527500", "083810.527500", "083812.527500", "083814.527500", "083816.527500", "083818.527500", "083820.527500", "083822.527500", "083824.527500", "083826.527500", "083828.527500", "083830.527500", "083832.527500", "083834.527500", "083836.527500", "083838.527500", "083840.527500", "083842.527500", "083844.527500", "083846.527500", "083848.527500", "083850.527500", "083852.527500", "083854.527500", "083856.527500", "083858.527500", "083900.527500", "083902.527500", "083904.527500", "083906.527500", "083908.527500", "083910.527500", "083912.527500", "083914.527500", "083916.527500", "083918.527500", "083920.527500", "083922.527500", "083924.527500", "083926.527500", "083928.527500", "083930.527500", "083932.527500", "083934.527500", "083936.527500", "083938.527500", "083940.527500", "083942.527500", "083944.527500", "083946.527500", "083948.527500", "083950.527500", "083952.527500", "083954.527500", "083956.527500", "083958.527500", "084000.527500", "084002.527500", "084004.527500", "084006.527500", "084008.527500", "084010.527500", "084012.527500", "084014.527500", "084016.527500", "084018.527500", "084020.527500", "084022.527500", "084024.527500"],
      "ContentTime": ["083446.003000", "083446.006000", "083446.009000", "083446.011000", "083446.014000", "083446.016000", "083446.019000", "083446.021000", "083446.024000", "083446.026000", "083446.029000", "083446.031000", "083446.034000", "083446.036000", "083446.039000", "083446.041000", "083446.044000", "083446.046000", "083446.049000", "083446.051000", "083446.054000", "083446.065000", "083446.068000", "083446.070000", "083446.081000", "083446.083000", "083446.086000", "083446.089000", "083446.091000", "083525.991000", "083525.994000", "083525.997000", "083526.005000", "083526.008000", "083526.011000", "083526.013000", "083526.016000", "083526.018000", "083526.021000", "083526.023000", "083526.026000", "083526.028000", "083526.031000", "083526.033000", "083526.036000", "083526.038000", "083526.041000", "083526.043000", "083526.046000", "083605.992000", "083605.995000", "083605.998000", "083606.001000", "083606.004000", "083606.006000", "083606.009000", "083606.012000", "083606.014000", "083606.017000", "083606.019000", "083606.022000", "083606.024000", "083606.027000", "083606.029000", "083606.038000", "083606.040000", "083606.043000", "083606.045000", "083606.048000", "083645.992000", "083645.995000", "083645.998000", "083646.001000", "083646.004000", "083646.006000", "083646.009000", "083646.017000", "083646.019000", "083646.022000", "083646.024000", "083646.027000", "083646.029000", "083646.032000", "083646.034000", "083646.037000", "083646.040000", "083646.042000", "083646.044000", "083646.047000", "083725.992000", "083725.994000", "083725.997000", "083726.000000", "083726.003000", "083726.005000", "083726.008000", "083726.010000", "083726.013000", "083726.015000", "083726.018000", "083726.020000", "083726.023000", "083726.025000", "083726.028000", "083726.030000", "083726.033000", "083726.035000", "083726.038000", "083726.040000", "083805.991000", "083805.994000", "083805.997000", "083806.001000", "083806.003000", "083806.006000", "083806.008000", "083806.011000", "083806.013000", "083806.016000", "083806.018000", "083806.021000", "083806.023000", "083806.026000", "083806.028000", "083806.031000", "083806.034000", "083806.036000", "083806.039000", "083806.041000", "083845.992000", "083845.995000", "083845.998000", "083846.001000", "083846.004000", "083846.006000", "083846.009000", "083846.012000", "083846.014000", "083846.017000", "083846.019000", "083846.022000", "083846.024000", "083846.026000", "083846.029000", "083846.031000", "083846.034000", "083846.036000", "083846.039000", "083846.041000", "083925.991000", "083925.994000", "083925.997000", "083926.000000", "083926.003000", "083926.006000", "083926.008000", "083926.011000", "083926.013000", "083926.016000", "083926.018000", "083926.021000", "083926.023000", "083926.026000", "083926.028000", "083926.031000", "083926.033000", "083926.036000", "083926.038000", "083926.041000", "084005.991000", "084005.994000", "084005.997000", "084006.001000", "084006.003000", "084006.006000", "084006.008000", "084006.011000", "084006.013000", "084006.016000", "084006.018000", "084006.021000", "084006.024000", "084006.026000", "084006.029000", "084006.031000", "084006.034000", "084006.036000", "084006.039000", "084006.042000", "084026.163000", "084026.166000", "084026.169000", "084026.171000", "084026.174000", "084026.176000", "084026.179000", "084026.198000", "084026.206000", "084026.210000", "084026.219000"],
      "InstanceCreationTime": ["083446.003000", "083446.006000", "083446.009000", "083446.011000", "083446.014000", "083446.016000", "083446.019000", "083446.021000", "083446.024000", "083446.026000", "083446.029000", "083446.031000", "083446.034000", "083446.036000", "083446.039000", "083446.041000", "083446.044000", "083446.046000", "083446.049000", "083446.051000", "083446.054000", "083446.065000", "083446.068000", "083446.070000", "083446.081000", "083446.083000", "083446.086000", "083446.089000", "083446.091000", "083525.991000", "083525.994000", "083525.997000", "083526.005000", "083526.008000", "083526.011000", "083526.013000", "083526.016000", "083526.018000", "083526.021000", "083526.023000", "083526.026000", "083526.028000", "083526.031000", "083526.033000", "083526.036000", "083526.038000", "083526.041000", "083526.043000", "083526.046000", "083605.992000", "083605.995000", "083605.998000", "083606.001000", "083606.004000", "083606.006000", "083606.009000", "083606.012000", "083606.014000", "083606.017000", "083606.019000", "083606.022000", "083606.024000", "083606.027000", "083606.029000", "083606.038000", "083606.040000", "083606.043000", "083606.045000", "083606.048000", "083645.992000", "083645.995000", "083645.998000", "083646.001000", "083646.004000", "083646.006000", "083646.009000", "083646.017000", "083646.019000", "083646.022000", "083646.024000", "083646.027000", "083646.029000", "083646.032000", "083646.034000", "083646.037000", "083646.040000", "083646.042000", "083646.044000", "083646.047000", "083725.992000", "083725.994000", "083725.997000", "083726.000000", "083726.003000", "083726.005000", "083726.008000", "083726.010000", "083726.013000", "083726.015000", "083726.018000", "083726.020000", "083726.023000", "083726.025000", "083726.028000", "083726.030000", "083726.033000", "083726.035000", "083726.038000", "083726.040000", "083805.991000", "083805.994000", "083805.997000", "083806.001000", "083806.003000", "083806.006000", "083806.008000", "083806.011000", "083806.013000", "083806.016000", "083806.018000", "083806.021000", "083806.023000", "083806.026000", "083806.028000", "083806.031000", "083806.034000", "083806.036000", "083806.039000", "083806.041000", "083845.992000", "083845.995000", "083845.998000", "083846.001000", "083846.004000", "083846.006000", "083846.009000", "083846.012000", "083846.014000", "083846.017000", "083846.019000", "083846.022000", "083846.024000", "083846.026000", "083846.029000", "083846.031000", "083846.034000", "083846.036000", "083846.039000", "083846.041000", "083925.991000", "083925.994000", "083925.997000", "083926.000000", "083926.003000", "083926.006000", "083926.008000", "083926.011000", "083926.013000", "083926.016000", "083926.018000", "083926.021000", "083926.023000", "083926.026000", "083926.028000", "083926.031000", "083926.033000", "083926.036000", "083926.038000", "083926.041000", "084005.991000", "084005.994000", "084005.997000", "084006.001000", "084006.003000", "084006.006000", "084006.008000", "084006.011000", "084006.013000", "084006.016000", "084006.018000", "084006.021000", "084006.024000", "084006.026000", "084006.029000", "084006.031000", "084006.034000", "084006.036000", "084006.039000", "084006.042000", "084026.163000", "084026.166000", "084026.169000", "084026.171000", "084026.174000", "084026.176000", "084026.179000", "084026.198000", "084026.206000", "084026.210000", "084026.219000"],
      "InstanceNumber": [1, 2, 3, 4, 5, 6, 7, 8, 9, 10, 11, 12, 13, 14, 15, 16, 17, 18, 19, 20, 21, 22, 23, 24, 25, 26, 27, 28, 29, 30, 31, 32, 33, 34, 35, 36, 37, 38, 39, 40, 41, 42, 43, 44, 45, 46, 47, 48, 49, 50, 51, 52, 53, 54, 55, 56, 57, 58, 59, 60, 61, 62, 63, 64, 65, 66, 67, 68, 69, 70, 71, 72, 73, 74, 75, 76, 77, 78, 79, 80, 81, 82, 83, 84, 85, 86, 87, 88, 89, 90, 91, 92, 93, 94, 95, 96, 97, 98, 99, 100, 101, 102, 103, 104, 105, 106, 107, 108, 109, 110, 111, 112, 113, 114, 115, 116, 117, 118, 119, 120, 121, 122, 123, 124, 125, 126, 127, 128, 129, 130, 131, 132, 133, 134, 135, 136, 137, 138, 139, 140, 141, 142, 143, 144, 145, 146, 147, 148, 149, 150, 151, 152, 153, 154, 155, 156, 157, 158, 159, 160, 161, 162, 163, 164, 165, 166, 167, 168, 169, 170, 171, 172, 173, 174, 175, 176, 177, 178, 179, 180, 181, 182, 183, 184, 185, 186, 187, 188, 189, 190, 191, 192, 193, 194, 195, 196, 197, 198, 199, 200],
      "LargestImagePixelValue": [634, 636, 636, 638, 635, 636, 635, 636, 638, 638, 638, 636, 636, 638, 638, 636, 637, 635, 638, 640, 637, 642, 637, 635, 636, 638, 639, 637, 638, 636, 637, 640, 636, 638, 636, 641, 639, 637, 636, 637, 636, 638, 637, 636, 636, 640, 638, 637, 639, 636, 637, 639, 635, 636, 637, 637, 639, 635, 636, 638, 635, 636, 637, 637, 639, 636, 637, 637, 636, 637, 636, 638, 637, 636, 639, 638, 636, 638, 636, 634, 635, 637, 638, 638, 635, 637, 637, 636, 636, 636, 636, 638, 635, 635, 634, 637, 636, 639, 638, 638, 636, 638, 634, 638, 636, 635, 637, 638, 639, 634, 636, 636, 634, 639, 636, 635, 636, 639, 634, 635, 635, 636, 636, 635, 638, 635, 638, 637, 638, 637, 637, 637, 634, 634, 635, 637, 635, 642, 637, 636, 635, 633, 634, 637, 637, 634, 633, 637, 637, 639, 635, 634, 636, 634, 636, 635, 634, 638, 635, 634, 636, 634, 638, 638, 636, 636, 636, 635, 636, 635, 638, 636, 639, 639, 637, 636, 637, 635, 638, 634, 634, 636, 638, 635, 634, 634, 635, 635, 633, 634, 637, 637, 635, 637, 636, 636, 637, 638, 637, 635],
      "WindowCenter": [448.0, 449.0, 448.0, 448.0, 448.0, 448.0, 448.0, 448.0, 448.0, 448.0, 448.0, 448.0, 448.0, 448.0, 448.0, 448.0, 448.0, 448.0, 448.0, 448.0, 448.0, 448.0, 448.0, 448.0, 448.0, 448.0, 448.0, 448.0, 448.0, 448.0, 448.0, 448.0, 448.0, 448.0, 448.0, 448.0, 448.0, 448.0, 448.0, 448.0, 448.0, 448.0, 448.0, 448.0, 448.0, 448.0, 448.0, 448.0, 448.0, 448.0, 448.0, 448.0, 448.0, 448.0, 448.0, 448.0, 448.0, 448.0, 448.0, 448.0, 448.0, 448.0, 448.0, 448.0, 448.0, 448.0, 448.0, 448.0, 448.0, 448.0, 448.0, 448.0, 448.0, 447.0, 447.0, 447.0, 447.0, 447.0, 447.0, 447.0, 447.0, 447.0, 447.0, 447.0, 447.0, 447.0, 447.0, 447.0, 447.0, 447.0, 447.0, 447.0, 447.0, 447.0, 447.0, 447.0, 447.0, 447.0, 447.0, 447.0, 447.0, 447.0, 447.0, 447.0, 447.0, 447.0, 447.0, 447.0, 447.0, 447.0, 447.0, 447.0, 447.0, 447.0, 447.0, 447.0, 447.0, 447.0, 447.0, 447.0, 447.0, 447.0, 447.0, 447.0, 447.0, 447.0, 447.0, 447.0, 447.0, 447.0, 447.0, 447.0, 447.0, 447.0, 447.0, 447.0, 447.0, 447.0, 447.0, 447.0, 447.0, 447.0, 447.0, 447.0, 447.0, 447.0, 447.0, 447.0, 447.0, 447.0, 447.0, 447.0, 447.0, 447.0, 447.0, 447.0, 447.0, 447.0, 447.0, 447.0, 447.0, 447.0, 447.0, 447.0, 447.0, 447.0, 447.0, 447.0, 447.0, 447.0, 447.0, 447.0, 447.0, 447.0, 447.0, 447.0, 447.0, 447.0, 447.0, 447.0, 447.0, 447.0, 447.0, 447.0, 447.0, 447.0, 447.0, 447.0, 447.0, 447.0, 447.0, 447.0, 447.0, 447.0, 447.0, 447.0, 447.0, 447.0, 447.0, 447.0],
      "WindowWidth": [933.0, 934.0, 933.0, 933.0, 933.0, 933.0, 933.0, 932.0, 933.0, 932.0, 932.0, 933.0, 932.0, 932.0, 932.0, 932.0, 932.0, 932.0, 932.0, 932.0, 932.0, 932.0, 932.0, 932.0, 931.0, 932.0, 931.0, 931.0, 931.0, 932.0, 931.0, 931.0, 931.0, 932.0, 931.0, 931.0, 931.0, 931.0, 931.0, 931.0, 931.0, 931.0, 931.0, 931.0, 931.0, 931.0, 931.0, 931.0, 931.0, 931.0, 931.0, 931.0, 931.0, 931.0, 931.0, 931.0, 931.0, 931.0, 931.0, 931.0, 931.0, 931.0, 931.0, 931.0, 931.0, 931.0, 931.0, 931.0, 931.0, 931.0, 931.0, 931.0, 931.0, 931.0, 931.0, 931.0, 931.0, 931.0, 931.0, 931.0, 931.0, 931.0, 931.0, 931.0, 931.0, 931.0, 931.0, 931.0, 931.0, 931.0, 931.0, 931.0, 931.0, 931.0, 931.0, 931.0, 931.0, 931.0, 931.0, 931.0, 931.0, 931.0, 931.0, 931.0, 931.0, 931.0, 931.0, 931.0, 931.0, 931.0, 931.0, 931.0, 931.0, 931.0, 931.0, 931.0, 931.0, 931.0, 931.0, 931.0, 931.0, 931.0, 931.0, 931.0, 931.0, 931.0, 931.0, 930.0, 931.0, 930.0, 930.0, 931.0, 930.0, 930.0, 931.0, 930.0, 930.0, 930.0, 930.0, 930.0, 930.0, 930.0, 930.0, 930.0, 930.0, 930.0, 930.0, 930.0, 930.0, 930.0, 930.0, 930.0, 930.0, 930.0, 930.0, 930.0, 930.0, 930.0, 930.0, 930.0, 930.0, 930.0, 930.0, 930.0, 930.0, 930.0, 930.0, 930.0, 930.0, 930.0, 930.0, 930.0, 930.0, 930.0, 930.0, 930.0, 930.0, 930.0, 930.0, 930.0, 929.0, 929.0, 930.0, 929.0, 930.0, 929.0, 929.0, 929.0, 929.0, 929.0, 929.0, 929.0, 929.0, 929.0, 929.0, 929.0, 929.0, 929.0, 929.0, 929.0]
    },
    "slices": {}
  }
}