{
  "AcquisitionMatrixPE": 80,
  "AcquisitionNumber": 1,
  "AcquisitionTime": "09:35:33.500000",
  "BandwidthPerPixelPhaseEncode": 25,
  "BaseResolution": 80,
  "BodyPartExamined": "BRAIN",
  "CoilCombinationMethod": "Sum of Squares",
  "ConsistencyInfo": "N4_VE11C_LATEST_20160120",
  "ConversionSoftware": "dcm2niix",
  "ConversionSoftwareVersion": "v1.0.20220720",
  "DerivedVendorReportedEchoSpacing": 0.0005,
  "DeviceSerialNumber": "66112",
  "DwellTime": 2.7e-06,
  "EchoTime": 0.03,
  "EchoTrainLength": 80,
  "EffectiveEchoSpacing": 0.0005,
  "FlipAngle": 77,
  "HeudiconvVersion": "0.13.1",
  "ImageOrientationPatientDICOM": [0.982727, 0.184725, 0.011112, -0.179301, 0.935569, 0.30424],
  "ImageOrientationText": "Tra>Cor(17.5)>Sag(-2.6)",
  "ImageType": [
    "ORIGINAL",
    "PRIMARY",
    "M",
    "ND",
    "NORM",
    "MOSAIC"
],
  "ImagingFrequency": 123.252,
  "InPlanePhaseEncodingDirectionDICOM": "COL",
  "InstitutionAddress": "Maynard 3,Hanover,NH,US,03755",
  "InstitutionName": "Dartmouth College - PBS",
  "InstitutionalDepartmentName": "Department",
  "MRAcquisitionType": "2D",
  "MagneticFieldStrength": 3,
  "Manufacturer": "Siemens",
  "ManufacturersModelName": "Prisma",
  "MatrixCoilMode": "SENSE",
  "Modality": "MR",
  "NonlinearGradientCorrection": false,
  "PartialFourier": 1,
  "PatientPosition": "HFS",
  "PercentPhaseFOV": 100,
  "PercentSampling": 100,
  "PhaseEncodingDirection": "j-",
  "PhaseEncodingSteps": 80,
  "PhaseResolution": 1,
  "PixelBandwidth": 2315,
  "ProcedureStepDescription": "dbic^QA",
  "ProtocolName": "func-bold_fa-77",
  "PulseSequenceDetails": "%SiemensSeq%\\ep2d_bold",
  "ReceiveCoilActiveElements": "HEA;HEP",
  "ReceiveCoilName": "Head_32",
  "ReconMatrixPE": 80,
  "RepetitionTime": 2,
  "SAR": 0.0373509,
  "ScanOptions": "FS",
  "ScanningSequence": "EP",
  "SequenceName": "*epfid2d1_80",
  "SequenceVariant": "SK",
  "SeriesDescription": "func-bold_fa-77",
  "SeriesNumber": 8,
  "ShimSetting": [4146, -7705, -7526, 317, -45, -62, -61, 65],
  "SliceThickness": 3.5,
  "SliceTiming": [0.99, 0, 1.055, 0.065, 1.1225, 0.1325, 1.1875, 0.1975, 1.2525, 0.2625, 1.32, 0.33, 1.385, 0.395, 1.4525, 0.4625, 1.5175, 0.5275, 1.5825, 0.5925, 1.65, 0.66, 1.715, 0.725, 1.7825, 0.7925, 1.8475, 0.8575, 1.9125, 0.9225],
  "SoftwareVersions": "syngo MR E11",
  "SpacingBetweenSlices": 3.99,
  "StationName": "AWP66112",
  "TotalReadoutTime": 0.0395,
  "TxRefAmp": 225.303,
  "dcmmeta_affine": [
    [-2.9481823444366455, -0.5379018783569336, -0.1827608197927475, 144.22145080566406],
    [-0.5541749000549316, 2.8067069053649902, 1.2008998394012451, -99.99773406982422],
    [0.03333590179681778, -0.9127200841903687, 3.8005971908569336, -34.98653793334961],
    [0.0, 0.0, 0.0, 1.0]
],
  "dcmmeta_reorient_transform": [
    [0.0, -1.0, 0.0, 79.0],
    [1.0, 0.0, 0.0, 0.0],
    [0.0, 0.0, 1.0, 0.0],
    [0.0, 0.0, 0.0, 1.0]
],
  "dcmmeta_shape": [80, 80, 30, 200],
  "dcmmeta_slice_dim": 2,
  "dcmmeta_version": 0.6,
  "global": {
    "const": {
      "AccessionNumber": "qa",
      "AcquisitionMatrix": [80, 0, 0, 80],
      "AngioFlag": "N",
      "BitsAllocated": 16,
      "BitsStored": 12,
      "BodyPartExamined": "BRAIN",
      "Columns": 480,
      "EchoNumbers": 1,
      "EchoTime": 30.0,
      "EchoTrainLength": 80,
      "FlipAngle": 77.0,
      "HighBit": 11,
      "ImageOrientationPatient": [0.98272743576288, 0.18472496089486, 0.01111196748118, -0.1793006277613, 0.93556896727678, 0.30424002424576],
      "ImagePositionPatient": [-583.78328362606, -793.90846799763, -296.30261769818],
      "ImageType": [
        "ORIGINAL",
        "PRIMARY",
        "M",
        "ND",
        "NORM",
        "MOSAIC"
],
      "ImagedNucleus": "1H",
      "ImagingFrequency": 123.252353,
      "InPlanePhaseEncodingDirection": "COL",
      "MRAcquisitionType": "2D",
      "MagneticFieldStrength": 3.0,
      "Manufacturer": "SIEMENS",
      "ManufacturerModelName": "Prisma",
      "Modality": "MR",
      "NumberOfAverages": 1.0,
      "NumberOfPhaseEncodingSteps": 80,
      "PercentPhaseFieldOfView": 100.0,
      "PercentSampling": 100.0,
      "PerformedProcedureStepStartTime": "091639.671000",
      "PhotometricInterpretation": "MONOCHROME2",
      "PixelBandwidth": 2315.0,
      "PixelRepresentation": 0,
      "PixelSpacing": [3.0, 3.0],
      "ProtocolName": "func-bold_fa-77",
      "RepetitionTime": 2000.0,
      "Rows": 480,
      "SAR": 0.03735093675328,
      "SamplesPerPixel": 1,
      "ScanOptions": "FS",
      "ScanningSequence": "EP",
      "SequenceName": "*epfid2d1_80",
      "SequenceVariant": "SK",
      "SeriesDescription": "func-bold_fa-77",
      "SeriesNumber": 8,
      "SeriesTime": "093621.656000",
      "SliceLocation": -70.02882722367,
      "SliceThickness": 3.5,
      "SmallestImagePixelValue": 0,
      "SoftwareVersions": "syngo MR E11",
      "SpacingBetweenSlices": 3.9900001442182,
      "SpecificCharacterSet": "ISO_IR 100",
      "StudyID": "11",
      "StudyTime": "091639.606000",
      "TransmitCoilName": "Body",
      "VariableFlipAngleFlag": "N",
      "WindowCenterWidthExplanation": "Algo1",
      "dBdt": 0.0},
    "slices": {}
  },
  "time": {
    "samples": {
      "AcquisitionNumber": [1, 2, 3, 4, 5, 6, 7, 8, 9, 10, 11, 12, 13, 14, 15, 16, 17, 18, 19, 20, 21, 22, 23, 24, 25, 26, 27, 28, 29, 30, 31, 32, 33, 34, 35, 36, 37, 38, 39, 40, 41, 42, 43, 44, 45, 46, 47, 48, 49, 50, 51, 52, 53, 54, 55, 56, 57, 58, 59, 60, 61, 62, 63, 64, 65, 66, 67, 68, 69, 70, 71, 72, 73, 74, 75, 76, 77, 78, 79, 80, 81, 82, 83, 84, 85, 86, 87, 88, 89, 90, 91, 92, 93, 94, 95, 96, 97, 98, 99, 100, 101, 102, 103, 104, 105, 106, 107, 108, 109, 110, 111, 112, 113, 114, 115, 116, 117, 118, 119, 120, 121, 122, 123, 124, 125, 126, 127, 128, 129, 130, 131, 132, 133, 134, 135, 136, 137, 138, 139, 140, 141, 142, 143, 144, 145, 146, 147, 148, 149, 150, 151, 152, 153, 154, 155, 156, 157, 158, 159, 160, 161, 162, 163, 164, 165, 166, 167, 168, 169, 170, 171, 172, 173, 174, 175, 176, 177, 178, 179, 180, 181, 182, 183, 184, 185, 186, 187, 188, 189, 190, 191, 192, 193, 194, 195, 196, 197, 198, 199, 200],
      "AcquisitionTime": ["093533.500000", "093535.500000", "093537.500000", "093539.500000", "093541.500000", "093543.500000", "093545.500000", "093547.500000", "093549.500000", "093551.500000", "093553.500000", "093555.500000", "093557.500000", "093559.500000", "093601.500000", "093603.500000", "093605.500000", "093607.500000", "093609.500000", "093611.500000", "093613.500000", "093615.500000", "093617.500000", "093619.500000", "093621.500000", "093623.500000", "093625.500000", "093627.500000", "093629.500000", "093631.500000", "093633.500000", "093635.500000", "093637.500000", "093639.500000", "093641.500000", "093643.500000", "093645.500000", "093647.500000", "093649.500000", "093651.500000", "093653.500000", "093655.500000", "093657.500000", "093659.500000", "093701.500000", "093703.500000", "093705.500000", "093707.500000", "093709.500000", "093711.500000", "093713.500000", "093715.500000", "093717.500000", "093719.500000", "093721.500000", "093723.500000", "093725.500000", "093727.500000", "093729.500000", "093731.500000", "093733.500000", "093735.500000", "093737.500000", "093739.500000", "093741.500000", "093743.500000", "093745.500000", "093747.500000", "093749.500000", "093751.500000", "093753.500000", "093755.500000", "093757.500000", "093759.500000", "093801.500000", "093803.500000", "093805.500000", "093807.500000", "093809.500000", "093811.500000", "093813.500000", "093815.500000", "093817.500000", "093819.500000", "093821.500000", "093823.500000", "093825.500000", "093827.500000", "093829.500000", "093831.500000", "093833.500000", "093835.500000", "093837.500000", "093839.500000", "093841.500000", "093843.500000", "093845.500000", "093847.500000", "093849.500000", "093851.500000", "093853.500000", "093855.500000", "093857.500000", "093859.500000", "093901.500000", "093903.500000", "093905.500000", "093907.500000", "093909.500000", "093911.500000", "093913.500000", "093915.500000", "093917.500000", "093919.500000", "093921.500000", "093923.500000", "093925.500000", "093927.500000", "093929.500000", "093931.500000", "093933.500000", "093935.500000", "093937.500000", "093939.500000", "093941.500000", "093943.500000", "093945.500000", "093947.500000", "093949.500000", "093951.500000", "093953.500000", "093955.500000", "093957.500000", "093959.500000", "094001.500000", "094003.500000", "094005.500000", "094007.500000", "094009.500000", "094011.500000", "094013.500000", "094015.500000", "094017.500000", "094019.500000", "094021.500000", "094023.500000", "094025.500000", "094027.500000", "094029.500000", "094031.500000", "094033.500000", "094035.500000", "094037.500000", "094039.500000", "094041.500000", "094043.500000", "094045.500000", "094047.500000", "094049.500000", "094051.500000", "094053.500000", "094055.500000", "094057.500000", "094059.500000", "094101.500000", "094103.500000", "094105.500000", "094107.500000", "094109.500000", "094111.500000", "094113.500000", "094115.500000", "094117.500000", "094119.500000", "094121.500000", "094123.500000", "094125.500000", "094127.500000", "094129.500000", "094131.500000", "094133.500000", "094135.500000", "094137.500000", "094139.500000", "094141.500000", "094143.500000", "094145.500000", "094147.500000", "094149.500000", "094151.500000", "094153.500000", "094155.500000", "094157.500000", "094159.500000", "094201.500000", "094203.500000", "094205.500000", "094207.500000", "094209.500000", "094211.500000"],
      "ContentTime": ["093621.659000", "093621.663000", "093621.665000", "093621.667000", "093621.676000", "093621.678000", "093621.681000", "093621.683000", "093621.686000", "093621.688000", "093621.691000", "093621.693000", "093621.696000", "093621.698000", "093621.701000", "093621.703000", "093621.706000", "093621.708000", "093621.711000", "093621.713000", "093621.716000", "093621.719000", "093621.721000", "093621.723000", "093701.655000", "093701.658000", "093701.661000", "093701.663000", "093701.666000", "093701.668000", "093701.671000", "093701.673000", "093701.676000", "093701.678000", "093701.681000", "093701.683000", "093701.686000", "093701.688000", "093701.690000", "093701.693000", "093701.696000", "093701.698000", "093701.701000", "093701.703000", "093741.656000", "093741.658000", "093741.661000", "093741.663000", "093741.666000", "093741.668000", "093741.671000", "093741.673000", "093741.676000", "093741.678000", "093741.681000", "093741.683000", "093741.686000", "093741.688000", "093741.691000", "093741.693000", "093741.696000", "093741.698000", "093741.701000", "093741.703000", "093821.655000", "093821.658000", "093821.661000", "093821.663000", "093821.666000", "093821.668000", "093821.671000", "093821.673000", "093821.676000", "093821.678000", "093821.681000", "093821.683000", "093821.686000", "093821.688000", "093821.691000", "093821.693000", "093821.696000", "093821.698000", "093821.701000", "093821.703000", "093901.655000", "093901.658000", "093901.661000", "093901.663000", "093901.666000", "093901.668000", "093901.671000", "093901.673000", "093901.676000", "093901.678000", "093901.681000", "093901.683000", "093901.686000", "093901.688000", "093901.691000", "093901.693000", "093901.696000", "093901.698000", "093901.701000", "093901.703000", "093941.656000", "093941.658000", "093941.661000", "093941.663000", "093941.666000", "093941.669000", "093941.671000", "093941.674000", "093941.676000", "093941.678000", "093941.681000", "093941.683000", "093941.686000", "093941.688000", "093941.691000", "093941.693000", "093941.696000", "093941.698000", "093941.701000", "093941.703000", "094021.655000", "094021.658000", "094021.661000", "094021.663000", "094021.666000", "094021.668000", "094021.671000", "094021.673000", "094021.676000", "094021.679000", "094021.681000", "094021.684000", "094021.686000", "094021.689000", "094021.691000", "094021.694000", "094021.696000", "094021.699000", "094021.701000", "094021.704000", "094101.654000", "094101.657000", "094101.660000", "094101.662000", "094101.665000", "094101.667000", "094101.670000", "094101.672000", "094101.675000", "094101.677000", "094101.680000", "094101.683000", "094101.685000", "094101.687000", "094101.690000", "094101.692000", "094101.695000", "094101.697000", "094101.700000", "094101.703000", "094141.655000", "094141.658000", "094141.661000", "094141.663000", "094141.666000", "094141.668000", "094141.671000", "094141.673000", "094141.676000", "094141.679000", "094141.681000", "094141.684000", "094141.686000", "094141.689000", "094141.691000", "094141.694000", "094141.696000", "094141.699000", "094141.701000", "094141.704000", "094213.423000", "094213.426000", "094213.428000", "094213.431000", "094213.433000", "094213.436000", "094213.439000", "094213.441000", "094213.444000", "094213.446000", "094213.449000", "094213.451000", "094213.456000", "094213.459000", "094213.480000", "094213.483000"],
      "InstanceCreationTime": ["093621.659000", "093621.663000", "093621.665000", "093621.667000", "093621.676000", "093621.678000", "093621.681000", "093621.683000", "093621.686000", "093621.688000", "093621.691000", "093621.693000", "093621.696000", "093621.698000", "093621.701000", "093621.703000", "093621.706000", "093621.708000", "093621.711000", "093621.713000", "093621.716000", "093621.719000", "093621.721000", "093621.723000", "093701.655000", "093701.658000", "093701.661000", "093701.663000", "093701.666000", "093701.668000", "093701.671000", "093701.673000", "093701.676000", "093701.678000", "093701.681000", "093701.683000", "093701.686000", "093701.688000", "093701.690000", "093701.693000", "093701.696000", "093701.698000", "093701.701000", "093701.703000", "093741.656000", "093741.658000", "093741.661000", "093741.663000", "093741.666000", "093741.668000", "093741.671000", "093741.673000", "093741.676000", "093741.678000", "093741.681000", "093741.683000", "093741.686000", "093741.688000", "093741.691000", "093741.693000", "093741.696000", "093741.698000", "093741.701000", "093741.703000", "093821.655000", "093821.658000", "093821.661000", "093821.663000", "093821.666000", "093821.668000", "093821.671000", "093821.673000", "093821.676000", "093821.678000", "093821.681000", "093821.683000", "093821.686000", "093821.688000", "093821.691000", "093821.693000", "093821.696000", "093821.698000", "093821.701000", "093821.703000", "093901.655000", "093901.658000", "093901.661000", "093901.663000", "093901.666000", "093901.668000", "093901.671000", "093901.673000", "093901.676000", "093901.678000", "093901.681000", "093901.683000", "093901.686000", "093901.688000", "093901.691000", "093901.693000", "093901.696000", "093901.698000", "093901.701000", "093901.703000", "093941.656000", "093941.658000", "093941.661000", "093941.663000", "093941.666000", "093941.669000", "093941.671000", "093941.674000", "093941.676000", "093941.678000", "093941.681000", "093941.683000", "093941.686000", "093941.688000", "093941.691000", "093941.693000", "093941.696000", "093941.698000", "093941.701000", "093941.703000", "094021.655000", "094021.658000", "094021.661000", "094021.663000", "094021.666000", "094021.668000", "094021.671000", "094021.673000", "094021.676000", "094021.679000", "094021.681000", "094021.684000", "094021.686000", "094021.689000", "094021.691000", "094021.694000", "094021.696000", "094021.699000", "094021.701000", "094021.704000", "094101.654000", "094101.657000", "094101.660000", "094101.662000", "094101.665000", "094101.667000", "094101.670000", "094101.672000", "094101.675000", "094101.677000", "094101.680000", "094101.683000", "094101.685000", "094101.687000", "094101.690000", "094101.692000", "094101.695000", "094101.697000", "094101.700000", "094101.703000", "094141.655000", "094141.658000", "094141.661000", "094141.663000", "094141.666000", "094141.668000", "094141.671000", "094141.673000", "094141.676000", "094141.679000", "094141.681000", "094141.684000", "094141.686000", "094141.689000", "094141.691000", "094141.694000", "094141.696000", "094141.699000", "094141.701000", "094141.704000", "094213.423000", "094213.426000", "094213.428000", "094213.431000", "094213.433000", "094213.436000", "094213.439000", "094213.441000", "094213.444000", "094213.446000", "094213.449000", "094213.451000", "094213.456000", "094213.459000", "094213.480000", "094213.483000"],
      "InstanceNumber": [1, 2, 3, 4, 5, 6, 7, 8, 9, 10, 11, 12, 13, 14, 15, 16, 17, 18, 19, 20, 21, 22, 23, 24, 25, 26, 27, 28, 29, 30, 31, 32, 33, 34, 35, 36, 37, 38, 39, 40, 41, 42, 43, 44, 45, 46, 47, 48, 49, 50, 51, 52, 53, 54, 55, 56, 57, 58, 59, 60, 61, 62, 63, 64, 65, 66, 67, 68, 69, 70, 71, 72, 73, 74, 75, 76, 77, 78, 79, 80, 81, 82, 83, 84, 85, 86, 87, 88, 89, 90, 91, 92, 93, 94, 95, 96, 97, 98, 99, 100, 101, 102, 103, 104, 105, 106, 107, 108, 109, 110, 111, 112, 113, 114, 115, 116, 117, 118, 119, 120, 121, 122, 123, 124, 125, 126, 127, 128, 129, 130, 131, 132, 133, 134, 135, 136, 137, 138, 139, 140, 141, 142, 143, 144, 145, 146, 147, 148, 149, 150, 151, 152, 153, 154, 155, 156, 157, 158, 159, 160, 161, 162, 163, 164, 165, 166, 167, 168, 169, 170, 171, 172, 173, 174, 175, 176, 177, 178, 179, 180, 181, 182, 183, 184, 185, 186, 187, 188, 189, 190, 191, 192, 193, 194, 195, 196, 197, 198, 199, 200],
      "LargestImagePixelValue": [1974, 1972, 1972, 1972, 1972, 1971, 1971, 1973, 1972, 1972, 1972, 1971, 1971, 1972, 1977, 1975, 1978, 1977, 1976, 1974, 1974, 1974, 1972, 1972, 1975, 1974, 1973, 1972, 1971, 1974, 1973, 1973, 1973, 1976, 1974, 1973, 1973, 1972, 1973, 1976, 1974, 1974, 1969, 1971, 1973, 1974, 1973, 1970, 1971, 1968, 1971, 1971, 1973, 1973, 1973, 1975, 1974, 1974, 1977, 1975, 1974, 1975, 1973, 1972, 1974, 1974, 1972, 1971, 1969, 1975, 1973, 1975, 1973, 1973, 1971, 1973, 1974, 1972, 1972, 1972, 1972, 1972, 1973, 1973, 1975, 1973, 1974, 1973, 1974, 1975, 1976, 1975, 1976, 1973, 1970, 1973, 1971, 1974, 1973, 1973, 1974, 1973, 1972, 1972, 1975, 1975, 1973, 1975, 1971, 1972, 1973, 1971, 1973, 1973, 1974, 1974, 1969, 1972, 1976, 1976, 1977, 1973, 1974, 1972, 1973, 1973, 1975, 1976, 1976, 1971, 1969, 1967, 1971, 1973, 1974, 1977, 1976, 1976, 1972, 1971, 1970, 1971, 1974, 1973, 1972, 1972, 1969, 1969, 1970, 1972, 1974, 1973, 1970, 1970, 1971, 1973, 1975, 1973, 1970, 1968, 1973, 1975, 1976, 1976, 1972, 1973, 1971, 1971, 1970, 1972, 1975, 1971, 1969, 1971, 1972, 1974, 1974, 1971, 1972, 1973, 1974, 1975, 1970, 1971, 1970, 1973, 1974, 1974, 1976, 1973, 1976, 1976, 1974, 1976, 1971, 1973, 1972, 1972, 1971, 1970],
      "WindowCenter": [981.0, 982.0, 982.0, 981.0, 980.0, 981.0, 981.0, 980.0, 981.0, 981.0, 981.0, 981.0, 981.0, 981.0, 980.0, 980.0, 980.0, 981.0, 979.0, 981.0, 981.0, 980.0, 981.0, 980.0, 980.0, 980.0, 980.0, 980.0, 980.0, 980.0, 980.0, 980.0, 980.0, 980.0, 980.0, 980.0, 981.0, 980.0, 981.0, 979.0, 979.0, 980.0, 979.0, 980.0, 980.0, 980.0, 980.0, 980.0, 980.0, 980.0, 979.0, 980.0, 979.0, 980.0, 981.0, 980.0, 981.0, 980.0, 980.0, 980.0, 980.0, 980.0, 980.0, 980.0, 979.0, 980.0, 981.0, 981.0, 981.0, 979.0, 980.0, 980.0, 981.0, 979.0, 979.0, 979.0, 980.0, 979.0, 980.0, 981.0, 980.0, 980.0, 980.0, 979.0, 980.0, 980.0, 981.0, 980.0, 980.0, 979.0, 980.0, 979.0, 980.0, 980.0, 979.0, 980.0, 980.0, 980.0, 980.0, 981.0, 980.0, 980.0, 980.0, 979.0, 979.0, 980.0, 980.0, 980.0, 979.0, 980.0, 979.0, 980.0, 979.0, 980.0, 979.0, 980.0, 980.0, 979.0, 980.0, 980.0, 980.0, 980.0, 980.0, 980.0, 980.0, 980.0, 980.0, 979.0, 980.0, 979.0, 980.0, 980.0, 979.0, 980.0, 979.0, 979.0, 979.0, 979.0, 979.0, 979.0, 979.0, 979.0, 980.0, 979.0, 979.0, 979.0, 979.0, 979.0, 979.0, 978.0, 979.0, 979.0, 979.0, 979.0, 979.0, 979.0, 979.0, 978.0, 978.0, 979.0, 979.0, 979.0, 979.0, 979.0, 980.0, 979.0, 979.0, 979.0, 979.0, 979.0, 979.0, 979.0, 979.0, 979.0, 979.0, 978.0, 979.0, 979.0, 979.0, 979.0, 980.0, 979.0, 980.0, 979.0, 980.0, 979.0, 979.0, 979.0, 979.0, 980.0, 980.0, 979.0, 978.0, 980.0, 979.0, 979.0, 979.0, 979.0, 978.0, 979.0],
      "WindowWidth": [2157.0, 2157.0, 2158.0, 2157.0, 2156.0, 2157.0, 2157.0, 2156.0, 2157.0, 2157.0, 2157.0, 2157.0, 2157.0, 2157.0, 2156.0, 2156.0, 2156.0, 2157.0, 2155.0, 2157.0, 2157.0, 2156.0, 2156.0, 2156.0, 2156.0, 2156.0, 2156.0, 2156.0, 2156.0, 2155.0, 2156.0, 2156.0, 2156.0, 2155.0, 2156.0, 2155.0, 2156.0, 2156.0, 2156.0, 2155.0, 2155.0, 2156.0, 2155.0, 2155.0, 2156.0, 2156.0, 2156.0, 2155.0, 2155.0, 2155.0, 2155.0, 2155.0, 2155.0, 2155.0, 2156.0, 2156.0, 2156.0, 2155.0, 2155.0, 2155.0, 2155.0, 2155.0, 2155.0, 2155.0, 2155.0, 2156.0, 2156.0, 2156.0, 2156.0, 2155.0, 2155.0, 2155.0, 2156.0, 2155.0, 2155.0, 2155.0, 2155.0, 2154.0, 2155.0, 2156.0, 2155.0, 2155.0, 2155.0, 2155.0, 2155.0, 2155.0, 2156.0, 2155.0, 2155.0, 2153.0, 2155.0, 2154.0, 2155.0, 2155.0, 2154.0, 2155.0, 2155.0, 2155.0, 2155.0, 2156.0, 2155.0, 2154.0, 2154.0, 2154.0, 2154.0, 2154.0, 2154.0, 2154.0, 2154.0, 2154.0, 2154.0, 2154.0, 2154.0, 2155.0, 2154.0, 2154.0, 2154.0, 2154.0, 2154.0, 2154.0, 2154.0, 2154.0, 2154.0, 2154.0, 2154.0, 2154.0, 2154.0, 2154.0, 2154.0, 2154.0, 2154.0, 2154.0, 2153.0, 2154.0, 2154.0, 2154.0, 2154.0, 2153.0, 2153.0, 2154.0, 2154.0, 2154.0, 2155.0, 2154.0, 2154.0, 2154.0, 2153.0, 2153.0, 2154.0, 2153.0, 2154.0, 2154.0, 2153.0, 2154.0, 2154.0, 2154.0, 2154.0, 2153.0, 2153.0, 2153.0, 2154.0, 2154.0, 2154.0, 2154.0, 2155.0, 2154.0, 2154.0, 2154.0, 2154.0, 2154.0, 2154.0, 2153.0, 2153.0, 2154.0, 2154.0, 2153.0, 2154.0, 2153.0, 2154.0, 2153.0, 2154.0, 2154.0, 2154.0, 2153.0, 2154.0, 2154.0, 2153.0, 2153.0, 2154.0, 2154.0, 2154.0, 2154.0, 2153.0, 2154.0, 2153.0, 2153.0, 2153.0, 2154.0, 2152.0, 2153.0]
    },
    "slices": {}
  }
}