{
  "AcquisitionMatrixPE": 80,
  "AcquisitionNumber": 1,
  "AcquisitionTime": "09:42:20.480000",
  "BandwidthPerPixelPhaseEncode": 25,
  "BaseResolution": 80,
  "BodyPartExamined": "BRAIN",
  "CoilCombinationMethod": "Sum of Squares",
  "ConsistencyInfo": "N4_VE11C_LATEST_20160120",
  "ConversionSoftware": "dcm2niix",
  "ConversionSoftwareVersion": "v1.0.20220720",
  "DerivedVendorReportedEchoSpacing": 0.0005,
  "DeviceSerialNumber": "66112",
  "DwellTime": 2.7e-06,
  "EchoTime": 0.03,
  "EchoTrainLength": 80,
  "EffectiveEchoSpacing": 0.0005,
  "FlipAngle": 10,
  "HeudiconvVersion": "0.13.1",
  "ImageOrientationPatientDICOM": [0.982727, 0.184725, 0.011112, -0.179301, 0.935569, 0.30424],
  "ImageOrientationText": "Tra>Cor(17.5)>Sag(-2.6)",
  "ImageType": [
    "ORIGINAL",
    "PRIMARY",
    "M",
    "ND",
    "NORM",
    "MOSAIC"
],
  "ImagingFrequency": 123.252,
  "InPlanePhaseEncodingDirectionDICOM": "COL",
  "InstitutionAddress": "Maynard 3,Hanover,NH,US,03755",
  "InstitutionName": "Dartmouth College - PBS",
  "InstitutionalDepartmentName": "Department",
  "MRAcquisitionType": "2D",
  "MagneticFieldStrength": 3,
  "Manufacturer": "Siemens",
  "ManufacturersModelName": "Prisma",
  "MatrixCoilMode": "SENSE",
  "Modality": "MR",
  "NonlinearGradientCorrection": false,
  "PartialFourier": 1,
  "PatientPosition": "HFS",
  "PercentPhaseFOV": 100,
  "PercentSampling": 100,
  "PhaseEncodingDirection": "j-",
  "PhaseEncodingSteps": 80,
  "PhaseResolution": 1,
  "PixelBandwidth": 2315,
  "ProcedureStepDescription": "dbic^QA",
  "ProtocolName": "func-bold_fa-10",
  "PulseSequenceDetails": "%SiemensSeq%\\ep2d_bold",
  "ReceiveCoilActiveElements": "HEA;HEP",
  "ReceiveCoilName": "Head_32",
  "ReconMatrixPE": 80,
  "RepetitionTime": 2,
  "SAR": 0.0100194,
  "ScanOptions": "FS",
  "ScanningSequence": "EP",
  "SequenceName": "*epfid2d1_80",
  "SequenceVariant": "SK",
  "SeriesDescription": "func-bold_fa-10",
  "SeriesNumber": 10,
  "ShimSetting": [4146, -7705, -7526, 317, -45, -62, -61, 65],
  "SliceThickness": 3.5,
  "SliceTiming": [0.99, 0, 1.055, 0.065, 1.1225, 0.1325, 1.1875, 0.1975, 1.2525, 0.265, 1.32, 0.33, 1.385, 0.395, 1.4525, 0.4625, 1.5175, 0.5275, 1.5825, 0.5925, 1.65, 0.66, 1.715, 0.725, 1.7825, 0.7925, 1.8475, 0.8575, 1.9125, 0.9225],
  "SoftwareVersions": "syngo MR E11",
  "SpacingBetweenSlices": 3.99,
  "StationName": "AWP66112",
  "TotalReadoutTime": 0.0395,
  "TxRefAmp": 225.303,
  "dcmmeta_affine": [
    [-2.9481823444366455, -0.5379018783569336, -0.1827608197927475, 144.22145080566406],
    [-0.5541749000549316, 2.8067069053649902, 1.2008998394012451, -99.99773406982422],
    [0.03333590179681778, -0.9127200841903687, 3.8005971908569336, -34.98653793334961],
    [0.0, 0.0, 0.0, 1.0]
],
  "dcmmeta_reorient_transform": [
    [0.0, -1.0, 0.0, 79.0],
    [1.0, 0.0, 0.0, 0.0],
    [0.0, 0.0, 1.0, 0.0],
    [0.0, 0.0, 0.0, 1.0]
],
  "dcmmeta_shape": [80, 80, 30, 200],
  "dcmmeta_slice_dim": 2,
  "dcmmeta_version": 0.6,
  "global": {
    "const": {
      "AccessionNumber": "qa",
      "AcquisitionMatrix": [80, 0, 0, 80],
      "AngioFlag": "N",
      "BitsAllocated": 16,
      "BitsStored": 12,
      "BodyPartExamined": "BRAIN",
      "Columns": 480,
      "EchoNumbers": 1,
      "EchoTime": 30.0,
      "EchoTrainLength": 80,
      "FlipAngle": 10.0,
      "HighBit": 11,
      "ImageOrientationPatient": [0.98272743576288, 0.18472496089486, 0.01111196748118, -0.1793006277613, 0.93556896727678, 0.30424002424576],
      "ImagePositionPatient": [-583.78328362606, -793.90846799763, -296.30261769818],
      "ImageType": [
        "ORIGINAL",
        "PRIMARY",
        "M",
        "ND",
        "NORM",
        "MOSAIC"
],
      "ImagedNucleus": "1H",
      "ImagingFrequency": 123.252353,
      "InPlanePhaseEncodingDirection": "COL",
      "MRAcquisitionType": "2D",
      "MagneticFieldStrength": 3.0,
      "Manufacturer": "SIEMENS",
      "ManufacturerModelName": "Prisma",
      "Modality": "MR",
      "NumberOfAverages": 1.0,
      "NumberOfPhaseEncodingSteps": 80,
      "PercentPhaseFieldOfView": 100.0,
      "PercentSampling": 100.0,
      "PerformedProcedureStepStartTime": "091639.671000",
      "PhotometricInterpretation": "MONOCHROME2",
      "PixelBandwidth": 2315.0,
      "PixelRepresentation": 0,
      "PixelSpacing": [3.0, 3.0],
      "ProtocolName": "func-bold_fa-10",
      "RepetitionTime": 2000.0,
      "Rows": 480,
      "SAR": 0.01001935503561,
      "SamplesPerPixel": 1,
      "ScanOptions": "FS",
      "ScanningSequence": "EP",
      "SequenceName": "*epfid2d1_80",
      "SequenceVariant": "SK",
      "SeriesDescription": "func-bold_fa-10",
      "SeriesNumber": 10,
      "SeriesTime": "094301.727000",
      "SliceLocation": -70.02882722367,
      "SliceThickness": 3.5,
      "SmallestImagePixelValue": 0,
      "SoftwareVersions": "syngo MR E11",
      "SpacingBetweenSlices": 3.9900001442182,
      "SpecificCharacterSet": "ISO_IR 100",
      "StudyID": "11",
      "StudyTime": "091639.606000",
      "TransmitCoilName": "Body",
      "VariableFlipAngleFlag": "N",
      "WindowCenterWidthExplanation": "Algo1",
      "dBdt": 0.0},
    "slices": {}
  },
  "time": {
    "samples": {
      "AcquisitionNumber": [1, 2, 3, 4, 5, 6, 7, 8, 9, 10, 11, 12, 13, 14, 15, 16, 17, 18, 19, 20, 21, 22, 23, 24, 25, 26, 27, 28, 29, 30, 31, 32, 33, 34, 35, 36, 37, 38, 39, 40, 41, 42, 43, 44, 45, 46, 47, 48, 49, 50, 51, 52, 53, 54, 55, 56, 57, 58, 59, 60, 61, 62, 63, 64, 65, 66, 67, 68, 69, 70, 71, 72, 73, 74, 75, 76, 77, 78, 79, 80, 81, 82, 83, 84, 85, 86, 87, 88, 89, 90, 91, 92, 93, 94, 95, 96, 97, 98, 99, 100, 101, 102, 103, 104, 105, 106, 107, 108, 109, 110, 111, 112, 113, 114, 115, 116, 117, 118, 119, 120, 121, 122, 123, 124, 125, 126, 127, 128, 129, 130, 131, 132, 133, 134, 135, 136, 137, 138, 139, 140, 141, 142, 143, 144, 145, 146, 147, 148, 149, 150, 151, 152, 153, 154, 155, 156, 157, 158, 159, 160, 161, 162, 163, 164, 165, 166, 167, 168, 169, 170, 171, 172, 173, 174, 175, 176, 177, 178, 179, 180, 181, 182, 183, 184, 185, 186, 187, 188, 189, 190, 191, 192, 193, 194, 195, 196, 197, 198, 199, 200],
      "AcquisitionTime": ["094220.480000", "094222.480000", "094224.480000", "094226.480000", "094228.480000", "094230.480000", "094232.480000", "094234.480000", "094236.480000", "094238.480000", "094240.480000", "094242.480000", "094244.480000", "094246.480000", "094248.480000", "094250.480000", "094252.480000", "094254.480000", "094256.480000", "094258.480000", "094300.480000", "094302.480000", "094304.480000", "094306.480000", "094308.480000", "094310.480000", "094312.480000", "094314.480000", "094316.480000", "094318.480000", "094320.480000", "094322.480000", "094324.480000", "094326.480000", "094328.480000", "094330.480000", "094332.480000", "094334.480000", "094336.480000", "094338.480000", "094340.480000", "094342.480000", "094344.480000", "094346.480000", "094348.480000", "094350.480000", "094352.480000", "094354.480000", "094356.480000", "094358.480000", "094400.480000", "094402.480000", "094404.480000", "094406.480000", "094408.480000", "094410.480000", "094412.480000", "094414.480000", "094416.480000", "094418.480000", "094420.480000", "094422.480000", "094424.480000", "094426.480000", "094428.480000", "094430.480000", "094432.480000", "094434.480000", "094436.480000", "094438.480000", "094440.480000", "094442.480000", "094444.480000", "094446.480000", "094448.480000", "094450.480000", "094452.480000", "094454.480000", "094456.480000", "094458.480000", "094500.480000", "094502.480000", "094504.480000", "094506.480000", "094508.480000", "094510.480000", "094512.480000", "094514.480000", "094516.480000", "094518.480000", "094520.480000", "094522.480000", "094524.480000", "094526.480000", "094528.480000", "094530.480000", "094532.480000", "094534.480000", "094536.480000", "094538.480000", "094540.480000", "094542.480000", "094544.480000", "094546.480000", "094548.480000", "094550.480000", "094552.480000", "094554.480000", "094556.480000", "094558.480000", "094600.480000", "094602.480000", "094604.480000", "094606.480000", "094608.480000", "094610.480000", "094612.480000", "094614.480000", "094616.480000", "094618.480000", "094620.480000", "094622.480000", "094624.480000", "094626.480000", "094628.480000", "094630.480000", "094632.480000", "094634.480000", "094636.480000", "094638.480000", "094640.480000", "094642.480000", "094644.480000", "094646.480000", "094648.480000", "094650.480000", "094652.480000", "094654.480000", "094656.480000", "094658.480000", "094700.480000", "094702.480000", "094704.480000", "094706.480000", "094708.480000", "094710.480000", "094712.480000", "094714.480000", "094716.480000", "094718.480000", "094720.480000", "094722.480000", "094724.480000", "094726.480000", "094728.480000", "094730.480000", "094732.480000", "094734.480000", "094736.480000", "094738.480000", "094740.480000", "094742.480000", "094744.480000", "094746.480000", "094748.480000", "094750.480000", "094752.480000", "094754.480000", "094756.480000", "094758.480000", "094800.480000", "094802.480000", "094804.480000", "094806.480000", "094808.480000", "094810.480000", "094812.480000", "094814.480000", "094816.480000", "094818.480000", "094820.480000", "094822.480000", "094824.480000", "094826.480000", "094828.480000", "094830.480000", "094832.480000", "094834.480000", "094836.480000", "094838.480000", "094840.480000", "094842.480000", "094844.480000", "094846.480000", "094848.480000", "094850.480000", "094852.480000", "094854.480000", "094856.480000", "094858.480000"],
      "ContentTime": ["094301.730000", "094301.743000", "094301.745000", "094301.748000", "094301.750000", "094301.753000", "094301.755000", "094301.758000", "094301.760000", "094301.763000", "094301.765000", "094301.768000", "094301.770000", "094301.773000", "094301.775000", "094301.778000", "094301.780000", "094301.783000", "094301.785000", "094301.788000", "094301.796000", "094341.725000", "094341.728000", "094341.731000", "094341.734000", "094341.736000", "094341.738000", "094341.741000", "094341.743000", "094341.746000", "094341.749000", "094341.751000", "094341.754000", "094341.756000", "094341.758000", "094341.761000", "094341.763000", "094341.766000", "094341.768000", "094341.771000", "094341.773000", "094421.725000", "094421.728000", "094421.731000", "094421.733000", "094421.735000", "094421.738000", "094421.740000", "094421.743000", "094421.746000", "094421.748000", "094421.751000", "094421.753000", "094421.756000", "094421.758000", "094421.761000", "094421.763000", "094421.766000", "094421.770000", "094421.780000", "094421.783000", "094501.725000", "094501.728000", "094501.731000", "094501.733000", "094501.736000", "094501.738000", "094501.741000", "094501.743000", "094501.746000", "094501.748000", "094501.751000", "094501.753000", "094501.756000", "094501.758000", "094501.761000", "094501.763000", "094501.766000", "094501.768000", "094501.771000", "094501.773000", "094541.724000", "094541.727000", "094541.730000", "094541.734000", "094541.737000", "094541.739000", "094541.742000", "094541.745000", "094541.747000", "094541.749000", "094541.752000", "094541.754000", "094541.757000", "094541.759000", "094541.762000", "094541.781000", "094541.783000", "094541.786000", "094541.788000", "094541.791000", "094621.725000", "094621.728000", "094621.731000", "094621.733000", "094621.736000", "094621.738000", "094621.741000", "094621.743000", "094621.746000", "094621.748000", "094621.751000", "094621.753000", "094621.756000", "094621.758000", "094621.761000", "094621.763000", "094621.766000", "094621.768000", "094621.771000", "094621.773000", "094701.725000", "094701.728000", "094701.731000", "094701.733000", "094701.735000", "094701.738000", "094701.741000", "094701.743000", "094701.746000", "094701.748000", "094701.751000", "094701.753000", "094701.756000", "094701.758000", "094701.769000", "094701.772000", "094701.774000", "094701.777000", "094701.779000", "094701.782000", "094741.725000", "094741.728000", "094741.731000", "094741.733000", "094741.735000", "094741.738000", "094741.741000", "094741.743000", "094741.746000", "094741.748000", "094741.751000", "094741.753000", "094741.756000", "094741.758000", "094741.761000", "094741.763000", "094741.766000", "094741.768000", "094741.771000", "094741.773000", "094821.725000", "094821.728000", "094821.731000", "094821.733000", "094821.736000", "094821.739000", "094821.741000", "094821.744000", "094821.747000", "094821.749000", "094821.752000", "094821.754000", "094821.757000", "094821.759000", "094821.762000", "094821.764000", "094821.767000", "094821.769000", "094821.772000", "094821.774000", "094859.737000", "094859.740000", "094859.742000", "094859.745000", "094859.747000", "094859.750000", "094859.752000", "094859.755000", "094859.757000", "094859.760000", "094859.762000", "094859.765000", "094859.767000", "094859.770000", "094859.772000", "094859.781000", "094859.784000", "094859.786000", "094859.789000"],
      "InstanceCreationTime": ["094301.730000", "094301.743000", "094301.745000", "094301.748000", "094301.750000", "094301.753000", "094301.755000", "094301.758000", "094301.760000", "094301.763000", "094301.765000", "094301.768000", "094301.770000", "094301.773000", "094301.775000", "094301.778000", "094301.780000", "094301.783000", "094301.785000", "094301.788000", "094301.796000", "094341.725000", "094341.728000", "094341.731000", "094341.734000", "094341.736000", "094341.738000", "094341.741000", "094341.743000", "094341.746000", "094341.749000", "094341.751000", "094341.754000", "094341.756000", "094341.758000", "094341.761000", "094341.763000", "094341.766000", "094341.768000", "094341.771000", "094341.773000", "094421.725000", "094421.728000", "094421.731000", "094421.733000", "094421.735000", "094421.738000", "094421.740000", "094421.743000", "094421.746000", "094421.748000", "094421.751000", "094421.753000", "094421.756000", "094421.758000", "094421.761000", "094421.763000", "094421.766000", "094421.770000", "094421.780000", "094421.783000", "094501.725000", "094501.728000", "094501.731000", "094501.733000", "094501.736000", "094501.738000", "094501.741000", "094501.743000", "094501.746000", "094501.748000", "094501.751000", "094501.753000", "094501.756000", "094501.758000", "094501.761000", "094501.763000", "094501.766000", "094501.768000", "094501.771000", "094501.773000", "094541.724000", "094541.727000", "094541.730000", "094541.734000", "094541.737000", "094541.739000", "094541.742000", "094541.745000", "094541.747000", "094541.749000", "094541.752000", "094541.754000", "094541.757000", "094541.759000", "094541.762000", "094541.781000", "094541.783000", "094541.786000", "094541.788000", "094541.791000", "094621.725000", "094621.728000", "094621.731000", "094621.733000", "094621.736000", "094621.738000", "094621.741000", "094621.743000", "094621.746000", "094621.748000", "094621.751000", "094621.753000", "094621.756000", "094621.758000", "094621.761000", "094621.763000", "094621.766000", "094621.768000", "094621.771000", "094621.773000", "094701.725000", "094701.728000", "094701.731000", "094701.733000", "094701.735000", "094701.738000", "094701.741000", "094701.743000", "094701.746000", "094701.748000", "094701.751000", "094701.753000", "094701.756000", "094701.758000", "094701.769000", "094701.772000", "094701.774000", "094701.777000", "094701.779000", "094701.782000", "094741.725000", "094741.728000", "094741.731000", "094741.733000", "094741.735000", "094741.738000", "094741.741000", "094741.743000", "094741.746000", "094741.748000", "094741.751000", "094741.753000", "094741.756000", "094741.758000", "094741.761000", "094741.763000", "094741.766000", "094741.768000", "094741.771000", "094741.773000", "094821.725000", "094821.728000", "094821.731000", "094821.733000", "094821.736000", "094821.739000", "094821.741000", "094821.744000", "094821.747000", "094821.749000", "094821.752000", "094821.754000", "094821.757000", "094821.759000", "094821.762000", "094821.764000", "094821.767000", "094821.769000", "094821.772000", "094821.774000", "094859.737000", "094859.740000", "094859.742000", "094859.745000", "094859.747000", "094859.750000", "094859.752000", "094859.755000", "094859.757000", "094859.760000", "094859.762000", "094859.765000", "094859.767000", "094859.770000", "094859.772000", "094859.781000", "094859.784000", "094859.786000", "094859.789000"],
      "InstanceNumber": [1, 2, 3, 4, 5, 6, 7, 8, 9, 10, 11, 12, 13, 14, 15, 16, 17, 18, 19, 20, 21, 22, 23, 24, 25, 26, 27, 28, 29, 30, 31, 32, 33, 34, 35, 36, 37, 38, 39, 40, 41, 42, 43, 44, 45, 46, 47, 48, 49, 50, 51, 52, 53, 54, 55, 56, 57, 58, 59, 60, 61, 62, 63, 64, 65, 66, 67, 68, 69, 70, 71, 72, 73, 74, 75, 76, 77, 78, 79, 80, 81, 82, 83, 84, 85, 86, 87, 88, 89, 90, 91, 92, 93, 94, 95, 96, 97, 98, 99, 100, 101, 102, 103, 104, 105, 106, 107, 108, 109, 110, 111, 112, 113, 114, 115, 116, 117, 118, 119, 120, 121, 122, 123, 124, 125, 126, 127, 128, 129, 130, 131, 132, 133, 134, 135, 136, 137, 138, 139, 140, 141, 142, 143, 144, 145, 146, 147, 148, 149, 150, 151, 152, 153, 154, 155, 156, 157, 158, 159, 160, 161, 162, 163, 164, 165, 166, 167, 168, 169, 170, 171, 172, 173, 174, 175, 176, 177, 178, 179, 180, 181, 182, 183, 184, 185, 186, 187, 188, 189, 190, 191, 192, 193, 194, 195, 196, 197, 198, 199, 200],
      "LargestImagePixelValue": [336, 337, 338, 338, 336, 337, 337, 338, 335, 338, 336, 337, 335, 338, 336, 338, 339, 340, 339, 339, 335, 337, 335, 336, 338, 334, 335, 337, 334, 337, 336, 339, 335, 337, 338, 341, 335, 340, 337, 336, 335, 335, 339, 339, 339, 336, 338, 339, 338, 335, 334, 336, 337, 338, 334, 336, 338, 338, 339, 335, 336, 338, 336, 334, 337, 336, 339, 336, 336, 335, 337, 337, 334, 338, 338, 335, 337, 337, 338, 335, 335, 336, 337, 335, 335, 335, 336, 335, 336, 336, 338, 340, 338, 339, 336, 337, 340, 335, 335, 337, 336, 338, 339, 339, 336, 335, 339, 339, 335, 337, 337, 340, 338, 337, 336, 333, 338, 335, 341, 336, 339, 338, 333, 337, 336, 336, 335, 335, 336, 334, 338, 336, 338, 338, 336, 336, 335, 337, 334, 336, 337, 339, 338, 336, 336, 336, 333, 340, 336, 334, 334, 337, 336, 336, 335, 337, 336, 335, 335, 335, 334, 337, 336, 334, 335, 336, 335, 336, 340, 336, 339, 335, 334, 334, 335, 338, 335, 334, 334, 336, 334, 336, 337, 337, 336, 342, 336, 337, 333, 335, 335, 336, 336, 335, 334, 334, 334, 335, 336, 340],
      "WindowCenter": [280.0, 279.0, 279.0, 279.0, 279.0, 279.0, 279.0, 279.0, 279.0, 279.0, 279.0, 280.0, 279.0, 279.0, 279.0, 279.0, 279.0, 279.0, 279.0, 279.0, 279.0, 280.0, 279.0, 279.0, 279.0, 279.0, 280.0, 279.0, 279.0, 279.0, 280.0, 279.0, 279.0, 280.0, 279.0, 279.0, 279.0, 279.0, 279.0, 279.0, 279.0, 280.0, 279.0, 279.0, 280.0, 279.0, 279.0, 279.0, 279.0, 280.0, 279.0, 279.0, 279.0, 279.0, 279.0, 279.0, 280.0, 279.0, 279.0, 279.0, 279.0, 280.0, 279.0, 279.0, 280.0, 279.0, 279.0, 279.0, 279.0, 279.0, 279.0, 279.0, 279.0, 279.0, 279.0, 279.0, 279.0, 279.0, 279.0, 279.0, 279.0, 279.0, 279.0, 279.0, 279.0, 279.0, 279.0, 279.0, 279.0, 279.0, 279.0, 279.0, 279.0, 279.0, 280.0, 279.0, 279.0, 279.0, 279.0, 279.0, 279.0, 279.0, 280.0, 279.0, 279.0, 279.0, 279.0, 279.0, 279.0, 279.0, 279.0, 279.0, 279.0, 279.0, 279.0, 279.0, 279.0, 279.0, 279.0, 279.0, 279.0, 279.0, 279.0, 279.0, 279.0, 279.0, 279.0, 279.0, 279.0, 279.0, 279.0, 279.0, 279.0, 279.0, 279.0, 279.0, 279.0, 279.0, 279.0, 279.0, 279.0, 279.0, 279.0, 279.0, 279.0, 279.0, 279.0, 279.0, 279.0, 280.0, 279.0, 279.0, 279.0, 279.0, 279.0, 279.0, 279.0, 279.0, 279.0, 279.0, 279.0, 279.0, 279.0, 279.0, 279.0, 279.0, 279.0, 279.0, 279.0, 279.0, 279.0, 279.0, 279.0, 279.0, 279.0, 279.0, 279.0, 279.0, 279.0, 279.0, 279.0, 279.0, 279.0, 279.0, 279.0, 278.0, 280.0, 279.0, 279.0, 279.0, 279.0, 279.0, 279.0, 279.0, 279.0, 279.0, 279.0, 279.0, 278.0, 279.0],
      "WindowWidth": [612.0, 612.0, 612.0, 612.0, 612.0, 612.0, 612.0, 611.0, 612.0, 612.0, 612.0, 612.0, 612.0, 612.0, 612.0, 612.0, 611.0, 612.0, 612.0, 612.0, 612.0, 612.0, 612.0, 612.0, 612.0, 612.0, 612.0, 612.0, 612.0, 612.0, 612.0, 612.0, 612.0, 612.0, 612.0, 612.0, 612.0, 612.0, 612.0, 612.0, 612.0, 612.0, 612.0, 612.0, 612.0, 612.0, 612.0, 612.0, 612.0, 612.0, 612.0, 612.0, 612.0, 612.0, 612.0, 612.0, 612.0, 611.0, 612.0, 612.0, 612.0, 612.0, 612.0, 612.0, 612.0, 612.0, 612.0, 612.0, 612.0, 611.0, 612.0, 612.0, 612.0, 612.0, 612.0, 612.0, 612.0, 612.0, 611.0, 612.0, 612.0, 612.0, 611.0, 612.0, 612.0, 612.0, 612.0, 612.0, 612.0, 612.0, 612.0, 612.0, 612.0, 612.0, 612.0, 612.0, 612.0, 612.0, 612.0, 612.0, 612.0, 612.0, 612.0, 612.0, 612.0, 612.0, 612.0, 612.0, 612.0, 612.0, 611.0, 612.0, 612.0, 612.0, 612.0, 612.0, 612.0, 612.0, 612.0, 612.0, 612.0, 612.0, 612.0, 612.0, 612.0, 612.0, 611.0, 612.0, 612.0, 612.0, 612.0, 612.0, 612.0, 611.0, 612.0, 612.0, 612.0, 612.0, 612.0, 612.0, 611.0, 611.0, 611.0, 612.0, 612.0, 611.0, 612.0, 612.0, 612.0, 612.0, 612.0, 612.0, 611.0, 612.0, 612.0, 612.0, 612.0, 612.0, 612.0, 611.0, 611.0, 612.0, 611.0, 611.0, 611.0, 611.0, 611.0, 611.0, 611.0, 611.0, 612.0, 612.0, 611.0, 612.0, 611.0, 611.0, 612.0, 611.0, 611.0, 611.0, 611.0, 611.0, 611.0, 610.0, 611.0, 610.0, 612.0, 611.0, 611.0, 610.0, 611.0, 612.0, 611.0, 611.0, 611.0, 611.0, 611.0, 611.0, 610.0, 611.0]
    },
    "slices": {}
  }
}