{
  "AcquisitionMatrixPE": 80,
  "AcquisitionNumber": 1,
  "AcquisitionTime": "09:21:49.487500",
  "BandwidthPerPixelPhaseEncode": 48.077,
  "BaseResolution": 80,
  "BodyPartExamined": "BRAIN",
  "CoilCombinationMethod": "Sum of Squares",
  "ConsistencyInfo": "N4_VE11C_LATEST_20160120",
  "ConversionSoftware": "dcm2niix",
  "ConversionSoftwareVersion": "v1.0.20220720",
  "DerivedVendorReportedEchoSpacing": 0.000519999,
  "DeviceSerialNumber": "66112",
  "DwellTime": 2.7e-06,
  "EchoTime": 0.035,
  "EchoTrainLength": 39,
  "EffectiveEchoSpacing": 0.00026,
  "FlipAngle": 90,
  "HeudiconvVersion": "0.13.1",
  "ImageOrientationPatientDICOM": [0.982727, 0.184725, 0.011112, -0.179301, 0.935569, 0.30424],
  "ImageOrientationText": "Tra>Cor(17.5)>Sag(-2.6)",
  "ImageType": [
    "ORIGINAL",
    "PRIMARY",
    "M",
    "ND",
    "NORM",
    "MOSAIC"
],
  "ImagingFrequency": 123.252,
  "InPlanePhaseEncodingDirectionDICOM": "COL",
  "InstitutionAddress": "Maynard 3,Hanover,NH,US,03755",
  "InstitutionName": "Dartmouth College - PBS",
  "InstitutionalDepartmentName": "Department",
  "MRAcquisitionType": "2D",
  "MagneticFieldStrength": 3,
  "Manufacturer": "Siemens",
  "ManufacturersModelName": "Prisma",
  "MatrixCoilMode": "GRAPPA",
  "Modality": "MR",
  "NonlinearGradientCorrection": false,
  "ParallelReductionFactorInPlane": 2,
  "PartialFourier": 1,
  "PatientPosition": "HFS",
  "PercentPhaseFOV": 100,
  "PercentSampling": 100,
  "PhaseEncodingDirection": "j-",
  "PhaseEncodingSteps": 79,
  "PhaseResolution": 1,
  "PixelBandwidth": 2315,
  "ProcedureStepDescription": "dbic^QA",
  "ProtocolName": "func-bold_task-rest_acq-p2",
  "PulseSequenceDetails": "%SiemensSeq%\\ep2d_bold",
  "ReceiveCoilActiveElements": "HEA;HEP",
  "ReceiveCoilName": "Head_32",
  "ReconMatrixPE": 80,
  "RefLinesPE": 24,
  "RepetitionTime": 2,
  "SAR": 0.0475294,
  "ScanOptions": "FS",
  "ScanningSequence": "EP",
  "SequenceName": "*epfid2d1_80",
  "SequenceVariant": "SK",
  "SeriesDescription": "func-bold_task-rest_acq-p2",
  "SeriesNumber": 5,
  "ShimSetting": [4146, -7705, -7526, 317, -46, -62, -61, 65],
  "SliceThickness": 3.5,
  "SliceTiming": [0.99, 0, 1.0575, 0.0675, 1.1225, 0.1325, 1.19, 0.2, 1.255, 0.265, 1.32, 0.33, 1.3875, 0.3975, 1.4525, 0.4625, 1.52, 0.53, 1.585, 0.595, 1.65, 0.66, 1.7175, 0.7275, 1.7825, 0.7925, 1.85, 0.86, 1.915, 0.925],
  "SoftwareVersions": "syngo MR E11",
  "SpacingBetweenSlices": 3.99,
  "StationName": "AWP66112",
  "TaskName": "rest",
  "TotalReadoutTime": 0.02054,
  "TxRefAmp": 225.303,
  "dcmmeta_affine": [
    [-2.9481823444366455, -0.5379018783569336, -0.1827608048915863, 145.25930786132812],
    [-0.5541749000549316, 2.8067069053649902, 1.2008998394012451, -105.42716217041016],
    [0.03333590179681778, -0.9127200841903687, 3.8005969524383545, -33.46360397338867],
    [0.0, 0.0, 0.0, 1.0]
],
  "dcmmeta_reorient_transform": [
    [0.0, -1.0, 0.0, 79.0],
    [1.0, 0.0, 0.0, 0.0],
    [0.0, 0.0, 1.0, 0.0],
    [0.0, 0.0, 0.0, 1.0]
],
  "dcmmeta_shape": [80, 80, 30, 200],
  "dcmmeta_slice_dim": 2,
  "dcmmeta_version": 0.6,
  "global": {
    "const": {
      "AccessionNumber": "qa",
      "AcquisitionMatrix": [80, 0, 0, 80],
      "AngioFlag": "N",
      "BitsAllocated": 16,
      "BitsStored": 12,
      "BodyPartExamined": "BRAIN",
      "Columns": 480,
      "EchoNumbers": 1,
      "EchoTime": 35.0,
      "EchoTrainLength": 39,
      "FlipAngle": 90.0,
      "HighBit": 11,
      "ImageOrientationPatient": [0.98272743576288, 0.18472496089486, 0.01111196748118, -0.1793006277613, 0.93556896727678, 0.30424002424576],
      "ImagePositionPatient": [-584.82114783428, -788.47903703602, -294.77968373822],
      "ImageType": [
        "ORIGINAL",
        "PRIMARY",
        "M",
        "ND",
        "NORM",
        "MOSAIC"
],
      "ImagedNucleus": "1H",
      "ImagingFrequency": 123.252355,
      "InPlanePhaseEncodingDirection": "COL",
      "MRAcquisitionType": "2D",
      "MagneticFieldStrength": 3.0,
      "Manufacturer": "SIEMENS",
      "ManufacturerModelName": "Prisma",
      "Modality": "MR",
      "NumberOfAverages": 1.0,
      "NumberOfPhaseEncodingSteps": 79,
      "PercentPhaseFieldOfView": 100.0,
      "PercentSampling": 100.0,
      "PerformedProcedureStepStartTime": "091639.671000",
      "PhotometricInterpretation": "MONOCHROME2",
      "PixelBandwidth": 2315.0,
      "PixelRepresentation": 0,
      "PixelSpacing": [3.0, 3.0],
      "ProtocolName": "func-bold_task-rest_acq-p2",
      "RepetitionTime": 2000.0,
      "Rows": 480,
      "SAR": 0.04752935046414,
      "SamplesPerPixel": 1,
      "ScanOptions": "FS",
      "ScanningSequence": "EP",
      "SequenceName": "*epfid2d1_80",
      "SequenceVariant": "SK",
      "SeriesDescription": "func-bold_task-rest_acq-p2",
      "SeriesNumber": 5,
      "SeriesTime": "092241.726000",
      "SliceLocation": -70.25986113175,
      "SliceThickness": 3.5,
      "SmallestImagePixelValue": 0,
      "SoftwareVersions": "syngo MR E11",
      "SpacingBetweenSlices": 3.9899999035218,
      "SpecificCharacterSet": "ISO_IR 100",
      "StudyID": "11",
      "StudyTime": "091639.606000",
      "TransmitCoilName": "Body",
      "VariableFlipAngleFlag": "N",
      "WindowCenterWidthExplanation": "Algo1",
      "dBdt": 0.0},
    "slices": {}
  },
  "time": {
    "samples": {
      "AcquisitionNumber": [1, 2, 3, 4, 5, 6, 7, 8, 9, 10, 11, 12, 13, 14, 15, 16, 17, 18, 19, 20, 21, 22, 23, 24, 25, 26, 27, 28, 29, 30, 31, 32, 33, 34, 35, 36, 37, 38, 39, 40, 41, 42, 43, 44, 45, 46, 47, 48, 49, 50, 51, 52, 53, 54, 55, 56, 57, 58, 59, 60, 61, 62, 63, 64, 65, 66, 67, 68, 69, 70, 71, 72, 73, 74, 75, 76, 77, 78, 79, 80, 81, 82, 83, 84, 85, 86, 87, 88, 89, 90, 91, 92, 93, 94, 95, 96, 97, 98, 99, 100, 101, 102, 103, 104, 105, 106, 107, 108, 109, 110, 111, 112, 113, 114, 115, 116, 117, 118, 119, 120, 121, 122, 123, 124, 125, 126, 127, 128, 129, 130, 131, 132, 133, 134, 135, 136, 137, 138, 139, 140, 141, 142, 143, 144, 145, 146, 147, 148, 149, 150, 151, 152, 153, 154, 155, 156, 157, 158, 159, 160, 161, 162, 163, 164, 165, 166, 167, 168, 169, 170, 171, 172, 173, 174, 175, 176, 177, 178, 179, 180, 181, 182, 183, 184, 185, 186, 187, 188, 189, 190, 191, 192, 193, 194, 195, 196, 197, 198, 199, 200],
      "AcquisitionTime": ["092149.487500", "092151.487500", "092153.487500", "092155.487500", "092157.487500", "092159.487500", "092201.487500", "092203.487500", "092205.487500", "092207.487500", "092209.487500", "092211.487500", "092213.487500", "092215.487500", "092217.487500", "092219.487500", "092221.487500", "092223.487500", "092225.487500", "092227.487500", "092229.487500", "092231.487500", "092233.487500", "092235.487500", "092237.487500", "092239.487500", "092241.487500", "092243.487500", "092245.487500", "092247.487500", "092249.487500", "092251.487500", "092253.487500", "092255.487500", "092257.487500", "092259.487500", "092301.487500", "092303.487500", "092305.487500", "092307.487500", "092309.487500", "092311.487500", "092313.487500", "092315.487500", "092317.487500", "092319.487500", "092321.487500", "092323.487500", "092325.487500", "092327.487500", "092329.487500", "092331.487500", "092333.487500", "092335.487500", "092337.487500", "092339.487500", "092341.487500", "092343.487500", "092345.487500", "092347.487500", "092349.487500", "092351.487500", "092353.487500", "092355.487500", "092357.487500", "092359.487500", "092401.487500", "092403.487500", "092405.487500", "092407.487500", "092409.487500", "092411.487500", "092413.487500", "092415.487500", "092417.487500", "092419.487500", "092421.487500", "092423.487500", "092425.487500", "092427.487500", "092429.487500", "092431.487500", "092433.487500", "092435.487500", "092437.487500", "092439.487500", "092441.487500", "092443.487500", "092445.487500", "092447.487500", "092449.487500", "092451.487500", "092453.487500", "092455.487500", "092457.487500", "092459.487500", "092501.487500", "092503.487500", "092505.487500", "092507.487500", "092509.487500", "092511.487500", "092513.487500", "092515.487500", "092517.487500", "092519.487500", "092521.487500", "092523.487500", "092525.487500", "092527.487500", "092529.487500", "092531.487500", "092533.487500", "092535.487500", "092537.487500", "092539.487500", "092541.487500", "092543.487500", "092545.487500", "092547.487500", "092549.487500", "092551.487500", "092553.487500", "092555.487500", "092557.487500", "092559.487500", "092601.487500", "092603.487500", "092605.487500", "092607.487500", "092609.487500", "092611.487500", "092613.487500", "092615.487500", "092617.487500", "092619.487500", "092621.487500", "092623.487500", "092625.487500", "092627.487500", "092629.487500", "092631.487500", "092633.487500", "092635.487500", "092637.487500", "092639.487500", "092641.487500", "092643.487500", "092645.487500", "092647.487500", "092649.487500", "092651.487500", "092653.487500", "092655.487500", "092657.487500", "092659.487500", "092701.487500", "092703.487500", "092705.487500", "092707.487500", "092709.487500", "092711.487500", "092713.487500", "092715.487500", "092717.487500", "092719.487500", "092721.487500", "092723.487500", "092725.487500", "092727.487500", "092729.487500", "092731.487500", "092733.487500", "092735.487500", "092737.487500", "092739.487500", "092741.487500", "092743.487500", "092745.487500", "092747.487500", "092749.487500", "092751.487500", "092753.487500", "092755.487500", "092757.487500", "092759.487500", "092801.487500", "092803.487500", "092805.487500", "092807.487500", "092809.487500", "092811.487500", "092813.487500", "092815.487500", "092817.487500", "092819.487500", "092821.487500", "092823.487500", "092825.487500", "092827.487500"],
      "ContentTime": ["092241.730000", "092241.733000", "092241.736000", "092241.738000", "092241.741000", "092241.744000", "092241.746000", "092241.749000", "092241.751000", "092241.754000", "092241.756000", "092241.759000", "092241.761000", "092241.764000", "092241.766000", "092241.769000", "092241.771000", "092241.774000", "092241.776000", "092241.779000", "092241.781000", "092241.784000", "092241.786000", "092241.789000", "092241.791000", "092241.794000", "092321.726000", "092321.729000", "092321.731000", "092321.734000", "092321.736000", "092321.739000", "092321.742000", "092321.744000", "092321.747000", "092321.749000", "092321.752000", "092321.754000", "092321.757000", "092321.760000", "092321.762000", "092321.765000", "092321.767000", "092321.770000", "092321.772000", "092321.775000", "092401.725000", "092401.728000", "092401.731000", "092401.733000", "092401.736000", "092401.739000", "092401.741000", "092401.744000", "092401.746000", "092401.749000", "092401.751000", "092401.754000", "092401.756000", "092401.759000", "092401.762000", "092401.764000", "092401.767000", "092401.769000", "092401.772000", "092401.774000", "092441.724000", "092441.727000", "092441.730000", "092441.732000", "092441.735000", "092441.737000", "092441.740000", "092441.742000", "092441.745000", "092441.747000", "092441.750000", "092441.753000", "092441.755000", "092441.758000", "092441.760000", "092441.763000", "092441.765000", "092441.768000", "092441.770000", "092441.773000", "092521.726000", "092521.729000", "092521.731000", "092521.734000", "092521.736000", "092521.739000", "092521.741000", "092521.744000", "092521.746000", "092521.749000", "092521.751000", "092521.754000", "092521.756000", "092521.759000", "092521.761000", "092521.764000", "092521.767000", "092521.769000", "092521.772000", "092521.774000", "092601.726000", "092601.728000", "092601.731000", "092601.733000", "092601.736000", "092601.738000", "092601.741000", "092601.743000", "092601.746000", "092601.748000", "092601.751000", "092601.753000", "092601.756000", "092601.759000", "092601.761000", "092601.764000", "092601.766000", "092601.769000", "092601.771000", "092601.774000", "092641.725000", "092641.728000", "092641.740000", "092641.743000", "092641.746000", "092641.748000", "092641.751000", "092641.753000", "092641.756000", "092641.758000", "092641.761000", "092641.763000", "092641.765000", "092641.768000", "092641.771000", "092641.773000", "092641.776000", "092641.778000", "092641.781000", "092641.783000", "092721.724000", "092721.727000", "092721.730000", "092721.732000", "092721.735000", "092721.738000", "092721.740000", "092721.743000", "092721.745000", "092721.748000", "092721.750000", "092721.753000", "092721.755000", "092721.758000", "092721.760000", "092721.763000", "092721.765000", "092721.768000", "092721.771000", "092721.773000", "092801.725000", "092801.728000", "092801.731000", "092801.733000", "092801.736000", "092801.739000", "092801.741000", "092801.744000", "092801.746000", "092801.749000", "092801.751000", "092801.754000", "092801.756000", "092801.759000", "092801.761000", "092801.764000", "092801.766000", "092801.769000", "092801.771000", "092801.774000", "092829.080000", "092829.083000", "092829.086000", "092829.088000", "092829.091000", "092829.094000", "092829.096000", "092829.099000", "092829.101000", "092829.104000", "092829.106000", "092829.109000", "092829.130000", "092829.133000"],
      "InstanceCreationTime": ["092241.730000", "092241.733000", "092241.736000", "092241.738000", "092241.741000", "092241.744000", "092241.746000", "092241.749000", "092241.751000", "092241.754000", "092241.756000", "092241.759000", "092241.761000", "092241.764000", "092241.766000", "092241.769000", "092241.771000", "092241.774000", "092241.776000", "092241.779000", "092241.781000", "092241.784000", "092241.786000", "092241.789000", "092241.791000", "092241.794000", "092321.726000", "092321.729000", "092321.731000", "092321.734000", "092321.736000", "092321.739000", "092321.742000", "092321.744000", "092321.747000", "092321.749000", "092321.752000", "092321.754000", "092321.757000", "092321.760000", "092321.762000", "092321.765000", "092321.767000", "092321.770000", "092321.772000", "092321.775000", "092401.725000", "092401.728000", "092401.731000", "092401.733000", "092401.736000", "092401.739000", "092401.741000", "092401.744000", "092401.746000", "092401.749000", "092401.751000", "092401.754000", "092401.756000", "092401.759000", "092401.762000", "092401.764000", "092401.767000", "092401.769000", "092401.772000", "092401.774000", "092441.724000", "092441.727000", "092441.730000", "092441.732000", "092441.735000", "092441.737000", "092441.740000", "092441.742000", "092441.745000", "092441.747000", "092441.750000", "092441.753000", "092441.755000", "092441.758000", "092441.760000", "092441.763000", "092441.765000", "092441.768000", "092441.770000", "092441.773000", "092521.726000", "092521.729000", "092521.731000", "092521.734000", "092521.736000", "092521.739000", "092521.741000", "092521.744000", "092521.746000", "092521.749000", "092521.751000", "092521.754000", "092521.756000", "092521.759000", "092521.761000", "092521.764000", "092521.767000", "092521.769000", "092521.772000", "092521.774000", "092601.726000", "092601.728000", "092601.731000", "092601.733000", "092601.736000", "092601.738000", "092601.741000", "092601.743000", "092601.746000", "092601.748000", "092601.751000", "092601.753000", "092601.756000", "092601.759000", "092601.761000", "092601.764000", "092601.766000", "092601.769000", "092601.771000", "092601.774000", "092641.725000", "092641.728000", "092641.740000", "092641.743000", "092641.746000", "092641.748000", "092641.751000", "092641.753000", "092641.756000", "092641.758000", "092641.761000", "092641.763000", "092641.765000", "092641.768000", "092641.771000", "092641.773000", "092641.776000", "092641.778000", "092641.781000", "092641.783000", "092721.724000", "092721.727000", "092721.730000", "092721.732000", "092721.735000", "092721.738000", "092721.740000", "092721.743000", "092721.745000", "092721.748000", "092721.750000", "092721.753000", "092721.755000", "092721.758000", "092721.760000", "092721.763000", "092721.765000", "092721.768000", "092721.771000", "092721.773000", "092801.725000", "092801.728000", "092801.731000", "092801.733000", "092801.736000", "092801.739000", "092801.741000", "092801.744000", "092801.746000", "092801.749000", "092801.751000", "092801.754000", "092801.756000", "092801.759000", "092801.761000", "092801.764000", "092801.766000", "092801.769000", "092801.771000", "092801.774000", "092829.080000", "092829.083000", "092829.086000", "092829.088000", "092829.091000", "092829.094000", "092829.096000", "092829.099000", "092829.101000", "092829.104000", "092829.106000", "092829.109000", "092829.130000", "092829.133000"],
      "InstanceNumber": [1, 2, 3, 4, 5, 6, 7, 8, 9, 10, 11, 12, 13, 14, 15, 16, 17, 18, 19, 20, 21, 22, 23, 24, 25, 26, 27, 28, 29, 30, 31, 32, 33, 34, 35, 36, 37, 38, 39, 40, 41, 42, 43, 44, 45, 46, 47, 48, 49, 50, 51, 52, 53, 54, 55, 56, 57, 58, 59, 60, 61, 62, 63, 64, 65, 66, 67, 68, 69, 70, 71, 72, 73, 74, 75, 76, 77, 78, 79, 80, 81, 82, 83, 84, 85, 86, 87, 88, 89, 90, 91, 92, 93, 94, 95, 96, 97, 98, 99, 100, 101, 102, 103, 104, 105, 106, 107, 108, 109, 110, 111, 112, 113, 114, 115, 116, 117, 118, 119, 120, 121, 122, 123, 124, 125, 126, 127, 128, 129, 130, 131, 132, 133, 134, 135, 136, 137, 138, 139, 140, 141, 142, 143, 144, 145, 146, 147, 148, 149, 150, 151, 152, 153, 154, 155, 156, 157, 158, 159, 160, 161, 162, 163, 164, 165, 166, 167, 168, 169, 170, 171, 172, 173, 174, 175, 176, 177, 178, 179, 180, 181, 182, 183, 184, 185, 186, 187, 188, 189, 190, 191, 192, 193, 194, 195, 196, 197, 198, 199, 200],
      "LargestImagePixelValue": [2031, 2021, 2028, 2026, 2023, 2031, 2024, 2015, 2024, 2032, 2021, 2029, 2023, 2025, 2024, 2025, 2024, 2022, 2023, 2022, 2017, 2028, 2019, 2021, 2026, 2023, 2014, 2019, 2019, 2030, 2012, 2032, 2025, 2025, 2026, 2026, 2022, 2021, 2013, 2016, 2013, 2018, 2022, 2018, 2025, 2023, 2020, 2016, 2017, 2013, 2021, 2014, 2011, 2018, 2019, 2023, 2022, 2024, 2019, 2021, 2014, 2018, 2015, 2024, 2019, 2019, 2010, 2020, 2025, 2018, 2019, 2027, 2017, 2014, 2020, 2018, 2010, 2008, 2012, 2010, 2010, 2015, 2020, 2011, 2012, 2009, 1998, 2013, 2011, 2009, 2015, 2010, 2014, 2014, 2008, 2006, 2013, 2018, 2008, 2016, 2016, 2009, 2012, 2007, 2004, 2009, 2017, 2011, 2009, 2012, 2005, 2005, 2008, 2015, 2009, 2008, 2009, 2004, 2005, 2011, 2012, 2004, 2010, 2014, 2007, 2007, 2013, 2007, 2009, 2010, 1998, 2009, 2014, 2005, 2015, 2018, 2008, 2013, 2010, 1998, 2009, 2001, 2009, 2020, 2014, 2015, 2019, 2010, 2007, 2016, 2014, 2007, 2010, 2009, 2006, 2006, 2005, 2011, 2010, 2015, 2010, 2007, 2017, 2018, 2013, 2009, 2012, 2008, 2007, 2008, 2023, 2010, 2009, 2012, 2007, 2011, 2010, 2012, 2020, 2020, 2010, 2012, 2009, 2016, 2010, 2020, 2021, 2012, 2014, 2012, 2011, 2015, 2013, 2016, 2015, 2009, 2017, 2012, 2013, 2017],
      "WindowCenter": [993.0, 993.0, 993.0, 993.0, 992.0, 992.0, 993.0, 992.0, 993.0, 992.0, 993.0, 993.0, 993.0, 992.0, 992.0, 992.0, 992.0, 992.0, 992.0, 992.0, 992.0, 993.0, 993.0, 992.0, 992.0, 992.0, 993.0, 993.0, 993.0, 993.0, 992.0, 993.0, 992.0, 992.0, 993.0, 992.0, 993.0, 993.0, 992.0, 992.0, 992.0, 992.0, 992.0, 992.0, 992.0, 992.0, 992.0, 992.0, 992.0, 992.0, 992.0, 992.0, 992.0, 991.0, 992.0, 991.0, 992.0, 992.0, 991.0, 992.0, 992.0, 991.0, 992.0, 991.0, 992.0, 991.0, 991.0, 991.0, 992.0, 991.0, 992.0, 991.0, 991.0, 991.0, 991.0, 991.0, 992.0, 991.0, 991.0, 991.0, 992.0, 991.0, 991.0, 991.0, 991.0, 991.0, 992.0, 991.0, 991.0, 992.0, 991.0, 991.0, 991.0, 992.0, 991.0, 991.0, 991.0, 991.0, 992.0, 991.0, 991.0, 992.0, 991.0, 992.0, 992.0, 991.0, 991.0, 991.0, 991.0, 992.0, 991.0, 991.0, 992.0, 991.0, 991.0, 991.0, 991.0, 992.0, 991.0, 991.0, 991.0, 991.0, 992.0, 991.0, 991.0, 991.0, 991.0, 991.0, 991.0, 991.0, 991.0, 991.0, 992.0, 991.0, 992.0, 991.0, 992.0, 991.0, 991.0, 992.0, 992.0, 991.0, 991.0, 991.0, 991.0, 991.0, 991.0, 992.0, 992.0, 991.0, 991.0, 991.0, 991.0, 991.0, 992.0, 991.0, 992.0, 991.0, 992.0, 992.0, 992.0, 992.0, 991.0, 991.0, 991.0, 992.0, 991.0, 991.0, 991.0, 991.0, 991.0, 992.0, 992.0, 992.0, 991.0, 991.0, 991.0, 991.0, 992.0, 991.0, 991.0, 991.0, 991.0, 992.0, 991.0, 992.0, 991.0, 991.0, 992.0, 991.0, 991.0, 991.0, 991.0, 992.0, 992.0, 991.0, 991.0, 992.0, 991.0, 991.0],
      "WindowWidth": [2186.0, 2185.0, 2185.0, 2185.0, 2184.0, 2184.0, 2185.0, 2184.0, 2185.0, 2184.0, 2185.0, 2185.0, 2184.0, 2183.0, 2184.0, 2184.0, 2184.0, 2184.0, 2184.0, 2184.0, 2184.0, 2184.0, 2184.0, 2183.0, 2183.0, 2183.0, 2184.0, 2184.0, 2184.0, 2184.0, 2183.0, 2184.0, 2183.0, 2183.0, 2184.0, 2183.0, 2184.0, 2183.0, 2183.0, 2183.0, 2183.0, 2183.0, 2183.0, 2183.0, 2183.0, 2183.0, 2183.0, 2182.0, 2183.0, 2183.0, 2183.0, 2183.0, 2183.0, 2183.0, 2182.0, 2183.0, 2183.0, 2182.0, 2182.0, 2183.0, 2183.0, 2182.0, 2183.0, 2182.0, 2182.0, 2182.0, 2182.0, 2182.0, 2182.0, 2182.0, 2183.0, 2182.0, 2182.0, 2182.0, 2182.0, 2182.0, 2183.0, 2182.0, 2182.0, 2182.0, 2182.0, 2182.0, 2181.0, 2182.0, 2182.0, 2181.0, 2182.0, 2181.0, 2181.0, 2182.0, 2182.0, 2181.0, 2182.0, 2182.0, 2181.0, 2181.0, 2181.0, 2182.0, 2182.0, 2182.0, 2182.0, 2182.0, 2181.0, 2182.0, 2182.0, 2181.0, 2181.0, 2181.0, 2181.0, 2182.0, 2181.0, 2181.0, 2182.0, 2181.0, 2181.0, 2181.0, 2181.0, 2182.0, 2181.0, 2181.0, 2181.0, 2181.0, 2182.0, 2181.0, 2181.0, 2181.0, 2181.0, 2181.0, 2181.0, 2181.0, 2181.0, 2181.0, 2181.0, 2181.0, 2181.0, 2181.0, 2181.0, 2181.0, 2181.0, 2181.0, 2181.0, 2181.0, 2181.0, 2181.0, 2181.0, 2180.0, 2180.0, 2181.0, 2181.0, 2181.0, 2181.0, 2181.0, 2181.0, 2181.0, 2181.0, 2181.0, 2181.0, 2180.0, 2181.0, 2181.0, 2181.0, 2181.0, 2180.0, 2181.0, 2180.0, 2181.0, 2180.0, 2180.0, 2180.0, 2180.0, 2180.0, 2181.0, 2181.0, 2180.0, 2180.0, 2180.0, 2180.0, 2180.0, 2181.0, 2180.0, 2180.0, 2180.0, 2180.0, 2180.0, 2180.0, 2181.0, 2180.0, 2180.0, 2180.0, 2180.0, 2180.0, 2180.0, 2180.0, 2180.0, 2181.0, 2180.0, 2180.0, 2180.0, 2180.0, 2180.0]
    },
    "slices": {}
  }
}