{
  "AcquisitionMatrixPE": 80,
  "AcquisitionNumber": 1,
  "AcquisitionTime": "09:28:44.187500",
  "BandwidthPerPixelPhaseEncode": 44.643,
  "BaseResolution": 80,
  "BodyPartExamined": "BRAIN",
  "CoilCombinationMethod": "Sum of Squares",
  "ConsistencyInfo": "N4_VE11C_LATEST_20160120",
  "ConversionSoftware": "dcm2niix",
  "ConversionSoftwareVersion": "v1.0.20220720",
  "DerivedVendorReportedEchoSpacing": 0.000559998,
  "DeviceSerialNumber": "66112",
  "DwellTime": 2.7e-06,
  "EchoTime": 0.035,
  "EchoTrainLength": 39,
  "EffectiveEchoSpacing": 0.000279999,
  "FlipAngle": 90,
  "HeudiconvVersion": "0.13.1",
  "ImageOrientationPatientDICOM": [0.982727, 0.184725, 0.011112, -0.179301, 0.935569, 0.30424],
  "ImageOrientationText": "Tra>Cor(17.5)>Sag(-2.6)",
  "ImageType": [
    "ORIGINAL",
    "PRIMARY",
    "M",
    "ND",
    "NORM",
    "MOSAIC"
],
  "ImagingFrequency": 123.252,
  "InPlanePhaseEncodingDirectionDICOM": "COL",
  "InstitutionAddress": "Maynard 3,Hanover,NH,US,03755",
  "InstitutionName": "Dartmouth College - PBS",
  "InstitutionalDepartmentName": "Department",
  "MRAcquisitionType": "2D",
  "MagneticFieldStrength": 3,
  "Manufacturer": "Siemens",
  "ManufacturersModelName": "Prisma",
  "Modality": "MR",
  "MultibandAccelerationFactor": 4,
  "NonlinearGradientCorrection": false,
  "ParallelReductionFactorInPlane": 2,
  "PartialFourier": 1,
  "PatientPosition": "HFS",
  "PercentPhaseFOV": 100,
  "PercentSampling": 100,
  "PhaseEncodingDirection": "j-",
  "PhaseEncodingSteps": 79,
  "PhaseResolution": 1,
  "PixelBandwidth": 2315,
  "ProcedureStepDescription": "dbic^QA",
  "ProtocolName": "func-bold_task-rest_acq-p2-s4-3.5mm",
  "PulseSequenceDetails": "%SiemensSeq%\\ep2d_bold",
  "ReceiveCoilActiveElements": "HEA;HEP",
  "ReceiveCoilName": "Head_32",
  "ReconMatrixPE": 80,
  "RefLinesPE": 24,
  "RepetitionTime": 2,
  "SAR": 0.0178724,
  "ScanOptions": "FS",
  "ScanningSequence": "EP",
  "SequenceName": "*epfid2d1_80",
  "SequenceVariant": "SK",
  "SeriesDescription": "func-bold_task-rest_acq-p2-s4-3.5mm",
  "SeriesNumber": 7,
  "ShimSetting": [4146, -7705, -7525, 311, -46, -63, -60, 65],
  "SliceThickness": 3.5,
  "SliceTiming": [1.485, 0, 0.99, 0.2475, 1.2375, 0.7425, 1.73, 0.495, 1.485, 0, 0.99, 0.2475, 1.2375, 0.7425, 1.73, 0.495, 1.485, 0, 0.99, 0.2475, 1.2375, 0.7425, 1.73, 0.495, 1.485, 0, 0.99, 0.2475, 1.2375, 0.7425, 1.73, 0.495],
  "SoftwareVersions": "syngo MR E11",
  "SpacingBetweenSlices": 3.99,
  "StationName": "AWP66112",
  "TaskName": "rest",
  "TotalReadoutTime": 0.0221199,
  "TxRefAmp": 225.303,
  "dcmmeta_affine": [
    [-2.9481823444366455, -0.5379018783569336, -0.1827608048915863, 145.44207763671875],
    [-0.5541749000549316, 2.8067069053649902, 1.2008998394012451, -106.62806701660156],
    [0.03333590179681778, -0.9127200841903687, 3.8005969524383545, -37.26420211791992],
    [0.0, 0.0, 0.0, 1.0]
],
  "dcmmeta_reorient_transform": [
    [0.0, -1.0, 0.0, 79.0],
    [1.0, 0.0, 0.0, 0.0],
    [0.0, 0.0, 1.0, 0.0],
    [0.0, 0.0, 0.0, 1.0]
],
  "dcmmeta_shape": [80, 80, 32, 200],
  "dcmmeta_slice_dim": 2,
  "dcmmeta_version": 0.6,
  "global": {
    "const": {
      "AccessionNumber": "qa",
      "AcquisitionMatrix": [80, 0, 0, 80],
      "AngioFlag": "N",
      "BitsAllocated": 16,
      "BitsStored": 12,
      "BodyPartExamined": "BRAIN",
      "Columns": 480,
      "EchoNumbers": 1,
      "EchoTime": 35.0,
      "EchoTrainLength": 39,
      "FlipAngle": 90.0,
      "HighBit": 11,
      "ImageOrientationPatient": [0.98272743576288, 0.18472496089486, 0.01111196748118, -0.1793006277613, 0.93556896727678, 0.30424002424576],
      "ImagePositionPatient": [-585.00390854977, -787.27813791188, -298.58028188275],
      "ImageType": [
        "ORIGINAL",
        "PRIMARY",
        "M",
        "ND",
        "NORM",
        "MOSAIC"
],
      "ImagedNucleus": "1H",
      "ImagingFrequency": 123.252354,
      "InPlanePhaseEncodingDirection": "COL",
      "MRAcquisitionType": "2D",
      "MagneticFieldStrength": 3.0,
      "Manufacturer": "SIEMENS",
      "ManufacturerModelName": "Prisma",
      "Modality": "MR",
      "NumberOfAverages": 1.0,
      "NumberOfPhaseEncodingSteps": 79,
      "PercentPhaseFieldOfView": 100.0,
      "PercentSampling": 100.0,
      "PerformedProcedureStepStartTime": "091639.671000",
      "PhotometricInterpretation": "MONOCHROME2",
      "PixelBandwidth": 2315.0,
      "PixelRepresentation": 0,
      "PixelSpacing": [3.0, 3.0],
      "ProtocolName": "func-bold_task-rest_acq-p2-s4-3.5mm",
      "RepetitionTime": 2000.0,
      "Rows": 480,
      "SAR": 0.01787242196177,
      "SamplesPerPixel": 1,
      "ScanOptions": "FS",
      "ScanningSequence": "EP",
      "SequenceName": "*epfid2d1_80",
      "SequenceVariant": "SK",
      "SeriesDescription": "func-bold_task-rest_acq-p2-s4-3.5mm",
      "SeriesNumber": 7,
      "SeriesTime": "092941.797000",
      "SliceLocation": -74.249861938981,
      "SliceThickness": 3.5,
      "SmallestImagePixelValue": 0,
      "SoftwareVersions": "syngo MR E11",
      "SpacingBetweenSlices": 3.9899999620018,
      "SpecificCharacterSet": "ISO_IR 100",
      "StudyID": "11",
      "StudyTime": "091639.606000",
      "TransmitCoilName": "Body",
      "VariableFlipAngleFlag": "N",
      "WindowCenterWidthExplanation": "Algo1",
      "dBdt": 0.0},
    "slices": {}
  },
  "time": {
    "samples": {
      "AcquisitionNumber": [1, 2, 3, 4, 5, 6, 7, 8, 9, 10, 11, 12, 13, 14, 15, 16, 17, 18, 19, 20, 21, 22, 23, 24, 25, 26, 27, 28, 29, 30, 31, 32, 33, 34, 35, 36, 37, 38, 39, 40, 41, 42, 43, 44, 45, 46, 47, 48, 49, 50, 51, 52, 53, 54, 55, 56, 57, 58, 59, 60, 61, 62, 63, 64, 65, 66, 67, 68, 69, 70, 71, 72, 73, 74, 75, 76, 77, 78, 79, 80, 81, 82, 83, 84, 85, 86, 87, 88, 89, 90, 91, 92, 93, 94, 95, 96, 97, 98, 99, 100, 101, 102, 103, 104, 105, 106, 107, 108, 109, 110, 111, 112, 113, 114, 115, 116, 117, 118, 119, 120, 121, 122, 123, 124, 125, 126, 127, 128, 129, 130, 131, 132, 133, 134, 135, 136, 137, 138, 139, 140, 141, 142, 143, 144, 145, 146, 147, 148, 149, 150, 151, 152, 153, 154, 155, 156, 157, 158, 159, 160, 161, 162, 163, 164, 165, 166, 167, 168, 169, 170, 171, 172, 173, 174, 175, 176, 177, 178, 179, 180, 181, 182, 183, 184, 185, 186, 187, 188, 189, 190, 191, 192, 193, 194, 195, 196, 197, 198, 199, 200],
      "AcquisitionTime": ["092844.187500", "092846.187500", "092848.187500", "092850.187500", "092852.187500", "092854.187500", "092856.187500", "092858.187500", "092900.187500", "092902.187500", "092904.187500", "092906.187500", "092908.187500", "092910.187500", "092912.187500", "092914.187500", "092916.187500", "092918.187500", "092920.187500", "092922.187500", "092924.187500", "092926.187500", "092928.187500", "092930.187500", "092932.187500", "092934.187500", "092936.187500", "092938.187500", "092940.187500", "092942.187500", "092944.187500", "092946.187500", "092948.187500", "092950.187500", "092952.187500", "092954.187500", "092956.187500", "092958.187500", "093000.187500", "093002.187500", "093004.187500", "093006.187500", "093008.187500", "093010.187500", "093012.187500", "093014.187500", "093016.187500", "093018.187500", "093020.187500", "093022.187500", "093024.187500", "093026.187500", "093028.187500", "093030.187500", "093032.187500", "093034.187500", "093036.187500", "093038.187500", "093040.187500", "093042.187500", "093044.187500", "093046.187500", "093048.187500", "093050.187500", "093052.187500", "093054.187500", "093056.187500", "093058.187500", "093100.187500", "093102.187500", "093104.187500", "093106.187500", "093108.187500", "093110.187500", "093112.187500", "093114.187500", "093116.187500", "093118.187500", "093120.187500", "093122.187500", "093124.187500", "093126.187500", "093128.187500", "093130.187500", "093132.187500", "093134.187500", "093136.187500", "093138.187500", "093140.187500", "093142.187500", "093144.187500", "093146.187500", "093148.187500", "093150.187500", "093152.187500", "093154.187500", "093156.187500", "093158.187500", "093200.187500", "093202.187500", "093204.187500", "093206.187500", "093208.187500", "093210.187500", "093212.187500", "093214.187500", "093216.187500", "093218.187500", "093220.187500", "093222.187500", "093224.187500", "093226.187500", "093228.187500", "093230.187500", "093232.187500", "093234.187500", "093236.187500", "093238.187500", "093240.187500", "093242.187500", "093244.187500", "093246.187500", "093248.187500", "093250.187500", "093252.187500", "093254.187500", "093256.187500", "093258.187500", "093300.187500", "093302.187500", "093304.187500", "093306.187500", "093308.187500", "093310.187500", "093312.187500", "093314.187500", "093316.187500", "093318.187500", "093320.187500", "093322.187500", "093324.187500", "093326.187500", "093328.187500", "093330.187500", "093332.187500", "093334.187500", "093336.187500", "093338.187500", "093340.187500", "093342.187500", "093344.187500", "093346.187500", "093348.187500", "093350.187500", "093352.187500", "093354.187500", "093356.187500", "093358.187500", "093400.187500", "093402.187500", "093404.187500", "093406.187500", "093408.187500", "093410.187500", "093412.187500", "093414.187500", "093416.187500", "093418.187500", "093420.187500", "093422.187500", "093424.187500", "093426.187500", "093428.187500", "093430.187500", "093432.187500", "093434.187500", "093436.187500", "093438.187500", "093440.187500", "093442.187500", "093444.187500", "093446.187500", "093448.187500", "093450.187500", "093452.187500", "093454.187500", "093456.187500", "093458.187500", "093500.187500", "093502.187500", "093504.187500", "093506.187500", "093508.187500", "093510.187500", "093512.187500", "093514.187500", "093516.187500", "093518.187500", "093520.187500", "093522.187500"],
      "ContentTime": ["092941.800000", "092941.804000", "092941.815000", "092941.817000", "092941.820000", "092941.822000", "092941.825000", "092941.827000", "092941.830000", "092941.832000", "092941.835000", "092941.837000", "092941.840000", "092941.843000", "092941.845000", "092941.847000", "092941.850000", "092941.852000", "092941.855000", "092941.858000", "092941.860000", "092941.863000", "092941.865000", "092941.868000", "092941.870000", "092941.873000", "092941.875000", "092941.878000", "092941.880000", "093001.796000", "093001.798000", "093001.801000", "093001.803000", "093001.806000", "093001.808000", "093001.811000", "093001.814000", "093001.816000", "093001.819000", "093041.795000", "093041.798000", "093041.801000", "093041.806000", "093041.809000", "093041.812000", "093041.814000", "093041.817000", "093041.819000", "093041.822000", "093041.824000", "093041.827000", "093041.829000", "093041.832000", "093041.834000", "093041.837000", "093041.839000", "093041.842000", "093041.844000", "093041.847000", "093121.795000", "093121.806000", "093121.809000", "093121.811000", "093121.826000", "093121.829000", "093121.831000", "093121.834000", "093121.836000", "093121.839000", "093121.841000", "093121.844000", "093121.846000", "093121.849000", "093121.851000", "093121.854000", "093121.856000", "093121.859000", "093121.861000", "093121.864000", "093201.795000", "093201.798000", "093201.801000", "093201.803000", "093201.806000", "093201.808000", "093201.811000", "093201.814000", "093201.816000", "093201.819000", "093201.821000", "093201.824000", "093201.826000", "093201.829000", "093201.831000", "093201.834000", "093201.836000", "093201.839000", "093201.857000", "093201.859000", "093241.795000", "093241.798000", "093241.801000", "093241.803000", "093241.806000", "093241.808000", "093241.811000", "093241.814000", "093241.816000", "093241.819000", "093241.821000", "093241.824000", "093241.826000", "093241.829000", "093241.831000", "093241.834000", "093241.836000", "093241.839000", "093241.841000", "093241.844000", "093321.795000", "093321.798000", "093321.801000", "093321.803000", "093321.806000", "093321.808000", "093321.811000", "093321.813000", "093321.816000", "093321.819000", "093321.821000", "093321.824000", "093321.826000", "093321.829000", "093321.831000", "093321.834000", "093321.836000", "093321.839000", "093321.841000", "093321.844000", "093401.794000", "093401.797000", "093401.800000", "093401.802000", "093401.805000", "093401.807000", "093401.810000", "093401.813000", "093401.815000", "093401.818000", "093401.820000", "093401.823000", "093401.825000", "093401.828000", "093401.830000", "093401.833000", "093401.835000", "093401.838000", "093401.840000", "093401.843000", "093441.796000", "093441.798000", "093441.801000", "093441.804000", "093441.806000", "093441.809000", "093441.811000", "093441.814000", "093441.816000", "093441.819000", "093441.821000", "093441.824000", "093441.826000", "093441.829000", "093441.831000", "093441.834000", "093441.837000", "093441.839000", "093441.849000", "093441.852000", "093521.795000", "093521.798000", "093521.801000", "093521.803000", "093521.806000", "093521.808000", "093521.811000", "093521.814000", "093521.816000", "093521.819000", "093521.821000", "093521.824000", "093521.826000", "093521.829000", "093521.831000", "093521.834000", "093521.836000", "093521.839000", "093521.842000", "093521.844000", "093523.089000"],
      "InstanceCreationTime": ["092941.800000", "092941.804000", "092941.815000", "092941.817000", "092941.820000", "092941.822000", "092941.825000", "092941.827000", "092941.830000", "092941.832000", "092941.835000", "092941.837000", "092941.840000", "092941.843000", "092941.845000", "092941.847000", "092941.850000", "092941.852000", "092941.855000", "092941.858000", "092941.860000", "092941.863000", "092941.865000", "092941.868000", "092941.870000", "092941.873000", "092941.875000", "092941.878000", "092941.880000", "093001.796000", "093001.798000", "093001.801000", "093001.803000", "093001.806000", "093001.808000", "093001.811000", "093001.814000", "093001.816000", "093001.819000", "093041.795000", "093041.798000", "093041.801000", "093041.806000", "093041.809000", "093041.812000", "093041.814000", "093041.817000", "093041.819000", "093041.822000", "093041.824000", "093041.827000", "093041.829000", "093041.832000", "093041.834000", "093041.837000", "093041.839000", "093041.842000", "093041.844000", "093041.847000", "093121.795000", "093121.806000", "093121.809000", "093121.811000", "093121.826000", "093121.829000", "093121.831000", "093121.834000", "093121.836000", "093121.839000", "093121.841000", "093121.844000", "093121.846000", "093121.849000", "093121.851000", "093121.854000", "093121.856000", "093121.859000", "093121.861000", "093121.864000", "093201.795000", "093201.798000", "093201.801000", "093201.803000", "093201.806000", "093201.808000", "093201.811000", "093201.814000", "093201.816000", "093201.819000", "093201.821000", "093201.824000", "093201.826000", "093201.829000", "093201.831000", "093201.834000", "093201.836000", "093201.839000", "093201.857000", "093201.859000", "093241.795000", "093241.798000", "093241.801000", "093241.803000", "093241.806000", "093241.808000", "093241.811000", "093241.814000", "093241.816000", "093241.819000", "093241.821000", "093241.824000", "093241.826000", "093241.829000", "093241.831000", "093241.834000", "093241.836000", "093241.839000", "093241.841000", "093241.844000", "093321.795000", "093321.798000", "093321.801000", "093321.803000", "093321.806000", "093321.808000", "093321.811000", "093321.813000", "093321.816000", "093321.819000", "093321.821000", "093321.824000", "093321.826000", "093321.829000", "093321.831000", "093321.834000", "093321.836000", "093321.839000", "093321.841000", "093321.844000", "093401.794000", "093401.797000", "093401.800000", "093401.802000", "093401.805000", "093401.807000", "093401.810000", "093401.813000", "093401.815000", "093401.818000", "093401.820000", "093401.823000", "093401.825000", "093401.828000", "093401.830000", "093401.833000", "093401.835000", "093401.838000", "093401.840000", "093401.843000", "093441.796000", "093441.798000", "093441.801000", "093441.804000", "093441.806000", "093441.809000", "093441.811000", "093441.814000", "093441.816000", "093441.819000", "093441.821000", "093441.824000", "093441.826000", "093441.829000", "093441.831000", "093441.834000", "093441.837000", "093441.839000", "093441.849000", "093441.852000", "093521.795000", "093521.798000", "093521.801000", "093521.803000", "093521.806000", "093521.808000", "093521.811000", "093521.814000", "093521.816000", "093521.819000", "093521.821000", "093521.824000", "093521.826000", "093521.829000", "093521.831000", "093521.834000", "093521.836000", "093521.839000", "093521.842000", "093521.844000", "093523.089000"],
      "InstanceNumber": [1, 2, 3, 4, 5, 6, 7, 8, 9, 10, 11, 12, 13, 14, 15, 16, 17, 18, 19, 20, 21, 22, 23, 24, 25, 26, 27, 28, 29, 30, 31, 32, 33, 34, 35, 36, 37, 38, 39, 40, 41, 42, 43, 44, 45, 46, 47, 48, 49, 50, 51, 52, 53, 54, 55, 56, 57, 58, 59, 60, 61, 62, 63, 64, 65, 66, 67, 68, 69, 70, 71, 72, 73, 74, 75, 76, 77, 78, 79, 80, 81, 82, 83, 84, 85, 86, 87, 88, 89, 90, 91, 92, 93, 94, 95, 96, 97, 98, 99, 100, 101, 102, 103, 104, 105, 106, 107, 108, 109, 110, 111, 112, 113, 114, 115, 116, 117, 118, 119, 120, 121, 122, 123, 124, 125, 126, 127, 128, 129, 130, 131, 132, 133, 134, 135, 136, 137, 138, 139, 140, 141, 142, 143, 144, 145, 146, 147, 148, 149, 150, 151, 152, 153, 154, 155, 156, 157, 158, 159, 160, 161, 162, 163, 164, 165, 166, 167, 168, 169, 170, 171, 172, 173, 174, 175, 176, 177, 178, 179, 180, 181, 182, 183, 184, 185, 186, 187, 188, 189, 190, 191, 192, 193, 194, 195, 196, 197, 198, 199, 200],
      "LargestImagePixelValue": [1978, 1979, 1979, 1981, 1975, 1979, 1981, 1979, 1980, 1983, 1985, 1980, 1979, 1980, 1982, 1980, 1981, 1979, 1979, 1984, 1981, 1984, 1981, 1981, 1980, 1981, 1979, 1981, 1978, 1978, 1978, 1980, 1984, 1980, 1976, 1980, 1979, 1979, 1982, 1981, 1982, 1982, 1982, 1981, 1978, 1979, 1979, 1978, 1980, 1978, 1976, 1977, 1977, 1980, 1982, 1977, 1984, 1981, 1977, 1982, 1981, 1976, 1983, 1984, 1986, 1983, 1984, 1982, 1985, 1983, 1984, 1980, 1983, 1978, 1978, 1979, 1982, 1977, 1981, 1980, 1984, 1984, 1982, 1979, 1979, 1983, 1984, 1985, 1987, 1986, 1982, 1980, 1983, 1984, 1982, 1988, 1984, 1980, 1981, 1984, 1983, 1987, 1987, 1988, 1983, 1984, 1984, 1983, 1983, 1986, 1984, 1983, 1982, 1982, 1978, 1985, 1980, 1987, 1979, 1984, 1982, 1981, 1984, 1982, 1980, 1982, 1984, 1984, 1983, 1984, 1982, 1981, 1982, 1988, 1983, 1982, 1983, 1979, 1980, 1980, 1985, 1982, 1981, 1984, 1984, 1984, 1983, 1981, 1981, 1981, 1981, 1982, 1982, 1983, 1981, 1980, 1986, 1981, 1980, 1985, 1983, 1982, 1982, 1984, 1983, 1983, 1984, 1986, 1983, 1986, 1987, 1986, 1984, 1983, 1986, 1983, 1982, 1984, 1986, 1983, 1981, 1984, 1989, 1987, 1988, 1985, 1988, 1985, 1986, 1990, 1981, 1990, 1984, 1987, 1981, 1979, 1983, 1985, 1981, 1983],
      "WindowCenter": [925.0, 925.0, 925.0, 925.0, 926.0, 925.0, 925.0, 924.0, 925.0, 924.0, 925.0, 925.0, 924.0, 924.0, 925.0, 924.0, 925.0, 925.0, 924.0, 925.0, 925.0, 925.0, 925.0, 925.0, 924.0, 925.0, 925.0, 925.0, 925.0, 925.0, 925.0, 924.0, 925.0, 925.0, 924.0, 925.0, 925.0, 925.0, 925.0, 925.0, 925.0, 924.0, 925.0, 925.0, 924.0, 925.0, 924.0, 924.0, 925.0, 925.0, 925.0, 925.0, 925.0, 924.0, 925.0, 925.0, 925.0, 925.0, 925.0, 925.0, 924.0, 925.0, 925.0, 925.0, 925.0, 925.0, 924.0, 924.0, 925.0, 925.0, 925.0, 925.0, 925.0, 925.0, 925.0, 925.0, 925.0, 925.0, 925.0, 924.0, 925.0, 925.0, 924.0, 925.0, 925.0, 925.0, 924.0, 924.0, 925.0, 925.0, 925.0, 924.0, 924.0, 924.0, 925.0, 925.0, 925.0, 926.0, 925.0, 925.0, 925.0, 924.0, 924.0, 924.0, 924.0, 924.0, 925.0, 924.0, 924.0, 925.0, 924.0, 925.0, 924.0, 924.0, 925.0, 925.0, 924.0, 925.0, 925.0, 925.0, 925.0, 924.0, 925.0, 925.0, 924.0, 925.0, 925.0, 925.0, 924.0, 924.0, 925.0, 924.0, 924.0, 925.0, 925.0, 925.0, 925.0, 925.0, 925.0, 925.0, 924.0, 924.0, 924.0, 925.0, 925.0, 925.0, 924.0, 925.0, 925.0, 924.0, 925.0, 924.0, 925.0, 925.0, 924.0, 925.0, 924.0, 925.0, 925.0, 924.0, 924.0, 924.0, 924.0, 924.0, 924.0, 924.0, 924.0, 924.0, 924.0, 924.0, 924.0, 925.0, 925.0, 925.0, 925.0, 925.0, 924.0, 925.0, 924.0, 925.0, 925.0, 924.0, 924.0, 925.0, 924.0, 925.0, 924.0, 925.0, 924.0, 925.0, 924.0, 925.0, 925.0, 924.0, 924.0, 924.0, 925.0, 925.0, 925.0, 924.0],
      "WindowWidth": [2117.0, 2117.0, 2117.0, 2117.0, 2118.0, 2117.0, 2117.0, 2116.0, 2117.0, 2116.0, 2117.0, 2117.0, 2116.0, 2116.0, 2117.0, 2116.0, 2117.0, 2117.0, 2116.0, 2117.0, 2117.0, 2117.0, 2117.0, 2117.0, 2116.0, 2117.0, 2117.0, 2117.0, 2117.0, 2117.0, 2117.0, 2116.0, 2117.0, 2117.0, 2116.0, 2117.0, 2117.0, 2117.0, 2117.0, 2117.0, 2117.0, 2116.0, 2117.0, 2117.0, 2116.0, 2117.0, 2116.0, 2116.0, 2117.0, 2117.0, 2117.0, 2117.0, 2117.0, 2116.0, 2117.0, 2117.0, 2117.0, 2117.0, 2117.0, 2117.0, 2116.0, 2117.0, 2117.0, 2117.0, 2117.0, 2117.0, 2116.0, 2116.0, 2117.0, 2117.0, 2117.0, 2117.0, 2116.0, 2117.0, 2117.0, 2117.0, 2117.0, 2117.0, 2117.0, 2116.0, 2116.0, 2116.0, 2116.0, 2117.0, 2117.0, 2117.0, 2116.0, 2116.0, 2117.0, 2117.0, 2117.0, 2116.0, 2116.0, 2116.0, 2117.0, 2117.0, 2117.0, 2118.0, 2117.0, 2117.0, 2117.0, 2116.0, 2116.0, 2116.0, 2116.0, 2116.0, 2117.0, 2116.0, 2116.0, 2117.0, 2116.0, 2117.0, 2116.0, 2116.0, 2116.0, 2117.0, 2116.0, 2117.0, 2116.0, 2117.0, 2116.0, 2116.0, 2117.0, 2117.0, 2116.0, 2116.0, 2117.0, 2116.0, 2116.0, 2116.0, 2117.0, 2116.0, 2116.0, 2117.0, 2116.0, 2117.0, 2116.0, 2117.0, 2117.0, 2117.0, 2116.0, 2116.0, 2116.0, 2117.0, 2117.0, 2117.0, 2116.0, 2116.0, 2117.0, 2116.0, 2116.0, 2116.0, 2117.0, 2116.0, 2116.0, 2116.0, 2116.0, 2116.0, 2116.0, 2116.0, 2116.0, 2116.0, 2116.0, 2116.0, 2116.0, 2116.0, 2116.0, 2116.0, 2116.0, 2116.0, 2116.0, 2117.0, 2116.0, 2116.0, 2116.0, 2116.0, 2116.0, 2116.0, 2116.0, 2116.0, 2116.0, 2116.0, 2116.0, 2116.0, 2116.0, 2116.0, 2116.0, 2116.0, 2116.0, 2116.0, 2116.0, 2116.0, 2117.0, 2116.0, 2116.0, 2116.0, 2116.0, 2116.0, 2116.0, 2116.0]
    },
    "slices": {}
  }
}