{
  "AcquisitionMatrixPE": 122,
  "AcquisitionNumber": 1,
  "AcquisitionTime": "10:12:14.205000",
  "BandwidthPerPixelPhaseEncode": 28.76,
  "BaseResolution": 122,
  "BodyPartExamined": "BRAIN",
  "CoilCombinationMethod": "Adaptive Combine",
  "ConsistencyInfo": "N4_VE11C_LATEST_20160120",
  "ConversionSoftware": "dcm2niix",
  "ConversionSoftwareVersion": "v1.0.20220720",
  "DerivedVendorReportedEchoSpacing": 0.000570008,
  "DeviceSerialNumber": "66112",
  "DiffusionScheme": "Monopolar",
  "DwellTime": 2e-06,
  "EchoTime": 0.075,
  "EchoTrainLength": 61,
  "EffectiveEchoSpacing": 0.000285004,
  "FlipAngle": 90,
  "HeudiconvVersion": "0.13.1",
  "ImageOrientationPatientDICOM": [0.999972, 0.0065801, 0.00348962, -0.00733031, 0.952466, 0.304558],
  "ImageOrientationText": "Tra>Cor(17.7)>Sag(0.1)",
  "ImageType": [
    "ORIGINAL",
    "PRIMARY",
    "DIFFUSION",
    "NONE",
    "ND",
    "NORM"
],
  "ImagingFrequency": 123.252,
  "InPlanePhaseEncodingDirectionDICOM": "COL",
  "InstitutionAddress": "Maynard 3,Hanover,NH,US,03755",
  "InstitutionName": "Dartmouth College - PBS",
  "InstitutionalDepartmentName": "Department",
  "MRAcquisitionType": "2D",
  "MagneticFieldStrength": 3,
  "Manufacturer": "Siemens",
  "ManufacturersModelName": "Prisma",
  "MatrixCoilMode": "GRAPPA",
  "Modality": "MR",
  "NonlinearGradientCorrection": false,
  "ParallelReductionFactorInPlane": 2,
  "PartialFourier": 1,
  "PatientPosition": "HFS",
  "PercentPhaseFOV": 100,
  "PercentSampling": 100,
  "PhaseEncodingDirection": "j-",
  "PhaseEncodingSteps": 122,
  "PhaseResolution": 1,
  "PixelBandwidth": 2050,
  "ProcedureStepDescription": "dbic^QA",
  "ProtocolName": "dwi_acq-DTI-30-p2",
  "PulseSequenceDetails": "%SiemensSeq%\\ep2d_diff",
  "ReceiveCoilActiveElements": "HEA;HEP",
  "ReceiveCoilName": "Head_32",
  "ReconMatrixPE": 122,
  "RefLinesPE": 38,
  "RepetitionTime": 7.7,
  "SAR": 0.101832,
  "ScanOptions": "FS",
  "ScanningSequence": "EP",
  "SequenceName": "*ep_b0",
  "SequenceVariant": "SK\\SP",
  "SeriesDescription": "dwi_acq-DTI-30-p2",
  "SeriesNumber": 8,
  "ShimSetting": [4141, -7700, -7524, 210, -84, -185, 24, 52],
  "SliceThickness": 2,
  "SliceTiming": [3.83594, 0, 3.94531, 0.10938, 4.05469, 0.21875, 4.16406, 0.32812, 4.28125, 0.4375, 4.39062, 0.54688, 4.5, 0.65625, 4.60938, 0.76562, 4.71875, 0.875, 4.82812, 0.98438, 4.9375, 1.09375, 5.04688, 1.20312, 5.15625, 1.3125, 5.26562, 1.42188, 5.375, 1.53906, 5.48438, 1.64844, 5.59375, 1.75781, 5.70312, 1.85938, 5.8125, 1.97656, 5.92188, 2.08594, 6.03125, 2.19531, 6.14062, 2.30469, 6.25, 2.41406, 6.35938, 2.52344, 6.47656, 2.63281, 6.57812, 2.74219, 6.6875, 2.85156, 6.79688, 2.96094, 6.91406, 3.07031, 7.02344, 3.17969, 7.13281, 3.28906, 7.24219, 3.39844, 7.35156, 3.50781, 7.46094, 3.61719, 7.57031, 3.72656],
  "SoftwareVersions": "syngo MR E11",
  "SpacingBetweenSlices": 2,
  "SpoilingState": true,
  "StationName": "AWP66112",
  "TotalReadoutTime": 0.0344855,
  "TxRefAmp": 235.656,
  "dcmmeta_affine": [
    [-1.967158555984497, -0.014420286752283573, 0.002639293670654297, 123.27781677246094],
    [-0.012944456189870834, 1.8737030029296875, 0.6091499328613281, -123.9990005493164],
    [0.0068648275919258595, -0.5991300940513611, 1.9049758911132812, -20.133424758911133],
    [0.0, 0.0, 0.0, 1.0]
],
  "dcmmeta_reorient_transform": [
    [0.0, -1.0, 0.0, 121.0],
    [1.0, 0.0, 0.0, 0.0],
    [0.0, 0.0, -1.0, 69.0],
    [0.0, 0.0, 0.0, 1.0]
],
  "dcmmeta_shape": [122, 122, 70, 31],
  "dcmmeta_slice_dim": 2,
  "dcmmeta_version": 0.6,
  "global": {
    "const": {
      "AccessionNumber": "qa",
      "AcquisitionMatrix": [122, 0, 0, 122],
      "AngioFlag": "N",
      "BitsAllocated": 16,
      "BitsStored": 12,
      "BodyPartExamined": "BRAIN",
      "Columns": 122,
      "EchoNumbers": 1,
      "EchoTime": 75.0,
      "EchoTrainLength": 61,
      "FlipAngle": 90.0,
      "HighBit": 11,
      "ImageOrientationPatient": [0.99997226204013, 0.00658009860568, 0.00348962070726, -0.0073303124078, 0.95246565294751, 0.30455778840029],
      "ImageType": [
        "ORIGINAL",
        "PRIMARY",
        "DIFFUSION",
        "NONE",
        "ND",
        "NORM"
],
      "ImagedNucleus": "1H",
      "ImagingFrequency": 123.252466,
      "InPlanePhaseEncodingDirection": "COL",
      "MRAcquisitionType": "2D",
      "MagneticFieldStrength": 3.0,
      "Manufacturer": "SIEMENS",
      "ManufacturerModelName": "Prisma",
      "Modality": "MR",
      "NumberOfAverages": 1.0,
      "NumberOfPhaseEncodingSteps": 122,
      "PercentPhaseFieldOfView": 100.0,
      "PercentSampling": 100.0,
      "PerformedProcedureStepStartTime": "095354.504000",
      "PhotometricInterpretation": "MONOCHROME2",
      "PixelBandwidth": 2050.0,
      "PixelRepresentation": 0,
      "PixelSpacing": [1.9672131538391, 1.9672131538391],
      "ProtocolName": "dwi_acq-DTI-30-p2",
      "RepetitionTime": 7700.0,
      "Rows": 122,
      "SAR": 0.10183185014528,
      "SamplesPerPixel": 1,
      "ScanOptions": "FS",
      "ScanningSequence": "EP",
      "SequenceVariant": [
        "SK",
        "SP"
],
      "SeriesDescription": "dwi_acq-DTI-30-p2",
      "SeriesNumber": 8,
      "SeriesTime": "101213.885000",
      "SliceThickness": 2.0,
      "SmallestImagePixelValue": 0,
      "SoftwareVersions": "syngo MR E11",
      "SpacingBetweenSlices": 2.0,
      "SpecificCharacterSet": "ISO_IR 100",
      "StudyID": "103",
      "StudyTime": "095354.349000",
      "TransmitCoilName": "Body",
      "VariableFlipAngleFlag": "N",
      "WindowCenterWidthExplanation": "Algo1",
      "dBdt": 0.0},
    "slices": {
      "AcquisitionTime": ["101214.205000", "101210.365000", "101214.315000", "101210.475000", "101214.425000", "101210.585000", "101214.535000", "101210.695000", "101214.645000", "101210.805000", "101214.755000", "101210.915000", "101214.865000", "101211.025000", "101214.975000", "101211.135000", "101215.082500", "101211.245000", "101215.192500", "101211.352500", "101215.302500", "101211.462500", "101215.412500", "101211.572500", "101215.522500", "101211.682500", "101215.632500", "101211.792500", "101215.742500", "101211.902500", "101215.852500", "101212.012500", "101215.962500", "101212.122500", "101216.070000", "101212.230000", "101216.180000", "101212.340000", "101216.290000", "101212.450000", "101216.400000", "101212.560000", "101216.510000", "101212.670000", "101216.620000", "101212.780000", "101216.730000", "101212.890000", "101216.840000", "101213.000000", "101216.947500", "101213.110000", "101217.057500", "101213.217500", "101217.167500", "101213.327500", "101217.277500", "101213.437500", "101217.387500", "101213.547500", "101217.497500", "101213.657500", "101217.607500", "101213.767500", "101217.717500", "101213.877500", "101217.827500", "101213.987500", "101217.935000", "101214.095000", "101221.905000", "101218.065000", "101222.015000", "101218.175000", "101222.125000", "101218.285000", "101222.235000", "101218.395000", "101222.345000", "101218.505000", "101222.455000", "101218.615000", "101222.565000", "101218.725000", "101222.675000", "101218.835000", "101222.782500", "101218.945000", "101222.892500", "101219.052500", "101223.002500", "101219.162500", "101223.112500", "101219.272500", "101223.222500", "101219.382500", "101223.332500", "101219.492500", "101223.442500", "101219.602500", "101223.552500", "101219.712500", "101223.662500", "101219.822500", "101223.770000", "101219.930000", "101223.880000", "101220.040000", "101223.990000", "101220.150000", "101224.100000", "101220.260000", "101224.210000", "101220.370000", "101224.320000", "101220.480000", "101224.430000", "101220.590000", "101224.540000", "101220.700000", "101224.647500", "101220.810000", "101224.757500", "101220.917500", "101224.867500", "101221.027500", "101224.977500", "101221.137500", "101225.087500", "101221.247500", "101225.197500", "101221.357500", "101225.307500", "101221.467500", "101225.417500", "101221.577500", "101225.527500", "101221.687500", "101225.635000", "101221.795000", "101229.605000", "101225.765000", "101229.715000", "101225.875000", "101229.825000", "101225.985000", "101229.935000", "101226.095000", "101230.045000", "101226.205000", "101230.155000", "101226.315000", "101230.265000", "101226.425000", "101230.375000", "101226.535000", "101230.482500", "101226.645000", "101230.592500", "101226.752500", "101230.702500", "101226.862500", "101230.812500", "101226.972500", "101230.922500", "101227.082500", "101231.032500", "101227.192500", "101231.142500", "101227.302500", "101231.252500", "101227.412500", "101231.362500", "101227.522500", "101231.470000", "101227.630000", "101231.580000", "101227.740000", "101231.690000", "101227.850000", "101231.800000", "101227.960000", "101231.910000", "101228.070000", "101232.020000", "101228.180000", "101232.130000", "101228.290000", "101232.240000", "101228.400000", "101232.347500", "101228.510000", "101232.457500", "101228.617500", "101232.567500", "101228.727500", "101232.677500", "101228.837500", "101232.787500", "101228.947500", "101232.897500", "101229.057500", "101233.007500", "101229.167500", "101233.117500", "101229.277500", "101233.227500", "101229.387500", "101233.335000", "101229.495000", "101237.305000", "101233.465000", "101237.415000", "101233.575000", "101237.525000", "101233.685000", "101237.635000", "101233.795000", "101237.745000", "101233.905000", "101237.855000", "101234.015000", "101237.965000", "101234.125000", "101238.075000", "101234.235000", "101238.182500", "101234.345000", "101238.292500", "101234.452500", "101238.402500", "101234.562500", "101238.512500", "101234.672500", "101238.622500", "101234.782500", "101238.732500", "101234.892500", "101238.842500", "101235.002500", "101238.952500", "101235.112500", "101239.062500", "101235.222500", "101239.170000", "101235.330000", "101239.280000", "101235.440000", "101239.390000", "101235.550000", "101239.500000", "101235.660000", "101239.610000", "101235.770000", "101239.720000", "101235.880000", "101239.830000", "101235.990000", "101239.940000", "101236.100000", "101240.047500", "101236.210000", "101240.157500", "101236.317500", "101240.267500", "101236.427500", "101240.377500", "101236.537500", "101240.487500", "101236.647500", "101240.597500", "101236.757500", "101240.707500", "101236.867500", "101240.817500", "101236.977500", "101240.927500", "101237.087500", "101241.035000", "101237.195000", "101245.005000", "101241.165000", "101245.115000", "101241.275000", "101245.225000", "101241.385000", "101245.335000", "101241.495000", "101245.445000", "101241.605000", "101245.555000", "101241.715000", "101245.665000", "101241.825000", "101245.775000", "101241.935000", "101245.882500", "101242.045000", "101245.992500", "101242.152500", "101246.102500", "101242.262500", "101246.212500", "101242.372500", "101246.322500", "101242.482500", "101246.432500", "101242.592500", "101246.542500", "101242.702500", "101246.652500", "101242.812500", "101246.762500", "101242.922500", "101246.870000", "101243.030000", "101246.980000", "101243.140000", "101247.090000", "101243.250000", "101247.200000", "101243.360000", "101247.310000", "101243.470000", "101247.420000", "101243.580000", "101247.530000", "101243.690000", "101247.640000", "101243.800000", "101247.747500", "101243.910000", "101247.857500", "101244.017500", "101247.967500", "101244.127500", "101248.077500", "101244.237500", "101248.187500", "101244.347500", "101248.297500", "101244.457500", "101248.407500", "101244.567500", "101248.517500", "101244.677500", "101248.627500", "101244.787500", "101248.735000", "101244.895000", "101252.705000", "101248.865000", "101252.815000", "101248.975000", "101252.925000", "101249.085000", "101253.035000", "101249.195000", "101253.145000", "101249.305000", "101253.255000", "101249.415000", "101253.365000", "101249.525000", "101253.475000", "101249.635000", "101253.582500", "101249.745000", "101253.692500", "101249.852500", "101253.802500", "101249.962500", "101253.912500", "101250.072500", "101254.022500", "101250.182500", "101254.132500", "101250.292500", "101254.242500", "101250.402500", "101254.352500", "101250.512500", "101254.462500", "101250.622500", "101254.570000", "101250.730000", "101254.680000", "101250.840000", "101254.790000", "101250.950000", "101254.900000", "101251.060000", "101255.010000", "101251.170000", "101255.120000", "101251.280000", "101255.230000", "101251.390000", "101255.340000", "101251.500000", "101255.447500", "101251.610000", "101255.557500", "101251.717500", "101255.667500", "101251.827500", "101255.777500", "101251.937500", "101255.887500", "101252.047500", "101255.997500", "101252.157500", "101256.107500", "101252.267500", "101256.217500", "101252.377500", "101256.327500", "101252.487500", "101256.435000", "101252.595000", "101300.405000", "101256.565000", "101300.515000", "101256.675000", "101300.625000", "101256.785000", "101300.735000", "101256.895000", "101300.845000", "101257.005000", "101300.955000", "101257.115000", "101301.065000", "101257.225000", "101301.175000", "101257.335000", "101301.282500", "101257.445000", "101301.392500", "101257.552500", "101301.502500", "101257.662500", "101301.612500", "101257.772500", "101301.722500", "101257.882500", "101301.832500", "101257.992500", "101301.942500", "101258.102500", "101302.052500", "101258.212500", "101302.162500", "101258.322500", "101302.270000", "101258.430000", "101302.380000", "101258.540000", "101302.490000", "101258.650000", "101302.600000", "101258.760000", "101302.710000", "101258.870000", "101302.820000", "101258.980000", "101302.930000", "101259.090000", "101303.040000", "101259.200000", "101303.147500", "101259.310000", "101303.257500", "101259.417500", "101303.367500", "101259.527500", "101303.477500", "101259.637500", "101303.587500", "101259.747500", "101303.697500", "101259.857500", "101303.807500", "101259.967500", "101303.917500", "101300.077500", "101304.027500", "101300.187500", "101304.135000", "101300.295000", "101308.105000", "101304.265000", "101308.215000", "101304.375000", "101308.325000", "101304.485000", "101308.435000", "101304.595000", "101308.545000", "101304.705000", "101308.655000", "101304.815000", "101308.765000", "101304.925000", "101308.875000", "101305.035000", "101308.982500", "101305.145000", "101309.092500", "101305.252500", "101309.202500", "101305.362500", "101309.312500", "101305.472500", "101309.422500", "101305.582500", "101309.532500", "101305.692500", "101309.642500", "101305.802500", "101309.752500", "101305.912500", "101309.862500", "101306.022500", "101309.970000", "101306.130000", "101310.080000", "101306.240000", "101310.190000", "101306.350000", "101310.300000", "101306.460000", "101310.410000", "101306.570000", "101310.520000", "101306.680000", "101310.630000", "101306.790000", "101310.740000", "101306.900000", "101310.847500", "101307.010000", "101310.957500", "101307.117500", "101311.067500", "101307.227500", "101311.177500", "101307.337500", "101311.287500", "101307.447500", "101311.397500", "101307.557500", "101311.507500", "101307.667500", "101311.617500", "101307.777500", "101311.727500", "101307.887500", "101311.835000", "101307.995000", "101315.805000", "101311.965000", "101315.915000", "101312.075000", "101316.025000", "101312.185000", "101316.135000", "101312.295000", "101316.245000", "101312.405000", "101316.355000", "101312.515000", "101316.465000", "101312.625000", "101316.575000", "101312.735000", "101316.682500", "101312.845000", "101316.792500", "101312.952500", "101316.902500", "101313.062500", "101317.012500", "101313.172500", "101317.122500", "101313.282500", "101317.232500", "101313.392500", "101317.342500", "101313.502500", "101317.452500", "101313.612500", "101317.562500", "101313.722500", "101317.670000", "101313.830000", "101317.780000", "101313.940000", "101317.890000", "101314.050000", "101318.000000", "101314.160000", "101318.110000", "101314.270000", "101318.220000", "101314.380000", "101318.330000", "101314.490000", "101318.440000", "101314.600000", "101318.547500", "101314.710000", "101318.657500", "101314.817500", "101318.767500", "101314.927500", "101318.877500", "101315.037500", "101318.987500", "101315.147500", "101319.097500", "101315.257500", "101319.207500", "101315.367500", "101319.317500", "101315.477500", "101319.427500", "101315.587500", "101319.535000", "101315.695000", "101323.505000", "101319.665000", "101323.615000", "101319.775000", "101323.725000", "101319.885000", "101323.835000", "101319.995000", "101323.945000", "101320.105000", "101324.055000", "101320.215000", "101324.165000", "101320.325000", "101324.275000", "101320.435000", "101324.382500", "101320.545000", "101324.492500", "101320.652500", "101324.602500", "101320.762500", "101324.712500", "101320.872500", "101324.822500", "101320.982500", "101324.932500", "101321.092500", "101325.042500", "101321.202500", "101325.152500", "101321.312500", "101325.262500", "101321.422500", "101325.370000", "101321.530000", "101325.480000", "101321.640000", "101325.590000", "101321.750000", "101325.700000", "101321.860000", "101325.810000", "101321.970000", "101325.920000", "101322.080000", "101326.030000", "101322.190000", "101326.140000", "101322.300000", "101326.247500", "101322.410000", "101326.357500", "101322.517500", "101326.467500", "101322.627500", "101326.577500", "101322.737500", "101326.687500", "101322.847500", "101326.797500", "101322.957500", "101326.907500", "101323.067500", "101327.017500", "101323.177500", "101327.127500", "101323.287500", "101327.235000", "101323.395000", "101331.205000", "101327.365000", "101331.315000", "101327.475000", "101331.425000", "101327.585000", "101331.535000", "101327.695000", "101331.645000", "101327.805000", "101331.755000", "101327.915000", "101331.865000", "101328.025000", "101331.975000", "101328.135000", "101332.082500", "101328.245000", "101332.192500", "101328.352500", "101332.302500", "101328.462500", "101332.412500", "101328.572500", "101332.522500", "101328.682500", "101332.632500", "101328.792500", "101332.742500", "101328.902500", "101332.852500", "101329.012500", "101332.962500", "101329.122500", "101333.070000", "101329.230000", "101333.180000", "101329.340000", "101333.290000", "101329.450000", "101333.400000", "101329.560000", "101333.510000", "101329.670000", "101333.620000", "101329.780000", "101333.730000", "101329.890000", "101333.840000", "101330.000000", "101333.947500", "101330.110000", "101334.057500", "101330.217500", "101334.167500", "101330.327500", "101334.277500", "101330.437500", "101334.387500", "101330.547500", "101334.497500", "101330.657500", "101334.607500", "101330.767500", "101334.717500", "101330.877500", "101334.827500", "101330.987500", "101334.935000", "101331.095000", "101338.905000", "101335.065000", "101339.015000", "101335.175000", "101339.125000", "101335.285000", "101339.235000", "101335.395000", "101339.345000", "101335.505000", "101339.455000", "101335.615000", "101339.565000", "101335.725000", "101339.675000", "101335.835000", "101339.782500", "101335.945000", "101339.892500", "101336.052500", "101340.002500", "101336.162500", "101340.112500", "101336.272500", "101340.222500", "101336.382500", "101340.332500", "101336.492500", "101340.442500", "101336.602500", "101340.552500", "101336.712500", "101340.662500", "101336.822500", "101340.770000", "101336.930000", "101340.880000", "101337.040000", "101340.990000", "101337.150000", "101341.100000", "101337.260000", "101341.210000", "101337.370000", "101341.320000", "101337.480000", "101341.430000", "101337.590000", "101341.540000", "101337.700000", "101341.647500", "101337.810000", "101341.757500", "101337.917500", "101341.867500", "101338.027500", "101341.977500", "101338.137500", "101342.087500", "101338.247500", "101342.197500", "101338.357500", "101342.307500", "101338.467500", "101342.417500", "101338.577500", "101342.527500", "101338.687500", "101342.635000", "101338.795000", "101346.605000", "101342.765000", "101346.715000", "101342.875000", "101346.825000", "101342.985000", "101346.935000", "101343.095000", "101347.045000", "101343.205000", "101347.155000", "101343.315000", "101347.265000", "101343.425000", "101347.375000", "101343.535000", "101347.482500", "101343.645000", "101347.592500", "101343.752500", "101347.702500", "101343.862500", "101347.812500", "101343.972500", "101347.922500", "101344.082500", "101348.032500", "101344.192500", "101348.142500", "101344.302500", "101348.252500", "101344.412500", "101348.362500", "101344.522500", "101348.470000", "101344.630000", "101348.580000", "101344.740000", "101348.690000", "101344.850000", "101348.800000", "101344.960000", "101348.910000", "101345.070000", "101349.020000", "101345.180000", "101349.130000", "101345.290000", "101349.240000", "101345.400000", "101349.347500", "101345.510000", "101349.457500", "101345.617500", "101349.567500", "101345.727500", "101349.677500", "101345.837500", "101349.787500", "101345.947500", "101349.897500", "101346.057500", "101350.007500", "101346.167500", "101350.117500", "101346.277500", "101350.227500", "101346.387500", "101350.335000", "101346.495000", "101354.305000", "101350.465000", "101354.415000", "101350.575000", "101354.525000", "101350.685000", "101354.635000", "101350.795000", "101354.745000", "101350.905000", "101354.855000", "101351.015000", "101354.965000", "101351.125000", "101355.075000", "101351.235000", "101355.182500", "101351.345000", "101355.292500", "101351.452500", "101355.402500", "101351.562500", "101355.512500", "101351.672500", "101355.622500", "101351.782500", "101355.732500", "101351.892500", "101355.842500", "101352.002500", "101355.952500", "101352.112500", "101356.062500", "101352.222500", "101356.170000", "101352.330000", "101356.280000", "101352.440000", "101356.390000", "101352.550000", "101356.500000", "101352.660000", "101356.610000", "101352.770000", "101356.720000", "101352.880000", "101356.830000", "101352.990000", "101356.940000", "101353.100000", "101357.047500", "101353.210000", "101357.157500", "101353.317500", "101357.267500", "101353.427500", "101357.377500", "101353.537500", "101357.487500", "101353.647500", "101357.597500", "101353.757500", "101357.707500", "101353.867500", "101357.817500", "101353.977500", "101357.927500", "101354.087500", "101358.035000", "101354.195000", "101402.005000", "101358.165000", "101402.115000", "101358.275000", "101402.225000", "101358.385000", "101402.335000", "101358.495000", "101402.445000", "101358.605000", "101402.555000", "101358.715000", "101402.665000", "101358.825000", "101402.775000", "101358.935000", "101402.882500", "101359.045000", "101402.992500", "101359.152500", "101403.102500", "101359.262500", "101403.212500", "101359.372500", "101403.322500", "101359.482500", "101403.432500", "101359.592500", "101403.542500", "101359.702500", "101403.652500", "101359.812500", "101403.762500", "101359.922500", "101403.870000", "101400.030000", "101403.980000", "101400.140000", "101404.090000", "101400.250000", "101404.200000", "101400.360000", "101404.310000", "101400.470000", "101404.420000", "101400.580000", "101404.530000", "101400.690000", "101404.640000", "101400.800000", "101404.747500", "101400.910000", "101404.857500", "101401.017500", "101404.967500", "101401.127500", "101405.077500", "101401.237500", "101405.187500", "101401.347500", "101405.297500", "101401.457500", "101405.407500", "101401.567500", "101405.517500", "101401.677500", "101405.627500", "101401.787500", "101405.735000", "101401.895000", "101409.705000", "101405.865000", "101409.815000", "101405.975000", "101409.925000", "101406.085000", "101410.035000", "101406.195000", "101410.145000", "101406.305000", "101410.255000", "101406.415000", "101410.365000", "101406.525000", "101410.475000", "101406.635000", "101410.582500", "101406.745000", "101410.692500", "101406.852500", "101410.802500", "101406.962500", "101410.912500", "101407.072500", "101411.022500", "101407.182500", "101411.132500", "101407.292500", "101411.242500", "101407.402500", "101411.352500", "101407.512500", "101411.462500", "101407.622500", "101411.570000", "101407.730000", "101411.680000", "101407.840000", "101411.790000", "101407.950000", "101411.900000", "101408.060000", "101412.010000", "101408.170000", "101412.120000", "101408.280000", "101412.230000", "101408.390000", "101412.340000", "101408.500000", "101412.447500", "101408.610000", "101412.557500", "101408.717500", "101412.667500", "101408.827500", "101412.777500", "101408.937500", "101412.887500", "101409.047500", "101412.997500", "101409.157500", "101413.107500", "101409.267500", "101413.217500", "101409.377500", "101413.327500", "101409.487500", "101413.435000", "101409.595000", "101417.405000", "101413.565000", "101417.515000", "101413.675000", "101417.625000", "101413.785000", "101417.735000", "101413.895000", "101417.845000", "101414.005000", "101417.955000", "101414.115000", "101418.065000", "101414.225000", "101418.175000", "101414.335000", "101418.282500", "101414.445000", "101418.392500", "101414.552500", "101418.502500", "101414.662500", "101418.612500", "101414.772500", "101418.722500", "101414.882500", "101418.832500", "101414.992500", "101418.942500", "101415.102500", "101419.052500", "101415.212500", "101419.162500", "101415.322500", "101419.270000", "101415.430000", "101419.380000", "101415.540000", "101419.490000", "101415.650000", "101419.600000", "101415.760000", "101419.710000", "101415.870000", "101419.820000", "101415.980000", "101419.930000", "101416.090000", "101420.040000", "101416.200000", "101420.147500", "101416.310000", "101420.257500", "101416.417500", "101420.367500", "101416.527500", "101420.477500", "101416.637500", "101420.587500", "101416.747500", "101420.697500", "101416.857500", "101420.807500", "101416.967500", "101420.917500", "101417.077500", "101421.027500", "101417.187500", "101421.135000", "101417.295000", "101425.105000", "101421.265000", "101425.215000", "101421.375000", "101425.325000", "101421.485000", "101425.435000", "101421.595000", "101425.545000", "101421.705000", "101425.655000", "101421.815000", "101425.765000", "101421.925000", "101425.875000", "101422.035000", "101425.982500", "101422.145000", "101426.092500", "101422.252500", "101426.202500", "101422.362500", "101426.312500", "101422.472500", "101426.422500", "101422.582500", "101426.532500", "101422.692500", "101426.642500", "101422.802500", "101426.752500", "101422.912500", "101426.862500", "101423.022500", "101426.970000", "101423.130000", "101427.080000", "101423.240000", "101427.190000", "101423.350000", "101427.300000", "101423.460000", "101427.410000", "101423.570000", "101427.520000", "101423.680000", "101427.630000", "101423.790000", "101427.740000", "101423.900000", "101427.847500", "101424.010000", "101427.957500", "101424.117500", "101428.067500", "101424.227500", "101428.177500", "101424.337500", "101428.287500", "101424.447500", "101428.397500", "101424.557500", "101428.507500", "101424.667500", "101428.617500", "101424.777500", "101428.727500", "101424.887500", "101428.835000", "101424.995000", "101432.805000", "101428.965000", "101432.915000", "101429.075000", "101433.025000", "101429.185000", "101433.135000", "101429.295000", "101433.245000", "101429.405000", "101433.355000", "101429.515000", "101433.465000", "101429.625000", "101433.575000", "101429.735000", "101433.682500", "101429.845000", "101433.792500", "101429.952500", "101433.902500", "101430.062500", "101434.012500", "101430.172500", "101434.122500", "101430.282500", "101434.232500", "101430.392500", "101434.342500", "101430.502500", "101434.452500", "101430.612500", "101434.562500", "101430.722500", "101434.670000", "101430.830000", "101434.780000", "101430.940000", "101434.890000", "101431.050000", "101435.000000", "101431.160000", "101435.110000", "101431.270000", "101435.220000", "101431.380000", "101435.330000", "101431.490000", "101435.440000", "101431.600000", "101435.547500", "101431.710000", "101435.657500", "101431.817500", "101435.767500", "101431.927500", "101435.877500", "101432.037500", "101435.987500", "101432.147500", "101436.097500", "101432.257500", "101436.207500", "101432.367500", "101436.317500", "101432.477500", "101436.427500", "101432.587500", "101436.535000", "101432.695000", "101440.505000", "101436.665000", "101440.615000", "101436.775000", "101440.725000", "101436.885000", "101440.835000", "101436.995000", "101440.945000", "101437.105000", "101441.055000", "101437.215000", "101441.165000", "101437.325000", "101441.275000", "101437.435000", "101441.382500", "101437.545000", "101441.492500", "101437.652500", "101441.602500", "101437.762500", "101441.712500", "101437.872500", "101441.822500", "101437.982500", "101441.932500", "101438.092500", "101442.042500", "101438.202500", "101442.152500", "101438.312500", "101442.262500", "101438.422500", "101442.370000", "101438.530000", "101442.480000", "101438.640000", "101442.590000", "101438.750000", "101442.700000", "101438.860000", "101442.810000", "101438.970000", "101442.920000", "101439.080000", "101443.030000", "101439.190000", "101443.140000", "101439.300000", "101443.247500", "101439.410000", "101443.357500", "101439.517500", "101443.467500", "101439.627500", "101443.577500", "101439.737500", "101443.687500", "101439.847500", "101443.797500", "101439.957500", "101443.907500", "101440.067500", "101444.017500", "101440.177500", "101444.127500", "101440.287500", "101444.235000", "101440.395000", "101448.205000", "101444.365000", "101448.315000", "101444.475000", "101448.425000", "101444.585000", "101448.535000", "101444.695000", "101448.645000", "101444.805000", "101448.755000", "101444.915000", "101448.865000", "101445.025000", "101448.975000", "101445.135000", "101449.082500", "101445.245000", "101449.192500", "101445.352500", "101449.302500", "101445.462500", "101449.412500", "101445.572500", "101449.522500", "101445.682500", "101449.632500", "101445.792500", "101449.742500", "101445.902500", "101449.852500", "101446.012500", "101449.962500", "101446.122500", "101450.