{
  "AcquisitionMatrixPE": 122,
  "AcquisitionNumber": 1,
  "AcquisitionTime": "14:18:50.452500",
  "BandwidthPerPixelPhaseEncode": 27.785,
  "BaseResolution": 122,
  "BodyPartExamined": "BRAIN",
  "CoilCombinationMethod": "Adaptive Combine",
  "ConsistencyInfo": "N4_VE11C_LATEST_20160120",
  "ConversionSoftware": "dcm2niix",
  "ConversionSoftwareVersion": "v1.0.20220720",
  "DerivedVendorReportedEchoSpacing": 0.000590011,
  "DeviceSerialNumber": "66112",
  "DiffusionScheme": "Monopolar",
  "DwellTime": 2e-06,
  "EchoTime": 0.068,
  "EchoTrainLength": 61,
  "EffectiveEchoSpacing": 0.000295005,
  "FlipAngle": 90,
  "HeudiconvVersion": "0.13.1",
  "ImageComments": "qa/20000101/qa/3",
  "ImageOrientationPatientDICOM": [0.989474, 0.144519, 0.00749702, -0.13959, 0.9395, 0.312818],
  "ImageOrientationText": "Tra>Cor(18.1)>Sag(-2.2)",
  "ImageType": [
    "ORIGINAL",
    "PRIMARY",
    "DIFFUSION",
    "NONE",
    "ND",
    "NORM"
],
  "ImagingFrequency": 123.252,
  "InPlanePhaseEncodingDirectionDICOM": "COL",
  "InstitutionAddress": "Maynard 3,Hanover,NH,US,03755",
  "InstitutionName": "Dartmouth College - PBS",
  "InstitutionalDepartmentName": "Department",
  "MRAcquisitionType": "2D",
  "MagneticFieldStrength": 3,
  "Manufacturer": "Siemens",
  "ManufacturersModelName": "Prisma",
  "Modality": "MR",
  "MultibandAccelerationFactor": 4,
  "NonlinearGradientCorrection": false,
  "ParallelReductionFactorInPlane": 2,
  "PartialFourier": 1,
  "PatientPosition": "HFS",
  "PercentPhaseFOV": 100,
  "PercentSampling": 100,
  "PhaseEncodingDirection": "j-",
  "PhaseEncodingSteps": 122,
  "PhaseResolution": 1,
  "PixelBandwidth": 2050,
  "ProcedureStepDescription": "dbic^QA",
  "ProtocolName": "dwi_acq-DTI-30-p2-s4",
  "PulseSequenceDetails": "%SiemensSeq%\\ep2d_diff",
  "ReceiveCoilActiveElements": "HEA;HEP",
  "ReceiveCoilName": "Head_32",
  "ReconMatrixPE": 122,
  "RefLinesPE": 38,
  "RepetitionTime": 3.6,
  "ScanOptions": "FS",
  "ScanningSequence": "EP",
  "SequenceName": "*ep_b0",
  "SequenceVariant": "SK\\SP",
  "SeriesDescription": "dwi_acq-DTI-30-p2-s4_RR",
  "SeriesNumber": 15,
  "ShimSetting": [4145, -7700, -7529, 247, -73, -62, -28, 62],
  "SliceThickness": 2,
  "SliceTiming": [2.59375, 0, 1.79688, 0.20312, 2, 0.40625, 2.1875, 0.60938, 2.39062, 1, 2.79688, 1.20312, 2.98438, 1.39062, 3.1875, 1.59375, 3.39062, 0.79688, 2.59375, 0, 1.79688, 0.20312, 2, 0.40625, 2.1875, 0.60938, 2.39062, 1, 2.79688, 1.20312, 2.98438, 1.39062, 3.1875, 1.59375, 3.39062, 0.79688, 2.59375, 0, 1.79688, 0.20312, 2, 0.40625, 2.1875, 0.60938, 2.39062, 1, 2.79688, 1.20312, 2.98438, 1.39062, 3.1875, 1.59375, 3.39062, 0.79688, 2.59375, 0, 1.79688, 0.20312, 2, 0.40625, 2.1875, 0.60938, 2.39062, 1, 2.79688, 1.20312, 2.98438, 1.39062, 3.1875, 1.59375, 3.39062, 0.79688],
  "SoftwareVersions": "syngo MR E11",
  "SpacingBetweenSlices": 2,
  "SpoilingState": true,
  "TotalReadoutTime": 0.0356956,
  "TxRefAmp": 218.434,
  "dcmmeta_affine": [
    [-1.9465056657791138, -0.2746029198169708, -0.0763292908668518, 141.03079223632812],
    [-0.2842990756034851, 1.8481957912445068, 0.6211433410644531, -118.05504608154297],
    [0.014748234301805496, -0.6153803467750549, 1.899566650390625, -32.484886169433594],
    [0.0, 0.0, 0.0, 1.0]
],
  "dcmmeta_reorient_transform": [
    [0.0, -1.0, 0.0, 121.0],
    [1.0, 0.0, 0.0, 0.0],
    [0.0, 0.0, -1.0, 71.0],
    [0.0, 0.0, 0.0, 1.0]
],
  "dcmmeta_shape": [122, 122, 72, 31],
  "dcmmeta_slice_dim": 2,
  "dcmmeta_version": 0.6,
  "global": {
    "const": {
      "AccessionNumber": "qa",
      "AcquisitionMatrix": [122, 0, 0, 122],
      "AngioFlag": "N",
      "BitsAllocated": 16,
      "BitsStored": 12,
      "BodyPartExamined": "BRAIN",
      "Columns": 122,
      "EchoNumbers": 1,
      "EchoTime": 68.0,
      "EchoTrainLength": 61,
      "FlipAngle": 90.0,
      "HighBit": 11,
      "ImageOrientationPatient": [0.98947366890765, 0.14451869514944, 0.00749701878967, -0.1395898202863, 0.93949953379194, 0.31281833078831],
      "ImageType": [
        "ORIGINAL",
        "PRIMARY",
        "DIFFUSION",
        "NONE",
        "ND",
        "NORM"
],
      "ImagedNucleus": "1H",
      "ImagingFrequency": 123.252378,
      "InPlanePhaseEncodingDirection": "COL",
      "MRAcquisitionType": "2D",
      "MagneticFieldStrength": 3.0,
      "Manufacturer": "SIEMENS",
      "ManufacturerModelName": "Prisma",
      "Modality": "MR",
      "NumberOfAverages": 1.0,
      "NumberOfPhaseEncodingSteps": 122,
      "PercentPhaseFieldOfView": 100.0,
      "PercentSampling": 100.0,
      "PerformedProcedureStepStartTime": "134300.512000",
      "PhotometricInterpretation": "MONOCHROME2",
      "PixelBandwidth": 2050.0,
      "PixelRepresentation": 0,
      "PixelSpacing": [1.9672131538391, 1.9672131538391],
      "ProtocolName": "dwi_acq-DTI-30-p2-s4",
      "RepetitionTime": 3600.0,
      "Rows": 122,
      "SAR": 0.0,
      "SamplesPerPixel": 1,
      "ScanOptions": "FS",
      "ScanningSequence": "EP",
      "SequenceVariant": [
        "SK",
        "SP"
],
      "SeriesDescription": "dwi_acq-DTI-30-p2-s4_RR",
      "SeriesNumber": 15,
      "SeriesTime": "154735.855000",
      "SliceThickness": 2.0,
      "SmallestImagePixelValue": 0,
      "SoftwareVersions": "syngo MR E11",
      "SpacingBetweenSlices": 2.0,
      "SpecificCharacterSet": "ISO_IR 100",
      "StudyID": "41",
      "StudyTime": "134300.423000",
      "TransmitCoilName": "Body",
      "VariableFlipAngleFlag": "N",
      "WindowCenterWidthExplanation": "Algo1",
      "dBdt": 0.0},
    "slices": {
      "AcquisitionTime": ["141850.452500", "141847.865000", "141849.655000", "141848.065000", "141849.855000", "141848.262500", "141850.052500", "141848.462500", "141850.252500", "141848.860000", "141850.650000", "141849.060000", "141850.850000", "141849.257500", "141851.047500", "141849.457500", "141851.247500", "141848.662500", "141850.452500", "141847.865000", "141849.655000", "141848.065000", "141849.855000", "141848.262500", "141850.052500", "141848.462500", "141850.252500", "141848.860000", "141850.650000", "141849.060000", "141850.850000", "141849.257500", "141851.047500", "141849.457500", "141851.247500", "141848.662500", "141850.452500", "141847.865000", "141849.655000", "141848.065000", "141849.855000", "141848.262500", "141850.052500", "141848.462500", "141850.252500", "141848.860000", "141850.650000", "141849.060000", "141850.850000", "141849.257500", "141851.047500", "141849.457500", "141851.247500", "141848.662500", "141850.452500", "141847.865000", "141849.655000", "141848.065000", "141849.855000", "141848.262500", "141850.052500", "141848.462500", "141850.252500", "141848.860000", "141850.650000", "141849.060000", "141850.850000", "141849.257500", "141851.047500", "141849.457500", "141851.247500", "141848.662500", "141854.052500", "141851.465000", "141853.255000", "141851.665000", "141853.455000", "141851.862500", "141853.652500", "141852.062500", "141853.852500", "141852.460000", "141854.250000", "141852.660000", "141854.450000", "141852.857500", "141854.647500", "141853.057500", "141854.847500", "141852.262500", "141854.052500", "141851.465000", "141853.255000", "141851.665000", "141853.455000", "141851.862500", "141853.652500", "141852.062500", "141853.852500", "141852.460000", "141854.250000", "141852.660000", "141854.450000", "141852.857500", "141854.647500", "141853.057500", "141854.847500", "141852.262500", "141854.052500", "141851.465000", "141853.255000", "141851.665000", "141853.455000", "141851.862500", "141853.652500", "141852.062500", "141853.852500", "141852.460000", "141854.250000", "141852.660000", "141854.450000", "141852.857500", "141854.647500", "141853.057500", "141854.847500", "141852.262500", "141854.052500", "141851.465000", "141853.255000", "141851.665000", "141853.455000", "141851.862500", "141853.652500", "141852.062500", "141853.852500", "141852.460000", "141854.250000", "141852.660000", "141854.450000", "141852.857500", "141854.647500", "141853.057500", "141854.847500", "141852.262500", "141857.652500", "141855.065000", "141856.855000", "141855.265000", "141857.055000", "141855.462500", "141857.252500", "141855.662500", "141857.452500", "141856.060000", "141857.850000", "141856.260000", "141858.050000", "141856.457500", "141858.247500", "141856.657500", "141858.447500", "141855.862500", "141857.652500", "141855.065000", "141856.855000", "141855.265000", "141857.055000", "141855.462500", "141857.252500", "141855.662500", "141857.452500", "141856.060000", "141857.850000", "141856.260000", "141858.050000", "141856.457500", "141858.247500", "141856.657500", "141858.447500", "141855.862500", "141857.652500", "141855.065000", "141856.855000", "141855.265000", "141857.055000", "141855.462500", "141857.252500", "141855.662500", "141857.452500", "141856.060000", "141857.850000", "141856.260000", "141858.050000", "141856.457500", "141858.247500", "141856.657500", "141858.447500", "141855.862500", "141857.652500", "141855.065000", "141856.855000", "141855.265000", "141857.055000", "141855.462500", "141857.252500", "141855.662500", "141857.452500", "141856.060000", "141857.850000", "141856.260000", "141858.050000", "141856.457500", "141858.247500", "141856.657500", "141858.447500", "141855.862500", "141901.252500", "141858.665000", "141900.455000", "141858.865000", "141900.655000", "141859.062500", "141900.852500", "141859.262500", "141901.052500", "141859.660000", "141901.450000", "141859.860000", "141901.650000", "141900.057500", "141901.847500", "141900.257500", "141902.047500", "141859.462500", "141901.252500", "141858.665000", "141900.455000", "141858.865000", "141900.655000", "141859.062500", "141900.852500", "141859.262500", "141901.052500", "141859.660000", "141901.450000", "141859.860000", "141901.650000", "141900.057500", "141901.847500", "141900.257500", "141902.047500", "141859.462500", "141901.252500", "141858.665000", "141900.455000", "141858.865000", "141900.655000", "141859.062500", "141900.852500", "141859.262500", "141901.052500", "141859.660000", "141901.450000", "141859.860000", "141901.650000", "141900.057500", "141901.847500", "141900.257500", "141902.047500", "141859.462500", "141901.252500", "141858.665000", "141900.455000", "141858.865000", "141900.655000", "141859.062500", "141900.852500", "141859.262500", "141901.052500", "141859.660000", "141901.450000", "141859.860000", "141901.650000", "141900.057500", "141901.847500", "141900.257500", "141902.047500", "141859.462500", "141904.852500", "141902.265000", "141904.055000", "141902.465000", "141904.255000", "141902.662500", "141904.452500", "141902.862500", "141904.652500", "141903.260000", "141905.050000", "141903.460000", "141905.250000", "141903.657500", "141905.447500", "141903.857500", "141905.647500", "141903.062500", "141904.852500", "141902.265000", "141904.055000", "141902.465000", "141904.255000", "141902.662500", "141904.452500", "141902.862500", "141904.652500", "141903.260000", "141905.050000", "141903.460000", "141905.250000", "141903.657500", "141905.447500", "141903.857500", "141905.647500", "141903.062500", "141904.852500", "141902.265000", "141904.055000", "141902.465000", "141904.255000", "141902.662500", "141904.452500", "141902.862500", "141904.652500", "141903.260000", "141905.050000", "141903.460000", "141905.250000", "141903.657500", "141905.447500", "141903.857500", "141905.647500", "141903.062500", "141904.852500", "141902.265000", "141904.055000", "141902.465000", "141904.255000", "141902.662500", "141904.452500", "141902.862500", "141904.652500", "141903.260000", "141905.050000", "141903.460000", "141905.250000", "141903.657500", "141905.447500", "141903.857500", "141905.647500", "141903.062500", "141908.452500", "141905.865000", "141907.655000", "141906.065000", "141907.855000", "141906.262500", "141908.052500", "141906.462500", "141908.252500", "141906.860000", "141908.650000", "141907.060000", "141908.850000", "141907.257500", "141909.047500", "141907.457500", "141909.247500", "141906.662500", "141908.452500", "141905.865000", "141907.655000", "141906.065000", "141907.855000", "141906.262500", "141908.052500", "141906.462500", "141908.252500", "141906.860000", "141908.650000", "141907.060000", "141908.850000", "141907.257500", "141909.047500", "141907.457500", "141909.247500", "141906.662500", "141908.452500", "141905.865000", "141907.655000", "141906.065000", "141907.855000", "141906.262500", "141908.052500", "141906.462500", "141908.252500", "141906.860000", "141908.650000", "141907.060000", "141908.850000", "141907.257500", "141909.047500", "141907.457500", "141909.247500", "141906.662500", "141908.452500", "141905.865000", "141907.655000", "141906.065000", "141907.855000", "141906.262500", "141908.052500", "141906.462500", "141908.252500", "141906.860000", "141908.650000", "141907.060000", "141908.850000", "141907.257500", "141909.047500", "141907.457500", "141909.247500", "141906.662500", "141912.052500", "141909.465000", "141911.255000", "141909.665000", "141911.455000", "141909.862500", "141911.652500", "141910.062500", "141911.852500", "141910.460000", "141912.250000", "141910.660000", "141912.450000", "141910.857500", "141912.647500", "141911.057500", "141912.847500", "141910.262500", "141912.052500", "141909.465000", "141911.255000", "141909.665000", "141911.455000", "141909.862500", "141911.652500", "141910.062500", "141911.852500", "141910.460000", "141912.250000", "141910.660000", "141912.450000", "141910.857500", "141912.647500", "141911.057500", "141912.847500", "141910.262500", "141912.052500", "141909.465000", "141911.255000", "141909.665000", "141911.455000", "141909.862500", "141911.652500", "141910.062500", "141911.852500", "141910.460000", "141912.250000", "141910.660000", "141912.450000", "141910.857500", "141912.647500", "141911.057500", "141912.847500", "141910.262500", "141912.052500", "141909.465000", "141911.255000", "141909.665000", "141911.455000", "141909.862500", "141911.652500", "141910.062500", "141911.852500", "141910.460000", "141912.250000", "141910.660000", "141912.450000", "141910.857500", "141912.647500", "141911.057500", "141912.847500", "141910.262500", "141915.652500", "141913.065000", "141914.855000", "141913.265000", "141915.055000", "141913.462500", "141915.252500", "141913.662500", "141915.452500", "141914.060000", "141915.850000", "141914.260000", "141916.050000", "141914.457500", "141916.247500", "141914.657500", "141916.447500", "141913.862500", "141915.652500", "141913.065000", "141914.855000", "141913.265000", "141915.055000", "141913.462500", "141915.252500", "141913.662500", "141915.452500", "141914.060000", "141915.850000", "141914.260000", "141916.050000", "141914.457500", "141916.247500", "141914.657500", "141916.447500", "141913.862500", "141915.652500", "141913.065000", "141914.855000", "141913.265000", "141915.055000", "141913.462500", "141915.252500", "141913.662500", "141915.452500", "141914.060000", "141915.850000", "141914.260000", "141916.050000", "141914.457500", "141916.247500", "141914.657500", "141916.447500", "141913.862500", "141915.652500", "141913.065000", "141914.855000", "141913.265000", "141915.055000", "141913.462500", "141915.252500", "141913.662500", "141915.452500", "141914.060000", "141915.850000", "141914.260000", "141916.050000", "141914.457500", "141916.247500", "141914.657500", "141916.447500", "141913.862500", "141919.252500", "141916.665000", "141918.455000", "141916.865000", "141918.655000", "141917.062500", "141918.852500", "141917.262500", "141919.052500", "141917.660000", "141919.450000", "141917.860000", "141919.650000", "141918.057500", "141919.847500", "141918.257500", "141920.047500", "141917.462500", "141919.252500", "141916.665000", "141918.455000", "141916.865000", "141918.655000", "141917.062500", "141918.852500", "141917.262500", "141919.052500", "141917.660000", "141919.450000", "141917.860000", "141919.650000", "141918.057500", "141919.847500", "141918.257500", "141920.047500", "141917.462500", "141919.252500", "141916.665000", "141918.455000", "141916.865000", "141918.655000", "141917.062500", "141918.852500", "141917.262500", "141919.052500", "141917.660000", "141919.450000", "141917.860000", "141919.650000", "141918.057500", "141919.847500", "141918.257500", "141920.047500", "141917.462500", "141919.252500", "141916.665000", "141918.455000", "141916.865000", "141918.655000", "141917.062500", "141918.852500", "141917.262500", "141919.052500", "141917.660000", "141919.450000", "141917.860000", "141919.650000", "141918.057500", "141919.847500", "141918.257500", "141920.047500", "141917.462500", "141922.852500", "141920.265000", "141922.055000", "141920.465000", "141922.255000", "141920.662500", "141922.452500", "141920.862500", "141922.652500", "141921.260000", "141923.050000", "141921.460000", "141923.250000", "141921.657500", "141923.447500", "141921.857500", "141923.647500", "141921.062500", "141922.852500", "141920.265000", "141922.055000", "141920.465000", "141922.255000", "141920.662500", "141922.452500", "141920.862500", "141922.652500", "141921.260000", "141923.050000", "141921.460000", "141923.250000", "141921.657500", "141923.447500", "141921.857500", "141923.647500", "141921.062500", "141922.852500", "141920.265000", "141922.055000", "141920.465000", "141922.255000", "141920.662500", "141922.452500", "141920.862500", "141922.652500", "141921.260000", "141923.050000", "141921.460000", "141923.250000", "141921.657500", "141923.447500", "141921.857500", "141923.647500", "141921.062500", "141922.852500", "141920.265000", "141922.055000", "141920.465000", "141922.255000", "141920.662500", "141922.452500", "141920.862500", "141922.652500", "141921.260000", "141923.050000", "141921.460000", "141923.250000", "141921.657500", "141923.447500", "141921.857500", "141923.647500", "141921.062500", "141926.452500", "141923.865000", "141925.655000", "141924.065000", "141925.855000", "141924.262500", "141926.052500", "141924.462500", "141926.252500", "141924.860000", "141926.650000", "141925.060000", "141926.850000", "141925.257500", "141927.047500", "141925.457500", "141927.247500", "141924.662500", "141926.452500", "141923.865000", "141925.655000", "141924.065000", "141925.855000", "141924.262500", "141926.052500", "141924.462500", "141926.252500", "141924.860000", "141926.650000", "141925.060000", "141926.850000", "141925.257500", "141927.047500", "141925.457500", "141927.247500", "141924.662500", "141926.452500", "141923.865000", "141925.655000", "141924.065000", "141925.855000", "141924.262500", "141926.052500", "141924.462500", "141926.252500", "141924.860000", "141926.650000", "141925.060000", "141926.850000", "141925.257500", "141927.047500", "141925.457500", "141927.247500", "141924.662500", "141926.452500", "141923.865000", "141925.655000", "141924.065000", "141925.855000", "141924.262500", "141926.052500", "141924.462500", "141926.252500", "141924.860000", "141926.650000", "141925.060000", "141926.850000", "141925.257500", "141927.047500", "141925.457500", "141927.247500", "141924.662500", "141930.052500", "141927.465000", "141929.255000", "141927.665000", "141929.455000", "141927.862500", "141929.652500", "141928.062500", "141929.852500", "141928.460000", "141930.250000", "141928.660000", "141930.450000", "141928.857500", "141930.647500", "141929.057500", "141930.847500", "141928.262500", "141930.052500", "141927.465000", "141929.255000", "141927.665000", "141929.455000", "141927.862500", "141929.652500", "141928.062500", "141929.852500", "141928.460000", "141930.250000", "141928.660000", "141930.450000", "141928.857500", "141930.647500", "141929.057500", "141930.847500", "141928.262500", "141930.052500", "141927.465000", "141929.255000", "141927.665000", "141929.455000", "141927.862500", "141929.652500", "141928.062500", "141929.852500", "141928.460000", "141930.250000", "141928.660000", "141930.450000", "141928.857500", "141930.647500", "141929.057500", "141930.847500", "141928.262500", "141930.052500", "141927.465000", "141929.255000", "141927.665000", "141929.455000", "141927.862500", "141929.652500", "141928.062500", "141929.852500", "141928.460000", "141930.250000", "141928.660000", "141930.450000", "141928.857500", "141930.647500", "141929.057500", "141930.847500", "141928.262500", "141933.652500", "141931.065000", "141932.855000", "141931.265000", "141933.055000", "141931.462500", "141933.252500", "141931.662500", "141933.452500", "141932.060000", "141933.850000", "141932.260000", "141934.050000", "141932.457500", "141934.247500", "141932.657500", "141934.447500", "141931.862500", "141933.652500", "141931.065000", "141932.855000", "141931.265000", "141933.055000", "141931.462500", "141933.252500", "141931.662500", "141933.452500", "141932.060000", "141933.850000", "141932.260000", "141934.050000", "141932.457500", "141934.247500", "141932.657500", "141934.447500", "141931.862500", "141933.652500", "141931.065000", "141932.855000", "141931.265000", "141933.055000", "141931.462500", "141933.252500", "141931.662500", "141933.452500", "141932.060000", "141933.850000", "141932.260000", "141934.050000", "141932.457500", "141934.247500", "141932.657500", "141934.447500", "141931.862500", "141933.652500", "141931.065000", "141932.855000", "141931.265000", "141933.055000", "141931.462500", "141933.252500", "141931.662500", "141933.452500", "141932.060000", "141933.850000", "141932.260000", "141934.050000", "141932.457500", "141934.247500", "141932.657500", "141934.447500", "141931.862500", "141937.252500", "141934.665000", "141936.455000", "141934.865000", "141936.655000", "141935.062500", "141936.852500", "141935.262500", "141937.052500", "141935.660000", "141937.450000", "141935.860000", "141937.650000", "141936.057500", "141937.847500", "141936.257500", "141938.047500", "141935.462500", "141937.252500", "141934.665000", "141936.455000", "141934.865000", "141936.655000", "141935.062500", "141936.852500", "141935.262500", "141937.052500", "141935.660000", "141937.450000", "141935.860000", "141937.650000", "141936.057500", "141937.847500", "141936.257500", "141938.047500", "141935.462500", "141937.252500", "141934.665000", "141936.455000", "141934.865000", "141936.655000", "141935.062500", "141936.852500", "141935.262500", "141937.052500", "141935.660000", "141937.450000", "141935.860000", "141937.650000", "141936.057500", "141937.847500", "141936.257500", "141938.047500", "141935.462500", "141937.252500", "141934.665000", "141936.455000", "141934.865000", "141936.655000", "141935.062500", "141936.852500", "141935.262500", "141937.052500", "141935.660000", "141937.450000", "141935.860000", "141937.650000", "141936.057500", "141937.847500", "141936.257500", "141938.047500", "141935.462500", "141940.852500", "141938.265000", "141940.055000", "141938.465000", "141940.255000", "141938.662500", "141940.452500", "141938.862500", "141940.652500", "141939.260000", "141941.050000", "141939.460000", "141941.250000", "141939.657500", "141941.447500", "141939.857500", "141941.647500", "141939.062500", "141940.852500", "141938.265000", "141940.055000", "141938.465000", "141940.255000", "141938.662500", "141940.452500", "141938.862500", "141940.652500", "141939.260000", "141941.050000", "141939.460000", "141941.250000", "141939.657500", "141941.447500", "141939.857500", "141941.647500", "141939.062500", "141940.852500", "141938.265000", "141940.055000", "141938.465000", "141940.255000", "141938.662500", "141940.452500", "141938.862500", "141940.652500", "141939.260000", "141941.050000", "141939.460000", "141941.250000", "141939.657500", "141941.447500", "141939.857500", "141941.647500", "141939.062500", "141940.852500", "141938.265000", "141940.055000", "141938.465000", "141940.255000", "141938.662500", "141940.452500", "141938.862500", "141940.652500", "141939.260000", "141941.050000", "141939.460000", "141941.250000", "141939.657500", "141941.447500", "141939.857500", "141941.647500", "141939.062500", "141944.452500", "141941.865000", "141943.655000", "141942.065000", "141943.855000", "141942.262500", "141944.052500", "141942.462500", "141944.252500", "141942.860000", "141944.650000", "141943.060000", "141944.850000", "141943.257500", "141945.047500", "141943.457500", "141945.247500", "141942.662500", "141944.452500", "141941.865000", "141943.655000", "141942.065000", "141943.855000", "141942.262500", "141944.052500", "141942.462500", "141944.252500", "141942.860000", "141944.650000", "141943.060000", "141944.850000", "141943.257500", "141945.047500", "141943.457500", "141945.247500", "141942.662500", "141944.452500", "141941.865000", "141943.655000", "141942.065000", "141943.855000", "141942.262500", "141944.052500", "141942.462500", "141944.252500", "141942.860000", "141944.650000", "141943.060000", "141944.850000", "141943.257500", "141945.047500", "141943.457500", "141945.247500", "141942.662500", "141944.452500", "141941.865000", "141943.655000", "141942.065000", "141943.855000", "141942.262500", "141944.052500", "141942.462500", "141944.252500", "141942.860000", "141944.650000", "141943.060000", "141944.850000", "141943.257500", "141945.047500", "141943.457500", "141945.247500", "141942.662500", "141948.052500", "141945.465000", "141947.255000", "141945.665000", "141947.455000", "141945.862500", "141947.652500", "141946.062500", "141947.852500", "141946.460000", "141948.250000", "141946.660000", "141948.450000", "141946.857500", "141948.647500", "141947.057500", "141948.847500", "141946.262500", "141948.052500", "141945.465000", "141947.255000", "141945.665000", "141947.455000", "141945.862500", "141947.652500", "141946.062500", "141947.852500", "141946.460000", "141948.250000", "141946.660000", "141948.450000", "141946.857500", "141948.647500", "141947.057500", "141948.847500", "141946.262500", "141948.052500", "141945.465000", "141947.255000", "141945.665000", "141947.455000", "141945.862500", "141947.652500", "141946.062500", "141947.852500", "141946.460000", "141948.250000", "141946.660000", "141948.450000", "141946.857500", "141948.647500", "141947.057500", "141948.847500", "141946.262500", "141948.052500", "141945.465000", "141947.255000", "141945.665000", "141947.455000", "141945.862500", "141947.652500", "141946.062500", "141947.852500", "141946.460000", "141948.250000", "141946.660000", "141948.450000", "141946.857500", "141948.647500", "141947.057500", "141948.847500", "141946.262500", "141951.652500", "141949.065000", "141950.855000", "141949.265000", "141951.055000", "141949.462500", "141951.252500", "141949.662500", "141951.452500", "141950.060000", "141951.850000", "141950.260000", "141952.050000", "141950.457500", "141952.247500", "141950.657500", "141952.447500", "141949.862500", "141951.652500", "141949.065000", "141950.855000", "141949.265000", "141951.055000", "141949.462500", "141951.252500", "141949.662500", "141951.452500", "141950.060000", "141951.850000", "141950.260000", "141952.050000", "141950.457500", "141952.247500", "141950.657500", "141952.447500", "141949.862500", "141951.652500", "141949.065000", "141950.855000", "141949.265000", "141951.055000", "141949.462500", "141951.252500", "141949.662500", "141951.452500", "141950.060000", "141951.850000", "141950.260000", "141952.050000", "141950.457500", "141952.247500", "141950.657500", "141952.447500", "141949.862500", "141951.652500", "141949.065000", "141950.855000", "141949.265000", "141951.055000", "141949.462500", "141951.252500", "141949.662500", "141951.452500", "141950.060000", "141951.850000", "141950.260000", "141952.050000", "141950.457500", "141952.247500", "141950.657500", "141952.447500", "141949.862500", "141955.252500", "141952.665000", "141954.455000", "141952.865000", "141954.655000", "141953.062500", "141954.852500", "141953.262500", "141955.052500", "141953.660000", "141955.450000", "141953.860000", "141955.650000", "141954.057500", "141955.847500", "141954.257500", "141956.047500", "141953.462500", "141955.252500", "141952.665000", "141954.455000", "141952.865000", "141954.655000", "141953.062500", "141954.852500", "141953.262500", "141955.052500", "141953.660000", "141955.450000", "141953.860000", "141955.650000", "141954.057500", "141955.847500", "141954.257500", "141956.047500", "141953.462500", "141955.252500", "141952.665000", "141954.455000", "141952.865000", "141954.655000", "141953.062500", "141954.852500", "141953.262500", "141955.052500", "141953.660000", "141955.450000", "141953.860000", "141955.650000", "141954.057500", "141955.847500", "141954.257500", "141956.047500", "141953.462500", "141955.252500", "141952.665000", "141954.455000", "141952.865000", "141954.655000", "141953.062500", "141954.852500", "141953.262500", "141955.052500", "141953.660000", "141955.450000", "141953.860000", "141955.650000", "141954.057500", "141955.847500", "141954.257500", "141956.047500", "141953.462500", "141958.852500", "141956.265000", "141958.055000", "141956.465000", "141958.255000", "141956.662500", "141958.452500", "141956.862500", "141958.652500", "141957.260000", "141959.050000", "141957.460000", "141959.250000", "141957.657500", "141959.447500", "141957.857500", "141959.647500", "141957.062500", "141958.852500", "141956.265000", "141958.055000", "141956.465000", "141958.255000", "141956.662500", "141958.452500", "141956.862500", "141958.652500", "141957.260000", "141959.050000", "141957.460000", "141959.250000", "141957.657500", "141959.447500", "141957.857500", "141959.647500", "141957.062500", "141958.852500", "141956.265000", "141958.055000", "141956.465000", "141958.255000", "141956.662500", "141958.452500", "141956.862500", "141958.652500", "141957.260000", "141959.050000", "141957.460000", "141959.250000", "141957.657500", "141959.447500", "141957.857500", "141959.647500", "141957.062500", "141958.852500", "141956.265000", "141958.055000", "141956.465000", "141958.255000", "141956.662500", "141958.452500", "141956.862500", "141958.652500", "141957.260000", "141959.050000", "141957.460000", "141959.250000", "141957.657500", "141959.447500", "14