{
  "AcquisitionMatrixPE": 80,
  "AcquisitionNumber": 1,
  "AcquisitionTime": "09:01:2.445000",
  "BandwidthPerPixelPhaseEncode": 25,
  "BaseResolution": 80,
  "BodyPartExamined": "BRAIN",
  "CoilCombinationMethod": "Sum of Squares",
  "ConsistencyInfo": "N4_VE11E_LATEST_20181129",
  "ConversionSoftware": "dcm2niix",
  "ConversionSoftwareVersion": "v1.0.20220720",
  "DerivedVendorReportedEchoSpacing": 0.0005,
  "DeviceSerialNumber": "66112",
  "DwellTime": 2.7e-06,
  "EchoTime": 0.03,
  "EchoTrainLength": 80,
  "EffectiveEchoSpacing": 0.0005,
  "FlipAngle": 77,
  "HeudiconvVersion": "0.13.1",
  "ImageOrientationPatientDICOM": [0.993261, -0.115794, 0.00492261, 0.111061, 0.96309, 0.2452],
  "ImageOrientationText": "Tra>Cor(14.1)>Sag(1.9)",
  "ImageType": [
    "ORIGINAL",
    "PRIMARY",
    "M",
    "ND",
    "NORM",
    "MOSAIC"
],
  "ImagingFrequency": 123.259,
  "InPlanePhaseEncodingDirectionDICOM": "COL",
  "InstitutionAddress": "Maynard 3,Hanover,NH,US,03755",
  "InstitutionName": "Dartmouth College - PBS",
  "InstitutionalDepartmentName": "Department",
  "MRAcquisitionType": "2D",
  "MagneticFieldStrength": 3,
  "Manufacturer": "Siemens",
  "ManufacturersModelName": "Prisma",
  "MatrixCoilMode": "SENSE",
  "Modality": "MR",
  "NonlinearGradientCorrection": false,
  "PartialFourier": 1,
  "PatientPosition": "HFS",
  "PercentPhaseFOV": 100,
  "PercentSampling": 100,
  "PhaseEncodingDirection": "j-",
  "PhaseEncodingSteps": 80,
  "PhaseResolution": 1,
  "PixelBandwidth": 2315,
  "ProcedureStepDescription": "dbic^QA",
  "ProtocolName": "func-bold_fa-77",
  "PulseSequenceDetails": "%SiemensSeq%\\ep2d_bold",
  "ReceiveCoilActiveElements": "HC1-7;NC1,2",
  "ReceiveCoilName": "HeadNeck_64",
  "ReconMatrixPE": 80,
  "RepetitionTime": 2,
  "SAR": 0.0282862,
  "ScanOptions": "FS",
  "ScanningSequence": "EP",
  "SequenceName": "*epfid2d1_80",
  "SequenceVariant": "SK",
  "SeriesDescription": "func-bold_fa-77",
  "SeriesNumber": 6,
  "ShimSetting": [4216, -7732, -7486, -136, -128, -311, -52, 130],
  "SliceThickness": 3.5,
  "SliceTiming": [0.99, 0, 1.055, 0.065, 1.1225, 0.1325, 1.1875, 0.1975, 1.2525, 0.265, 1.32, 0.33, 1.385, 0.395, 1.4525, 0.4625, 1.5175, 0.5275, 1.5825, 0.5925, 1.65, 0.66, 1.715, 0.725, 1.7825, 0.7925, 1.8475, 0.8575, 1.9125, 0.9225],
  "SoftwareVersions": "syngo MR E11",
  "SpacingBetweenSlices": 3.99,
  "StationName": "AWP66112",
  "TotalReadoutTime": 0.0395,
  "TxRefAmp": 211.209,
  "dcmmeta_affine": [
    [-2.979783296585083, 0.33318328857421875, 0.1322026550769806, 106.60101318359375],
    [0.3473808765411377, 2.889270067214966, 0.9695731401443481, -137.77146911621094],
    [0.01476782001554966, -0.7355996370315552, 3.86814546585083, -42.458038330078125],
    [0.0, 0.0, 0.0, 1.0]
],
  "dcmmeta_reorient_transform": [
    [0.0, -1.0, 0.0, 79.0],
    [1.0, 0.0, 0.0, 0.0],
    [0.0, 0.0, 1.0, 0.0],
    [0.0, 0.0, 0.0, 1.0]
],
  "dcmmeta_shape": [80, 80, 30, 200],
  "dcmmeta_slice_dim": 2,
  "dcmmeta_version": 0.6,
  "global": {
    "const": {
      "AccessionNumber": "qa64",
      "AcquisitionMatrix": [80, 0, 0, 80],
      "AngioFlag": "N",
      "BitsAllocated": 16,
      "BitsStored": 12,
      "BodyPartExamined": "BRAIN",
      "Columns": 480,
      "EchoNumbers": 1,
      "EchoTime": 30.0,
      "EchoTrainLength": 80,
      "FlipAngle": 77.0,
      "HighBit": 11,
      "ImageOrientationPatient": [0.99326109544761, -0.1157936276862, 0.0049226067782, 0.11106109867096, 0.96309005376788, 0.24519987906884],
      "ImagePositionPatient": [-795.51581047244, -598.85873416714, -250.64389964874],
      "ImageType": [
        "ORIGINAL",
        "PRIMARY",
        "M",
        "ND",
        "NORM",
        "MOSAIC"
],
      "ImagedNucleus": "1H",
      "ImagingFrequency": 123.259184,
      "InPlanePhaseEncodingDirection": "COL",
      "LargestImagePixelValue": 4095,
      "MRAcquisitionType": "2D",
      "MagneticFieldStrength": 3.0,
      "Manufacturer": "SIEMENS",
      "ManufacturerModelName": "Prisma",
      "Modality": "MR",
      "NumberOfAverages": 1.0,
      "NumberOfPhaseEncodingSteps": 80,
      "PercentPhaseFieldOfView": 100.0,
      "PercentSampling": 100.0,
      "PerformedProcedureStepStartTime": "085003.593000",
      "PhotometricInterpretation": "MONOCHROME2",
      "PixelBandwidth": 2315.0,
      "PixelRepresentation": 0,
      "PixelSpacing": [3.0, 3.0],
      "ProtocolName": "func-bold_fa-77",
      "RepetitionTime": 2000.0,
      "Rows": 480,
      "SAR": 0.02828617120548,
      "SamplesPerPixel": 1,
      "ScanOptions": "FS",
      "ScanningSequence": "EP",
      "SequenceName": "*epfid2d1_80",
      "SequenceVariant": "SK",
      "SeriesDescription": "func-bold_fa-77",
      "SeriesNumber": 6,
      "SeriesTime": "090153.812000",
      "SliceLocation": -71.10788076993,
      "SliceThickness": 3.5,
      "SmallestImagePixelValue": 0,
      "SoftwareVersions": "syngo MR E11",
      "SpacingBetweenSlices": 3.9899999274273,
      "SpecificCharacterSet": "ISO_IR 100",
      "StudyID": "24",
      "StudyTime": "085003.522000",
      "TransmitCoilName": "Body",
      "VariableFlipAngleFlag": "N",
      "WindowCenterWidthExplanation": "Algo1"
    },
    "slices": {}
  },
  "time": {
    "samples": {
      "AcquisitionNumber": [1, 2, 3, 4, 5, 6, 7, 8, 9, 10, 11, 12, 13, 14, 15, 16, 17, 18, 19, 20, 21, 22, 23, 24, 25, 26, 27, 28, 29, 30, 31, 32, 33, 34, 35, 36, 37, 38, 39, 40, 41, 42, 43, 44, 45, 46, 47, 48, 49, 50, 51, 52, 53, 54, 55, 56, 57, 58, 59, 60, 61, 62, 63, 64, 65, 66, 67, 68, 69, 70, 71, 72, 73, 74, 75, 76, 77, 78, 79, 80, 81, 82, 83, 84, 85, 86, 87, 88, 89, 90, 91, 92, 93, 94, 95, 96, 97, 98, 99, 100, 101, 102, 103, 104, 105, 106, 107, 108, 109, 110, 111, 112, 113, 114, 115, 116, 117, 118, 119, 120, 121, 122, 123, 124, 125, 126, 127, 128, 129, 130, 131, 132, 133, 134, 135, 136, 137, 138, 139, 140, 141, 142, 143, 144, 145, 146, 147, 148, 149, 150, 151, 152, 153, 154, 155, 156, 157, 158, 159, 160, 161, 162, 163, 164, 165, 166, 167, 168, 169, 170, 171, 172, 173, 174, 175, 176, 177, 178, 179, 180, 181, 182, 183, 184, 185, 186, 187, 188, 189, 190, 191, 192, 193, 194, 195, 196, 197, 198, 199, 200],
      "AcquisitionTime": ["090102.445000", "090104.445000", "090106.445000", "090108.445000", "090110.445000", "090112.445000", "090114.445000", "090116.445000", "090118.445000", "090120.445000", "090122.445000", "090124.445000", "090126.445000", "090128.445000", "090130.445000", "090132.445000", "090134.445000", "090136.445000", "090138.445000", "090140.445000", "090142.445000", "090144.445000", "090146.445000", "090148.445000", "090150.445000", "090152.445000", "090154.445000", "090156.445000", "090158.445000", "090200.445000", "090202.445000", "090204.445000", "090206.445000", "090208.445000", "090210.445000", "090212.445000", "090214.445000", "090216.445000", "090218.445000", "090220.445000", "090222.445000", "090224.445000", "090226.445000", "090228.445000", "090230.445000", "090232.445000", "090234.445000", "090236.445000", "090238.445000", "090240.445000", "090242.445000", "090244.445000", "090246.445000", "090248.445000", "090250.445000", "090252.445000", "090254.445000", "090256.445000", "090258.445000", "090300.445000", "090302.445000", "090304.445000", "090306.445000", "090308.445000", "090310.445000", "090312.445000", "090314.445000", "090316.445000", "090318.445000", "090320.445000", "090322.445000", "090324.445000", "090326.445000", "090328.445000", "090330.445000", "090332.445000", "090334.445000", "090336.445000", "090338.445000", "090340.445000", "090342.445000", "090344.445000", "090346.445000", "090348.445000", "090350.445000", "090352.445000", "090354.445000", "090356.445000", "090358.445000", "090400.445000", "090402.445000", "090404.445000", "090406.445000", "090408.445000", "090410.445000", "090412.445000", "090414.445000", "090416.445000", "090418.445000", "090420.445000", "090422.445000", "090424.445000", "090426.445000", "090428.445000", "090430.445000", "090432.445000", "090434.445000", "090436.445000", "090438.445000", "090440.445000", "090442.445000", "090444.445000", "090446.445000", "090448.445000", "090450.445000", "090452.445000", "090454.445000", "090456.445000", "090458.445000", "090500.445000", "090502.445000", "090504.445000", "090506.445000", "090508.445000", "090510.445000", "090512.445000", "090514.445000", "090516.445000", "090518.445000", "090520.445000", "090522.445000", "090524.445000", "090526.445000", "090528.445000", "090530.445000", "090532.445000", "090534.445000", "090536.445000", "090538.445000", "090540.445000", "090542.445000", "090544.445000", "090546.445000", "090548.445000", "090550.445000", "090552.445000", "090554.445000", "090556.445000", "090558.445000", "090600.445000", "090602.445000", "090604.445000", "090606.445000", "090608.445000", "090610.445000", "090612.445000", "090614.445000", "090616.445000", "090618.445000", "090620.445000", "090622.445000", "090624.445000", "090626.445000", "090628.445000", "090630.445000", "090632.445000", "090634.445000", "090636.445000", "090638.445000", "090640.445000", "090642.445000", "090644.445000", "090646.445000", "090648.445000", "090650.445000", "090652.445000", "090654.445000", "090656.445000", "090658.445000", "090700.445000", "090702.445000", "090704.445000", "090706.445000", "090708.445000", "090710.445000", "090712.445000", "090714.445000", "090716.445000", "090718.445000", "090720.445000", "090722.445000", "090724.445000", "090726.445000", "090728.445000", "090730.445000", "090732.445000", "090734.445000", "090736.445000", "090738.445000", "090740.445000"],
      "ContentTime": ["090153.815000", "090153.819000", "090153.821000", "090153.824000", "090153.826000", "090153.828000", "090153.830000", "090153.842000", "090153.854000", "090153.856000", "090153.859000", "090153.861000", "090153.863000", "090153.866000", "090153.868000", "090153.870000", "090153.873000", "090153.875000", "090153.877000", "090153.880000", "090153.882000", "090153.885000", "090153.887000", "090153.889000", "090153.891000", "090233.809000", "090233.812000", "090233.814000", "090233.816000", "090233.819000", "090233.821000", "090233.824000", "090233.826000", "090233.828000", "090233.830000", "090233.833000", "090233.835000", "090233.837000", "090233.839000", "090233.842000", "090233.844000", "090233.847000", "090233.849000", "090233.851000", "090233.854000", "090313.809000", "090313.812000", "090313.814000", "090313.817000", "090313.819000", "090313.821000", "090313.824000", "090313.826000", "090313.828000", "090313.831000", "090313.833000", "090313.836000", "090313.838000", "090313.841000", "090313.843000", "090313.845000", "090313.848000", "090313.850000", "090313.853000", "090313.855000", "090353.810000", "090353.813000", "090353.815000", "090353.818000", "090353.820000", "090353.822000", "090353.824000", "090353.827000", "090353.829000", "090353.832000", "090353.835000", "090353.837000", "090353.839000", "090353.842000", "090353.844000", "090353.846000", "090353.849000", "090353.851000", "090353.853000", "090353.856000", "090433.810000", "090433.813000", "090433.815000", "090433.817000", "090433.820000", "090433.822000", "090433.824000", "090433.827000", "090433.829000", "090433.831000", "090433.834000", "090433.836000", "090433.838000", "090433.841000", "090433.843000", "090433.846000", "090433.848000", "090433.850000", "090433.853000", "090433.855000", "090513.809000", "090513.812000", "090513.814000", "090513.817000", "090513.819000", "090513.821000", "090513.823000", "090513.826000", "090513.828000", "090513.830000", "090513.833000", "090513.835000", "090513.838000", "090513.840000", "090513.843000", "090513.845000", "090513.847000", "090513.850000", "090513.852000", "090513.854000", "090553.810000", "090553.813000", "090553.815000", "090553.818000", "090553.820000", "090553.822000", "090553.825000", "090553.827000", "090553.829000", "090553.832000", "090553.834000", "090553.836000", "090553.839000", "090553.841000", "090553.844000", "090553.847000", "090553.850000", "090553.852000", "090553.854000", "090553.857000", "090633.810000", "090633.813000", "090633.815000", "090633.817000", "090633.820000", "090633.822000", "090633.824000", "090633.827000", "090633.829000", "090633.831000", "090633.834000", "090633.836000", "090633.839000", "090633.841000", "090633.844000", "090633.846000", "090633.848000", "090633.851000", "090633.853000", "090633.855000", "090713.809000", "090713.812000", "090713.814000", "090713.817000", "090713.819000", "090713.821000", "090713.824000", "090713.826000", "090713.828000", "090713.831000", "090713.833000", "090713.836000", "090713.839000", "090713.841000", "090713.843000", "090713.846000", "090713.848000", "090713.850000", "090713.853000", "090713.855000", "090741.831000", "090741.834000", "090741.836000", "090741.838000", "090741.841000", "090741.843000", "090741.845000", "090741.848000", "090741.850000", "090741.852000", "090741.855000", "090741.857000", "090741.859000", "090741.866000", "090741.869000"],
      "InstanceCreationTime": ["090153.815000", "090153.819000", "090153.821000", "090153.824000", "090153.826000", "090153.828000", "090153.830000", "090153.842000", "090153.854000", "090153.856000", "090153.859000", "090153.861000", "090153.863000", "090153.866000", "090153.868000", "090153.870000", "090153.873000", "090153.875000", "090153.877000", "090153.880000", "090153.882000", "090153.885000", "090153.887000", "090153.889000", "090153.891000", "090233.809000", "090233.812000", "090233.814000", "090233.816000", "090233.819000", "090233.821000", "090233.824000", "090233.826000", "090233.828000", "090233.830000", "090233.833000", "090233.835000", "090233.837000", "090233.839000", "090233.842000", "090233.844000", "090233.847000", "090233.849000", "090233.851000", "090233.854000", "090313.809000", "090313.812000", "090313.814000", "090313.817000", "090313.819000", "090313.821000", "090313.824000", "090313.826000", "090313.828000", "090313.831000", "090313.833000", "090313.836000", "090313.838000", "090313.841000", "090313.843000", "090313.845000", "090313.848000", "090313.850000", "090313.853000", "090313.855000", "090353.810000", "090353.813000", "090353.815000", "090353.818000", "090353.820000", "090353.822000", "090353.824000", "090353.827000", "090353.829000", "090353.832000", "090353.835000", "090353.837000", "090353.839000", "090353.842000", "090353.844000", "090353.846000", "090353.849000", "090353.851000", "090353.853000", "090353.856000", "090433.810000", "090433.813000", "090433.815000", "090433.817000", "090433.820000", "090433.822000", "090433.824000", "090433.827000", "090433.829000", "090433.831000", "090433.834000", "090433.836000", "090433.838000", "090433.841000", "090433.843000", "090433.846000", "090433.848000", "090433.850000", "090433.853000", "090433.855000", "090513.809000", "090513.812000", "090513.814000", "090513.817000", "090513.819000", "090513.821000", "090513.823000", "090513.826000", "090513.828000", "090513.830000", "090513.833000", "090513.835000", "090513.838000", "090513.840000", "090513.843000", "090513.845000", "090513.847000", "090513.850000", "090513.852000", "090513.854000", "090553.810000", "090553.813000", "090553.815000", "090553.818000", "090553.820000", "090553.822000", "090553.825000", "090553.827000", "090553.829000", "090553.832000", "090553.834000", "090553.836000", "090553.839000", "090553.841000", "090553.844000", "090553.847000", "090553.850000", "090553.852000", "090553.854000", "090553.857000", "090633.810000", "090633.813000", "090633.815000", "090633.817000", "090633.820000", "090633.822000", "090633.824000", "090633.827000", "090633.829000", "090633.831000", "090633.834000", "090633.836000", "090633.839000", "090633.841000", "090633.844000", "090633.846000", "090633.848000", "090633.851000", "090633.853000", "090633.855000", "090713.809000", "090713.812000", "090713.814000", "090713.817000", "090713.819000", "090713.821000", "090713.824000", "090713.826000", "090713.828000", "090713.831000", "090713.833000", "090713.836000", "090713.839000", "090713.841000", "090713.843000", "090713.846000", "090713.848000", "090713.850000", "090713.853000", "090713.855000", "090741.831000", "090741.834000", "090741.836000", "090741.838000", "090741.841000", "090741.843000", "090741.845000", "090741.848000", "090741.850000", "090741.852000", "090741.855000", "090741.857000", "090741.859000", "090741.866000", "090741.869000"],
      "InstanceNumber": [1, 2, 3, 4, 5, 6, 7, 8, 9, 10, 11, 12, 13, 14, 15, 16, 17, 18, 19, 20, 21, 22, 23, 24, 25, 26, 27, 28, 29, 30, 31, 32, 33, 34, 35, 36, 37, 38, 39, 40, 41, 42, 43, 44, 45, 46, 47, 48, 49, 50, 51, 52, 53, 54, 55, 56, 57, 58, 59, 60, 61, 62, 63, 64, 65, 66, 67, 68, 69, 70, 71, 72, 73, 74, 75, 76, 77, 78, 79, 80, 81, 82, 83, 84, 85, 86, 87, 88, 89, 90, 91, 92, 93, 94, 95, 96, 97, 98, 99, 100, 101, 102, 103, 104, 105, 106, 107, 108, 109, 110, 111, 112, 113, 114, 115, 116, 117, 118, 119, 120, 121, 122, 123, 124, 125, 126, 127, 128, 129, 130, 131, 132, 133, 134, 135, 136, 137, 138, 139, 140, 141, 142, 143, 144, 145, 146, 147, 148, 149, 150, 151, 152, 153, 154, 155, 156, 157, 158, 159, 160, 161, 162, 163, 164, 165, 166, 167, 168, 169, 170, 171, 172, 173, 174, 175, 176, 177, 178, 179, 180, 181, 182, 183, 184, 185, 186, 187, 188, 189, 190, 191, 192, 193, 194, 195, 196, 197, 198, 199, 200],
      "WindowCenter": [1429.0, 1429.0, 1428.0, 1428.0, 1429.0, 1429.0, 1429.0, 1428.0, 1428.0, 1429.0, 1429.0, 1428.0, 1428.0, 1429.0, 1429.0, 1428.0, 1428.0, 1429.0, 1428.0, 1428.0, 1427.0, 1428.0, 1428.0, 1428.0, 1428.0, 1428.0, 1428.0, 1428.0, 1428.0, 1428.0, 1428.0, 1428.0, 1427.0, 1427.0, 1427.0, 1427.0, 1427.0, 1427.0, 1427.0, 1427.0, 1428.0, 1427.0, 1428.0, 1427.0, 1427.0, 1428.0, 1427.0, 1427.0, 1427.0, 1427.0, 1426.0, 1427.0, 1427.0, 1427.0, 1427.0, 1427.0, 1427.0, 1427.0, 1426.0, 1427.0, 1426.0, 1426.0, 1427.0, 1426.0, 1427.0, 1427.0, 1427.0, 1427.0, 1427.0, 1427.0, 1427.0, 1427.0, 1427.0, 1427.0, 1427.0, 1426.0, 1427.0, 1426.0, 1427.0, 1426.0, 1426.0, 1426.0, 1426.0, 1426.0, 1426.0, 1426.0, 1426.0, 1426.0, 1426.0, 1426.0, 1426.0, 1426.0, 1426.0, 1426.0, 1426.0, 1426.0, 1426.0, 1426.0, 1426.0, 1426.0, 1426.0, 1425.0, 1425.0, 1425.0, 1425.0, 1425.0, 1425.0, 1425.0, 1426.0, 1425.0, 1425.0, 1425.0, 1426.0, 1426.0, 1425.0, 1425.0, 1426.0, 1425.0, 1425.0, 1426.0, 1426.0, 1425.0, 1425.0, 1425.0, 1425.0, 1424.0, 1425.0, 1425.0, 1425.0, 1424.0, 1425.0, 1425.0, 1424.0, 1424.0, 1424.0, 1425.0, 1425.0, 1424.0, 1425.0, 1425.0, 1424.0, 1425.0, 1425.0, 1425.0, 1425.0, 1424.0, 1425.0, 1425.0, 1424.0, 1424.0, 1424.0, 1425.0, 1425.0, 1424.0, 1424.0, 1424.0, 1425.0, 1424.0, 1424.0, 1424.0, 1424.0, 1424.0, 1424.0, 1424.0, 1424.0, 1425.0, 1424.0, 1425.0, 1424.0, 1425.0, 1423.0, 1424.0, 1423.0, 1424.0, 1424.0, 1424.0, 1424.0, 1424.0, 1424.0, 1424.0, 1423.0, 1424.0, 1424.0, 1424.0, 1424.0, 1423.0, 1424.0, 1423.0, 1424.0, 1424.0, 1424.0, 1424.0, 1424.0, 1424.0, 1424.0, 1424.0, 1424.0, 1424.0, 1424.0, 1424.0],
      "WindowWidth": [3382.0, 3382.0, 3382.0, 3382.0, 3382.0, 3382.0, 3382.0, 3382.0, 3382.0, 3382.0, 3382.0, 3382.0, 3382.0, 3382.0, 3382.0, 3382.0, 3382.0, 3382.0, 3382.0, 3382.0, 3382.0, 3382.0, 3382.0, 3382.0, 3382.0, 3381.0, 3381.0, 3381.0, 3381.0, 3381.0, 3381.0, 3381.0, 3381.0, 3381.0, 3381.0, 3381.0, 3381.0, 3381.0, 3381.0, 3381.0, 3381.0, 3381.0, 3381.0, 3381.0, 3381.0, 3381.0, 3381.0, 3381.0, 3381.0, 3381.0, 3381.0, 3381.0, 3381.0, 3381.0, 3381.0, 3381.0, 3381.0, 3381.0, 3381.0, 3381.0, 3381.0, 3381.0, 3381.0, 3381.0, 3381.0, 3381.0, 3381.0, 3381.0, 3381.0, 3381.0, 3381.0, 3381.0, 3381.0, 3381.0, 3381.0, 3380.0, 3381.0, 3380.0, 3381.0, 3380.0, 3380.0, 3380.0, 3380.0, 3380.0, 3380.0, 3380.0, 3380.0, 3380.0, 3380.0, 3380.0, 3380.0, 3380.0, 3380.0, 3380.0, 3380.0, 3380.0, 3380.0, 3380.0, 3380.0, 3380.0, 3380.0, 3380.0, 3380.0, 3380.0, 3380.0, 3380.0, 3380.0, 3380.0, 3380.0, 3380.0, 3380.0, 3380.0, 3380.0, 3380.0, 3380.0, 3380.0, 3380.0, 3380.0, 3380.0, 3380.0, 3380.0, 3380.0, 3380.0, 3380.0, 3380.0, 3380.0, 3380.0, 3380.0, 3380.0, 3380.0, 3380.0, 3380.0, 3380.0, 3380.0, 3380.0, 3380.0, 3380.0, 3380.0, 3380.0, 3379.0, 3380.0, 3380.0, 3379.0, 3379.0, 3379.0, 3380.0, 3379.0, 3379.0, 3379.0, 3379.0, 3379.0, 3379.0, 3379.0, 3379.0, 3379.0, 3379.0, 3379.0, 3379.0, 3379.0, 3379.0, 3379.0, 3379.0, 3379.0, 3379.0, 3379.0, 3379.0, 3379.0, 3379.0, 3379.0, 3379.0, 3379.0, 3379.0, 3379.0, 3379.0, 3379.0, 3379.0, 3379.0, 3379.0, 3379.0, 3379.0, 3379.0, 3379.0, 3379.0, 3379.0, 3379.0, 3379.0, 3379.0, 3379.0, 3379.0, 3379.0, 3379.0, 3379.0, 3379.0, 3379.0, 3379.0, 3379.0, 3379.0, 3379.0, 3379.0, 3379.0]
    },
    "slices": {}
  }
}