{
  "AcquisitionMatrixPE": 80,
  "AcquisitionNumber": 1,
  "AcquisitionTime": "10:00:1.455000",
  "BandwidthPerPixelPhaseEncode": 25,
  "BaseResolution": 80,
  "BodyPartExamined": "BRAIN",
  "CoilCombinationMethod": "Sum of Squares",
  "ConsistencyInfo": "N4_VE11E_LATEST_20181129",
  "ConversionSoftware": "dcm2niix",
  "ConversionSoftwareVersion": "v1.0.20220720",
  "DerivedVendorReportedEchoSpacing": 0.0005,
  "DeviceSerialNumber": "66112",
  "DwellTime": 2.7e-06,
  "EchoTime": 0.03,
  "EchoTrainLength": 80,
  "EffectiveEchoSpacing": 0.0005,
  "FlipAngle": 10,
  "HeudiconvVersion": "0.13.1",
  "ImageOrientationPatientDICOM": [0.999971, 0.00607817, 0.00452266, -0.00715573, 0.95383, 0.300262],
  "ImageOrientationText": "Tra>Cor(17.5)>Sag(0.1)",
  "ImageType": [
    "ORIGINAL",
    "PRIMARY",
    "M",
    "ND",
    "NORM",
    "MOSAIC"
],
  "ImagingFrequency": 123.259,
  "InPlanePhaseEncodingDirectionDICOM": "COL",
  "InstitutionAddress": "Maynard 3,Hanover,NH,US,03755",
  "InstitutionName": "Dartmouth College - PBS",
  "InstitutionalDepartmentName": "Department",
  "MRAcquisitionType": "2D",
  "MagneticFieldStrength": 3,
  "Manufacturer": "Siemens",
  "ManufacturersModelName": "Prisma",
  "MatrixCoilMode": "SENSE",
  "Modality": "MR",
  "NonlinearGradientCorrection": false,
  "PartialFourier": 1,
  "PatientPosition": "HFS",
  "PercentPhaseFOV": 100,
  "PercentSampling": 100,
  "PhaseEncodingDirection": "j-",
  "PhaseEncodingSteps": 80,
  "PhaseResolution": 1,
  "PixelBandwidth": 2315,
  "ProcedureStepDescription": "dbic^QA",
  "ProtocolName": "func-bold_fa-10",
  "PulseSequenceDetails": "%SiemensSeq%\\ep2d_bold",
  "ReceiveCoilActiveElements": "HEA;HEP",
  "ReceiveCoilName": "Head_32",
  "ReconMatrixPE": 80,
  "RepetitionTime": 2,
  "SAR": 0.0151156,
  "ScanOptions": "FS",
  "ScanningSequence": "EP",
  "SequenceName": "*epfid2d1_80",
  "SequenceVariant": "SK",
  "SeriesDescription": "func-bold_fa-10",
  "SeriesNumber": 8,
  "ShimSetting": [4222, -7741, -7487, -35, -120, -45, 22, 80],
  "SliceThickness": 3.5,
  "SliceTiming": [0.99, 0, 1.0575, 0.0675, 1.1225, 0.1325, 1.19, 0.2, 1.255, 0.265, 1.32, 0.33, 1.3875, 0.3975, 1.4525, 0.4625, 1.52, 0.53, 1.585, 0.595, 1.65, 0.66, 1.7175, 0.7275, 1.7825, 0.7925, 1.85, 0.86, 1.915, 0.925],
  "SoftwareVersions": "syngo MR E11",
  "SpacingBetweenSlices": 3.99,
  "StationName": "AWP66112",
  "TotalReadoutTime": 0.0395,
  "TxRefAmp": 224.852,
  "dcmmeta_affine": [
    [-2.9999139308929443, -0.02146720327436924, 0.009930337779223919, 122.70654296875],
    [-0.01823452115058899, 2.8614895343780518, 1.1981412172317505, -121.42369842529297],
    [0.013567994348704815, -0.900786817073822, 3.8058454990386963, -14.923913955688477],
    [0.0, 0.0, 0.0, 1.0]
],
  "dcmmeta_reorient_transform": [
    [0.0, -1.0, 0.0, 79.0],
    [1.0, 0.0, 0.0, 0.0],
    [0.0, 0.0, 1.0, 0.0],
    [0.0, 0.0, 0.0, 1.0]
],
  "dcmmeta_shape": [80, 80, 30, 200],
  "dcmmeta_slice_dim": 2,
  "dcmmeta_version": 0.6,
  "global": {
    "const": {
      "AccessionNumber": "qa",
      "AcquisitionMatrix": [80, 0, 0, 80],
      "AngioFlag": "N",
      "BitsAllocated": 16,
      "BitsStored": 12,
      "BodyPartExamined": "BRAIN",
      "Columns": 480,
      "EchoNumbers": 1,
      "EchoTime": 30.0,
      "EchoTrainLength": 80,
      "FlipAngle": 10.0,
      "HighBit": 11,
      "ImageOrientationPatient": [0.99997130024211, 0.00607817374254, 0.00452266470708, -0.007155734421, 0.95382984170286, 0.30026226626402],
      "ImagePositionPatient": [-716.69997066727, -680.57878130593, -268.95702926647],
      "ImageType": [
        "ORIGINAL",
        "PRIMARY",
        "M",
        "ND",
        "NORM",
        "MOSAIC"
],
      "ImagedNucleus": "1H",
      "ImagingFrequency": 123.259244,
      "InPlanePhaseEncodingDirection": "COL",
      "MRAcquisitionType": "2D",
      "MagneticFieldStrength": 3.0,
      "Manufacturer": "SIEMENS",
      "ManufacturerModelName": "Prisma",
      "Modality": "MR",
      "NumberOfAverages": 1.0,
      "NumberOfPhaseEncodingSteps": 80,
      "PercentPhaseFieldOfView": 100.0,
      "PercentSampling": 100.0,
      "PerformedProcedureStepStartTime": "093435.747000",
      "PhotometricInterpretation": "MONOCHROME2",
      "PixelBandwidth": 2315.0,
      "PixelRepresentation": 0,
      "PixelSpacing": [3.0, 3.0],
      "ProtocolName": "func-bold_fa-10",
      "RepetitionTime": 2000.0,
      "Rows": 480,
      "SAR": 0.01511557675064,
      "SamplesPerPixel": 1,
      "ScanOptions": "FS",
      "ScanningSequence": "EP",
      "SequenceName": "*epfid2d1_80",
      "SequenceVariant": "SK",
      "SeriesDescription": "func-bold_fa-10",
      "SeriesNumber": 8,
      "SeriesTime": "100051.558000",
      "SliceLocation": -50.391560616197,
      "SliceThickness": 3.5,
      "SmallestImagePixelValue": 0,
      "SoftwareVersions": "syngo MR E11",
      "SpacingBetweenSlices": 3.9900000934022,
      "SpecificCharacterSet": "ISO_IR 100",
      "StudyID": "26",
      "StudyTime": "093435.694000",
      "TransmitCoilName": "Body",
      "VariableFlipAngleFlag": "N",
      "WindowCenterWidthExplanation": "Algo1"
    },
    "slices": {}
  },
  "time": {
    "samples": {
      "AcquisitionNumber": [1, 2, 3, 4, 5, 6, 7, 8, 9, 10, 11, 12, 13, 14, 15, 16, 17, 18, 19, 20, 21, 22, 23, 24, 25, 26, 27, 28, 29, 30, 31, 32, 33, 34, 35, 36, 37, 38, 39, 40, 41, 42, 43, 44, 45, 46, 47, 48, 49, 50, 51, 52, 53, 54, 55, 56, 57, 58, 59, 60, 61, 62, 63, 64, 65, 66, 67, 68, 69, 70, 71, 72, 73, 74, 75, 76, 77, 78, 79, 80, 81, 82, 83, 84, 85, 86, 87, 88, 89, 90, 91, 92, 93, 94, 95, 96, 97, 98, 99, 100, 101, 102, 103, 104, 105, 106, 107, 108, 109, 110, 111, 112, 113, 114, 115, 116, 117, 118, 119, 120, 121, 122, 123, 124, 125, 126, 127, 128, 129, 130, 131, 132, 133, 134, 135, 136, 137, 138, 139, 140, 141, 142, 143, 144, 145, 146, 147, 148, 149, 150, 151, 152, 153, 154, 155, 156, 157, 158, 159, 160, 161, 162, 163, 164, 165, 166, 167, 168, 169, 170, 171, 172, 173, 174, 175, 176, 177, 178, 179, 180, 181, 182, 183, 184, 185, 186, 187, 188, 189, 190, 191, 192, 193, 194, 195, 196, 197, 198, 199, 200],
      "AcquisitionTime": ["100001.455000", "100003.455000", "100005.455000", "100007.455000", "100009.455000", "100011.455000", "100013.455000", "100015.455000", "100017.455000", "100019.455000", "100021.455000", "100023.455000", "100025.455000", "100027.455000", "100029.455000", "100031.455000", "100033.455000", "100035.455000", "100037.455000", "100039.455000", "100041.455000", "100043.455000", "100045.455000", "100047.455000", "100049.455000", "100051.455000", "100053.455000", "100055.455000", "100057.455000", "100059.455000", "100101.455000", "100103.455000", "100105.455000", "100107.455000", "100109.455000", "100111.455000", "100113.455000", "100115.455000", "100117.455000", "100119.455000", "100121.455000", "100123.455000", "100125.455000", "100127.455000", "100129.455000", "100131.455000", "100133.455000", "100135.455000", "100137.455000", "100139.455000", "100141.455000", "100143.455000", "100145.455000", "100147.455000", "100149.455000", "100151.455000", "100153.455000", "100155.455000", "100157.455000", "100159.455000", "100201.455000", "100203.455000", "100205.455000", "100207.455000", "100209.455000", "100211.455000", "100213.455000", "100215.455000", "100217.455000", "100219.455000", "100221.455000", "100223.455000", "100225.455000", "100227.455000", "100229.455000", "100231.455000", "100233.455000", "100235.455000", "100237.455000", "100239.455000", "100241.455000", "100243.455000", "100245.455000", "100247.455000", "100249.455000", "100251.455000", "100253.455000", "100255.455000", "100257.455000", "100259.455000", "100301.455000", "100303.455000", "100305.455000", "100307.455000", "100309.455000", "100311.455000", "100313.455000", "100315.455000", "100317.455000", "100319.455000", "100321.455000", "100323.455000", "100325.455000", "100327.455000", "100329.455000", "100331.455000", "100333.455000", "100335.455000", "100337.455000", "100339.455000", "100341.455000", "100343.455000", "100345.455000", "100347.455000", "100349.455000", "100351.455000", "100353.455000", "100355.455000", "100357.455000", "100359.455000", "100401.455000", "100403.455000", "100405.455000", "100407.455000", "100409.455000", "100411.455000", "100413.455000", "100415.455000", "100417.455000", "100419.455000", "100421.455000", "100423.455000", "100425.455000", "100427.455000", "100429.455000", "100431.455000", "100433.455000", "100435.455000", "100437.455000", "100439.455000", "100441.455000", "100443.455000", "100445.455000", "100447.455000", "100449.455000", "100451.455000", "100453.455000", "100455.455000", "100457.455000", "100459.455000", "100501.455000", "100503.455000", "100505.455000", "100507.455000", "100509.455000", "100511.455000", "100513.455000", "100515.455000", "100517.455000", "100519.455000", "100521.455000", "100523.455000", "100525.455000", "100527.455000", "100529.455000", "100531.455000", "100533.455000", "100535.455000", "100537.455000", "100539.455000", "100541.455000", "100543.455000", "100545.455000", "100547.455000", "100549.455000", "100551.455000", "100553.455000", "100555.455000", "100557.455000", "100559.455000", "100601.455000", "100603.455000", "100605.455000", "100607.455000", "100609.455000", "100611.455000", "100613.455000", "100615.455000", "100617.455000", "100619.455000", "100621.455000", "100623.455000", "100625.455000", "100627.455000", "100629.455000", "100631.455000", "100633.455000", "100635.455000", "100637.455000", "100639.455000"],
      "ContentTime": ["100051.561000", "100051.564000", "100051.566000", "100051.569000", "100051.571000", "100051.573000", "100051.576000", "100051.578000", "100051.580000", "100051.582000", "100051.585000", "100051.587000", "100051.589000", "100051.592000", "100051.594000", "100051.596000", "100051.598000", "100051.601000", "100051.608000", "100051.610000", "100051.619000", "100051.621000", "100051.624000", "100051.626000", "100051.628000", "100131.556000", "100131.559000", "100131.561000", "100131.563000", "100131.566000", "100131.568000", "100131.570000", "100131.572000", "100131.575000", "100131.577000", "100131.579000", "100131.581000", "100131.584000", "100131.586000", "100131.588000", "100131.591000", "100131.593000", "100131.595000", "100131.597000", "100131.600000", "100211.555000", "100211.567000", "100211.570000", "100211.572000", "100211.574000", "100211.576000", "100211.579000", "100211.581000", "100211.583000", "100211.585000", "100211.588000", "100211.590000", "100211.592000", "100211.595000", "100211.597000", "100211.599000", "100211.601000", "100211.604000", "100211.606000", "100211.608000", "100251.555000", "100251.558000", "100251.560000", "100251.562000", "100251.565000", "100251.567000", "100251.569000", "100251.571000", "100251.574000", "100251.576000", "100251.578000", "100251.580000", "100251.583000", "100251.585000", "100251.587000", "100251.590000", "100251.592000", "100251.594000", "100251.597000", "100251.599000", "100331.556000", "100331.559000", "100331.561000", "100331.563000", "100331.565000", "100331.568000", "100331.570000", "100331.572000", "100331.575000", "100331.577000", "100331.579000", "100331.581000", "100331.584000", "100331.586000", "100331.588000", "100331.590000", "100331.593000", "100331.595000", "100331.597000", "100331.600000", "100411.556000", "100411.559000", "100411.561000", "100411.563000", "100411.565000", "100411.568000", "100411.570000", "100411.572000", "100411.575000", "100411.577000", "100411.579000", "100411.581000", "100411.584000", "100411.586000", "100411.588000", "100411.591000", "100411.593000", "100411.595000", "100411.597000", "100411.600000", "100451.555000", "100451.558000", "100451.560000", "100451.562000", "100451.564000", "100451.567000", "100451.569000", "100451.571000", "100451.574000", "100451.576000", "100451.578000", "100451.581000", "100451.583000", "100451.585000", "100451.587000", "100451.590000", "100451.592000", "100451.594000", "100451.597000", "100451.599000", "100531.556000", "100531.559000", "100531.561000", "100531.563000", "100531.566000", "100531.568000", "100531.570000", "100531.573000", "100531.575000", "100531.577000", "100531.579000", "100531.582000", "100531.584000", "100531.586000", "100531.589000", "100531.591000", "100531.593000", "100531.596000", "100531.598000", "100531.600000", "100551.556000", "100551.559000", "100551.561000", "100551.563000", "100551.566000", "100551.568000", "100551.570000", "100551.573000", "100551.575000", "100551.577000", "100631.555000", "100631.558000", "100631.560000", "100631.562000", "100631.565000", "100631.567000", "100631.569000", "100631.572000", "100631.574000", "100631.576000", "100631.578000", "100631.581000", "100631.583000", "100631.585000", "100631.588000", "100631.590000", "100631.592000", "100631.594000", "100631.597000", "100631.599000", "100640.834000", "100640.837000", "100640.839000", "100640.842000", "100640.844000"],
      "InstanceCreationTime": ["100051.561000", "100051.564000", "100051.566000", "100051.569000", "100051.571000", "100051.573000", "100051.576000", "100051.578000", "100051.580000", "100051.582000", "100051.585000", "100051.587000", "100051.589000", "100051.592000", "100051.594000", "100051.596000", "100051.598000", "100051.601000", "100051.608000", "100051.610000", "100051.619000", "100051.621000", "100051.624000", "100051.626000", "100051.628000", "100131.556000", "100131.559000", "100131.561000", "100131.563000", "100131.566000", "100131.568000", "100131.570000", "100131.572000", "100131.575000", "100131.577000", "100131.579000", "100131.581000", "100131.584000", "100131.586000", "100131.588000", "100131.591000", "100131.593000", "100131.595000", "100131.597000", "100131.600000", "100211.555000", "100211.567000", "100211.570000", "100211.572000", "100211.574000", "100211.576000", "100211.579000", "100211.581000", "100211.583000", "100211.585000", "100211.588000", "100211.590000", "100211.592000", "100211.595000", "100211.597000", "100211.599000", "100211.601000", "100211.604000", "100211.606000", "100211.608000", "100251.555000", "100251.558000", "100251.560000", "100251.562000", "100251.565000", "100251.567000", "100251.569000", "100251.571000", "100251.574000", "100251.576000", "100251.578000", "100251.580000", "100251.583000", "100251.585000", "100251.587000", "100251.590000", "100251.592000", "100251.594000", "100251.597000", "100251.599000", "100331.556000", "100331.559000", "100331.561000", "100331.563000", "100331.565000", "100331.568000", "100331.570000", "100331.572000", "100331.575000", "100331.577000", "100331.579000", "100331.581000", "100331.584000", "100331.586000", "100331.588000", "100331.590000", "100331.593000", "100331.595000", "100331.597000", "100331.600000", "100411.556000", "100411.559000", "100411.561000", "100411.563000", "100411.565000", "100411.568000", "100411.570000", "100411.572000", "100411.575000", "100411.577000", "100411.579000", "100411.581000", "100411.584000", "100411.586000", "100411.588000", "100411.591000", "100411.593000", "100411.595000", "100411.597000", "100411.600000", "100451.555000", "100451.558000", "100451.560000", "100451.562000", "100451.564000", "100451.567000", "100451.569000", "100451.571000", "100451.574000", "100451.576000", "100451.578000", "100451.581000", "100451.583000", "100451.585000", "100451.587000", "100451.590000", "100451.592000", "100451.594000", "100451.597000", "100451.599000", "100531.556000", "100531.559000", "100531.561000", "100531.563000", "100531.566000", "100531.568000", "100531.570000", "100531.573000", "100531.575000", "100531.577000", "100531.579000", "100531.582000", "100531.584000", "100531.586000", "100531.589000", "100531.591000", "100531.593000", "100531.596000", "100531.598000", "100531.600000", "100551.556000", "100551.559000", "100551.561000", "100551.563000", "100551.566000", "100551.568000", "100551.570000", "100551.573000", "100551.575000", "100551.577000", "100631.555000", "100631.558000", "100631.560000", "100631.562000", "100631.565000", "100631.567000", "100631.569000", "100631.572000", "100631.574000", "100631.576000", "100631.578000", "100631.581000", "100631.583000", "100631.585000", "100631.588000", "100631.590000", "100631.592000", "100631.594000", "100631.597000", "100631.599000", "100640.834000", "100640.837000", "100640.839000", "100640.842000", "100640.844000"],
      "InstanceNumber": [1, 2, 3, 4, 5, 6, 7, 8, 9, 10, 11, 12, 13, 14, 15, 16, 17, 18, 19, 20, 21, 22, 23, 24, 25, 26, 27, 28, 29, 30, 31, 32, 33, 34, 35, 36, 37, 38, 39, 40, 41, 42, 43, 44, 45, 46, 47, 48, 49, 50, 51, 52, 53, 54, 55, 56, 57, 58, 59, 60, 61, 62, 63, 64, 65, 66, 67, 68, 69, 70, 71, 72, 73, 74, 75, 76, 77, 78, 79, 80, 81, 82, 83, 84, 85, 86, 87, 88, 89, 90, 91, 92, 93, 94, 95, 96, 97, 98, 99, 100, 101, 102, 103, 104, 105, 106, 107, 108, 109, 110, 111, 112, 113, 114, 115, 116, 117, 118, 119, 120, 121, 122, 123, 124, 125, 126, 127, 128, 129, 130, 131, 132, 133, 134, 135, 136, 137, 138, 139, 140, 141, 142, 143, 144, 145, 146, 147, 148, 149, 150, 151, 152, 153, 154, 155, 156, 157, 158, 159, 160, 161, 162, 163, 164, 165, 166, 167, 168, 169, 170, 171, 172, 173, 174, 175, 176, 177, 178, 179, 180, 181, 182, 183, 184, 185, 186, 187, 188, 189, 190, 191, 192, 193, 194, 195, 196, 197, 198, 199, 200],
      "LargestImagePixelValue": [371, 373, 372, 366, 369, 371, 369, 371, 370, 370, 372, 374, 372, 369, 371, 370, 373, 368, 375, 374, 372, 372, 371, 370, 369, 370, 372, 373, 372, 370, 370, 370, 374, 372, 369, 369, 372, 370, 371, 372, 370, 370, 369, 371, 372, 371, 371, 371, 370, 370, 369, 367, 369, 370, 371, 370, 372, 371, 371, 373, 374, 370, 370, 374, 373, 369, 371, 370, 368, 367, 370, 371, 369, 371, 371, 370, 374, 369, 371, 371, 371, 371, 368, 372, 370, 369, 372, 372, 370, 372, 367, 369, 371, 367, 371, 369, 369, 371, 371, 369, 367, 372, 372, 370, 371, 370, 370, 372, 370, 369, 374, 370, 371, 371, 370, 374, 371, 370, 370, 371, 369, 369, 369, 368, 369, 369, 370, 373, 370, 369, 369, 368, 368, 377, 371, 373, 372, 368, 369, 373, 369, 369, 369, 368, 369, 373, 371, 371, 367, 370, 368, 370, 369, 369, 367, 367, 370, 367, 369, 371, 369, 368, 370, 368, 370, 370, 374, 370, 368, 369, 372, 369, 369, 368, 369, 370, 368, 372, 368, 369, 369, 370, 370, 369, 371, 368, 367, 369, 372, 367, 368, 368, 371, 369, 366, 369, 369, 369, 369, 370],
      "WindowCenter": [306.0, 306.0, 306.0, 305.0, 306.0, 306.0, 305.0, 306.0, 306.0, 306.0, 306.0, 306.0, 306.0, 306.0, 306.0, 306.0, 306.0, 305.0, 306.0, 306.0, 306.0, 306.0, 306.0, 306.0, 306.0, 306.0, 306.0, 306.0, 306.0, 306.0, 306.0, 306.0, 306.0, 306.0, 305.0, 306.0, 306.0, 306.0, 306.0, 306.0, 306.0, 306.0, 305.0, 306.0, 306.0, 306.0, 306.0, 306.0, 306.0, 306.0, 306.0, 305.0, 305.0, 306.0, 306.0, 306.0, 306.0, 306.0, 306.0, 306.0, 306.0, 306.0, 306.0, 306.0, 306.0, 305.0, 306.0, 306.0, 305.0, 305.0, 306.0, 306.0, 305.0, 306.0, 306.0, 306.0, 306.0, 305.0, 306.0, 306.0, 306.0, 306.0, 305.0, 306.0, 306.0, 305.0, 306.0, 306.0, 306.0, 306.0, 305.0, 305.0, 306.0, 305.0, 306.0, 305.0, 305.0, 306.0, 306.0, 306.0, 305.0, 306.0, 306.0, 306.0, 306.0, 306.0, 306.0, 306.0, 306.0, 305.0, 306.0, 306.0, 306.0, 306.0, 305.0, 305.0, 305.0, 306.0, 305.0, 305.0, 305.0, 306.0, 304.0, 305.0, 305.0, 305.0, 305.0, 306.0, 306.0, 304.0, 305.0, 305.0, 305.0, 305.0, 305.0, 306.0, 305.0, 304.0, 305.0, 305.0, 304.0, 305.0, 305.0, 304.0, 305.0, 305.0, 305.0, 305.0, 304.0, 305.0, 305.0, 305.0, 305.0, 305.0, 305.0, 305.0, 305.0, 305.0, 304.0, 305.0, 304.0, 304.0, 305.0, 305.0, 305.0, 305.0, 305.0, 305.0, 305.0, 304.0, 305.0, 305.0, 305.0, 305.0, 305.0, 305.0, 306.0, 305.0, 305.0, 305.0, 305.0, 305.0, 305.0, 305.0, 305.0, 304.0, 305.0, 305.0, 305.0, 304.0, 305.0, 304.0, 305.0, 305.0, 304.0, 304.0, 305.0, 304.0, 305.0, 305.0],
      "WindowWidth": [661.0, 662.0, 661.0, 661.0, 661.0, 662.0, 660.0, 662.0, 661.0, 661.0, 662.0, 662.0, 661.0, 661.0, 662.0, 662.0, 661.0, 660.0, 661.0, 661.0, 661.0, 662.0, 661.0, 661.0, 661.0, 661.0, 662.0, 661.0, 662.0, 661.0, 661.0, 661.0, 661.0, 661.0, 661.0, 661.0, 662.0, 661.0, 661.0, 662.0, 661.0, 661.0, 660.0, 661.0, 661.0, 661.0, 661.0, 662.0, 661.0, 661.0, 661.0, 660.0, 660.0, 661.0, 661.0, 662.0, 661.0, 662.0, 661.0, 661.0, 661.0, 661.0, 661.0, 661.0, 661.0, 660.0, 661.0, 661.0, 660.0, 660.0, 661.0, 661.0, 660.0, 661.0, 661.0, 661.0, 661.0, 660.0, 661.0, 661.0, 661.0, 661.0, 660.0, 661.0, 661.0, 660.0, 661.0, 661.0, 661.0, 661.0, 660.0, 659.0, 661.0, 660.0, 661.0, 660.0, 660.0, 661.0, 661.0, 661.0, 660.0, 661.0, 661.0, 661.0, 661.0, 661.0, 661.0, 661.0, 661.0, 660.0, 661.0, 661.0, 661.0, 661.0, 660.0, 660.0, 660.0, 661.0, 660.0, 660.0, 660.0, 660.0, 659.0, 659.0, 659.0, 660.0, 660.0, 661.0, 661.0, 659.0, 660.0, 660.0, 660.0, 660.0, 660.0, 661.0, 660.0, 659.0, 659.0, 660.0, 659.0, 659.0, 659.0, 659.0, 659.0, 660.0, 660.0, 660.0, 659.0, 660.0, 659.0, 660.0, 659.0, 659.0, 660.0, 660.0, 660.0, 660.0, 658.0, 660.0, 659.0, 658.0, 660.0, 659.0, 660.0, 660.0, 660.0, 660.0, 659.0, 659.0, 660.0, 659.0, 660.0, 659.0, 659.0, 660.0, 660.0, 660.0, 659.0, 659.0, 659.0, 660.0, 660.0, 659.0, 660.0, 659.0, 660.0, 659.0, 659.0, 659.0, 659.0, 659.0, 660.0, 659.0, 659.0, 659.0, 659.0, 659.0, 659.0, 660.0]
    },
    "slices": {}
  }
}