{
  "AcquisitionMatrixPE": 80,
  "AcquisitionNumber": 1,
  "AcquisitionTime": "09:15:38.562500",
  "BandwidthPerPixelPhaseEncode": 25,
  "BaseResolution": 80,
  "BodyPartExamined": "BRAIN",
  "CoilCombinationMethod": "Sum of Squares",
  "ConsistencyInfo": "N4_VE11C_LATEST_20160120",
  "ConversionSoftware": "dcm2niix",
  "ConversionSoftwareVersion": "v1.0.20220720",
  "DerivedVendorReportedEchoSpacing": 0.0005,
  "DeviceSerialNumber": "66112",
  "DwellTime": 2.7e-06,
  "EchoTime": 0.03,
  "EchoTrainLength": 80,
  "EffectiveEchoSpacing": 0.0005,
  "FlipAngle": 77,
  "HeudiconvVersion": "0.13.1",
  "ImageOrientationPatientDICOM": [0.995845, -0.090915, 0.00514118, 0.0864247, 0.961427, 0.261128],
  "ImageOrientationText": "Tra>Cor(15.1)>Sag(1.6)",
  "ImageType": [
    "ORIGINAL",
    "PRIMARY",
    "M",
    "ND",
    "NORM",
    "MOSAIC"
],
  "ImagingFrequency": 123.252,
  "InPlanePhaseEncodingDirectionDICOM": "COL",
  "InstitutionAddress": "Maynard 3,Hanover,NH,US,03755",
  "InstitutionName": "Dartmouth College - PBS",
  "InstitutionalDepartmentName": "Department",
  "MRAcquisitionType": "2D",
  "MagneticFieldStrength": 3,
  "Manufacturer": "Siemens",
  "ManufacturersModelName": "Prisma",
  "MatrixCoilMode": "SENSE",
  "Modality": "MR",
  "NonlinearGradientCorrection": false,
  "PartialFourier": 1,
  "PatientPosition": "HFS",
  "PercentPhaseFOV": 100,
  "PercentSampling": 100,
  "PhaseEncodingDirection": "j-",
  "PhaseEncodingSteps": 80,
  "PhaseResolution": 1,
  "PixelBandwidth": 2315,
  "ProcedureStepDescription": "dbic^QA",
  "ProtocolName": "func-bold_fa-77",
  "PulseSequenceDetails": "%SiemensSeq%\\ep2d_bold",
  "ReceiveCoilActiveElements": "HC1-7;NC1,2",
  "ReceiveCoilName": "HeadNeck_64",
  "ReconMatrixPE": 80,
  "RepetitionTime": 2,
  "SAR": 0.0265488,
  "ScanOptions": "FS",
  "ScanningSequence": "EP",
  "SequenceName": "*epfid2d1_80",
  "SequenceVariant": "SK",
  "SeriesDescription": "func-bold_fa-77",
  "SeriesNumber": 7,
  "ShimSetting": [4137, -7674, -7504, 187, -48, -338, -45, 84],
  "SliceThickness": 3.5,
  "SliceTiming": [0.99, 0, 1.0575, 0.0675, 1.1225, 0.1325, 1.1875, 0.1975, 1.255, 0.265, 1.32, 0.33, 1.3875, 0.3975, 1.4525, 0.4625, 1.5175, 0.5275, 1.585, 0.595, 1.65, 0.66, 1.7175, 0.7275, 1.7825, 0.7925, 1.8475, 0.8575, 1.915, 0.925],
  "SoftwareVersions": "syngo MR E11",
  "SpacingBetweenSlices": 3.99,
  "StationName": "AWP66112",
  "TotalReadoutTime": 0.0395,
  "TxRefAmp": 221.043,
  "dcmmeta_affine": [
    [-2.9875361919403076, 0.2592741549015045, 0.11444660276174545, 109.36689758300781],
    [0.2727449834346771, 2.884282350540161, 1.0358009338378906, -121.02703857421875],
    [0.015423533506691456, -0.7833852767944336, 3.851508617401123, -57.67964553833008],
    [0.0, 0.0, 0.0, 1.0]
],
  "dcmmeta_reorient_transform": [
    [0.0, -1.0, 0.0, 79.0],
    [1.0, 0.0, 0.0, 0.0],
    [0.0, 0.0, 1.0, 0.0],
    [0.0, 0.0, 0.0, 1.0]
],
  "dcmmeta_shape": [80, 80, 30, 200],
  "dcmmeta_slice_dim": 2,
  "dcmmeta_version": 0.6,
  "global": {
    "const": {
      "AccessionNumber": "qa64",
      "AcquisitionMatrix": [80, 0, 0, 80],
      "AngioFlag": "N",
      "BitsAllocated": 16,
      "BitsStored": 12,
      "BodyPartExamined": "BRAIN",
      "Columns": 480,
      "EchoNumbers": 1,
      "EchoTime": 30.0,
      "EchoTrainLength": 80,
      "FlipAngle": 77.0,
      "HighBit": 11,
      "ImageOrientationPatient": [0.9958453858039, -0.0909149925209, 0.00514117768672, 0.08642472171796, 0.96142743422934, 0.26112842853116],
      "ImagePositionPatient": [-779.21161996765, -629.13872927222, -279.32884731183],
      "ImageType": [
        "ORIGINAL",
        "PRIMARY",
        "M",
        "ND",
        "NORM",
        "MOSAIC"
],
      "ImagedNucleus": "1H",
      "ImagingFrequency": 123.25236,
      "InPlanePhaseEncodingDirection": "COL",
      "MRAcquisitionType": "2D",
      "MagneticFieldStrength": 3.0,
      "Manufacturer": "SIEMENS",
      "ManufacturerModelName": "Prisma",
      "Modality": "MR",
      "NumberOfAverages": 1.0,
      "NumberOfPhaseEncodingSteps": 80,
      "PercentPhaseFieldOfView": 100.0,
      "PercentSampling": 100.0,
      "PerformedProcedureStepStartTime": "084545.160000",
      "PhotometricInterpretation": "MONOCHROME2",
      "PixelBandwidth": 2315.0,
      "PixelRepresentation": 0,
      "PixelSpacing": [3.0, 3.0],
      "ProtocolName": "func-bold_fa-77",
      "RepetitionTime": 2000.0,
      "Rows": 480,
      "SAR": 0.02654884191816,
      "SamplesPerPixel": 1,
      "ScanOptions": "FS",
      "ScanningSequence": "EP",
      "SequenceName": "*epfid2d1_80",
      "SequenceVariant": "SK",
      "SeriesDescription": "func-bold_fa-77",
      "SeriesNumber": 7,
      "SeriesTime": "091629.776000",
      "SliceLocation": -83.959121438702,
      "SliceThickness": 3.5,
      "SmallestImagePixelValue": 0,
      "SoftwareVersions": "syngo MR E11",
      "SpacingBetweenSlices": 3.9900000966299,
      "SpecificCharacterSet": "ISO_IR 100",
      "StudyID": "8",
      "StudyTime": "084545.071000",
      "TransmitCoilName": "Body",
      "VariableFlipAngleFlag": "N",
      "WindowCenterWidthExplanation": "Algo1",
      "dBdt": 0.0},
    "slices": {}
  },
  "time": {
    "samples": {
      "AcquisitionNumber": [1, 2, 3, 4, 5, 6, 7, 8, 9, 10, 11, 12, 13, 14, 15, 16, 17, 18, 19, 20, 21, 22, 23, 24, 25, 26, 27, 28, 29, 30, 31, 32, 33, 34, 35, 36, 37, 38, 39, 40, 41, 42, 43, 44, 45, 46, 47, 48, 49, 50, 51, 52, 53, 54, 55, 56, 57, 58, 59, 60, 61, 62, 63, 64, 65, 66, 67, 68, 69, 70, 71, 72, 73, 74, 75, 76, 77, 78, 79, 80, 81, 82, 83, 84, 85, 86, 87, 88, 89, 90, 91, 92, 93, 94, 95, 96, 97, 98, 99, 100, 101, 102, 103, 104, 105, 106, 107, 108, 109, 110, 111, 112, 113, 114, 115, 116, 117, 118, 119, 120, 121, 122, 123, 124, 125, 126, 127, 128, 129, 130, 131, 132, 133, 134, 135, 136, 137, 138, 139, 140, 141, 142, 143, 144, 145, 146, 147, 148, 149, 150, 151, 152, 153, 154, 155, 156, 157, 158, 159, 160, 161, 162, 163, 164, 165, 166, 167, 168, 169, 170, 171, 172, 173, 174, 175, 176, 177, 178, 179, 180, 181, 182, 183, 184, 185, 186, 187, 188, 189, 190, 191, 192, 193, 194, 195, 196, 197, 198, 199, 200],
      "AcquisitionTime": ["091538.562500", "091540.562500", "091542.562500", "091544.562500", "091546.562500", "091548.562500", "091550.562500", "091552.562500", "091554.562500", "091556.562500", "091558.562500", "091600.562500", "091602.562500", "091604.562500", "091606.562500", "091608.562500", "091610.562500", "091612.562500", "091614.562500", "091616.562500", "091618.562500", "091620.562500", "091622.562500", "091624.562500", "091626.562500", "091628.562500", "091630.562500", "091632.562500", "091634.562500", "091636.562500", "091638.562500", "091640.562500", "091642.562500", "091644.562500", "091646.562500", "091648.562500", "091650.562500", "091652.562500", "091654.562500", "091656.562500", "091658.562500", "091700.562500", "091702.562500", "091704.562500", "091706.562500", "091708.562500", "091710.562500", "091712.562500", "091714.562500", "091716.562500", "091718.562500", "091720.562500", "091722.562500", "091724.562500", "091726.562500", "091728.562500", "091730.562500", "091732.562500", "091734.562500", "091736.562500", "091738.562500", "091740.562500", "091742.562500", "091744.562500", "091746.562500", "091748.562500", "091750.562500", "091752.562500", "091754.562500", "091756.562500", "091758.562500", "091800.562500", "091802.562500", "091804.562500", "091806.562500", "091808.562500", "091810.562500", "091812.562500", "091814.562500", "091816.562500", "091818.562500", "091820.562500", "091822.562500", "091824.562500", "091826.562500", "091828.562500", "091830.562500", "091832.562500", "091834.562500", "091836.562500", "091838.562500", "091840.562500", "091842.562500", "091844.562500", "091846.562500", "091848.562500", "091850.562500", "091852.562500", "091854.562500", "091856.562500", "091858.562500", "091900.562500", "091902.562500", "091904.562500", "091906.562500", "091908.562500", "091910.562500", "091912.562500", "091914.562500", "091916.562500", "091918.562500", "091920.562500", "091922.562500", "091924.562500", "091926.562500", "091928.562500", "091930.562500", "091932.562500", "091934.562500", "091936.562500", "091938.562500", "091940.562500", "091942.562500", "091944.562500", "091946.562500", "091948.562500", "091950.562500", "091952.562500", "091954.562500", "091956.562500", "091958.562500", "092000.562500", "092002.562500", "092004.562500", "092006.562500", "092008.562500", "092010.562500", "092012.562500", "092014.562500", "092016.562500", "092018.562500", "092020.562500", "092022.562500", "092024.562500", "092026.562500", "092028.562500", "092030.562500", "092032.562500", "092034.562500", "092036.562500", "092038.562500", "092040.562500", "092042.562500", "092044.562500", "092046.562500", "092048.562500", "092050.562500", "092052.562500", "092054.562500", "092056.562500", "092058.562500", "092100.562500", "092102.562500", "092104.562500", "092106.562500", "092108.562500", "092110.562500", "092112.562500", "092114.562500", "092116.562500", "092118.562500", "092120.562500", "092122.562500", "092124.562500", "092126.562500", "092128.562500", "092130.562500", "092132.562500", "092134.562500", "092136.562500", "092138.562500", "092140.562500", "092142.562500", "092144.562500", "092146.562500", "092148.562500", "092150.562500", "092152.562500", "092154.562500", "092156.562500", "092158.562500", "092200.562500", "092202.562500", "092204.562500", "092206.562500", "092208.562500", "092210.562500", "092212.562500", "092214.562500", "092216.562500"],
      "ContentTime": ["091629.779000", "091629.783000", "091629.789000", "091629.792000", "091629.795000", "091629.797000", "091629.800000", "091629.811000", "091629.813000", "091629.816000", "091629.819000", "091629.821000", "091629.824000", "091629.826000", "091629.829000", "091629.832000", "091629.834000", "091629.837000", "091629.839000", "091629.842000", "091629.845000", "091629.847000", "091629.850000", "091629.852000", "091629.855000", "091709.774000", "091709.777000", "091709.780000", "091709.783000", "091709.785000", "091709.788000", "091709.791000", "091709.793000", "091709.796000", "091709.798000", "091709.801000", "091709.804000", "091709.806000", "091709.809000", "091709.811000", "091709.814000", "091709.817000", "091709.819000", "091709.822000", "091709.824000", "091749.775000", "091749.777000", "091749.780000", "091749.783000", "091749.785000", "091749.788000", "091749.791000", "091749.793000", "091749.796000", "091749.798000", "091749.801000", "091749.804000", "091749.806000", "091749.809000", "091749.811000", "091749.814000", "091749.816000", "091749.819000", "091749.822000", "091749.824000", "091829.774000", "091829.776000", "091829.779000", "091829.782000", "091829.784000", "091829.787000", "091829.790000", "091829.792000", "091829.795000", "091829.797000", "091829.800000", "091829.802000", "091829.805000", "091829.808000", "091829.810000", "091829.813000", "091829.815000", "091829.818000", "091829.821000", "091829.823000", "091909.775000", "091909.777000", "091909.780000", "091909.783000", "091909.785000", "091909.788000", "091909.791000", "091909.793000", "091909.796000", "091909.798000", "091909.801000", "091909.804000", "091909.806000", "091909.809000", "091909.811000", "091909.814000", "091909.816000", "091909.819000", "091909.822000", "091909.824000", "091949.775000", "091949.777000", "091949.780000", "091949.783000", "091949.786000", "091949.788000", "091949.791000", "091949.793000", "091949.796000", "091949.798000", "091949.801000", "091949.804000", "091949.806000", "091949.809000", "091949.812000", "091949.814000", "091949.817000", "091949.819000", "091949.822000", "091949.825000", "092029.775000", "092029.778000", "092029.780000", "092029.783000", "092029.797000", "092029.799000", "092029.802000", "092029.805000", "092029.807000", "092029.810000", "092029.813000", "092029.815000", "092029.818000", "092029.820000", "092029.823000", "092029.826000", "092029.828000", "092029.831000", "092029.833000", "092029.836000", "092109.775000", "092109.802000", "092109.804000", "092109.807000", "092109.810000", "092109.812000", "092109.815000", "092109.818000", "092109.820000", "092109.823000", "092109.825000", "092109.828000", "092109.831000", "092109.833000", "092109.836000", "092109.838000", "092109.841000", "092109.843000", "092109.846000", "092109.849000", "092149.775000", "092149.777000", "092149.780000", "092149.783000", "092149.785000", "092149.788000", "092149.791000", "092149.793000", "092149.796000", "092149.799000", "092149.801000", "092149.804000", "092149.806000", "092149.809000", "092149.812000", "092149.814000", "092149.817000", "092149.819000", "092149.822000", "092149.825000", "092218.535000", "092218.538000", "092218.541000", "092218.543000", "092218.546000", "092218.549000", "092218.551000", "092218.554000", "092218.557000", "092218.559000", "092218.562000", "092218.565000", "092218.572000", "092218.575000", "092218.579000"],
      "InstanceCreationTime": ["091629.779000", "091629.783000", "091629.789000", "091629.792000", "091629.795000", "091629.797000", "091629.800000", "091629.811000", "091629.813000", "091629.816000", "091629.819000", "091629.821000", "091629.824000", "091629.826000", "091629.829000", "091629.832000", "091629.834000", "091629.837000", "091629.839000", "091629.842000", "091629.845000", "091629.847000", "091629.850000", "091629.852000", "091629.855000", "091709.774000", "091709.777000", "091709.780000", "091709.783000", "091709.785000", "091709.788000", "091709.791000", "091709.793000", "091709.796000", "091709.798000", "091709.801000", "091709.804000", "091709.806000", "091709.809000", "091709.811000", "091709.814000", "091709.817000", "091709.819000", "091709.822000", "091709.824000", "091749.775000", "091749.777000", "091749.780000", "091749.783000", "091749.785000", "091749.788000", "091749.791000", "091749.793000", "091749.796000", "091749.798000", "091749.801000", "091749.804000", "091749.806000", "091749.809000", "091749.811000", "091749.814000", "091749.816000", "091749.819000", "091749.822000", "091749.824000", "091829.774000", "091829.776000", "091829.779000", "091829.782000", "091829.784000", "091829.787000", "091829.790000", "091829.792000", "091829.795000", "091829.797000", "091829.800000", "091829.802000", "091829.805000", "091829.808000", "091829.810000", "091829.813000", "091829.815000", "091829.818000", "091829.821000", "091829.823000", "091909.775000", "091909.777000", "091909.780000", "091909.783000", "091909.785000", "091909.788000", "091909.791000", "091909.793000", "091909.796000", "091909.798000", "091909.801000", "091909.804000", "091909.806000", "091909.809000", "091909.811000", "091909.814000", "091909.816000", "091909.819000", "091909.822000", "091909.824000", "091949.775000", "091949.777000", "091949.780000", "091949.783000", "091949.786000", "091949.788000", "091949.791000", "091949.793000", "091949.796000", "091949.798000", "091949.801000", "091949.804000", "091949.806000", "091949.809000", "091949.812000", "091949.814000", "091949.817000", "091949.819000", "091949.822000", "091949.825000", "092029.775000", "092029.778000", "092029.780000", "092029.783000", "092029.797000", "092029.799000", "092029.802000", "092029.805000", "092029.807000", "092029.810000", "092029.813000", "092029.815000", "092029.818000", "092029.820000", "092029.823000", "092029.826000", "092029.828000", "092029.831000", "092029.833000", "092029.836000", "092109.775000", "092109.802000", "092109.804000", "092109.807000", "092109.810000", "092109.812000", "092109.815000", "092109.818000", "092109.820000", "092109.823000", "092109.825000", "092109.828000", "092109.831000", "092109.833000", "092109.836000", "092109.838000", "092109.841000", "092109.843000", "092109.846000", "092109.849000", "092149.775000", "092149.777000", "092149.780000", "092149.783000", "092149.785000", "092149.788000", "092149.791000", "092149.793000", "092149.796000", "092149.799000", "092149.801000", "092149.804000", "092149.806000", "092149.809000", "092149.812000", "092149.814000", "092149.817000", "092149.819000", "092149.822000", "092149.825000", "092218.535000", "092218.538000", "092218.541000", "092218.543000", "092218.546000", "092218.549000", "092218.551000", "092218.554000", "092218.557000", "092218.559000", "092218.562000", "092218.565000", "092218.572000", "092218.575000", "092218.579000"],
      "InstanceNumber": [1, 2, 3, 4, 5, 6, 7, 8, 9, 10, 11, 12, 13, 14, 15, 16, 17, 18, 19, 20, 21, 22, 23, 24, 25, 26, 27, 28, 29, 30, 31, 32, 33, 34, 35, 36, 37, 38, 39, 40, 41, 42, 43, 44, 45, 46, 47, 48, 49, 50, 51, 52, 53, 54, 55, 56, 57, 58, 59, 60, 61, 62, 63, 64, 65, 66, 67, 68, 69, 70, 71, 72, 73, 74, 75, 76, 77, 78, 79, 80, 81, 82, 83, 84, 85, 86, 87, 88, 89, 90, 91, 92, 93, 94, 95, 96, 97, 98, 99, 100, 101, 102, 103, 104, 105, 106, 107, 108, 109, 110, 111, 112, 113, 114, 115, 116, 117, 118, 119, 120, 121, 122, 123, 124, 125, 126, 127, 128, 129, 130, 131, 132, 133, 134, 135, 136, 137, 138, 139, 140, 141, 142, 143, 144, 145, 146, 147, 148, 149, 150, 151, 152, 153, 154, 155, 156, 157, 158, 159, 160, 161, 162, 163, 164, 165, 166, 167, 168, 169, 170, 171, 172, 173, 174, 175, 176, 177, 178, 179, 180, 181, 182, 183, 184, 185, 186, 187, 188, 189, 190, 191, 192, 193, 194, 195, 196, 197, 198, 199, 200],
      "LargestImagePixelValue": [3658, 3659, 3661, 3663, 3659, 3659, 3660, 3658, 3657, 3662, 3660, 3661, 3659, 3664, 3656, 3666, 3657, 3658, 3660, 3664, 3661, 3659, 3662, 3658, 3657, 3656, 3659, 3656, 3654, 3661, 3660, 3659, 3655, 3656, 3658, 3658, 3664, 3658, 3661, 3653, 3655, 3657, 3655, 3656, 3656, 3652, 3656, 3654, 3653, 3660, 3654, 3653, 3653, 3657, 3649, 3648, 3650, 3649, 3653, 3657, 3657, 3657, 3655, 3654, 3652, 3651, 3657, 3653, 3658, 3657, 3652, 3656, 3657, 3650, 3650, 3650, 3650, 3657, 3655, 3661, 3649, 3651, 3651, 3652, 3662, 3657, 3656, 3649, 3644, 3647, 3651, 3653, 3659, 3661, 3657, 3662, 3651, 3659, 3660, 3659, 3656, 3656, 3654, 3659, 3657, 3655, 3661, 3661, 3657, 3658, 3652, 3653, 3655, 3651, 3654, 3656, 3656, 3652, 3656, 3653, 3660, 3658, 3659, 3660, 3663, 3656, 3658, 3658, 3656, 3658, 3658, 3658, 3660, 3655, 3655, 3659, 3658, 3656, 3656, 3656, 3654, 3658, 3659, 3657, 3653, 3656, 3652, 3657, 3658, 3655, 3658, 3653, 3654, 3653, 3654, 3654, 3655, 3654, 3654, 3659, 3654, 3656, 3655, 3656, 3653, 3654, 3656, 3651, 3656, 3657, 3654, 3657, 3652, 3655, 3658, 3656, 3656, 3649, 3655, 3657, 3652, 3656, 3654, 3659, 3651, 3655, 3653, 3655, 3658, 3656, 3654, 3653, 3654, 3655, 3657, 3655, 3657, 3653, 3655, 3657],
      "WindowCenter": [1361.0, 1362.0, 1362.0, 1362.0, 1362.0, 1362.0, 1361.0, 1362.0, 1361.0, 1362.0, 1361.0, 1362.0, 1362.0, 1362.0, 1362.0, 1362.0, 1362.0, 1362.0, 1361.0, 1362.0, 1361.0, 1361.0, 1361.0, 1361.0, 1361.0, 1361.0, 1360.0, 1361.0, 1361.0, 1361.0, 1360.0, 1361.0, 1360.0, 1360.0, 1361.0, 1360.0, 1360.0, 1361.0, 1360.0, 1361.0, 1360.0, 1360.0, 1360.0, 1360.0, 1360.0, 1360.0, 1360.0, 1360.0, 1360.0, 1359.0, 1360.0, 1360.0, 1360.0, 1360.0, 1360.0, 1360.0, 1360.0, 1360.0, 1360.0, 1360.0, 1359.0, 1359.0, 1360.0, 1360.0, 1360.0, 1359.0, 1360.0, 1360.0, 1361.0, 1361.0, 1361.0, 1361.0, 1360.0, 1360.0, 1359.0, 1359.0, 1360.0, 1361.0, 1361.0, 1359.0, 1359.0, 1359.0, 1359.0, 1360.0, 1360.0, 1360.0, 1360.0, 1359.0, 1359.0, 1358.0, 1359.0, 1360.0, 1359.0, 1360.0, 1360.0, 1360.0, 1359.0, 1360.0, 1360.0, 1360.0, 1360.0, 1360.0, 1360.0, 1359.0, 1360.0, 1360.0, 1360.0, 1360.0, 1359.0, 1359.0, 1359.0, 1360.0, 1360.0, 1360.0, 1360.0, 1360.0, 1359.0, 1359.0, 1360.0, 1359.0, 1359.0, 1360.0, 1360.0, 1360.0, 1359.0, 1360.0, 1360.0, 1360.0, 1360.0, 1360.0, 1360.0, 1359.0, 1360.0, 1359.0, 1359.0, 1359.0, 1359.0, 1359.0, 1359.0, 1359.0, 1359.0, 1359.0, 1359.0, 1359.0, 1360.0, 1359.0, 1359.0, 1360.0, 1359.0, 1360.0, 1359.0, 1359.0, 1359.0, 1359.0, 1359.0, 1359.0, 1359.0, 1359.0, 1359.0, 1359.0, 1358.0, 1359.0, 1359.0, 1359.0, 1359.0, 1359.0, 1359.0, 1359.0, 1359.0, 1359.0, 1359.0, 1358.0, 1358.0, 1359.0, 1359.0, 1359.0, 1358.0, 1358.0, 1358.0, 1358.0, 1358.0, 1358.0, 1358.0, 1358.0, 1358.0, 1358.0, 1358.0, 1358.0, 1358.0, 1357.0, 1357.0, 1358.0, 1357.0, 1358.0, 1358.0, 1358.0, 1358.0, 1359.0, 1358.0, 1358.0],
      "WindowWidth": [3256.0, 3256.0, 3256.0, 3255.0, 3255.0, 3255.0, 3256.0, 3255.0, 3256.0, 3255.0, 3256.0, 3255.0, 3255.0, 3255.0, 3255.0, 3255.0, 3255.0, 3255.0, 3255.0, 3255.0, 3255.0, 3255.0, 3255.0, 3255.0, 3254.0, 3254.0, 3255.0, 3254.0, 3253.0, 3254.0, 3254.0, 3254.0, 3254.0, 3254.0, 3254.0, 3254.0, 3255.0, 3255.0, 3255.0, 3255.0, 3255.0, 3255.0, 3255.0, 3254.0, 3254.0, 3253.0, 3253.0, 3253.0, 3253.0, 3253.0, 3253.0, 3253.0, 3253.0, 3254.0, 3253.0, 3253.0, 3253.0, 3253.0, 3253.0, 3253.0, 3253.0, 3253.0, 3253.0, 3253.0, 3253.0, 3252.0, 3252.0, 3254.0, 3254.0, 3254.0, 3254.0, 3254.0, 3254.0, 3252.0, 3252.0, 3252.0, 3253.0, 3254.0, 3254.0, 3253.0, 3251.0, 3251.0, 3251.0, 3252.0, 3254.0, 3254.0, 3253.0, 3252.0, 3251.0, 3251.0, 3251.0, 3252.0, 3253.0, 3254.0, 3254.0, 3254.0, 3252.0, 3254.0, 3254.0, 3254.0, 3254.0, 3254.0, 3253.0, 3254.0, 3253.0, 3253.0, 3254.0, 3253.0, 3254.0, 3254.0, 3253.0, 3253.0, 3253.0, 3253.0, 3253.0, 3253.0, 3253.0, 3253.0, 3253.0, 3254.0, 3254.0, 3253.0, 3253.0, 3253.0, 3253.0, 3253.0, 3253.0, 3253.0, 3253.0, 3253.0, 3253.0, 3253.0, 3253.0, 3253.0, 3253.0, 3253.0, 3253.0, 3253.0, 3253.0, 3253.0, 3253.0, 3253.0, 3253.0, 3253.0, 3253.0, 3253.0, 3253.0, 3252.0, 3253.0, 3252.0, 3252.0, 3252.0, 3253.0, 3252.0, 3252.0, 3252.0, 3252.0, 3253.0, 3253.0, 3252.0, 3253.0, 3252.0, 3252.0, 3252.0, 3252.0, 3252.0, 3252.0, 3252.0, 3252.0, 3252.0, 3252.0, 3252.0, 3252.0, 3252.0, 3252.0, 3252.0, 3252.0, 3251.0, 3251.0, 3251.0, 3251.0, 3251.0, 3251.0, 3252.0, 3251.0, 3251.0, 3250.0, 3251.0, 3252.0, 3251.0, 3250.0, 3251.0, 3250.0, 3250.0, 3252.0, 3252.0, 3252.0, 3251.0, 3251.0, 3252.0]
    },
    "slices": {}
  }
}