{
  "AcquisitionMatrixPE": 80,
  "AcquisitionNumber": 1,
  "AcquisitionTime": "09:08:50.205000",
  "BandwidthPerPixelPhaseEncode": 48.077,
  "BaseResolution": 80,
  "BodyPartExamined": "BRAIN",
  "CoilCombinationMethod": "Sum of Squares",
  "ConsistencyInfo": "N4_VE11C_LATEST_20160120",
  "ConversionSoftware": "dcm2niix",
  "ConversionSoftwareVersion": "v1.0.20220720",
  "DerivedVendorReportedEchoSpacing": 0.000519999,
  "DeviceSerialNumber": "66112",
  "DwellTime": 2.7e-06,
  "EchoTime": 0.035,
  "EchoTrainLength": 39,
  "EffectiveEchoSpacing": 0.00026,
  "FlipAngle": 90,
  "HeudiconvVersion": "0.13.1",
  "ImageOrientationPatientDICOM": [0.995845, -0.090915, 0.00514118, 0.0864247, 0.961427, 0.261128],
  "ImageOrientationText": "Tra>Cor(15.1)>Sag(1.6)",
  "ImageType": [
    "ORIGINAL",
    "PRIMARY",
    "M",
    "ND",
    "NORM",
    "MOSAIC"
],
  "ImagingFrequency": 123.252,
  "InPlanePhaseEncodingDirectionDICOM": "COL",
  "InstitutionAddress": "Maynard 3,Hanover,NH,US,03755",
  "InstitutionName": "Dartmouth College - PBS",
  "InstitutionalDepartmentName": "Department",
  "MRAcquisitionType": "2D",
  "MagneticFieldStrength": 3,
  "Manufacturer": "Siemens",
  "ManufacturersModelName": "Prisma",
  "MatrixCoilMode": "GRAPPA",
  "Modality": "MR",
  "NonlinearGradientCorrection": false,
  "ParallelReductionFactorInPlane": 2,
  "PartialFourier": 1,
  "PatientPosition": "HFS",
  "PercentPhaseFOV": 100,
  "PercentSampling": 100,
  "PhaseEncodingDirection": "j-",
  "PhaseEncodingSteps": 79,
  "PhaseResolution": 1,
  "PixelBandwidth": 2315,
  "ProcedureStepDescription": "dbic^QA",
  "ProtocolName": "func-bold_task-rest_acq-p2",
  "PulseSequenceDetails": "%SiemensSeq%\\ep2d_bold",
  "ReceiveCoilActiveElements": "HC1-7;NC1,2",
  "ReceiveCoilName": "HeadNeck_64",
  "ReconMatrixPE": 80,
  "RefLinesPE": 24,
  "RepetitionTime": 2,
  "SAR": 0.0337836,
  "ScanOptions": "FS",
  "ScanningSequence": "EP",
  "SequenceName": "*epfid2d1_80",
  "SequenceVariant": "SK",
  "SeriesDescription": "func-bold_task-rest_acq-p2",
  "SeriesNumber": 5,
  "ShimSetting": [4137, -7674, -7504, 186, -48, -339, -45, 85],
  "SliceThickness": 3.5,
  "SliceTiming": [0.99, 0, 1.055, 0.065, 1.12, 0.1325, 1.1875, 0.1975, 1.2525, 0.2625, 1.32, 0.33, 1.385, 0.395, 1.45, 0.4625, 1.5175, 0.5275, 1.5825, 0.5925, 1.65, 0.66, 1.715, 0.725, 1.78, 0.79, 1.8475, 0.8575, 1.9125, 0.9225],
  "SoftwareVersions": "syngo MR E11",
  "SpacingBetweenSlices": 3.99,
  "StationName": "AWP66112",
  "TaskName": "rest",
  "TotalReadoutTime": 0.02054,
  "TxRefAmp": 221.043,
  "dcmmeta_affine": [
    [-2.9875361919403076, 0.2592741549015045, 0.11444659531116486, 111.07642364501953],
    [0.2727449834346771, 2.884282350540161, 1.035800814628601, -123.37999725341797],
    [0.015423533506691456, -0.7833852767944336, 3.851508617401123, -58.42180252075195],
    [0.0, 0.0, 0.0, 1.0]
],
  "dcmmeta_reorient_transform": [
    [0.0, -1.0, 0.0, 79.0],
    [1.0, 0.0, 0.0, 0.0],
    [0.0, 0.0, 1.0, 0.0],
    [0.0, 0.0, 0.0, 1.0]
],
  "dcmmeta_shape": [80, 80, 30, 200],
  "dcmmeta_slice_dim": 2,
  "dcmmeta_version": 0.6,
  "global": {
    "const": {
      "AccessionNumber": "qa64",
      "AcquisitionMatrix": [80, 0, 0, 80],
      "AngioFlag": "N",
      "BitsAllocated": 16,
      "BitsStored": 12,
      "BodyPartExamined": "BRAIN",
      "Columns": 480,
      "EchoNumbers": 1,
      "EchoTime": 35.0,
      "EchoTrainLength": 39,
      "FlipAngle": 90.0,
      "HighBit": 11,
      "ImageOrientationPatient": [0.9958453858039, -0.0909149925209, 0.00514117768672, 0.08642472171796, 0.96142743422934, 0.26112842853116],
      "ImagePositionPatient": [-780.92114807671, -626.7857715765, -280.07100429425],
      "ImageType": [
        "ORIGINAL",
        "PRIMARY",
        "M",
        "ND",
        "NORM",
        "MOSAIC"
],
      "ImagedNucleus": "1H",
      "ImagingFrequency": 123.25236,
      "InPlanePhaseEncodingDirection": "COL",
      "MRAcquisitionType": "2D",
      "MagneticFieldStrength": 3.0,
      "Manufacturer": "SIEMENS",
      "ManufacturerModelName": "Prisma",
      "Modality": "MR",
      "NumberOfAverages": 1.0,
      "NumberOfPhaseEncodingSteps": 79,
      "PercentPhaseFieldOfView": 100.0,
      "PercentSampling": 100.0,
      "PerformedProcedureStepStartTime": "084545.160000",
      "PhotometricInterpretation": "MONOCHROME2",
      "PixelBandwidth": 2315.0,
      "PixelRepresentation": 0,
      "PixelSpacing": [3.0, 3.0],
      "ProtocolName": "func-bold_task-rest_acq-p2",
      "RepetitionTime": 2000.0,
      "Rows": 480,
      "SAR": 0.03378360450344,
      "SamplesPerPixel": 1,
      "ScanOptions": "FS",
      "ScanningSequence": "EP",
      "SequenceName": "*epfid2d1_80",
      "SequenceVariant": "SK",
      "SeriesDescription": "func-bold_task-rest_acq-p2",
      "SeriesNumber": 5,
      "SeriesTime": "090949.705000",
      "SliceLocation": -85.23730939731,
      "SliceThickness": 3.5,
      "SmallestImagePixelValue": 0,
      "SoftwareVersions": "syngo MR E11",
      "SpacingBetweenSlices": 3.9899999609482,
      "SpecificCharacterSet": "ISO_IR 100",
      "StudyID": "8",
      "StudyTime": "084545.071000",
      "TransmitCoilName": "Body",
      "VariableFlipAngleFlag": "N",
      "WindowCenterWidthExplanation": "Algo1",
      "dBdt": 0.0},
    "slices": {}
  },
  "time": {
    "samples": {
      "AcquisitionNumber": [1, 2, 3, 4, 5, 6, 7, 8, 9, 10, 11, 12, 13, 14, 15, 16, 17, 18, 19, 20, 21, 22, 23, 24, 25, 26, 27, 28, 29, 30, 31, 32, 33, 34, 35, 36, 37, 38, 39, 40, 41, 42, 43, 44, 45, 46, 47, 48, 49, 50, 51, 52, 53, 54, 55, 56, 57, 58, 59, 60, 61, 62, 63, 64, 65, 66, 67, 68, 69, 70, 71, 72, 73, 74, 75, 76, 77, 78, 79, 80, 81, 82, 83, 84, 85, 86, 87, 88, 89, 90, 91, 92, 93, 94, 95, 96, 97, 98, 99, 100, 101, 102, 103, 104, 105, 106, 107, 108, 109, 110, 111, 112, 113, 114, 115, 116, 117, 118, 119, 120, 121, 122, 123, 124, 125, 126, 127, 128, 129, 130, 131, 132, 133, 134, 135, 136, 137, 138, 139, 140, 141, 142, 143, 144, 145, 146, 147, 148, 149, 150, 151, 152, 153, 154, 155, 156, 157, 158, 159, 160, 161, 162, 163, 164, 165, 166, 167, 168, 169, 170, 171, 172, 173, 174, 175, 176, 177, 178, 179, 180, 181, 182, 183, 184, 185, 186, 187, 188, 189, 190, 191, 192, 193, 194, 195, 196, 197, 198, 199, 200],
      "AcquisitionTime": ["090850.205000", "090852.205000", "090854.205000", "090856.205000", "090858.205000", "090900.205000", "090902.205000", "090904.205000", "090906.205000", "090908.205000", "090910.205000", "090912.205000", "090914.205000", "090916.205000", "090918.205000", "090920.205000", "090922.205000", "090924.205000", "090926.205000", "090928.205000", "090930.205000", "090932.205000", "090934.205000", "090936.205000", "090938.205000", "090940.205000", "090942.205000", "090944.205000", "090946.205000", "090948.205000", "090950.205000", "090952.205000", "090954.205000", "090956.205000", "090958.205000", "091000.205000", "091002.205000", "091004.205000", "091006.205000", "091008.205000", "091010.205000", "091012.205000", "091014.205000", "091016.205000", "091018.205000", "091020.205000", "091022.205000", "091024.205000", "091026.205000", "091028.205000", "091030.205000", "091032.205000", "091034.205000", "091036.205000", "091038.205000", "091040.205000", "091042.205000", "091044.205000", "091046.205000", "091048.205000", "091050.205000", "091052.205000", "091054.205000", "091056.205000", "091058.205000", "091100.205000", "091102.205000", "091104.205000", "091106.205000", "091108.205000", "091110.205000", "091112.205000", "091114.205000", "091116.205000", "091118.205000", "091120.205000", "091122.205000", "091124.205000", "091126.205000", "091128.205000", "091130.205000", "091132.205000", "091134.205000", "091136.205000", "091138.205000", "091140.205000", "091142.205000", "091144.205000", "091146.205000", "091148.205000", "091150.205000", "091152.205000", "091154.205000", "091156.205000", "091158.205000", "091200.205000", "091202.205000", "091204.205000", "091206.205000", "091208.205000", "091210.205000", "091212.205000", "091214.205000", "091216.205000", "091218.205000", "091220.205000", "091222.205000", "091224.205000", "091226.205000", "091228.205000", "091230.205000", "091232.205000", "091234.205000", "091236.205000", "091238.205000", "091240.205000", "091242.205000", "091244.205000", "091246.205000", "091248.205000", "091250.205000", "091252.205000", "091254.205000", "091256.205000", "091258.205000", "091300.205000", "091302.205000", "091304.205000", "091306.205000", "091308.205000", "091310.205000", "091312.205000", "091314.205000", "091316.205000", "091318.205000", "091320.205000", "091322.205000", "091324.205000", "091326.205000", "091328.205000", "091330.205000", "091332.205000", "091334.205000", "091336.205000", "091338.205000", "091340.205000", "091342.205000", "091344.205000", "091346.205000", "091348.205000", "091350.205000", "091352.205000", "091354.205000", "091356.205000", "091358.205000", "091400.205000", "091402.205000", "091404.205000", "091406.205000", "091408.205000", "091410.205000", "091412.205000", "091414.205000", "091416.205000", "091418.205000", "091420.205000", "091422.205000", "091424.205000", "091426.205000", "091428.205000", "091430.205000", "091432.205000", "091434.205000", "091436.205000", "091438.205000", "091440.205000", "091442.205000", "091444.205000", "091446.205000", "091448.205000", "091450.205000", "091452.205000", "091454.205000", "091456.205000", "091458.205000", "091500.205000", "091502.205000", "091504.205000", "091506.205000", "091508.205000", "091510.205000", "091512.205000", "091514.205000", "091516.205000", "091518.205000", "091520.205000", "091522.205000", "091524.205000", "091526.205000", "091528.205000"],
      "ContentTime": ["090949.709000", "090949.712000", "090949.715000", "090949.718000", "090949.720000", "090949.723000", "090949.726000", "090949.728000", "090949.731000", "090949.734000", "090949.736000", "090949.739000", "090949.747000", "090949.750000", "090949.753000", "090949.755000", "090949.758000", "090949.761000", "090949.763000", "090949.766000", "090949.769000", "090949.772000", "090949.774000", "090949.777000", "090949.780000", "090949.782000", "090949.785000", "090949.787000", "090949.790000", "091029.704000", "091029.707000", "091029.709000", "091029.712000", "091029.715000", "091029.717000", "091029.720000", "091029.722000", "091029.725000", "091029.728000", "091029.730000", "091029.739000", "091029.742000", "091029.744000", "091029.747000", "091029.749000", "091029.752000", "091029.755000", "091029.757000", "091029.760000", "091049.704000", "091049.707000", "091049.709000", "091049.712000", "091049.715000", "091049.717000", "091049.720000", "091049.722000", "091049.725000", "091049.728000", "091129.703000", "091129.706000", "091129.708000", "091129.711000", "091129.713000", "091129.716000", "091129.719000", "091129.721000", "091129.724000", "091129.727000", "091129.730000", "091129.732000", "091129.735000", "091129.738000", "091129.740000", "091129.743000", "091129.745000", "091129.748000", "091129.751000", "091129.753000", "091209.704000", "091209.707000", "091209.709000", "091209.712000", "091209.714000", "091209.717000", "091209.720000", "091209.722000", "091209.725000", "091209.728000", "091209.730000", "091209.733000", "091209.736000", "091209.738000", "091209.741000", "091209.744000", "091209.746000", "091209.749000", "091209.752000", "091209.754000", "091249.703000", "091249.707000", "091249.709000", "091249.712000", "091249.714000", "091249.717000", "091249.720000", "091249.722000", "091249.725000", "091249.728000", "091249.730000", "091249.733000", "091249.736000", "091249.738000", "091249.741000", "091249.744000", "091249.746000", "091249.749000", "091249.752000", "091249.754000", "091329.704000", "091329.707000", "091329.709000", "091329.712000", "091329.714000", "091329.717000", "091329.720000", "091329.722000", "091329.725000", "091329.728000", "091329.731000", "091329.733000", "091329.736000", "091329.739000", "091329.741000", "091329.744000", "091329.747000", "091329.749000", "091329.752000", "091329.755000", "091409.704000", "091409.707000", "091409.709000", "091409.712000", "091409.714000", "091409.717000", "091409.720000", "091409.723000", "091409.725000", "091409.728000", "091409.731000", "091409.733000", "091409.736000", "091409.739000", "091409.741000", "091409.744000", "091409.746000", "091409.749000", "091409.752000", "091409.755000", "091449.704000", "091449.707000", "091449.709000", "091449.712000", "091449.714000", "091449.717000", "091449.720000", "091449.723000", "091449.725000", "091449.728000", "091449.731000", "091449.733000", "091449.736000", "091449.739000", "091449.741000", "091449.744000", "091449.747000", "091449.749000", "091449.752000", "091449.755000", "091529.704000", "091529.707000", "091529.709000", "091529.712000", "091529.715000", "091529.717000", "091529.720000", "091529.723000", "091529.725000", "091529.728000", "091529.731000", "091529.733000", "091529.736000", "091529.739000", "091529.741000", "091529.744000", "091529.746000", "091529.749000", "091529.752000", "091529.754000", "091530.105000"],
      "InstanceCreationTime": ["090949.709000", "090949.712000", "090949.715000", "090949.718000", "090949.720000", "090949.723000", "090949.726000", "090949.728000", "090949.731000", "090949.734000", "090949.736000", "090949.739000", "090949.747000", "090949.750000", "090949.753000", "090949.755000", "090949.758000", "090949.761000", "090949.763000", "090949.766000", "090949.769000", "090949.772000", "090949.774000", "090949.777000", "090949.780000", "090949.782000", "090949.785000", "090949.787000", "090949.790000", "091029.704000", "091029.707000", "091029.709000", "091029.712000", "091029.715000", "091029.717000", "091029.720000", "091029.722000", "091029.725000", "091029.728000", "091029.730000", "091029.739000", "091029.742000", "091029.744000", "091029.747000", "091029.749000", "091029.752000", "091029.755000", "091029.757000", "091029.760000", "091049.704000", "091049.707000", "091049.709000", "091049.712000", "091049.715000", "091049.717000", "091049.720000", "091049.722000", "091049.725000", "091049.728000", "091129.703000", "091129.706000", "091129.708000", "091129.711000", "091129.713000", "091129.716000", "091129.719000", "091129.721000", "091129.724000", "091129.727000", "091129.730000", "091129.732000", "091129.735000", "091129.738000", "091129.740000", "091129.743000", "091129.745000", "091129.748000", "091129.751000", "091129.753000", "091209.704000", "091209.707000", "091209.709000", "091209.712000", "091209.714000", "091209.717000", "091209.720000", "091209.722000", "091209.725000", "091209.728000", "091209.730000", "091209.733000", "091209.736000", "091209.738000", "091209.741000", "091209.744000", "091209.746000", "091209.749000", "091209.752000", "091209.754000", "091249.703000", "091249.707000", "091249.709000", "091249.712000", "091249.714000", "091249.717000", "091249.720000", "091249.722000", "091249.725000", "091249.728000", "091249.730000", "091249.733000", "091249.736000", "091249.738000", "091249.741000", "091249.744000", "091249.746000", "091249.749000", "091249.752000", "091249.754000", "091329.704000", "091329.707000", "091329.709000", "091329.712000", "091329.714000", "091329.717000", "091329.720000", "091329.722000", "091329.725000", "091329.728000", "091329.731000", "091329.733000", "091329.736000", "091329.739000", "091329.741000", "091329.744000", "091329.747000", "091329.749000", "091329.752000", "091329.755000", "091409.704000", "091409.707000", "091409.709000", "091409.712000", "091409.714000", "091409.717000", "091409.720000", "091409.723000", "091409.725000", "091409.728000", "091409.731000", "091409.733000", "091409.736000", "091409.739000", "091409.741000", "091409.744000", "091409.746000", "091409.749000", "091409.752000", "091409.755000", "091449.704000", "091449.707000", "091449.709000", "091449.712000", "091449.714000", "091449.717000", "091449.720000", "091449.723000", "091449.725000", "091449.728000", "091449.731000", "091449.733000", "091449.736000", "091449.739000", "091449.741000", "091449.744000", "091449.747000", "091449.749000", "091449.752000", "091449.755000", "091529.704000", "091529.707000", "091529.709000", "091529.712000", "091529.715000", "091529.717000", "091529.720000", "091529.723000", "091529.725000", "091529.728000", "091529.731000", "091529.733000", "091529.736000", "091529.739000", "091529.741000", "091529.744000", "091529.746000", "091529.749000", "091529.752000", "091529.754000", "091530.105000"],
      "InstanceNumber": [1, 2, 3, 4, 5, 6, 7, 8, 9, 10, 11, 12, 13, 14, 15, 16, 17, 18, 19, 20, 21, 22, 23, 24, 25, 26, 27, 28, 29, 30, 31, 32, 33, 34, 35, 36, 37, 38, 39, 40, 41, 42, 43, 44, 45, 46, 47, 48, 49, 50, 51, 52, 53, 54, 55, 56, 57, 58, 59, 60, 61, 62, 63, 64, 65, 66, 67, 68, 69, 70, 71, 72, 73, 74, 75, 76, 77, 78, 79, 80, 81, 82, 83, 84, 85, 86, 87, 88, 89, 90, 91, 92, 93, 94, 95, 96, 97, 98, 99, 100, 101, 102, 103, 104, 105, 106, 107, 108, 109, 110, 111, 112, 113, 114, 115, 116, 117, 118, 119, 120, 121, 122, 123, 124, 125, 126, 127, 128, 129, 130, 131, 132, 133, 134, 135, 136, 137, 138, 139, 140, 141, 142, 143, 144, 145, 146, 147, 148, 149, 150, 151, 152, 153, 154, 155, 156, 157, 158, 159, 160, 161, 162, 163, 164, 165, 166, 167, 168, 169, 170, 171, 172, 173, 174, 175, 176, 177, 178, 179, 180, 181, 182, 183, 184, 185, 186, 187, 188, 189, 190, 191, 192, 193, 194, 195, 196, 197, 198, 199, 200],
      "LargestImagePixelValue": [3740, 3750, 3743, 3731, 3731, 3739, 3723, 3732, 3741, 3720, 3723, 3729, 3732, 3735, 3750, 3743, 3739, 3741, 3741, 3730, 3738, 3747, 3728, 3745, 3731, 3721, 3734, 3720, 3747, 3729, 3730, 3737, 3728, 3754, 3732, 3729, 3733, 3730, 3731, 3734, 3739, 3743, 3735, 3735, 3736, 3728, 3732, 3741, 3725, 3741, 3745, 3728, 3749, 3732, 3736, 3720, 3723, 3724, 3747, 3734, 3730, 3744, 3735, 3731, 3742, 3737, 3735, 3736, 3732, 3728, 3726, 3743, 3729, 3728, 3730, 3737, 3736, 3738, 3725, 3736, 3719, 3732, 3739, 3735, 3741, 3725, 3717, 3726, 3719, 3725, 3739, 3735, 3728, 3714, 3739, 3729, 3735, 3736, 3726, 3755, 3733, 3731, 3729, 3732, 3744, 3738, 3740, 3737, 3735, 3739, 3725, 3741, 3748, 3733, 3724, 3729, 3722, 3739, 3737, 3741, 3733, 3733, 3730, 3732, 3735, 3729, 3725, 3725, 3725, 3742, 3730, 3738, 3734, 3739, 3756, 3734, 3729, 3728, 3739, 3744, 3736, 3737, 3734, 3736, 3732, 3734, 3735, 3736, 3734, 3735, 3743, 3738, 3732, 3734, 3733, 3746, 3733, 3723, 3737, 3736, 3735, 3741, 3736, 3727, 3733, 3739, 3736, 3743, 3735, 3745, 3729, 3723, 3729, 3721, 3732, 3734, 3730, 3740, 3727, 3738, 3735, 3741, 3732, 3746, 3742, 3725, 3724, 3742, 3730, 3736, 3728, 3732, 3734, 3732, 3728, 3735, 3729, 3734, 3736, 3732],
      "WindowCenter": [1418.0, 1417.0, 1417.0, 1417.0, 1417.0, 1417.0, 1417.0, 1417.0, 1416.0, 1416.0, 1417.0, 1417.0, 1417.0, 1416.0, 1417.0, 1417.0, 1416.0, 1416.0, 1416.0, 1417.0, 1417.0, 1416.0, 1417.0, 1416.0, 1417.0, 1416.0, 1417.0, 1416.0, 1416.0, 1417.0, 1417.0, 1417.0, 1416.0, 1416.0, 1417.0, 1417.0, 1417.0, 1416.0, 1416.0, 1416.0, 1416.0, 1416.0, 1416.0, 1416.0, 1416.0, 1416.0, 1416.0, 1416.0, 1416.0, 1416.0, 1416.0, 1416.0, 1415.0, 1415.0, 1415.0, 1415.0, 1416.0, 1415.0, 1416.0, 1416.0, 1416.0, 1416.0, 1416.0, 1416.0, 1415.0, 1416.0, 1415.0, 1415.0, 1415.0, 1415.0, 1416.0, 1416.0, 1415.0, 1415.0, 1415.0, 1416.0, 1416.0, 1415.0, 1416.0, 1416.0, 1415.0, 1415.0, 1416.0, 1415.0, 1416.0, 1415.0, 1416.0, 1415.0, 1416.0, 1416.0, 1415.0, 1415.0, 1415.0, 1415.0, 1415.0, 1416.0, 1415.0, 1415.0, 1415.0, 1414.0, 1415.0, 1414.0, 1414.0, 1414.0, 1415.0, 1415.0, 1415.0, 1415.0, 1415.0, 1415.0, 1415.0, 1415.0, 1414.0, 1414.0, 1415.0, 1415.0, 1414.0, 1416.0, 1415.0, 1415.0, 1415.0, 1415.0, 1415.0, 1415.0, 1415.0, 1415.0, 1415.0, 1415.0, 1415.0, 1415.0, 1414.0, 1414.0, 1415.0, 1415.0, 1415.0, 1415.0, 1415.0, 1414.0, 1414.0, 1414.0, 1414.0, 1415.0, 1415.0, 1415.0, 1414.0, 1415.0, 1414.0, 1414.0, 1414.0, 1414.0, 1414.0, 1414.0, 1414.0, 1414.0, 1414.0, 1414.0, 1413.0, 1413.0, 1414.0, 1414.0, 1414.0, 1414.0, 1414.0, 1414.0, 1413.0, 1414.0, 1414.0, 1414.0, 1413.0, 1414.0, 1414.0, 1414.0, 1414.0, 1413.0, 1414.0, 1414.0, 1414.0, 1414.0, 1414.0, 1413.0, 1414.0, 1414.0, 1413.0, 1414.0, 1414.0, 1414.0, 1413.0, 1414.0, 1414.0, 1414.0, 1414.0, 1414.0, 1414.0, 1413.0, 1414.0, 1414.0, 1414.0, 1413.0, 1414.0, 1414.0],
      "WindowWidth": [3272.0, 3271.0, 3271.0, 3271.0, 3271.0, 3271.0, 3271.0, 3271.0, 3271.0, 3271.0, 3270.0, 3271.0, 3271.0, 3271.0, 3271.0, 3270.0, 3271.0, 3271.0, 3270.0, 3270.0, 3271.0, 3271.0, 3271.0, 3271.0, 3271.0, 3271.0, 3271.0, 3271.0, 3271.0, 3270.0, 3270.0, 3270.0, 3271.0, 3271.0, 3270.0, 3270.0, 3270.0, 3270.0, 3271.0, 3270.0, 3270.0, 3271.0, 3270.0, 3271.0, 3270.0, 3270.0, 3270.0, 3270.0, 3270.0, 3270.0, 3270.0, 3270.0, 3270.0, 3270.0, 3270.0, 3270.0, 3269.0, 3270.0, 3270.0, 3270.0, 3270.0, 3270.0, 3270.0, 3270.0, 3270.0, 3270.0, 3270.0, 3270.0, 3270.0, 3270.0, 3270.0, 3270.0, 3270.0, 3270.0, 3270.0, 3270.0, 3270.0, 3270.0, 3270.0, 3270.0, 3270.0, 3270.0, 3270.0, 3270.0, 3270.0, 3270.0, 3270.0, 3270.0, 3270.0, 3270.0, 3270.0, 3270.0, 3270.0, 3270.0, 3270.0, 3269.0, 3270.0, 3270.0, 3270.0, 3270.0, 3270.0, 3270.0, 3270.0, 3270.0, 3270.0, 3270.0, 3270.0, 3270.0, 3270.0, 3270.0, 3269.0, 3270.0, 3269.0, 3269.0, 3269.0, 3270.0, 3269.0, 3269.0, 3270.0, 3270.0, 3269.0, 3270.0, 3270.0, 3270.0, 3270.0, 3270.0, 3270.0, 3270.0, 3270.0, 3270.0, 3270.0, 3269.0, 3270.0, 3269.0, 3270.0, 3269.0, 3269.0, 3269.0, 3269.0, 3269.0, 3269.0, 3269.0, 3269.0, 3269.0, 3269.0, 3269.0, 3269.0, 3269.0, 3269.0, 3269.0, 3269.0, 3269.0, 3269.0, 3269.0, 3269.0, 3269.0, 3269.0, 3269.0, 3269.0, 3269.0, 3269.0, 3269.0, 3269.0, 3269.0, 3269.0, 3269.0, 3269.0, 3269.0, 3269.0, 3269.0, 3269.0, 3269.0, 3269.0, 3269.0, 3269.0, 3269.0, 3269.0, 3269.0, 3269.0, 3269.0, 3269.0, 3269.0, 3269.0, 3269.0, 3269.0, 3269.0, 3269.0, 3269.0, 3269.0, 3269.0, 3269.0, 3269.0, 3269.0, 3268.0, 3268.0, 3269.0, 3269.0, 3269.0, 3269.0, 3268.0]
    },
    "slices": {}
  }
}