{
  "AcquisitionMatrixPE": 80,
  "AcquisitionNumber": 1,
  "AcquisitionTime": "09:22:25.550000",
  "BandwidthPerPixelPhaseEncode": 25,
  "BaseResolution": 80,
  "BodyPartExamined": "BRAIN",
  "CoilCombinationMethod": "Sum of Squares",
  "ConsistencyInfo": "N4_VE11C_LATEST_20160120",
  "ConversionSoftware": "dcm2niix",
  "ConversionSoftwareVersion": "v1.0.20220720",
  "DerivedVendorReportedEchoSpacing": 0.0005,
  "DeviceSerialNumber": "66112",
  "DwellTime": 2.7e-06,
  "EchoTime": 0.03,
  "EchoTrainLength": 80,
  "EffectiveEchoSpacing": 0.0005,
  "FlipAngle": 10,
  "HeudiconvVersion": "0.13.1",
  "ImageOrientationPatientDICOM": [0.995845, -0.090915, 0.00514118, 0.0864247, 0.961427, 0.261128],
  "ImageOrientationText": "Tra>Cor(15.1)>Sag(1.6)",
  "ImageType": [
    "ORIGINAL",
    "PRIMARY",
    "M",
    "ND",
    "NORM",
    "MOSAIC"
],
  "ImagingFrequency": 123.252,
  "InPlanePhaseEncodingDirectionDICOM": "COL",
  "InstitutionAddress": "Maynard 3,Hanover,NH,US,03755",
  "InstitutionName": "Dartmouth College - PBS",
  "InstitutionalDepartmentName": "Department",
  "MRAcquisitionType": "2D",
  "MagneticFieldStrength": 3,
  "Manufacturer": "Siemens",
  "ManufacturersModelName": "Prisma",
  "MatrixCoilMode": "SENSE",
  "Modality": "MR",
  "NonlinearGradientCorrection": false,
  "PartialFourier": 1,
  "PatientPosition": "HFS",
  "PercentPhaseFOV": 100,
  "PercentSampling": 100,
  "PhaseEncodingDirection": "j-",
  "PhaseEncodingSteps": 80,
  "PhaseResolution": 1,
  "PixelBandwidth": 2315,
  "ProcedureStepDescription": "dbic^QA",
  "ProtocolName": "func-bold_fa-10",
  "PulseSequenceDetails": "%SiemensSeq%\\ep2d_bold",
  "ReceiveCoilActiveElements": "HC1-7;NC1,2",
  "ReceiveCoilName": "HeadNeck_64",
  "ReconMatrixPE": 80,
  "RepetitionTime": 2,
  "SAR": 0.0071217,
  "ScanOptions": "FS",
  "ScanningSequence": "EP",
  "SequenceName": "*epfid2d1_80",
  "SequenceVariant": "SK",
  "SeriesDescription": "func-bold_fa-10",
  "SeriesNumber": 9,
  "ShimSetting": [4137, -7674, -7504, 187, -48, -338, -45, 84],
  "SliceThickness": 3.5,
  "SliceTiming": [0.99, 0, 1.055, 0.065, 1.12, 0.13, 1.1875, 0.1975, 1.2525, 0.2625, 1.32, 0.33, 1.385, 0.395, 1.45, 0.46, 1.5175, 0.5275, 1.5825, 0.5925, 1.65, 0.66, 1.715, 0.725, 1.78, 0.79, 1.8475, 0.8575, 1.9125, 0.9225],
  "SoftwareVersions": "syngo MR E11",
  "SpacingBetweenSlices": 3.99,
  "StationName": "AWP66112",
  "TotalReadoutTime": 0.0395,
  "TxRefAmp": 221.043,
  "dcmmeta_affine": [
    [-2.9875361919403076, 0.2592741549015045, 0.11444660276174545, 109.36689758300781],
    [0.2727449834346771, 2.884282350540161, 1.0358009338378906, -121.02703857421875],
    [0.015423533506691456, -0.7833852767944336, 3.851508617401123, -57.67964553833008],
    [0.0, 0.0, 0.0, 1.0]
],
  "dcmmeta_reorient_transform": [
    [0.0, -1.0, 0.0, 79.0],
    [1.0, 0.0, 0.0, 0.0],
    [0.0, 0.0, 1.0, 0.0],
    [0.0, 0.0, 0.0, 1.0]
],
  "dcmmeta_shape": [80, 80, 30, 200],
  "dcmmeta_slice_dim": 2,
  "dcmmeta_version": 0.6,
  "global": {
    "const": {
      "AccessionNumber": "qa64",
      "AcquisitionMatrix": [80, 0, 0, 80],
      "AngioFlag": "N",
      "BitsAllocated": 16,
      "BitsStored": 12,
      "BodyPartExamined": "BRAIN",
      "Columns": 480,
      "EchoNumbers": 1,
      "EchoTime": 30.0,
      "EchoTrainLength": 80,
      "FlipAngle": 10.0,
      "HighBit": 11,
      "ImageOrientationPatient": [0.9958453858039, -0.0909149925209, 0.00514117768672, 0.08642472171796, 0.96142743422934, 0.26112842853116],
      "ImagePositionPatient": [-779.21161996765, -629.13872927222, -279.32884731183],
      "ImageType": [
        "ORIGINAL",
        "PRIMARY",
        "M",
        "ND",
        "NORM",
        "MOSAIC"
],
      "ImagedNucleus": "1H",
      "ImagingFrequency": 123.252361,
      "InPlanePhaseEncodingDirection": "COL",
      "MRAcquisitionType": "2D",
      "MagneticFieldStrength": 3.0,
      "Manufacturer": "SIEMENS",
      "ManufacturerModelName": "Prisma",
      "Modality": "MR",
      "NumberOfAverages": 1.0,
      "NumberOfPhaseEncodingSteps": 80,
      "PercentPhaseFieldOfView": 100.0,
      "PercentSampling": 100.0,
      "PerformedProcedureStepStartTime": "084545.160000",
      "PhotometricInterpretation": "MONOCHROME2",
      "PixelBandwidth": 2315.0,
      "PixelRepresentation": 0,
      "PixelSpacing": [3.0, 3.0],
      "ProtocolName": "func-bold_fa-10",
      "RepetitionTime": 2000.0,
      "Rows": 480,
      "SAR": 0.00712170262641,
      "SamplesPerPixel": 1,
      "ScanOptions": "FS",
      "ScanningSequence": "EP",
      "SequenceName": "*epfid2d1_80",
      "SequenceVariant": "SK",
      "SeriesDescription": "func-bold_fa-10",
      "SeriesNumber": 9,
      "SeriesTime": "092309.847000",
      "SliceLocation": -83.959121438702,
      "SliceThickness": 3.5,
      "SmallestImagePixelValue": 0,
      "SoftwareVersions": "syngo MR E11",
      "SpacingBetweenSlices": 3.9900000966299,
      "SpecificCharacterSet": "ISO_IR 100",
      "StudyID": "8",
      "StudyTime": "084545.071000",
      "TransmitCoilName": "Body",
      "VariableFlipAngleFlag": "N",
      "WindowCenterWidthExplanation": "Algo1",
      "dBdt": 0.0},
    "slices": {}
  },
  "time": {
    "samples": {
      "AcquisitionNumber": [1, 2, 3, 4, 5, 6, 7, 8, 9, 10, 11, 12, 13, 14, 15, 16, 17, 18, 19, 20, 21, 22, 23, 24, 25, 26, 27, 28, 29, 30, 31, 32, 33, 34, 35, 36, 37, 38, 39, 40, 41, 42, 43, 44, 45, 46, 47, 48, 49, 50, 51, 52, 53, 54, 55, 56, 57, 58, 59, 60, 61, 62, 63, 64, 65, 66, 67, 68, 69, 70, 71, 72, 73, 74, 75, 76, 77, 78, 79, 80, 81, 82, 83, 84, 85, 86, 87, 88, 89, 90, 91, 92, 93, 94, 95, 96, 97, 98, 99, 100, 101, 102, 103, 104, 105, 106, 107, 108, 109, 110, 111, 112, 113, 114, 115, 116, 117, 118, 119, 120, 121, 122, 123, 124, 125, 126, 127, 128, 129, 130, 131, 132, 133, 134, 135, 136, 137, 138, 139, 140, 141, 142, 143, 144, 145, 146, 147, 148, 149, 150, 151, 152, 153, 154, 155, 156, 157, 158, 159, 160, 161, 162, 163, 164, 165, 166, 167, 168, 169, 170, 171, 172, 173, 174, 175, 176, 177, 178, 179, 180, 181, 182, 183, 184, 185, 186, 187, 188, 189, 190, 191, 192, 193, 194, 195, 196, 197, 198, 199, 200],
      "AcquisitionTime": ["092225.550000", "092227.550000", "092229.550000", "092231.550000", "092233.550000", "092235.550000", "092237.550000", "092239.550000", "092241.550000", "092243.550000", "092245.550000", "092247.550000", "092249.550000", "092251.550000", "092253.550000", "092255.550000", "092257.550000", "092259.550000", "092301.550000", "092303.550000", "092305.550000", "092307.550000", "092309.550000", "092311.550000", "092313.550000", "092315.550000", "092317.550000", "092319.550000", "092321.550000", "092323.550000", "092325.550000", "092327.550000", "092329.550000", "092331.550000", "092333.550000", "092335.550000", "092337.550000", "092339.550000", "092341.550000", "092343.550000", "092345.550000", "092347.550000", "092349.550000", "092351.550000", "092353.550000", "092355.550000", "092357.550000", "092359.550000", "092401.550000", "092403.550000", "092405.550000", "092407.550000", "092409.550000", "092411.550000", "092413.550000", "092415.550000", "092417.550000", "092419.550000", "092421.550000", "092423.550000", "092425.550000", "092427.550000", "092429.550000", "092431.550000", "092433.550000", "092435.550000", "092437.550000", "092439.550000", "092441.550000", "092443.550000", "092445.550000", "092447.550000", "092449.550000", "092451.550000", "092453.550000", "092455.550000", "092457.550000", "092459.550000", "092501.550000", "092503.550000", "092505.550000", "092507.550000", "092509.550000", "092511.550000", "092513.550000", "092515.550000", "092517.550000", "092519.550000", "092521.550000", "092523.550000", "092525.550000", "092527.550000", "092529.550000", "092531.550000", "092533.550000", "092535.550000", "092537.550000", "092539.550000", "092541.550000", "092543.550000", "092545.550000", "092547.550000", "092549.550000", "092551.550000", "092553.550000", "092555.550000", "092557.550000", "092559.550000", "092601.550000", "092603.550000", "092605.550000", "092607.550000", "092609.550000", "092611.550000", "092613.550000", "092615.550000", "092617.550000", "092619.550000", "092621.550000", "092623.550000", "092625.550000", "092627.550000", "092629.550000", "092631.550000", "092633.550000", "092635.550000", "092637.550000", "092639.550000", "092641.550000", "092643.550000", "092645.550000", "092647.550000", "092649.550000", "092651.550000", "092653.550000", "092655.550000", "092657.550000", "092659.550000", "092701.550000", "092703.550000", "092705.550000", "092707.550000", "092709.550000", "092711.550000", "092713.550000", "092715.550000", "092717.550000", "092719.550000", "092721.550000", "092723.550000", "092725.550000", "092727.550000", "092729.550000", "092731.550000", "092733.550000", "092735.550000", "092737.550000", "092739.550000", "092741.550000", "092743.550000", "092745.550000", "092747.550000", "092749.550000", "092751.550000", "092753.550000", "092755.550000", "092757.550000", "092759.550000", "092801.550000", "092803.550000", "092805.550000", "092807.550000", "092809.550000", "092811.550000", "092813.550000", "092815.550000", "092817.550000", "092819.550000", "092821.550000", "092823.550000", "092825.550000", "092827.550000", "092829.550000", "092831.550000", "092833.550000", "092835.550000", "092837.550000", "092839.550000", "092841.550000", "092843.550000", "092845.550000", "092847.550000", "092849.550000", "092851.550000", "092853.550000", "092855.550000", "092857.550000", "092859.550000", "092901.550000", "092903.550000"],
      "ContentTime": ["092309.850000", "092309.854000", "092309.856000", "092309.859000", "092309.862000", "092309.864000", "092309.867000", "092309.869000", "092309.872000", "092309.884000", "092309.886000", "092309.889000", "092309.892000", "092309.894000", "092309.897000", "092309.899000", "092309.902000", "092309.906000", "092309.908000", "092309.911000", "092309.914000", "092309.916000", "092349.845000", "092349.849000", "092349.851000", "092349.854000", "092349.856000", "092349.859000", "092349.861000", "092349.864000", "092349.866000", "092349.869000", "092349.872000", "092349.874000", "092349.877000", "092349.879000", "092349.882000", "092349.884000", "092349.887000", "092349.890000", "092349.892000", "092349.895000", "092429.846000", "092429.858000", "092429.860000", "092429.863000", "092429.865000", "092429.868000", "092429.871000", "092429.873000", "092429.878000", "092429.881000", "092429.884000", "092429.886000", "092429.889000", "092429.891000", "092429.894000", "092429.896000", "092429.899000", "092429.902000", "092429.904000", "092429.907000", "092509.846000", "092509.849000", "092509.851000", "092509.854000", "092509.856000", "092509.859000", "092509.862000", "092509.864000", "092509.867000", "092509.869000", "092509.872000", "092509.874000", "092509.877000", "092509.880000", "092509.882000", "092509.885000", "092509.887000", "092509.890000", "092509.893000", "092509.895000", "092549.846000", "092549.849000", "092549.851000", "092549.854000", "092549.856000", "092549.859000", "092549.862000", "092549.864000", "092549.867000", "092549.869000", "092549.872000", "092549.874000", "092549.877000", "092549.880000", "092549.882000", "092549.885000", "092549.887000", "092549.890000", "092549.893000", "092549.895000", "092629.846000", "092629.849000", "092629.851000", "092629.854000", "092629.856000", "092629.859000", "092629.862000", "092629.864000", "092629.867000", "092629.869000", "092629.872000", "092629.874000", "092629.877000", "092629.880000", "092629.882000", "092629.885000", "092629.887000", "092629.890000", "092629.893000", "092629.895000", "092709.846000", "092709.849000", "092709.851000", "092709.854000", "092709.856000", "092709.859000", "092709.861000", "092709.864000", "092709.866000", "092709.869000", "092709.872000", "092709.874000", "092709.877000", "092709.879000", "092709.882000", "092709.885000", "092709.887000", "092709.890000", "092709.892000", "092709.895000", "092749.845000", "092749.848000", "092749.851000", "092749.854000", "092749.856000", "092749.859000", "092749.861000", "092749.864000", "092749.866000", "092749.873000", "092749.876000", "092749.879000", "092749.881000", "092749.884000", "092749.886000", "092749.889000", "092749.892000", "092749.894000", "092749.897000", "092749.899000", "092829.846000", "092829.849000", "092829.851000", "092829.854000", "092829.856000", "092829.859000", "092829.862000", "092829.864000", "092829.867000", "092829.870000", "092829.872000", "092829.875000", "092829.877000", "092829.880000", "092829.882000", "092829.885000", "092829.887000", "092829.890000", "092829.893000", "092829.895000", "092905.118000", "092905.121000", "092905.124000", "092905.127000", "092905.129000", "092905.132000", "092905.135000", "092905.137000", "092905.140000", "092905.142000", "092905.145000", "092905.148000", "092905.158000", "092905.162000", "092905.165000", "092905.172000", "092905.175000", "092905.178000"],
      "InstanceCreationTime": ["092309.850000", "092309.854000", "092309.856000", "092309.859000", "092309.862000", "092309.864000", "092309.867000", "092309.869000", "092309.872000", "092309.884000", "092309.886000", "092309.889000", "092309.892000", "092309.894000", "092309.897000", "092309.899000", "092309.902000", "092309.906000", "092309.908000", "092309.911000", "092309.914000", "092309.916000", "092349.845000", "092349.849000", "092349.851000", "092349.854000", "092349.856000", "092349.859000", "092349.861000", "092349.864000", "092349.866000", "092349.869000", "092349.872000", "092349.874000", "092349.877000", "092349.879000", "092349.882000", "092349.884000", "092349.887000", "092349.890000", "092349.892000", "092349.895000", "092429.846000", "092429.858000", "092429.860000", "092429.863000", "092429.865000", "092429.868000", "092429.871000", "092429.873000", "092429.878000", "092429.881000", "092429.884000", "092429.886000", "092429.889000", "092429.891000", "092429.894000", "092429.896000", "092429.899000", "092429.902000", "092429.904000", "092429.907000", "092509.846000", "092509.849000", "092509.851000", "092509.854000", "092509.856000", "092509.859000", "092509.862000", "092509.864000", "092509.867000", "092509.869000", "092509.872000", "092509.874000", "092509.877000", "092509.880000", "092509.882000", "092509.885000", "092509.887000", "092509.890000", "092509.893000", "092509.895000", "092549.846000", "092549.849000", "092549.851000", "092549.854000", "092549.856000", "092549.859000", "092549.862000", "092549.864000", "092549.867000", "092549.869000", "092549.872000", "092549.874000", "092549.877000", "092549.880000", "092549.882000", "092549.885000", "092549.887000", "092549.890000", "092549.893000", "092549.895000", "092629.846000", "092629.849000", "092629.851000", "092629.854000", "092629.856000", "092629.859000", "092629.862000", "092629.864000", "092629.867000", "092629.869000", "092629.872000", "092629.874000", "092629.877000", "092629.880000", "092629.882000", "092629.885000", "092629.887000", "092629.890000", "092629.893000", "092629.895000", "092709.846000", "092709.849000", "092709.851000", "092709.854000", "092709.856000", "092709.859000", "092709.861000", "092709.864000", "092709.866000", "092709.869000", "092709.872000", "092709.874000", "092709.877000", "092709.879000", "092709.882000", "092709.885000", "092709.887000", "092709.890000", "092709.892000", "092709.895000", "092749.845000", "092749.848000", "092749.851000", "092749.854000", "092749.856000", "092749.859000", "092749.861000", "092749.864000", "092749.866000", "092749.873000", "092749.876000", "092749.879000", "092749.881000", "092749.884000", "092749.886000", "092749.889000", "092749.892000", "092749.894000", "092749.897000", "092749.899000", "092829.846000", "092829.849000", "092829.851000", "092829.854000", "092829.856000", "092829.859000", "092829.862000", "092829.864000", "092829.867000", "092829.870000", "092829.872000", "092829.875000", "092829.877000", "092829.880000", "092829.882000", "092829.885000", "092829.887000", "092829.890000", "092829.893000", "092829.895000", "092905.118000", "092905.121000", "092905.124000", "092905.127000", "092905.129000", "092905.132000", "092905.135000", "092905.137000", "092905.140000", "092905.142000", "092905.145000", "092905.148000", "092905.158000", "092905.162000", "092905.165000", "092905.172000", "092905.175000", "092905.178000"],
      "InstanceNumber": [1, 2, 3, 4, 5, 6, 7, 8, 9, 10, 11, 12, 13, 14, 15, 16, 17, 18, 19, 20, 21, 22, 23, 24, 25, 26, 27, 28, 29, 30, 31, 32, 33, 34, 35, 36, 37, 38, 39, 40, 41, 42, 43, 44, 45, 46, 47, 48, 49, 50, 51, 52, 53, 54, 55, 56, 57, 58, 59, 60, 61, 62, 63, 64, 65, 66, 67, 68, 69, 70, 71, 72, 73, 74, 75, 76, 77, 78, 79, 80, 81, 82, 83, 84, 85, 86, 87, 88, 89, 90, 91, 92, 93, 94, 95, 96, 97, 98, 99, 100, 101, 102, 103, 104, 105, 106, 107, 108, 109, 110, 111, 112, 113, 114, 115, 116, 117, 118, 119, 120, 121, 122, 123, 124, 125, 126, 127, 128, 129, 130, 131, 132, 133, 134, 135, 136, 137, 138, 139, 140, 141, 142, 143, 144, 145, 146, 147, 148, 149, 150, 151, 152, 153, 154, 155, 156, 157, 158, 159, 160, 161, 162, 163, 164, 165, 166, 167, 168, 169, 170, 171, 172, 173, 174, 175, 176, 177, 178, 179, 180, 181, 182, 183, 184, 185, 186, 187, 188, 189, 190, 191, 192, 193, 194, 195, 196, 197, 198, 199, 200],
      "LargestImagePixelValue": [628, 627, 630, 627, 619, 624, 620, 624, 622, 625, 619, 620, 620, 621, 619, 620, 621, 619, 620, 619, 628, 623, 627, 619, 620, 619, 621, 621, 619, 629, 624, 618, 618, 617, 624, 625, 627, 627, 624, 617, 628, 630, 628, 624, 625, 625, 626, 631, 625, 625, 626, 627, 627, 626, 625, 625, 626, 626, 625, 626, 625, 629, 625, 626, 629, 627, 626, 627, 616, 625, 623, 631, 624, 624, 618, 617, 623, 628, 625, 629, 621, 623, 624, 625, 624, 626, 628, 619, 626, 626, 624, 627, 628, 628, 623, 626, 626, 625, 626, 627, 625, 626, 626, 629, 626, 629, 631, 624, 626, 625, 625, 627, 628, 627, 625, 625, 626, 626, 627, 624, 624, 627, 626, 626, 628, 627, 630, 626, 625, 628, 624, 626, 628, 628, 624, 626, 628, 627, 628, 626, 627, 627, 627, 626, 627, 625, 627, 626, 627, 628, 626, 628, 626, 626, 627, 626, 626, 627, 625, 627, 626, 624, 626, 623, 627, 626, 625, 627, 623, 626, 624, 624, 626, 626, 627, 626, 625, 628, 625, 624, 627, 626, 626, 626, 625, 625, 626, 624, 625, 624, 624, 627, 628, 626, 623, 627, 626, 626, 626, 625],
      "WindowCenter": [454.0, 454.0, 454.0, 454.0, 450.0, 452.0, 450.0, 450.0, 450.0, 451.0, 450.0, 450.0, 450.0, 450.0, 450.0, 450.0, 450.0, 450.0, 450.0, 450.0, 453.0, 450.0, 452.0, 450.0, 449.0, 449.0, 449.0, 449.0, 450.0, 452.0, 450.0, 451.0, 450.0, 449.0, 453.0, 453.0, 453.0, 453.0, 452.0, 449.0, 452.0, 454.0, 453.0, 453.0, 453.0, 453.0, 453.0, 454.0, 453.0, 453.0, 453.0, 453.0, 453.0, 453.0, 453.0, 453.0, 453.0, 453.0, 453.0, 451.0, 451.0, 453.0, 453.0, 453.0, 453.0, 453.0, 453.0, 453.0, 449.0, 449.0, 453.0, 454.0, 453.0, 451.0, 449.0, 449.0, 451.0, 453.0, 453.0, 453.0, 450.0, 449.0, 451.0, 452.0, 453.0, 453.0, 453.0, 450.0, 453.0, 453.0, 453.0, 453.0, 453.0, 453.0, 453.0, 453.0, 453.0, 453.0, 453.0, 453.0, 453.0, 453.0, 453.0, 453.0, 453.0, 453.0, 454.0, 453.0, 453.0, 453.0, 453.0, 453.0, 453.0, 453.0, 453.0, 453.0, 453.0, 453.0, 453.0, 453.0, 453.0, 453.0, 453.0, 453.0, 453.0, 453.0, 453.0, 453.0, 453.0, 453.0, 453.0, 453.0, 453.0, 453.0, 453.0, 453.0, 453.0, 453.0, 453.0, 453.0, 453.0, 453.0, 453.0, 453.0, 453.0, 453.0, 453.0, 453.0, 453.0, 453.0, 453.0, 453.0, 453.0, 453.0, 453.0, 453.0, 453.0, 453.0, 453.0, 453.0, 453.0, 453.0, 453.0, 453.0, 453.0, 453.0, 453.0, 452.0, 452.0, 453.0, 452.0, 453.0, 452.0, 452.0, 452.0, 452.0, 452.0, 453.0, 452.0, 453.0, 453.0, 453.0, 452.0, 453.0, 452.0, 453.0, 453.0, 452.0, 452.0, 452.0, 452.0, 452.0, 452.0, 452.0, 452.0, 452.0, 452.0, 452.0, 452.0, 452.0],
      "WindowWidth": [943.0, 943.0, 943.0, 943.0, 936.0, 939.0, 936.0, 936.0, 936.0, 937.0, 936.0, 935.0, 936.0, 936.0, 935.0, 935.0, 935.0, 935.0, 935.0, 936.0, 942.0, 936.0, 939.0, 936.0, 935.0, 935.0, 935.0, 935.0, 935.0, 940.0, 936.0, 937.0, 935.0, 934.0, 942.0, 942.0, 942.0, 942.0, 939.0, 934.0, 939.0, 943.0, 942.0, 942.0, 942.0, 942.0, 942.0, 943.0, 942.0, 942.0, 942.0, 942.0, 942.0, 942.0, 942.0, 942.0, 942.0, 942.0, 941.0, 937.0, 937.0, 941.0, 942.0, 942.0, 942.0, 942.0, 942.0, 941.0, 934.0, 935.0, 942.0, 942.0, 941.0, 938.0, 933.0, 934.0, 937.0, 941.0, 942.0, 941.0, 936.0, 934.0, 938.0, 939.0, 941.0, 941.0, 941.0, 936.0, 942.0, 942.0, 941.0, 941.0, 942.0, 941.0, 941.0, 941.0, 941.0, 942.0, 941.0, 941.0, 941.0, 941.0, 941.0, 941.0, 941.0, 942.0, 942.0, 941.0, 941.0, 941.0, 941.0, 941.0, 941.0, 941.0, 941.0, 941.0, 941.0, 941.0, 941.0, 941.0, 941.0, 941.0, 941.0, 941.0, 941.0, 941.0, 941.0, 941.0, 941.0, 941.0, 941.0, 941.0, 941.0, 941.0, 940.0, 941.0, 941.0, 941.0, 941.0, 941.0, 941.0, 941.0, 941.0, 941.0, 941.0, 941.0, 941.0, 941.0, 941.0, 941.0, 941.0, 941.0, 941.0, 941.0, 941.0, 941.0, 941.0, 940.0, 940.0, 940.0, 940.0, 940.0, 940.0, 940.0, 940.0, 940.0, 940.0, 940.0, 940.0, 940.0, 940.0, 940.0, 940.0, 940.0, 940.0, 940.0, 940.0, 940.0, 940.0, 940.0, 940.0, 940.0, 940.0, 940.0, 940.0, 940.0, 940.0, 940.0, 940.0, 940.0, 940.0, 940.0, 940.0, 939.0, 939.0, 939.0, 940.0, 940.0, 940.0, 940.0]
    },
    "slices": {}
  }
}