{
  "AcquisitionMatrixPE": 80,
  "AcquisitionNumber": 1,
  "AcquisitionTime": "09:45:26.457500",
  "BandwidthPerPixelPhaseEncode": 25,
  "BaseResolution": 80,
  "BodyPartExamined": "BRAIN",
  "CoilCombinationMethod": "Sum of Squares",
  "ConsistencyInfo": "N4_VE11E_LATEST_20181129",
  "ConversionSoftware": "dcm2niix",
  "ConversionSoftwareVersion": "v1.0.20220720",
  "DerivedVendorReportedEchoSpacing": 0.0005,
  "DeviceSerialNumber": "66112",
  "DwellTime": 2.7e-06,
  "EchoTime": 0.03,
  "EchoTrainLength": 80,
  "EffectiveEchoSpacing": 0.0005,
  "FlipAngle": 77,
  "HeudiconvVersion": "0.13.1",
  "ImageOrientationPatientDICOM": [0.984315, -0.176399, 0.00281787, 0.167545, 0.939674, 0.298231],
  "ImageOrientationText": "Tra>Cor(17.1)>Sag(3.2)",
  "ImageType": [
    "ORIGINAL",
    "PRIMARY",
    "M",
    "ND",
    "NORM",
    "MOSAIC"
],
  "ImagingFrequency": 123.252,
  "InPlanePhaseEncodingDirectionDICOM": "COL",
  "InstitutionAddress": "Maynard 3,Hanover,NH,US,03755",
  "InstitutionName": "Dartmouth College - PBS",
  "InstitutionalDepartmentName": "Department",
  "MRAcquisitionType": "2D",
  "MagneticFieldStrength": 3,
  "Manufacturer": "Siemens",
  "ManufacturersModelName": "Prisma",
  "MatrixCoilMode": "SENSE",
  "Modality": "MR",
  "NonlinearGradientCorrection": false,
  "PartialFourier": 1,
  "PatientPosition": "HFS",
  "PercentPhaseFOV": 100,
  "PercentSampling": 100,
  "PhaseEncodingDirection": "j-",
  "PhaseEncodingSteps": 80,
  "PhaseResolution": 1,
  "PixelBandwidth": 2315,
  "ProcedureStepDescription": "dbic^QA",
  "ProtocolName": "func-bold_fa-77",
  "PulseSequenceDetails": "%SiemensSeq%\\ep2d_bold",
  "ReceiveCoilActiveElements": "HEA;HEP",
  "ReceiveCoilName": "Head_32",
  "ReconMatrixPE": 80,
  "RepetitionTime": 2,
  "SAR": 0.0435345,
  "ScanOptions": "FS",
  "ScanningSequence": "EP",
  "SequenceName": "*epfid2d1_80",
  "SequenceVariant": "SK",
  "SeriesDescription": "func-bold_fa-77",
  "SeriesNumber": 8,
  "ShimSetting": [4144, -7694, -7522, 279, -80, -129, -29, 69],
  "SliceThickness": 3.5,
  "SliceTiming": [0.99, 0, 1.055, 0.065, 1.1225, 0.1325, 1.1875, 0.1975, 1.255, 0.265, 1.32, 0.33, 1.385, 0.395, 1.4525, 0.4625, 1.5175, 0.5275, 1.585, 0.595, 1.65, 0.66, 1.715, 0.725, 1.7825, 0.7925, 1.8475, 0.8575, 1.915, 0.925],
  "SoftwareVersions": "syngo MR E11",
  "SpacingBetweenSlices": 3.99,
  "StationName": "AWP66112",
  "TotalReadoutTime": 0.0395,
  "TxRefAmp": 229.607,
  "dcmmeta_affine": [
    [-2.952944278717041, 0.5026346445083618, 0.22046925127506256, 95.068603515625],
    [0.5291961431503296, 2.819021463394165, 1.169393539428711, -146.33946228027344],
    [0.00845359731465578, -0.89469313621521, 3.808413505554199, -20.86005973815918],
    [0.0, 0.0, 0.0, 1.0]
],
  "dcmmeta_reorient_transform": [
    [0.0, -1.0, 0.0, 79.0],
    [1.0, 0.0, 0.0, 0.0],
    [0.0, 0.0, 1.0, 0.0],
    [0.0, 0.0, 0.0, 1.0]
],
  "dcmmeta_shape": [80, 80, 30, 200],
  "dcmmeta_slice_dim": 2,
  "dcmmeta_version": 0.6,
  "global": {
    "const": {
      "AccessionNumber": "qa",
      "AcquisitionMatrix": [80, 0, 0, 80],
      "AngioFlag": "N",
      "BitsAllocated": 16,
      "BitsStored": 12,
      "BodyPartExamined": "BRAIN",
      "Columns": 480,
      "EchoNumbers": 1,
      "EchoTime": 30.0,
      "EchoTrainLength": 80,
      "FlipAngle": 77.0,
      "HighBit": 11,
      "ImageOrientationPatient": [0.98431476203066, -0.1763987213128, 0.00281786581695, 0.16754487346259, 0.93967385970404, 0.29823103923858],
      "ImagePositionPatient": [-825.89251903135, -534.32833088868, -272.17015914974],
      "ImageType": [
        "ORIGINAL",
        "PRIMARY",
        "M",
        "ND",
        "NORM",
        "MOSAIC"
],
      "ImagedNucleus": "1H",
      "ImagingFrequency": 123.252371,
      "InPlanePhaseEncodingDirection": "COL",
      "MRAcquisitionType": "2D",
      "MagneticFieldStrength": 3.0,
      "Manufacturer": "SIEMENS",
      "ManufacturerModelName": "Prisma",
      "Modality": "MR",
      "NumberOfAverages": 1.0,
      "NumberOfPhaseEncodingSteps": 80,
      "PercentPhaseFieldOfView": 100.0,
      "PercentSampling": 100.0,
      "PerformedProcedureStepStartTime": "092919.541000",
      "PhotometricInterpretation": "MONOCHROME2",
      "PixelBandwidth": 2315.0,
      "PixelRepresentation": 0,
      "PixelSpacing": [3.0, 3.0],
      "ProtocolName": "func-bold_fa-77",
      "RepetitionTime": 2000.0,
      "Rows": 480,
      "SAR": 0.0435344577837,
      "SamplesPerPixel": 1,
      "ScanOptions": "FS",
      "ScanningSequence": "EP",
      "SequenceName": "*epfid2d1_80",
      "SequenceVariant": "SK",
      "SeriesDescription": "func-bold_fa-77",
      "SeriesNumber": 8,
      "SeriesTime": "094619.728000",
      "SliceLocation": -57.546979192375,
      "SliceThickness": 3.5,
      "SmallestImagePixelValue": 0,
      "SoftwareVersions": "syngo MR E11",
      "SpacingBetweenSlices": 3.9900000932531,
      "SpecificCharacterSet": "ISO_IR 100",
      "StudyID": "2",
      "StudyTime": "092919.487000",
      "TransmitCoilName": "Body",
      "VariableFlipAngleFlag": "N",
      "WindowCenterWidthExplanation": "Algo1"
    },
    "slices": {}
  },
  "time": {
    "samples": {
      "AcquisitionNumber": [1, 2, 3, 4, 5, 6, 7, 8, 9, 10, 11, 12, 13, 14, 15, 16, 17, 18, 19, 20, 21, 22, 23, 24, 25, 26, 27, 28, 29, 30, 31, 32, 33, 34, 35, 36, 37, 38, 39, 40, 41, 42, 43, 44, 45, 46, 47, 48, 49, 50, 51, 52, 53, 54, 55, 56, 57, 58, 59, 60, 61, 62, 63, 64, 65, 66, 67, 68, 69, 70, 71, 72, 73, 74, 75, 76, 77, 78, 79, 80, 81, 82, 83, 84, 85, 86, 87, 88, 89, 90, 91, 92, 93, 94, 95, 96, 97, 98, 99, 100, 101, 102, 103, 104, 105, 106, 107, 108, 109, 110, 111, 112, 113, 114, 115, 116, 117, 118, 119, 120, 121, 122, 123, 124, 125, 126, 127, 128, 129, 130, 131, 132, 133, 134, 135, 136, 137, 138, 139, 140, 141, 142, 143, 144, 145, 146, 147, 148, 149, 150, 151, 152, 153, 154, 155, 156, 157, 158, 159, 160, 161, 162, 163, 164, 165, 166, 167, 168, 169, 170, 171, 172, 173, 174, 175, 176, 177, 178, 179, 180, 181, 182, 183, 184, 185, 186, 187, 188, 189, 190, 191, 192, 193, 194, 195, 196, 197, 198, 199, 200],
      "AcquisitionTime": ["094526.457500", "094528.457500", "094530.457500", "094532.457500", "094534.457500", "094536.457500", "094538.457500", "094540.457500", "094542.457500", "094544.457500", "094546.457500", "094548.457500", "094550.457500", "094552.457500", "094554.457500", "094556.457500", "094558.457500", "094600.457500", "094602.457500", "094604.457500", "094606.457500", "094608.457500", "094610.457500", "094612.457500", "094614.457500", "094616.457500", "094618.457500", "094620.457500", "094622.457500", "094624.457500", "094626.457500", "094628.457500", "094630.457500", "094632.457500", "094634.457500", "094636.457500", "094638.457500", "094640.457500", "094642.457500", "094644.457500", "094646.457500", "094648.457500", "094650.457500", "094652.457500", "094654.457500", "094656.457500", "094658.457500", "094700.457500", "094702.457500", "094704.457500", "094706.457500", "094708.457500", "094710.457500", "094712.457500", "094714.457500", "094716.457500", "094718.457500", "094720.457500", "094722.457500", "094724.457500", "094726.457500", "094728.457500", "094730.457500", "094732.457500", "094734.457500", "094736.457500", "094738.457500", "094740.457500", "094742.457500", "094744.457500", "094746.457500", "094748.457500", "094750.457500", "094752.457500", "094754.457500", "094756.457500", "094758.457500", "094800.457500", "094802.457500", "094804.457500", "094806.457500", "094808.457500", "094810.457500", "094812.457500", "094814.457500", "094816.457500", "094818.457500", "094820.457500", "094822.457500", "094824.457500", "094826.457500", "094828.457500", "094830.457500", "094832.457500", "094834.457500", "094836.457500", "094838.457500", "094840.457500", "094842.457500", "094844.457500", "094846.457500", "094848.457500", "094850.457500", "094852.457500", "094854.457500", "094856.457500", "094858.457500", "094900.457500", "094902.457500", "094904.457500", "094906.457500", "094908.457500", "094910.457500", "094912.457500", "094914.457500", "094916.457500", "094918.457500", "094920.457500", "094922.457500", "094924.457500", "094926.457500", "094928.457500", "094930.457500", "094932.457500", "094934.457500", "094936.457500", "094938.457500", "094940.457500", "094942.457500", "094944.457500", "094946.457500", "094948.457500", "094950.457500", "094952.457500", "094954.457500", "094956.457500", "094958.457500", "095000.457500", "095002.457500", "095004.457500", "095006.457500", "095008.457500", "095010.457500", "095012.457500", "095014.457500", "095016.457500", "095018.457500", "095020.457500", "095022.457500", "095024.457500", "095026.457500", "095028.457500", "095030.457500", "095032.457500", "095034.457500", "095036.457500", "095038.457500", "095040.457500", "095042.457500", "095044.457500", "095046.457500", "095048.457500", "095050.457500", "095052.457500", "095054.457500", "095056.457500", "095058.457500", "095100.457500", "095102.457500", "095104.457500", "095106.457500", "095108.457500", "095110.457500", "095112.457500", "095114.457500", "095116.457500", "095118.457500", "095120.457500", "095122.457500", "095124.457500", "095126.457500", "095128.457500", "095130.457500", "095132.457500", "095134.457500", "095136.457500", "095138.457500", "095140.457500", "095142.457500", "095144.457500", "095146.457500", "095148.457500", "095150.457500", "095152.457500", "095154.457500", "095156.457500", "095158.457500", "095200.457500", "095202.457500", "095204.457500"],
      "ContentTime": ["094619.731000", "094619.734000", "094619.737000", "094619.739000", "094619.741000", "094619.743000", "094619.746000", "094619.748000", "094619.750000", "094619.753000", "094619.755000", "094619.757000", "094619.760000", "094619.762000", "094619.764000", "094619.767000", "094619.769000", "094619.771000", "094619.774000", "094619.776000", "094619.778000", "094619.780000", "094619.787000", "094619.789000", "094619.792000", "094619.794000", "094619.796000", "094659.725000", "094659.728000", "094659.730000", "094659.732000", "094659.735000", "094659.737000", "094659.739000", "094659.742000", "094659.744000", "094659.746000", "094659.749000", "094659.751000", "094659.753000", "094659.756000", "094659.758000", "094659.760000", "094659.763000", "094659.765000", "094659.767000", "094659.769000", "094739.726000", "094739.729000", "094739.731000", "094739.733000", "094739.736000", "094739.738000", "094739.740000", "094739.743000", "094739.745000", "094739.747000", "094739.750000", "094739.752000", "094739.754000", "094739.757000", "094739.759000", "094739.761000", "094739.763000", "094739.766000", "094739.768000", "094739.770000", "094819.726000", "094819.729000", "094819.731000", "094819.733000", "094819.736000", "094819.738000", "094819.740000", "094819.743000", "094819.745000", "094819.747000", "094819.750000", "094819.752000", "094819.754000", "094819.757000", "094819.773000", "094819.775000", "094819.778000", "094819.780000", "094819.782000", "094819.785000", "094859.726000", "094859.728000", "094859.731000", "094859.733000", "094859.735000", "094859.738000", "094859.740000", "094859.742000", "094859.745000", "094859.747000", "094859.749000", "094859.752000", "094859.754000", "094859.757000", "094859.759000", "094859.761000", "094859.764000", "094859.766000", "094859.768000", "094859.770000", "094939.726000", "094939.729000", "094939.731000", "094939.733000", "094939.736000", "094939.738000", "094939.740000", "094939.743000", "094939.745000", "094939.747000", "094939.750000", "094939.752000", "094939.754000", "094939.757000", "094939.759000", "094939.761000", "094939.764000", "094939.766000", "094939.768000", "094939.771000", "095019.726000", "095019.729000", "095019.731000", "095019.733000", "095019.736000", "095019.738000", "095019.740000", "095019.743000", "095019.745000", "095019.747000", "095019.749000", "095019.752000", "095019.754000", "095019.756000", "095019.759000", "095019.761000", "095019.763000", "095019.766000", "095019.768000", "095019.770000", "095059.726000", "095059.728000", "095059.731000", "095059.733000", "095059.736000", "095059.738000", "095059.740000", "095059.743000", "095059.745000", "095059.747000", "095059.749000", "095059.752000", "095059.754000", "095059.756000", "095059.759000", "095059.761000", "095059.764000", "095059.766000", "095059.768000", "095059.770000", "095139.725000", "095139.728000", "095139.730000", "095139.732000", "095139.735000", "095139.737000", "095139.739000", "095139.742000", "095139.744000", "095139.747000", "095139.749000", "095139.751000", "095139.754000", "095139.756000", "095139.758000", "095139.761000", "095139.763000", "095139.765000", "095139.768000", "095139.770000", "095205.637000", "095205.640000", "095205.642000", "095205.644000", "095205.647000", "095205.650000", "095205.652000", "095205.654000", "095205.657000", "095205.659000", "095205.661000", "095205.664000", "095205.666000"],
      "InstanceCreationTime": ["094619.731000", "094619.734000", "094619.737000", "094619.739000", "094619.741000", "094619.743000", "094619.746000", "094619.748000", "094619.750000", "094619.753000", "094619.755000", "094619.757000", "094619.760000", "094619.762000", "094619.764000", "094619.767000", "094619.769000", "094619.771000", "094619.774000", "094619.776000", "094619.778000", "094619.780000", "094619.787000", "094619.789000", "094619.792000", "094619.794000", "094619.796000", "094659.725000", "094659.728000", "094659.730000", "094659.732000", "094659.735000", "094659.737000", "094659.739000", "094659.742000", "094659.744000", "094659.746000", "094659.749000", "094659.751000", "094659.753000", "094659.756000", "094659.758000", "094659.760000", "094659.763000", "094659.765000", "094659.767000", "094659.769000", "094739.726000", "094739.729000", "094739.731000", "094739.733000", "094739.736000", "094739.738000", "094739.740000", "094739.743000", "094739.745000", "094739.747000", "094739.750000", "094739.752000", "094739.754000", "094739.757000", "094739.759000", "094739.761000", "094739.763000", "094739.766000", "094739.768000", "094739.770000", "094819.726000", "094819.729000", "094819.731000", "094819.733000", "094819.736000", "094819.738000", "094819.740000", "094819.743000", "094819.745000", "094819.747000", "094819.750000", "094819.752000", "094819.754000", "094819.757000", "094819.773000", "094819.775000", "094819.778000", "094819.780000", "094819.782000", "094819.785000", "094859.726000", "094859.728000", "094859.731000", "094859.733000", "094859.735000", "094859.738000", "094859.740000", "094859.742000", "094859.745000", "094859.747000", "094859.749000", "094859.752000", "094859.754000", "094859.757000", "094859.759000", "094859.761000", "094859.764000", "094859.766000", "094859.768000", "094859.770000", "094939.726000", "094939.729000", "094939.731000", "094939.733000", "094939.736000", "094939.738000", "094939.740000", "094939.743000", "094939.745000", "094939.747000", "094939.750000", "094939.752000", "094939.754000", "094939.757000", "094939.759000", "094939.761000", "094939.764000", "094939.766000", "094939.768000", "094939.771000", "095019.726000", "095019.729000", "095019.731000", "095019.733000", "095019.736000", "095019.738000", "095019.740000", "095019.743000", "095019.745000", "095019.747000", "095019.749000", "095019.752000", "095019.754000", "095019.756000", "095019.759000", "095019.761000", "095019.763000", "095019.766000", "095019.768000", "095019.770000", "095059.726000", "095059.728000", "095059.731000", "095059.733000", "095059.736000", "095059.738000", "095059.740000", "095059.743000", "095059.745000", "095059.747000", "095059.749000", "095059.752000", "095059.754000", "095059.756000", "095059.759000", "095059.761000", "095059.764000", "095059.766000", "095059.768000", "095059.770000", "095139.725000", "095139.728000", "095139.730000", "095139.732000", "095139.735000", "095139.737000", "095139.739000", "095139.742000", "095139.744000", "095139.747000", "095139.749000", "095139.751000", "095139.754000", "095139.756000", "095139.758000", "095139.761000", "095139.763000", "095139.765000", "095139.768000", "095139.770000", "095205.637000", "095205.640000", "095205.642000", "095205.644000", "095205.647000", "095205.650000", "095205.652000", "095205.654000", "095205.657000", "095205.659000", "095205.661000", "095205.664000", "095205.666000"],
      "InstanceNumber": [1, 2, 3, 4, 5, 6, 7, 8, 9, 10, 11, 12, 13, 14, 15, 16, 17, 18, 19, 20, 21, 22, 23, 24, 25, 26, 27, 28, 29, 30, 31, 32, 33, 34, 35, 36, 37, 38, 39, 40, 41, 42, 43, 44, 45, 46, 47, 48, 49, 50, 51, 52, 53, 54, 55, 56, 57, 58, 59, 60, 61, 62, 63, 64, 65, 66, 67, 68, 69, 70, 71, 72, 73, 74, 75, 76, 77, 78, 79, 80, 81, 82, 83, 84, 85, 86, 87, 88, 89, 90, 91, 92, 93, 94, 95, 96, 97, 98, 99, 100, 101, 102, 103, 104, 105, 106, 107, 108, 109, 110, 111, 112, 113, 114, 115, 116, 117, 118, 119, 120, 121, 122, 123, 124, 125, 126, 127, 128, 129, 130, 131, 132, 133, 134, 135, 136, 137, 138, 139, 140, 141, 142, 143, 144, 145, 146, 147, 148, 149, 150, 151, 152, 153, 154, 155, 156, 157, 158, 159, 160, 161, 162, 163, 164, 165, 166, 167, 168, 169, 170, 171, 172, 173, 174, 175, 176, 177, 178, 179, 180, 181, 182, 183, 184, 185, 186, 187, 188, 189, 190, 191, 192, 193, 194, 195, 196, 197, 198, 199, 200],
      "LargestImagePixelValue": [2221, 2219, 2220, 2217, 2222, 2219, 2220, 2220, 2219, 2220, 2218, 2220, 2220, 2221, 2220, 2220, 2218, 2220, 2218, 2219, 2219, 2219, 2221, 2218, 2219, 2220, 2220, 2220, 2218, 2222, 2220, 2221, 2223, 2221, 2224, 2222, 2223, 2224, 2223, 2222, 2221, 2222, 2220, 2222, 2220, 2223, 2224, 2220, 2222, 2220, 2220, 2219, 2222, 2220, 2220, 2220, 2221, 2222, 2219, 2219, 2219, 2221, 2219, 2220, 2219, 2222, 2218, 2219, 2219, 2221, 2219, 2220, 2221, 2220, 2221, 2221, 2220, 2221, 2221, 2221, 2219, 2221, 2221, 2220, 2222, 2219, 2220, 2221, 2220, 2221, 2222, 2221, 2221, 2220, 2221, 2220, 2220, 2218, 2221, 2220, 2220, 2222, 2221, 2221, 2221, 2222, 2220, 2221, 2220, 2220, 2219, 2220, 2220, 2222, 2221, 2219, 2218, 2221, 2222, 2221, 2220, 2219, 2220, 2220, 2220, 2220, 2220, 2221, 2222, 2221, 2221, 2220, 2220, 2220, 2220, 2220, 2223, 2219, 2221, 2220, 2218, 2220, 2220, 2220, 2219, 2218, 2221, 2218, 2222, 2217, 2220, 2220, 2220, 2221, 2221, 2221, 2220, 2221, 2222, 2219, 2221, 2221, 2221, 2222, 2220, 2221, 2220, 2221, 2220, 2221, 2220, 2221, 2220, 2221, 2221, 2221, 2220, 2223, 2221, 2221, 2221, 2222, 2220, 2222, 2221, 2223, 2222, 2222, 2220, 2223, 2221, 2221, 2222, 2222, 2223, 2220, 2220, 2223, 2221, 2222],
      "WindowCenter": [1020.0, 1020.0, 1021.0, 1021.0, 1019.0, 1020.0, 1020.0, 1020.0, 1020.0, 1019.0, 1020.0, 1019.0, 1021.0, 1020.0, 1020.0, 1020.0, 1021.0, 1020.0, 1021.0, 1019.0, 1019.0, 1020.0, 1020.0, 1020.0, 1021.0, 1021.0, 1021.0, 1020.0, 1020.0, 1020.0, 1020.0, 1021.0, 1020.0, 1020.0, 1020.0, 1021.0, 1019.0, 1020.0, 1020.0, 1021.0, 1020.0, 1021.0, 1020.0, 1020.0, 1020.0, 1020.0, 1021.0, 1019.0, 1020.0, 1019.0, 1021.0, 1021.0, 1020.0, 1021.0, 1019.0, 1019.0, 1020.0, 1020.0, 1020.0, 1020.0, 1020.0, 1020.0, 1020.0, 1020.0, 1020.0, 1019.0, 1020.0, 1019.0, 1019.0, 1019.0, 1019.0, 1019.0, 1018.0, 1019.0, 1019.0, 1020.0, 1020.0, 1020.0, 1020.0, 1020.0, 1020.0, 1018.0, 1019.0, 1019.0, 1020.0, 1020.0, 1019.0, 1019.0, 1018.0, 1019.0, 1019.0, 1019.0, 1020.0, 1020.0, 1018.0, 1020.0, 1018.0, 1018.0, 1020.0, 1019.0, 1018.0, 1018.0, 1019.0, 1018.0, 1020.0, 1020.0, 1020.0, 1019.0, 1020.0, 1019.0, 1018.0, 1020.0, 1018.0, 1019.0, 1020.0, 1020.0, 1018.0, 1020.0, 1020.0, 1019.0, 1018.0, 1019.0, 1019.0, 1019.0, 1020.0, 1018.0, 1019.0, 1020.0, 1019.0, 1018.0, 1020.0, 1018.0, 1020.0, 1018.0, 1018.0, 1018.0, 1018.0, 1018.0, 1018.0, 1019.0, 1020.0, 1019.0, 1020.0, 1020.0, 1020.0, 1019.0, 1019.0, 1019.0, 1019.0, 1018.0, 1019.0, 1019.0, 1019.0, 1018.0, 1018.0, 1018.0, 1019.0, 1019.0, 1018.0, 1018.0, 1020.0, 1018.0, 1019.0, 1019.0, 1019.0, 1019.0, 1019.0, 1018.0, 1019.0, 1018.0, 1019.0, 1019.0, 1018.0, 1019.0, 1019.0, 1020.0, 1019.0, 1020.0, 1018.0, 1019.0, 1018.0, 1019.0, 1018.0, 1020.0, 1019.0, 1019.0, 1018.0, 1019.0, 1018.0, 1018.0, 1019.0, 1019.0, 1018.0, 1020.0, 1019.0, 1019.0, 1019.0, 1019.0, 1018.0, 1020.0],
      "WindowWidth": [2278.0, 2278.0, 2278.0, 2278.0, 2277.0, 2278.0, 2278.0, 2278.0, 2278.0, 2276.0, 2277.0, 2276.0, 2278.0, 2278.0, 2278.0, 2277.0, 2278.0, 2278.0, 2278.0, 2277.0, 2277.0, 2277.0, 2277.0, 2277.0, 2278.0, 2278.0, 2278.0, 2277.0, 2277.0, 2277.0, 2277.0, 2278.0, 2277.0, 2277.0, 2277.0, 2277.0, 2276.0, 2277.0, 2277.0, 2278.0, 2277.0, 2278.0, 2277.0, 2277.0, 2277.0, 2277.0, 2278.0, 2277.0, 2277.0, 2276.0, 2277.0, 2277.0, 2277.0, 2277.0, 2276.0, 2276.0, 2277.0, 2277.0, 2276.0, 2276.0, 2276.0, 2276.0, 2276.0, 2276.0, 2276.0, 2276.0, 2277.0, 2276.0, 2276.0, 2276.0, 2276.0, 2276.0, 2276.0, 2276.0, 2276.0, 2277.0, 2276.0, 2276.0, 2276.0, 2276.0, 2277.0, 2275.0, 2276.0, 2276.0, 2277.0, 2277.0, 2276.0, 2276.0, 2275.0, 2276.0, 2276.0, 2276.0, 2277.0, 2277.0, 2276.0, 2276.0, 2275.0, 2275.0, 2276.0, 2276.0, 2275.0, 2275.0, 2276.0, 2275.0, 2277.0, 2277.0, 2276.0, 2276.0, 2276.0, 2276.0, 2275.0, 2277.0, 2275.0, 2275.0, 2276.0, 2276.0, 2275.0, 2276.0, 2276.0, 2276.0, 2275.0, 2276.0, 2276.0, 2275.0, 2276.0, 2275.0, 2275.0, 2276.0, 2275.0, 2275.0, 2276.0, 2275.0, 2276.0, 2275.0, 2275.0, 2275.0, 2275.0, 2275.0, 2275.0, 2275.0, 2276.0, 2275.0, 2276.0, 2276.0, 2276.0, 2275.0, 2275.0, 2275.0, 2275.0, 2275.0, 2275.0, 2275.0, 2275.0, 2274.0, 2274.0, 2274.0, 2275.0, 2275.0, 2274.0, 2274.0, 2276.0, 2274.0, 2275.0, 2275.0, 2275.0, 2275.0, 2275.0, 2274.0, 2275.0, 2274.0, 2275.0, 2275.0, 2274.0, 2275.0, 2275.0, 2276.0, 2275.0, 2276.0, 2274.0, 2275.0, 2274.0, 2275.0, 2274.0, 2276.0, 2275.0, 2274.0, 2274.0, 2275.0, 2274.0, 2274.0, 2275.0, 2275.0, 2274.0, 2276.0, 2275.0, 2275.0, 2275.0, 2274.0, 2274.0, 2276.0]
    },
    "slices": {}
  }
}