{
  "AcquisitionMatrixPE": 80,
  "AcquisitionNumber": 1,
  "AcquisitionTime": "09:31:42.730000",
  "BandwidthPerPixelPhaseEncode": 48.077,
  "BaseResolution": 80,
  "BodyPartExamined": "BRAIN",
  "CoilCombinationMethod": "Sum of Squares",
  "ConsistencyInfo": "N4_VE11E_LATEST_20181129",
  "ConversionSoftware": "dcm2niix",
  "ConversionSoftwareVersion": "v1.0.20220720",
  "DerivedVendorReportedEchoSpacing": 0.000519999,
  "DeviceSerialNumber": "66112",
  "DwellTime": 2.7e-06,
  "EchoTime": 0.035,
  "EchoTrainLength": 39,
  "EffectiveEchoSpacing": 0.00026,
  "FlipAngle": 90,
  "HeudiconvVersion": "0.13.1",
  "ImageOrientationPatientDICOM": [0.984315, -0.176399, 0.00281787, 0.167545, 0.939674, 0.298231],
  "ImageOrientationText": "Tra>Cor(17.1)>Sag(3.2)",
  "ImageType": [
    "ORIGINAL",
    "PRIMARY",
    "M",
    "ND",
    "NORM",
    "MOSAIC"
],
  "ImagingFrequency": 123.252,
  "InPlanePhaseEncodingDirectionDICOM": "COL",
  "InstitutionAddress": "Maynard 3,Hanover,NH,US,03755",
  "InstitutionName": "Dartmouth College - PBS",
  "InstitutionalDepartmentName": "Department",
  "MRAcquisitionType": "2D",
  "MagneticFieldStrength": 3,
  "Manufacturer": "Siemens",
  "ManufacturersModelName": "Prisma",
  "MatrixCoilMode": "GRAPPA",
  "Modality": "MR",
  "NonlinearGradientCorrection": false,
  "ParallelReductionFactorInPlane": 2,
  "PartialFourier": 1,
  "PatientPosition": "HFS",
  "PercentPhaseFOV": 100,
  "PercentSampling": 100,
  "PhaseEncodingDirection": "j-",
  "PhaseEncodingSteps": 79,
  "PhaseResolution": 1,
  "PixelBandwidth": 2315,
  "ProcedureStepDescription": "dbic^QA",
  "ProtocolName": "func-bold_task-rest_acq-p2",
  "PulseSequenceDetails": "%SiemensSeq%\\ep2d_bold",
  "ReceiveCoilActiveElements": "HEA;HEP",
  "ReceiveCoilName": "Head_32",
  "ReconMatrixPE": 80,
  "RefLinesPE": 24,
  "RepetitionTime": 2,
  "SAR": 0.0553979,
  "ScanOptions": "FS",
  "ScanningSequence": "EP",
  "SequenceName": "*epfid2d1_80",
  "SequenceVariant": "SK",
  "SeriesDescription": "func-bold_task-rest_acq-p2",
  "SeriesNumber": 5,
  "ShimSetting": [4144, -7694, -7522, 279, -80, -129, -29, 69],
  "SliceThickness": 3.5,
  "SliceTiming": [0.99, 0, 1.055, 0.065, 1.1225, 0.1325, 1.1875, 0.1975, 1.255, 0.265, 1.32, 0.33, 1.385, 0.395, 1.4525, 0.4625, 1.5175, 0.5275, 1.585, 0.595, 1.65, 0.66, 1.715, 0.725, 1.7825, 0.7925, 1.8475, 0.8575, 1.915, 0.925],
  "SoftwareVersions": "syngo MR E11",
  "SpacingBetweenSlices": 3.99,
  "StationName": "AWP66112",
  "TaskName": "rest",
  "TotalReadoutTime": 0.02054,
  "TxRefAmp": 229.607,
  "dcmmeta_affine": [
    [-2.952944278717041, 0.5026346445083618, 0.22046923637390137, 94.854248046875],
    [0.5291961431503296, 2.819021463394165, 1.169393539428711, -147.54156494140625],
    [0.00845359731465578, -0.89469313621521, 3.80841326713562, -20.484182357788086],
    [0.0, 0.0, 0.0, 1.0]
],
  "dcmmeta_reorient_transform": [
    [0.0, -1.0, 0.0, 79.0],
    [1.0, 0.0, 0.0, 0.0],
    [0.0, 0.0, 1.0, 0.0],
    [0.0, 0.0, 0.0, 1.0]
],
  "dcmmeta_shape": [80, 80, 30, 200],
  "dcmmeta_slice_dim": 2,
  "dcmmeta_version": 0.6,
  "global": {
    "const": {
      "AccessionNumber": "qa",
      "AcquisitionMatrix": [80, 0, 0, 80],
      "AngioFlag": "N",
      "BitsAllocated": 16,
      "BitsStored": 12,
      "BodyPartExamined": "BRAIN",
      "Columns": 480,
      "EchoNumbers": 1,
      "EchoTime": 35.0,
      "EchoTrainLength": 39,
      "FlipAngle": 90.0,
      "HighBit": 11,
      "ImageOrientationPatient": [0.98431476203066, -0.1763987213128, 0.00281786581695, 0.16754487346259, 0.93967385970404, 0.29823103923858],
      "ImagePositionPatient": [-825.67816284735, -533.12622059815, -271.79428176937],
      "ImageType": [
        "ORIGINAL",
        "PRIMARY",
        "M",
        "ND",
        "NORM",
        "MOSAIC"
],
      "ImagedNucleus": "1H",
      "ImagingFrequency": 123.252372,
      "InPlanePhaseEncodingDirection": "COL",
      "MRAcquisitionType": "2D",
      "MagneticFieldStrength": 3.0,
      "Manufacturer": "SIEMENS",
      "ManufacturerModelName": "Prisma",
      "Modality": "MR",
      "NumberOfAverages": 1.0,
      "NumberOfPhaseEncodingSteps": 79,
      "PercentPhaseFieldOfView": 100.0,
      "PercentSampling": 100.0,
      "PerformedProcedureStepStartTime": "092919.541000",
      "PhotometricInterpretation": "MONOCHROME2",
      "PixelBandwidth": 2315.0,
      "PixelRepresentation": 0,
      "PixelSpacing": [3.0, 3.0],
      "ProtocolName": "func-bold_task-rest_acq-p2",
      "RepetitionTime": 2000.0,
      "Rows": 480,
      "SAR": 0.05539793403558,
      "SamplesPerPixel": 1,
      "ScanOptions": "FS",
      "ScanningSequence": "EP",
      "SequenceName": "*epfid2d1_80",
      "SequenceVariant": "SK",
      "SeriesDescription": "func-bold_task-rest_acq-p2",
      "SeriesNumber": 5,
      "SeriesTime": "093239.813000",
      "SliceLocation": -57.552368307537,
      "SliceThickness": 3.5,
      "SmallestImagePixelValue": 0,
      "SoftwareVersions": "syngo MR E11",
      "SpacingBetweenSlices": 3.9899999681526,
      "SpecificCharacterSet": "ISO_IR 100",
      "StudyID": "2",
      "StudyTime": "092919.487000",
      "TransmitCoilName": "Body",
      "VariableFlipAngleFlag": "N",
      "WindowCenterWidthExplanation": "Algo1"
    },
    "slices": {}
  },
  "time": {
    "samples": {
      "AcquisitionNumber": [1, 2, 3, 4, 5, 6, 7, 8, 9, 10, 11, 12, 13, 14, 15, 16, 17, 18, 19, 20, 21, 22, 23, 24, 25, 26, 27, 28, 29, 30, 31, 32, 33, 34, 35, 36, 37, 38, 39, 40, 41, 42, 43, 44, 45, 46, 47, 48, 49, 50, 51, 52, 53, 54, 55, 56, 57, 58, 59, 60, 61, 62, 63, 64, 65, 66, 67, 68, 69, 70, 71, 72, 73, 74, 75, 76, 77, 78, 79, 80, 81, 82, 83, 84, 85, 86, 87, 88, 89, 90, 91, 92, 93, 94, 95, 96, 97, 98, 99, 100, 101, 102, 103, 104, 105, 106, 107, 108, 109, 110, 111, 112, 113, 114, 115, 116, 117, 118, 119, 120, 121, 122, 123, 124, 125, 126, 127, 128, 129, 130, 131, 132, 133, 134, 135, 136, 137, 138, 139, 140, 141, 142, 143, 144, 145, 146, 147, 148, 149, 150, 151, 152, 153, 154, 155, 156, 157, 158, 159, 160, 161, 162, 163, 164, 165, 166, 167, 168, 169, 170, 171, 172, 173, 174, 175, 176, 177, 178, 179, 180, 181, 182, 183, 184, 185, 186, 187, 188, 189, 190, 191, 192, 193, 194, 195, 196, 197, 198, 199, 200],
      "AcquisitionTime": ["093142.730000", "093144.730000", "093146.730000", "093148.730000", "093150.730000", "093152.730000", "093154.730000", "093156.730000", "093158.730000", "093200.730000", "093202.730000", "093204.730000", "093206.730000", "093208.730000", "093210.730000", "093212.730000", "093214.730000", "093216.730000", "093218.730000", "093220.730000", "093222.730000", "093224.730000", "093226.730000", "093228.730000", "093230.730000", "093232.730000", "093234.730000", "093236.730000", "093238.730000", "093240.730000", "093242.730000", "093244.730000", "093246.730000", "093248.730000", "093250.730000", "093252.730000", "093254.730000", "093256.730000", "093258.730000", "093300.730000", "093302.730000", "093304.730000", "093306.730000", "093308.730000", "093310.730000", "093312.730000", "093314.730000", "093316.730000", "093318.730000", "093320.730000", "093322.730000", "093324.730000", "093326.730000", "093328.730000", "093330.730000", "093332.730000", "093334.730000", "093336.730000", "093338.730000", "093340.730000", "093342.730000", "093344.730000", "093346.730000", "093348.730000", "093350.730000", "093352.730000", "093354.730000", "093356.730000", "093358.730000", "093400.730000", "093402.730000", "093404.730000", "093406.730000", "093408.730000", "093410.730000", "093412.730000", "093414.730000", "093416.730000", "093418.730000", "093420.730000", "093422.730000", "093424.730000", "093426.730000", "093428.730000", "093430.730000", "093432.730000", "093434.730000", "093436.730000", "093438.730000", "093440.730000", "093442.730000", "093444.730000", "093446.730000", "093448.730000", "093450.730000", "093452.730000", "093454.730000", "093456.730000", "093458.730000", "093500.730000", "093502.730000", "093504.730000", "093506.730000", "093508.730000", "093510.730000", "093512.730000", "093514.730000", "093516.730000", "093518.730000", "093520.730000", "093522.730000", "093524.730000", "093526.730000", "093528.730000", "093530.730000", "093532.730000", "093534.730000", "093536.730000", "093538.730000", "093540.730000", "093542.730000", "093544.730000", "093546.730000", "093548.730000", "093550.730000", "093552.730000", "093554.730000", "093556.730000", "093558.730000", "093600.730000", "093602.730000", "093604.730000", "093606.730000", "093608.730000", "093610.730000", "093612.730000", "093614.730000", "093616.730000", "093618.730000", "093620.730000", "093622.730000", "093624.730000", "093626.730000", "093628.730000", "093630.730000", "093632.730000", "093634.730000", "093636.730000", "093638.730000", "093640.730000", "093642.730000", "093644.730000", "093646.730000", "093648.730000", "093650.730000", "093652.730000", "093654.730000", "093656.730000", "093658.730000", "093700.730000", "093702.730000", "093704.730000", "093706.730000", "093708.730000", "093710.730000", "093712.730000", "093714.730000", "093716.730000", "093718.730000", "093720.730000", "093722.730000", "093724.730000", "093726.730000", "093728.730000", "093730.730000", "093732.730000", "093734.730000", "093736.730000", "093738.730000", "093740.730000", "093742.730000", "093744.730000", "093746.730000", "093748.730000", "093750.730000", "093752.730000", "093754.730000", "093756.730000", "093758.730000", "093800.730000", "093802.730000", "093804.730000", "093806.730000", "093808.730000", "093810.730000", "093812.730000", "093814.730000", "093816.730000", "093818.730000", "093820.730000"],
      "ContentTime": ["093239.816000", "093239.819000", "093239.821000", "093239.824000", "093239.826000", "093239.828000", "093239.830000", "093239.833000", "093239.835000", "093239.837000", "093239.840000", "093239.842000", "093239.844000", "093239.847000", "093239.849000", "093239.851000", "093239.853000", "093239.856000", "093239.858000", "093239.860000", "093239.862000", "093239.887000", "093239.890000", "093239.892000", "093239.894000", "093239.897000", "093239.899000", "093239.901000", "093319.811000", "093319.878000", "093319.880000", "093319.882000", "093319.885000", "093319.887000", "093319.889000", "093319.892000", "093319.894000", "093319.896000", "093319.898000", "093319.901000", "093319.903000", "093319.905000", "093319.908000", "093319.910000", "093319.912000", "093319.914000", "093319.917000", "093319.919000", "093359.812000", "093359.814000", "093359.816000", "093359.819000", "093359.821000", "093359.823000", "093359.826000", "093359.828000", "093359.830000", "093359.832000", "093359.835000", "093359.837000", "093359.839000", "093359.842000", "093359.844000", "093359.846000", "093359.849000", "093359.851000", "093359.853000", "093359.855000", "093439.811000", "093439.814000", "093439.816000", "093439.819000", "093439.821000", "093439.823000", "093439.825000", "093439.835000", "093439.838000", "093439.840000", "093439.842000", "093439.845000", "093439.847000", "093439.849000", "093439.852000", "093439.854000", "093439.856000", "093439.859000", "093439.861000", "093439.863000", "093519.812000", "093519.920000", "093519.922000", "093519.925000", "093519.927000", "093519.929000", "093519.932000", "093519.934000", "093519.936000", "093519.939000", "093519.941000", "093519.943000", "093519.946000", "093519.948000", "093519.950000", "093519.953000", "093519.955000", "093519.957000", "093519.960000", "093519.962000", "093559.811000", "093559.949000", "093559.951000", "093559.953000", "093559.956000", "093559.958000", "093559.960000", "093559.962000", "093559.965000", "093559.967000", "093559.969000", "093559.972000", "093559.974000", "093559.976000", "093559.979000", "093559.981000", "093559.984000", "093559.986000", "093559.989000", "093559.991000", "093639.811000", "093639.814000", "093639.816000", "093639.818000", "093639.821000", "093639.823000", "093639.826000", "093639.828000", "093639.830000", "093639.833000", "093639.835000", "093639.838000", "093639.840000", "093639.842000", "093639.845000", "093639.847000", "093639.849000", "093639.852000", "093639.854000", "093639.856000", "093719.811000", "093719.814000", "093719.816000", "093719.819000", "093719.821000", "093719.823000", "093719.826000", "093719.828000", "093719.830000", "093719.833000", "093719.835000", "093719.837000", "093719.840000", "093719.842000", "093719.844000", "093719.847000", "093719.849000", "093719.852000", "093719.854000", "093719.856000", "093759.810000", "093759.813000", "093759.815000", "093759.818000", "093759.820000", "093759.822000", "093759.825000", "093759.827000", "093759.830000", "093759.832000", "093759.834000", "093759.837000", "093759.839000", "093759.841000", "093759.844000", "093759.846000", "093759.849000", "093759.851000", "093759.853000", "093759.856000", "093822.749000", "093822.755000", "093822.758000", "093822.767000", "093822.775000", "093822.777000", "093822.780000", "093822.783000", "093822.786000", "093822.789000", "093822.793000", "093822.796000"],
      "InstanceCreationTime": ["093239.816000", "093239.819000", "093239.821000", "093239.824000", "093239.826000", "093239.828000", "093239.830000", "093239.833000", "093239.835000", "093239.837000", "093239.840000", "093239.842000", "093239.844000", "093239.847000", "093239.849000", "093239.851000", "093239.853000", "093239.856000", "093239.858000", "093239.860000", "093239.862000", "093239.887000", "093239.890000", "093239.892000", "093239.894000", "093239.897000", "093239.899000", "093239.901000", "093319.811000", "093319.878000", "093319.880000", "093319.882000", "093319.885000", "093319.887000", "093319.889000", "093319.892000", "093319.894000", "093319.896000", "093319.898000", "093319.901000", "093319.903000", "093319.905000", "093319.908000", "093319.910000", "093319.912000", "093319.914000", "093319.917000", "093319.919000", "093359.812000", "093359.814000", "093359.816000", "093359.819000", "093359.821000", "093359.823000", "093359.826000", "093359.828000", "093359.830000", "093359.832000", "093359.835000", "093359.837000", "093359.839000", "093359.842000", "093359.844000", "093359.846000", "093359.849000", "093359.851000", "093359.853000", "093359.855000", "093439.811000", "093439.814000", "093439.816000", "093439.819000", "093439.821000", "093439.823000", "093439.825000", "093439.835000", "093439.838000", "093439.840000", "093439.842000", "093439.845000", "093439.847000", "093439.849000", "093439.852000", "093439.854000", "093439.856000", "093439.859000", "093439.861000", "093439.863000", "093519.812000", "093519.920000", "093519.922000", "093519.925000", "093519.927000", "093519.929000", "093519.932000", "093519.934000", "093519.936000", "093519.939000", "093519.941000", "093519.943000", "093519.946000", "093519.948000", "093519.950000", "093519.953000", "093519.955000", "093519.957000", "093519.960000", "093519.962000", "093559.811000", "093559.949000", "093559.951000", "093559.953000", "093559.956000", "093559.958000", "093559.960000", "093559.962000", "093559.965000", "093559.967000", "093559.969000", "093559.972000", "093559.974000", "093559.976000", "093559.979000", "093559.981000", "093559.984000", "093559.986000", "093559.989000", "093559.991000", "093639.811000", "093639.814000", "093639.816000", "093639.818000", "093639.821000", "093639.823000", "093639.826000", "093639.828000", "093639.830000", "093639.833000", "093639.835000", "093639.838000", "093639.840000", "093639.842000", "093639.845000", "093639.847000", "093639.849000", "093639.852000", "093639.854000", "093639.856000", "093719.811000", "093719.814000", "093719.816000", "093719.819000", "093719.821000", "093719.823000", "093719.826000", "093719.828000", "093719.830000", "093719.833000", "093719.835000", "093719.837000", "093719.840000", "093719.842000", "093719.844000", "093719.847000", "093719.849000", "093719.852000", "093719.854000", "093719.856000", "093759.810000", "093759.813000", "093759.815000", "093759.818000", "093759.820000", "093759.822000", "093759.825000", "093759.827000", "093759.830000", "093759.832000", "093759.834000", "093759.837000", "093759.839000", "093759.841000", "093759.844000", "093759.846000", "093759.849000", "093759.851000", "093759.853000", "093759.856000", "093822.749000", "093822.755000", "093822.758000", "093822.767000", "093822.775000", "093822.777000", "093822.780000", "093822.783000", "093822.786000", "093822.789000", "093822.793000", "093822.796000"],
      "InstanceNumber": [1, 2, 3, 4, 5, 6, 7, 8, 9, 10, 11, 12, 13, 14, 15, 16, 17, 18, 19, 20, 21, 22, 23, 24, 25, 26, 27, 28, 29, 30, 31, 32, 33, 34, 35, 36, 37, 38, 39, 40, 41, 42, 43, 44, 45, 46, 47, 48, 49, 50, 51, 52, 53, 54, 55, 56, 57, 58, 59, 60, 61, 62, 63, 64, 65, 66, 67, 68, 69, 70, 71, 72, 73, 74, 75, 76, 77, 78, 79, 80, 81, 82, 83, 84, 85, 86, 87, 88, 89, 90, 91, 92, 93, 94, 95, 96, 97, 98, 99, 100, 101, 102, 103, 104, 105, 106, 107, 108, 109, 110, 111, 112, 113, 114, 115, 116, 117, 118, 119, 120, 121, 122, 123, 124, 125, 126, 127, 128, 129, 130, 131, 132, 133, 134, 135, 136, 137, 138, 139, 140, 141, 142, 143, 144, 145, 146, 147, 148, 149, 150, 151, 152, 153, 154, 155, 156, 157, 158, 159, 160, 161, 162, 163, 164, 165, 166, 167, 168, 169, 170, 171, 172, 173, 174, 175, 176, 177, 178, 179, 180, 181, 182, 183, 184, 185, 186, 187, 188, 189, 190, 191, 192, 193, 194, 195, 196, 197, 198, 199, 200],
      "LargestImagePixelValue": [2226, 2220, 2223, 2223, 2225, 2225, 2221, 2225, 2227, 2227, 2227, 2223, 2226, 2222, 2222, 2229, 2226, 2224, 2223, 2222, 2221, 2225, 2222, 2223, 2226, 2223, 2220, 2225, 2221, 2219, 2222, 2225, 2221, 2219, 2225, 2224, 2220, 2219, 2220, 2222, 2227, 2223, 2221, 2217, 2218, 2221, 2222, 2221, 2222, 2220, 2221, 2220, 2221, 2219, 2215, 2224, 2222, 2225, 2219, 2223, 2219, 2217, 2219, 2219, 2218, 2220, 2218, 2221, 2224, 2219, 2219, 2223, 2220, 2217, 2218, 2220, 2220, 2218, 2221, 2223, 2215, 2222, 2220, 2218, 2222, 2216, 2220, 2223, 2222, 2219, 2218, 2219, 2219, 2217, 2219, 2219, 2215, 2218, 2219, 2219, 2216, 2216, 2218, 2219, 2221, 2216, 2217, 2218, 2219, 2214, 2218, 2213, 2217, 2213, 2219, 2217, 2214, 2220, 2215, 2215, 2220, 2215, 2215, 2221, 2219, 2217, 2214, 2217, 2216, 2216, 2216, 2217, 2213, 2215, 2215, 2217, 2211, 2217, 2216, 2214, 2215, 2218, 2214, 2214, 2217, 2213, 2212, 2211, 2213, 2214, 2213, 2214, 2215, 2213, 2217, 2215, 2210, 2216, 2210, 2213, 2215, 2211, 2210, 2218, 2213, 2216, 2213, 2213, 2214, 2208, 2213, 2210, 2210, 2213, 2219, 2210, 2215, 2213, 2209, 2211, 2214, 2211, 2209, 2210, 2210, 2211, 2215, 2213, 2213, 2210, 2213, 2214, 2215, 2211, 2210, 2213, 2217, 2214, 2213, 2212],
      "WindowCenter": [1037.0, 1036.0, 1036.0, 1036.0, 1036.0, 1036.0, 1036.0, 1036.0, 1036.0, 1036.0, 1036.0, 1036.0, 1036.0, 1036.0, 1036.0, 1036.0, 1036.0, 1036.0, 1036.0, 1036.0, 1036.0, 1036.0, 1036.0, 1036.0, 1036.0, 1036.0, 1036.0, 1036.0, 1036.0, 1036.0, 1036.0, 1036.0, 1036.0, 1035.0, 1036.0, 1036.0, 1035.0, 1035.0, 1035.0, 1035.0, 1035.0, 1035.0, 1035.0, 1035.0, 1035.0, 1035.0, 1035.0, 1035.0, 1035.0, 1035.0, 1035.0, 1035.0, 1035.0, 1035.0, 1035.0, 1035.0, 1035.0, 1035.0, 1035.0, 1035.0, 1035.0, 1035.0, 1035.0, 1035.0, 1035.0, 1035.0, 1035.0, 1035.0, 1035.0, 1035.0, 1035.0, 1035.0, 1035.0, 1035.0, 1035.0, 1035.0, 1035.0, 1035.0, 1035.0, 1035.0, 1035.0, 1035.0, 1035.0, 1035.0, 1035.0, 1035.0, 1035.0, 1035.0, 1035.0, 1035.0, 1035.0, 1035.0, 1035.0, 1034.0, 1035.0, 1035.0, 1034.0, 1035.0, 1035.0, 1034.0, 1034.0, 1035.0, 1035.0, 1034.0, 1034.0, 1035.0, 1035.0, 1034.0, 1034.0, 1034.0, 1034.0, 1034.0, 1034.0, 1034.0, 1034.0, 1034.0, 1034.0, 1034.0, 1034.0, 1034.0, 1034.0, 1034.0, 1034.0, 1034.0, 1034.0, 1034.0, 1034.0, 1034.0, 1034.0, 1034.0, 1034.0, 1034.0, 1034.0, 1034.0, 1034.0, 1034.0, 1034.0, 1034.0, 1034.0, 1034.0, 1034.0, 1034.0, 1034.0, 1034.0, 1034.0, 1034.0, 1034.0, 1034.0, 1034.0, 1034.0, 1034.0, 1034.0, 1034.0, 1034.0, 1034.0, 1034.0, 1034.0, 1034.0, 1034.0, 1034.0, 1034.0, 1034.0, 1034.0, 1034.0, 1034.0, 1034.0, 1034.0, 1034.0, 1034.0, 1034.0, 1034.0, 1034.0, 1034.0, 1034.0, 1034.0, 1034.0, 1034.0, 1034.0, 1034.0, 1034.0, 1034.0, 1034.0, 1034.0, 1034.0, 1034.0, 1034.0, 1034.0, 1034.0, 1034.0, 1034.0, 1033.0, 1034.0, 1034.0, 1034.0, 1033.0, 1034.0, 1034.0, 1034.0, 1034.0, 1033.0],
      "WindowWidth": [2307.0, 2306.0, 2306.0, 2306.0, 2306.0, 2306.0, 2305.0, 2305.0, 2305.0, 2305.0, 2305.0, 2305.0, 2305.0, 2305.0, 2304.0, 2304.0, 2304.0, 2304.0, 2304.0, 2304.0, 2304.0, 2304.0, 2304.0, 2304.0, 2304.0, 2303.0, 2304.0, 2304.0, 2303.0, 2303.0, 2303.0, 2303.0, 2303.0, 2304.0, 2303.0, 2303.0, 2303.0, 2303.0, 2303.0, 2303.0, 2302.0, 2302.0, 2303.0, 2303.0, 2303.0, 2302.0, 2303.0, 2303.0, 2303.0, 2302.0, 2302.0, 2302.0, 2302.0, 2302.0, 2302.0, 2302.0, 2302.0, 2302.0, 2302.0, 2301.0, 2302.0, 2301.0, 2302.0, 2301.0, 2302.0, 2301.0, 2301.0, 2302.0, 2301.0, 2301.0, 2301.0, 2301.0, 2301.0, 2301.0, 2301.0, 2301.0, 2301.0, 2301.0, 2301.0, 2301.0, 2301.0, 2300.0, 2300.0, 2300.0, 2300.0, 2300.0, 2300.0, 2300.0, 2300.0, 2300.0, 2300.0, 2300.0, 2300.0, 2300.0, 2300.0, 2300.0, 2300.0, 2300.0, 2300.0, 2300.0, 2300.0, 2300.0, 2299.0, 2300.0, 2300.0, 2299.0, 2299.0, 2299.0, 2299.0, 2299.0, 2299.0, 2300.0, 2299.0, 2300.0, 2299.0, 2299.0, 2299.0, 2299.0, 2299.0, 2299.0, 2299.0, 2299.0, 2299.0, 2299.0, 2299.0, 2299.0, 2299.0, 2299.0, 2299.0, 2299.0, 2299.0, 2298.0, 2298.0, 2299.0, 2299.0, 2299.0, 2298.0, 2298.0, 2298.0, 2298.0, 2298.0, 2298.0, 2298.0, 2298.0, 2298.0, 2298.0, 2298.0, 2298.0, 2298.0, 2298.0, 2298.0, 2298.0, 2298.0, 2298.0, 2298.0, 2298.0, 2298.0, 2298.0, 2298.0, 2298.0, 2298.0, 2298.0, 2298.0, 2298.0, 2298.0, 2298.0, 2298.0, 2297.0, 2298.0, 2297.0, 2297.0, 2297.0, 2297.0, 2297.0, 2297.0, 2297.0, 2297.0, 2297.0, 2297.0, 2297.0, 2297.0, 2297.0, 2297.0, 2297.0, 2297.0, 2297.0, 2297.0, 2297.0, 2297.0, 2297.0, 2297.0, 2297.0, 2297.0, 2297.0, 2297.0, 2297.0, 2297.0, 2297.0, 2297.0, 2297.0]
    },
    "slices": {}
  }
}