{
  "AcquisitionMatrixPE": 80,
  "AcquisitionNumber": 1,
  "AcquisitionTime": "09:38:37.145000",
  "BandwidthPerPixelPhaseEncode": 46.296,
  "BaseResolution": 80,
  "BodyPartExamined": "BRAIN",
  "CoilCombinationMethod": "Sum of Squares",
  "ConsistencyInfo": "N4_VE11E_LATEST_20181129",
  "ConversionSoftware": "dcm2niix",
  "ConversionSoftwareVersion": "v1.0.20220720",
  "DerivedVendorReportedEchoSpacing": 0.000540003,
  "DeviceSerialNumber": "66112",
  "DwellTime": 2.7e-06,
  "EchoTime": 0.035,
  "EchoTrainLength": 39,
  "EffectiveEchoSpacing": 0.000270002,
  "FlipAngle": 90,
  "HeudiconvVersion": "0.13.1",
  "ImageOrientationPatientDICOM": [0.984315, -0.176399, 0.00281787, 0.167545, 0.939674, 0.298231],
  "ImageOrientationText": "Tra>Cor(17.1)>Sag(3.2)",
  "ImageType": [
    "ORIGINAL",
    "PRIMARY",
    "M",
    "ND",
    "NORM",
    "MOSAIC"
],
  "ImagingFrequency": 123.252,
  "InPlanePhaseEncodingDirectionDICOM": "COL",
  "InstitutionAddress": "Maynard 3,Hanover,NH,US,03755",
  "InstitutionName": "Dartmouth College - PBS",
  "InstitutionalDepartmentName": "Department",
  "MRAcquisitionType": "2D",
  "MagneticFieldStrength": 3,
  "Manufacturer": "Siemens",
  "ManufacturersModelName": "Prisma",
  "Modality": "MR",
  "MultibandAccelerationFactor": 4,
  "NonlinearGradientCorrection": false,
  "ParallelReductionFactorInPlane": 2,
  "PartialFourier": 1,
  "PatientPosition": "HFS",
  "PercentPhaseFOV": 100,
  "PercentSampling": 100,
  "PhaseEncodingDirection": "j-",
  "PhaseEncodingSteps": 79,
  "PhaseResolution": 1,
  "PixelBandwidth": 2315,
  "ProcedureStepDescription": "dbic^QA",
  "ProtocolName": "func-bold_task-rest_acq-p2-s4-3.5mm",
  "PulseSequenceDetails": "%SiemensSeq%\\ep2d_bold",
  "ReceiveCoilActiveElements": "HEA;HEP",
  "ReceiveCoilName": "Head_32",
  "ReconMatrixPE": 80,
  "RefLinesPE": 24,
  "RepetitionTime": 2,
  "SAR": 0.0208326,
  "ScanOptions": "FS",
  "ScanningSequence": "EP",
  "SequenceName": "*epfid2d1_80",
  "SequenceVariant": "SK",
  "SeriesDescription": "func-bold_task-rest_acq-p2-s4-3.5mm",
  "SeriesNumber": 7,
  "ShimSetting": [4144, -7696, -7520, 282, -81, -129, -27, 69],
  "SliceThickness": 3.5,
  "SliceTiming": [1.485, 0, 0.99, 0.2475, 1.2375, 0.7425, 1.7325, 0.495, 1.485, 0, 0.99, 0.2475, 1.2375, 0.7425, 1.7325, 0.495, 1.485, 0, 0.99, 0.2475, 1.2375, 0.7425, 1.7325, 0.495, 1.485, 0, 0.99, 0.2475, 1.2375, 0.7425, 1.7325, 0.495],
  "SoftwareVersions": "syngo MR E11",
  "SpacingBetweenSlices": 3.99,
  "StationName": "AWP66112",
  "TaskName": "rest",
  "TotalReadoutTime": 0.0213301,
  "TxRefAmp": 229.607,
  "dcmmeta_affine": [
    [-2.952944278717041, 0.5026346445083618, 0.22046923637390137, 94.63377380371094],
    [0.5291961431503296, 2.819021463394165, 1.169393539428711, -148.71096801757812],
    [0.00845359731465578, -0.89469313621521, 3.80841326713562, -24.2925968170166],
    [0.0, 0.0, 0.0, 1.0]
],
  "dcmmeta_reorient_transform": [
    [0.0, -1.0, 0.0, 79.0],
    [1.0, 0.0, 0.0, 0.0],
    [0.0, 0.0, 1.0, 0.0],
    [0.0, 0.0, 0.0, 1.0]
],
  "dcmmeta_shape": [80, 80, 32, 200],
  "dcmmeta_slice_dim": 2,
  "dcmmeta_version": 0.6,
  "global": {
    "const": {
      "AccessionNumber": "qa",
      "AcquisitionMatrix": [80, 0, 0, 80],
      "AngioFlag": "N",
      "BitsAllocated": 16,
      "BitsStored": 12,
      "BodyPartExamined": "BRAIN",
      "Columns": 480,
      "EchoNumbers": 1,
      "EchoTime": 35.0,
      "EchoTrainLength": 39,
      "FlipAngle": 90.0,
      "HighBit": 11,
      "ImageOrientationPatient": [0.98431476203066, -0.1763987213128, 0.00281786581695, 0.16754487346259, 0.93967385970404, 0.29823103923858],
      "ImagePositionPatient": [-825.45769384939, -531.95682705872, -275.6026962286],
      "ImageType": [
        "ORIGINAL",
        "PRIMARY",
        "M",
        "ND",
        "NORM",
        "MOSAIC"
],
      "ImagedNucleus": "1H",
      "ImagingFrequency": 123.252372,
      "InPlanePhaseEncodingDirection": "COL",
      "MRAcquisitionType": "2D",
      "MagneticFieldStrength": 3.0,
      "Manufacturer": "SIEMENS",
      "ManufacturerModelName": "Prisma",
      "Modality": "MR",
      "NumberOfAverages": 1.0,
      "NumberOfPhaseEncodingSteps": 79,
      "PercentPhaseFieldOfView": 100.0,
      "PercentSampling": 100.0,
      "PerformedProcedureStepStartTime": "092919.541000",
      "PhotometricInterpretation": "MONOCHROME2",
      "PixelBandwidth": 2315.0,
      "PixelRepresentation": 0,
      "PixelSpacing": [3.0, 3.0],
      "ProtocolName": "func-bold_task-rest_acq-p2-s4-3.5mm",
      "RepetitionTime": 2000.0,
      "Rows": 480,
      "SAR": 0.02083257732918,
      "SamplesPerPixel": 1,
      "ScanOptions": "FS",
      "ScanningSequence": "EP",
      "SequenceName": "*epfid2d1_80",
      "SequenceVariant": "SK",
      "SeriesDescription": "func-bold_task-rest_acq-p2-s4-3.5mm",
      "SeriesNumber": 7,
      "SeriesTime": "093919.643000",
      "SliceLocation": -61.542369375504,
      "SliceThickness": 3.5,
      "SmallestImagePixelValue": 0,
      "SoftwareVersions": "syngo MR E11",
      "SpacingBetweenSlices": 3.9900000395334,
      "SpecificCharacterSet": "ISO_IR 100",
      "StudyID": "2",
      "StudyTime": "092919.487000",
      "TransmitCoilName": "Body",
      "VariableFlipAngleFlag": "N",
      "WindowCenterWidthExplanation": "Algo1"
    },
    "slices": {}
  },
  "time": {
    "samples": {
      "AcquisitionNumber": [1, 2, 3, 4, 5, 6, 7, 8, 9, 10, 11, 12, 13, 14, 15, 16, 17, 18, 19, 20, 21, 22, 23, 24, 25, 26, 27, 28, 29, 30, 31, 32, 33, 34, 35, 36, 37, 38, 39, 40, 41, 42, 43, 44, 45, 46, 47, 48, 49, 50, 51, 52, 53, 54, 55, 56, 57, 58, 59, 60, 61, 62, 63, 64, 65, 66, 67, 68, 69, 70, 71, 72, 73, 74, 75, 76, 77, 78, 79, 80, 81, 82, 83, 84, 85, 86, 87, 88, 89, 90, 91, 92, 93, 94, 95, 96, 97, 98, 99, 100, 101, 102, 103, 104, 105, 106, 107, 108, 109, 110, 111, 112, 113, 114, 115, 116, 117, 118, 119, 120, 121, 122, 123, 124, 125, 126, 127, 128, 129, 130, 131, 132, 133, 134, 135, 136, 137, 138, 139, 140, 141, 142, 143, 144, 145, 146, 147, 148, 149, 150, 151, 152, 153, 154, 155, 156, 157, 158, 159, 160, 161, 162, 163, 164, 165, 166, 167, 168, 169, 170, 171, 172, 173, 174, 175, 176, 177, 178, 179, 180, 181, 182, 183, 184, 185, 186, 187, 188, 189, 190, 191, 192, 193, 194, 195, 196, 197, 198, 199, 200],
      "AcquisitionTime": ["093837.145000", "093839.145000", "093841.145000", "093843.145000", "093845.145000", "093847.145000", "093849.145000", "093851.145000", "093853.145000", "093855.145000", "093857.145000", "093859.145000", "093901.145000", "093903.145000", "093905.145000", "093907.145000", "093909.145000", "093911.145000", "093913.145000", "093915.145000", "093917.145000", "093919.145000", "093921.145000", "093923.145000", "093925.145000", "093927.145000", "093929.145000", "093931.145000", "093933.145000", "093935.145000", "093937.145000", "093939.145000", "093941.145000", "093943.145000", "093945.145000", "093947.145000", "093949.145000", "093951.145000", "093953.145000", "093955.145000", "093957.145000", "093959.145000", "094001.145000", "094003.145000", "094005.145000", "094007.145000", "094009.145000", "094011.145000", "094013.145000", "094015.145000", "094017.145000", "094019.145000", "094021.145000", "094023.145000", "094025.145000", "094027.145000", "094029.145000", "094031.145000", "094033.145000", "094035.145000", "094037.145000", "094039.145000", "094041.145000", "094043.145000", "094045.145000", "094047.145000", "094049.145000", "094051.145000", "094053.145000", "094055.145000", "094057.145000", "094059.145000", "094101.145000", "094103.145000", "094105.145000", "094107.145000", "094109.145000", "094111.145000", "094113.145000", "094115.145000", "094117.145000", "094119.145000", "094121.145000", "094123.145000", "094125.145000", "094127.145000", "094129.145000", "094131.145000", "094133.145000", "094135.145000", "094137.145000", "094139.145000", "094141.145000", "094143.145000", "094145.145000", "094147.145000", "094149.145000", "094151.145000", "094153.145000", "094155.145000", "094157.145000", "094159.145000", "094201.145000", "094203.145000", "094205.145000", "094207.145000", "094209.145000", "094211.145000", "094213.145000", "094215.145000", "094217.145000", "094219.145000", "094221.145000", "094223.145000", "094225.145000", "094227.145000", "094229.145000", "094231.145000", "094233.145000", "094235.145000", "094237.145000", "094239.145000", "094241.145000", "094243.145000", "094245.145000", "094247.145000", "094249.145000", "094251.145000", "094253.145000", "094255.145000", "094257.145000", "094259.145000", "094301.145000", "094303.145000", "094305.145000", "094307.145000", "094309.145000", "094311.145000", "094313.145000", "094315.145000", "094317.145000", "094319.145000", "094321.145000", "094323.145000", "094325.145000", "094327.145000", "094329.145000", "094331.145000", "094333.145000", "094335.145000", "094337.145000", "094339.145000", "094341.145000", "094343.145000", "094345.145000", "094347.145000", "094349.145000", "094351.145000", "094353.145000", "094355.145000", "094357.145000", "094359.145000", "094401.145000", "094403.145000", "094405.145000", "094407.145000", "094409.145000", "094411.145000", "094413.145000", "094415.145000", "094417.145000", "094419.145000", "094421.145000", "094423.145000", "094425.145000", "094427.145000", "094429.145000", "094431.145000", "094433.145000", "094435.145000", "094437.145000", "094439.145000", "094441.145000", "094443.145000", "094445.145000", "094447.145000", "094449.145000", "094451.145000", "094453.145000", "094455.145000", "094457.145000", "094459.145000", "094501.145000", "094503.145000", "094505.145000", "094507.145000", "094509.145000", "094511.145000", "094513.145000", "094515.145000"],
      "ContentTime": ["093919.646000", "093919.649000", "093919.659000", "093919.661000", "093919.664000", "093919.668000", "093919.670000", "093919.673000", "093919.675000", "093919.678000", "093919.680000", "093919.682000", "093919.689000", "093919.691000", "093919.693000", "093919.696000", "093919.698000", "093919.700000", "093919.703000", "093919.705000", "093919.707000", "093959.640000", "093959.643000", "093959.645000", "093959.647000", "093959.650000", "093959.652000", "093959.654000", "093959.657000", "093959.659000", "093959.661000", "093959.663000", "093959.666000", "093959.668000", "093959.670000", "093959.673000", "093959.675000", "093959.677000", "093959.687000", "093959.690000", "093959.692000", "094039.641000", "094039.644000", "094039.646000", "094039.649000", "094039.651000", "094039.653000", "094039.656000", "094039.658000", "094039.660000", "094039.670000", "094039.672000", "094039.674000", "094039.677000", "094039.679000", "094039.681000", "094039.684000", "094039.686000", "094039.688000", "094039.691000", "094039.693000", "094119.641000", "094119.644000", "094119.646000", "094119.649000", "094119.651000", "094119.653000", "094119.656000", "094119.659000", "094119.661000", "094119.663000", "094119.666000", "094119.668000", "094119.670000", "094119.673000", "094119.675000", "094119.678000", "094119.680000", "094119.682000", "094119.685000", "094119.687000", "094159.641000", "094159.644000", "094159.646000", "094159.649000", "094159.651000", "094159.653000", "094159.656000", "094159.658000", "094159.660000", "094159.662000", "094159.665000", "094159.667000", "094159.670000", "094159.672000", "094159.674000", "094159.677000", "094159.679000", "094159.681000", "094159.683000", "094159.686000", "094239.641000", "094239.644000", "094239.646000", "094239.649000", "094239.651000", "094239.653000", "094239.656000", "094239.658000", "094239.660000", "094239.663000", "094239.666000", "094239.668000", "094239.670000", "094239.672000", "094239.683000", "094239.686000", "094239.688000", "094239.690000", "094239.693000", "094239.695000", "094259.641000", "094259.644000", "094259.646000", "094259.661000", "094259.664000", "094259.666000", "094259.669000", "094259.671000", "094259.673000", "094259.676000", "094339.641000", "094339.644000", "094339.646000", "094339.648000", "094339.651000", "094339.653000", "094339.656000", "094339.658000", "094339.661000", "094339.663000", "094339.665000", "094339.668000", "094339.670000", "094339.673000", "094339.675000", "094339.677000", "094339.680000", "094339.682000", "094339.685000", "094339.687000", "094419.641000", "094419.644000", "094419.646000", "094419.649000", "094419.651000", "094419.654000", "094419.656000", "094419.658000", "094419.661000", "094419.663000", "094419.665000", "094419.668000", "094419.670000", "094419.673000", "094419.675000", "094419.677000", "094419.680000", "094419.682000", "094419.684000", "094419.687000", "094459.641000", "094459.644000", "094459.646000", "094459.656000", "094459.658000", "094459.661000", "094459.663000", "094459.665000", "094459.668000", "094459.670000", "094459.673000", "094459.675000", "094459.677000", "094459.679000", "094459.682000", "094459.684000", "094459.687000", "094459.689000", "094459.691000", "094459.694000", "094516.319000", "094516.321000", "094516.324000", "094516.326000", "094516.329000", "094516.331000", "094516.334000", "094516.337000", "094516.339000"],
      "InstanceCreationTime": ["093919.646000", "093919.649000", "093919.659000", "093919.661000", "093919.664000", "093919.668000", "093919.670000", "093919.673000", "093919.675000", "093919.678000", "093919.680000", "093919.682000", "093919.689000", "093919.691000", "093919.693000", "093919.696000", "093919.698000", "093919.700000", "093919.703000", "093919.705000", "093919.707000", "093959.640000", "093959.643000", "093959.645000", "093959.647000", "093959.650000", "093959.652000", "093959.654000", "093959.657000", "093959.659000", "093959.661000", "093959.663000", "093959.666000", "093959.668000", "093959.670000", "093959.673000", "093959.675000", "093959.677000", "093959.687000", "093959.690000", "093959.692000", "094039.641000", "094039.644000", "094039.646000", "094039.649000", "094039.651000", "094039.653000", "094039.656000", "094039.658000", "094039.660000", "094039.670000", "094039.672000", "094039.674000", "094039.677000", "094039.679000", "094039.681000", "094039.684000", "094039.686000", "094039.688000", "094039.691000", "094039.693000", "094119.641000", "094119.644000", "094119.646000", "094119.649000", "094119.651000", "094119.653000", "094119.656000", "094119.659000", "094119.661000", "094119.663000", "094119.666000", "094119.668000", "094119.670000", "094119.673000", "094119.675000", "094119.678000", "094119.680000", "094119.682000", "094119.685000", "094119.687000", "094159.641000", "094159.644000", "094159.646000", "094159.649000", "094159.651000", "094159.653000", "094159.656000", "094159.658000", "094159.660000", "094159.662000", "094159.665000", "094159.667000", "094159.670000", "094159.672000", "094159.674000", "094159.677000", "094159.679000", "094159.681000", "094159.683000", "094159.686000", "094239.641000", "094239.644000", "094239.646000", "094239.649000", "094239.651000", "094239.653000", "094239.656000", "094239.658000", "094239.660000", "094239.663000", "094239.666000", "094239.668000", "094239.670000", "094239.672000", "094239.683000", "094239.686000", "094239.688000", "094239.690000", "094239.693000", "094239.695000", "094259.641000", "094259.644000", "094259.646000", "094259.661000", "094259.664000", "094259.666000", "094259.669000", "094259.671000", "094259.673000", "094259.676000", "094339.641000", "094339.644000", "094339.646000", "094339.648000", "094339.651000", "094339.653000", "094339.656000", "094339.658000", "094339.661000", "094339.663000", "094339.665000", "094339.668000", "094339.670000", "094339.673000", "094339.675000", "094339.677000", "094339.680000", "094339.682000", "094339.685000", "094339.687000", "094419.641000", "094419.644000", "094419.646000", "094419.649000", "094419.651000", "094419.654000", "094419.656000", "094419.658000", "094419.661000", "094419.663000", "094419.665000", "094419.668000", "094419.670000", "094419.673000", "094419.675000", "094419.677000", "094419.680000", "094419.682000", "094419.684000", "094419.687000", "094459.641000", "094459.644000", "094459.646000", "094459.656000", "094459.658000", "094459.661000", "094459.663000", "094459.665000", "094459.668000", "094459.670000", "094459.673000", "094459.675000", "094459.677000", "094459.679000", "094459.682000", "094459.684000", "094459.687000", "094459.689000", "094459.691000", "094459.694000", "094516.319000", "094516.321000", "094516.324000", "094516.326000", "094516.329000", "094516.331000", "094516.334000", "094516.337000", "094516.339000"],
      "InstanceNumber": [1, 2, 3, 4, 5, 6, 7, 8, 9, 10, 11, 12, 13, 14, 15, 16, 17, 18, 19, 20, 21, 22, 23, 24, 25, 26, 27, 28, 29, 30, 31, 32, 33, 34, 35, 36, 37, 38, 39, 40, 41, 42, 43, 44, 45, 46, 47, 48, 49, 50, 51, 52, 53, 54, 55, 56, 57, 58, 59, 60, 61, 62, 63, 64, 65, 66, 67, 68, 69, 70, 71, 72, 73, 74, 75, 76, 77, 78, 79, 80, 81, 82, 83, 84, 85, 86, 87, 88, 89, 90, 91, 92, 93, 94, 95, 96, 97, 98, 99, 100, 101, 102, 103, 104, 105, 106, 107, 108, 109, 110, 111, 112, 113, 114, 115, 116, 117, 118, 119, 120, 121, 122, 123, 124, 125, 126, 127, 128, 129, 130, 131, 132, 133, 134, 135, 136, 137, 138, 139, 140, 141, 142, 143, 144, 145, 146, 147, 148, 149, 150, 151, 152, 153, 154, 155, 156, 157, 158, 159, 160, 161, 162, 163, 164, 165, 166, 167, 168, 169, 170, 171, 172, 173, 174, 175, 176, 177, 178, 179, 180, 181, 182, 183, 184, 185, 186, 187, 188, 189, 190, 191, 192, 193, 194, 195, 196, 197, 198, 199, 200],
      "LargestImagePixelValue": [2246, 2245, 2243, 2245, 2246, 2243, 2245, 2242, 2243, 2245, 2244, 2243, 2245, 2244, 2247, 2243, 2246, 2247, 2246, 2245, 2245, 2246, 2242, 2244, 2243, 2241, 2244, 2242, 2243, 2240, 2240, 2246, 2250, 2248, 2245, 2244, 2245, 2245, 2243, 2247, 2244, 2246, 2244, 2242, 2244, 2244, 2244, 2245, 2245, 2245, 2247, 2249, 2246, 2247, 2244, 2245, 2243, 2242, 2241, 2242, 2245, 2243, 2245, 2247, 2247, 2244, 2244, 2246, 2248, 2246, 2244, 2247, 2244, 2245, 2244, 2241, 2242, 2244, 2244, 2244, 2245, 2244, 2246, 2246, 2245, 2245, 2246, 2246, 2244, 2242, 2243, 2247, 2245, 2243, 2244, 2246, 2249, 2247, 2251, 2247, 2249, 2247, 2243, 2245, 2243, 2241, 2243, 2243, 2242, 2241, 2243, 2247, 2250, 2245, 2246, 2244, 2245, 2243, 2243, 2245, 2237, 2244, 2239, 2243, 2242, 2242, 2244, 2246, 2244, 2246, 2247, 2243, 2245, 2244, 2243, 2238, 2238, 2241, 2242, 2240, 2239, 2246, 2243, 2241, 2244, 2243, 2244, 2245, 2245, 2243, 2241, 2241, 2238, 2244, 2240, 2240, 2241, 2245, 2245, 2245, 2241, 2247, 2243, 2244, 2243, 2242, 2240, 2241, 2244, 2239, 2241, 2242, 2243, 2245, 2244, 2244, 2244, 2248, 2244, 2244, 2239, 2243, 2239, 2243, 2242, 2241, 2239, 2245, 2241, 2239, 2245, 2245, 2244, 2241, 2242, 2243, 2241, 2243, 2241, 2243],
      "WindowCenter": [968.0, 968.0, 969.0, 968.0, 968.0, 968.0, 969.0, 969.0, 968.0, 968.0, 968.0, 968.0, 968.0, 967.0, 968.0, 968.0, 969.0, 968.0, 968.0, 968.0, 968.0, 968.0, 969.0, 968.0, 969.0, 969.0, 969.0, 968.0, 968.0, 968.0, 968.0, 969.0, 969.0, 968.0, 969.0, 968.0, 968.0, 968.0, 967.0, 968.0, 968.0, 968.0, 968.0, 968.0, 968.0, 968.0, 968.0, 968.0, 967.0, 968.0, 967.0, 967.0, 968.0, 967.0, 968.0, 967.0, 968.0, 969.0, 969.0, 969.0, 967.0, 967.0, 967.0, 968.0, 969.0, 968.0, 968.0, 968.0, 968.0, 967.0, 968.0, 967.0, 968.0, 968.0, 968.0, 968.0, 968.0, 968.0, 968.0, 968.0, 969.0, 968.0, 969.0, 968.0, 970.0, 969.0, 968.0, 968.0, 967.0, 968.0, 968.0, 969.0, 968.0, 967.0, 967.0, 968.0, 968.0, 968.0, 968.0, 969.0, 968.0, 968.0, 968.0, 968.0, 969.0, 967.0, 968.0, 968.0, 968.0, 968.0, 968.0, 967.0, 969.0, 968.0, 968.0, 967.0, 969.0, 967.0, 968.0, 968.0, 968.0, 967.0, 968.0, 968.0, 968.0, 968.0, 967.0, 969.0, 968.0, 968.0, 968.0, 968.0, 968.0, 968.0, 969.0, 968.0, 969.0, 969.0, 967.0, 969.0, 968.0, 968.0, 967.0, 968.0, 968.0, 967.0, 967.0, 968.0, 968.0, 967.0, 968.0, 968.0, 969.0, 968.0, 967.0, 968.0, 968.0, 967.0, 968.0, 968.0, 968.0, 968.0, 967.0, 967.0, 967.0, 967.0, 968.0, 968.0, 967.0, 968.0, 968.0, 967.0, 968.0, 968.0, 967.0, 967.0, 967.0, 967.0, 967.0, 967.0, 967.0, 967.0, 967.0, 968.0, 967.0, 968.0, 968.0, 967.0, 967.0, 967.0, 967.0, 968.0, 967.0, 966.0, 967.0, 968.0, 967.0, 967.0, 967.0, 967.0],
      "WindowWidth": [2277.0, 2277.0, 2278.0, 2278.0, 2278.0, 2278.0, 2279.0, 2279.0, 2278.0, 2278.0, 2277.0, 2277.0, 2278.0, 2277.0, 2277.0, 2278.0, 2277.0, 2278.0, 2277.0, 2277.0, 2278.0, 2277.0, 2277.0, 2277.0, 2277.0, 2278.0, 2279.0, 2277.0, 2277.0, 2278.0, 2278.0, 2278.0, 2278.0, 2277.0, 2278.0, 2277.0, 2278.0, 2277.0, 2277.0, 2277.0, 2277.0, 2276.0, 2277.0, 2277.0, 2277.0, 2277.0, 2278.0, 2276.0, 2276.0, 2277.0, 2276.0, 2276.0, 2277.0, 2276.0, 2277.0, 2276.0, 2277.0, 2278.0, 2278.0, 2278.0, 2276.0, 2276.0, 2276.0, 2277.0, 2278.0, 2277.0, 2277.0, 2277.0, 2278.0, 2276.0, 2277.0, 2276.0, 2277.0, 2277.0, 2276.0, 2276.0, 2277.0, 2276.0, 2276.0, 2276.0, 2277.0, 2276.0, 2277.0, 2276.0, 2278.0, 2277.0, 2276.0, 2276.0, 2276.0, 2276.0, 2276.0, 2277.0, 2276.0, 2275.0, 2275.0, 2277.0, 2277.0, 2277.0, 2277.0, 2278.0, 2277.0, 2277.0, 2277.0, 2276.0, 2277.0, 2275.0, 2276.0, 2276.0, 2276.0, 2276.0, 2276.0, 2275.0, 2277.0, 2276.0, 2276.0, 2275.0, 2277.0, 2275.0, 2276.0, 2276.0, 2275.0, 2275.0, 2275.0, 2276.0, 2275.0, 2275.0, 2274.0, 2276.0, 2276.0, 2276.0, 2276.0, 2276.0, 2276.0, 2275.0, 2276.0, 2276.0, 2276.0, 2276.0, 2275.0, 2276.0, 2276.0, 2275.0, 2274.0, 2275.0, 2275.0, 2274.0, 2274.0, 2275.0, 2275.0, 2274.0, 2275.0, 2275.0, 2276.0, 2275.0, 2274.0, 2275.0, 2275.0, 2275.0, 2275.0, 2276.0, 2275.0, 2275.0, 2275.0, 2274.0, 2275.0, 2274.0, 2275.0, 2275.0, 2274.0, 2275.0, 2275.0, 2275.0, 2275.0, 2275.0, 2274.0, 2274.0, 2274.0, 2274.0, 2274.0, 2274.0, 2274.0, 2273.0, 2274.0, 2275.0, 2275.0, 2275.0, 2275.0, 2275.0, 2274.0, 2274.0, 2274.0, 2275.0, 2274.0, 2274.0, 2274.0, 2275.0, 2274.0, 2274.0, 2274.0, 2274.0]
    },
    "slices": {}
  }
}