{
  "AcquisitionMatrixPE": 80,
  "AcquisitionNumber": 1,
  "AcquisitionTime": "09:52:12.485000",
  "BandwidthPerPixelPhaseEncode": 25,
  "BaseResolution": 80,
  "BodyPartExamined": "BRAIN",
  "CoilCombinationMethod": "Sum of Squares",
  "ConsistencyInfo": "N4_VE11E_LATEST_20181129",
  "ConversionSoftware": "dcm2niix",
  "ConversionSoftwareVersion": "v1.0.20220720",
  "DerivedVendorReportedEchoSpacing": 0.0005,
  "DeviceSerialNumber": "66112",
  "DwellTime": 2.7e-06,
  "EchoTime": 0.03,
  "EchoTrainLength": 80,
  "EffectiveEchoSpacing": 0.0005,
  "FlipAngle": 10,
  "HeudiconvVersion": "0.13.1",
  "ImageOrientationPatientDICOM": [0.984315, -0.176399, 0.00281787, 0.167545, 0.939674, 0.298231],
  "ImageOrientationText": "Tra>Cor(17.1)>Sag(3.2)",
  "ImageType": [
    "ORIGINAL",
    "PRIMARY",
    "M",
    "ND",
    "NORM",
    "MOSAIC"
],
  "ImagingFrequency": 123.252,
  "InPlanePhaseEncodingDirectionDICOM": "COL",
  "InstitutionAddress": "Maynard 3,Hanover,NH,US,03755",
  "InstitutionName": "Dartmouth College - PBS",
  "InstitutionalDepartmentName": "Department",
  "MRAcquisitionType": "2D",
  "MagneticFieldStrength": 3,
  "Manufacturer": "Siemens",
  "ManufacturersModelName": "Prisma",
  "MatrixCoilMode": "SENSE",
  "Modality": "MR",
  "NonlinearGradientCorrection": false,
  "PartialFourier": 1,
  "PatientPosition": "HFS",
  "PercentPhaseFOV": 100,
  "PercentSampling": 100,
  "PhaseEncodingDirection": "j-",
  "PhaseEncodingSteps": 80,
  "PhaseResolution": 1,
  "PixelBandwidth": 2315,
  "ProcedureStepDescription": "dbic^QA",
  "ProtocolName": "func-bold_fa-10",
  "PulseSequenceDetails": "%SiemensSeq%\\ep2d_bold",
  "ReceiveCoilActiveElements": "HEA;HEP",
  "ReceiveCoilName": "Head_32",
  "ReconMatrixPE": 80,
  "RepetitionTime": 2,
  "SAR": 0.0116781,
  "ScanOptions": "FS",
  "ScanningSequence": "EP",
  "SequenceName": "*epfid2d1_80",
  "SequenceVariant": "SK",
  "SeriesDescription": "func-bold_fa-10",
  "SeriesNumber": 10,
  "ShimSetting": [4144, -7694, -7522, 279, -80, -129, -29, 69],
  "SliceThickness": 3.5,
  "SliceTiming": [0.99, 0, 1.0575, 0.0675, 1.1225, 0.1325, 1.1875, 0.1975, 1.255, 0.265, 1.32, 0.33, 1.3875, 0.3975, 1.4525, 0.4625, 1.5175, 0.5275, 1.585, 0.595, 1.65, 0.66, 1.715, 0.7275, 1.7825, 0.7925, 1.8475, 0.8575, 1.915, 0.925],
  "SoftwareVersions": "syngo MR E11",
  "SpacingBetweenSlices": 3.99,
  "StationName": "AWP66112",
  "TotalReadoutTime": 0.0395,
  "TxRefAmp": 229.607,
  "dcmmeta_affine": [
    [-2.952944278717041, 0.5026346445083618, 0.22046925127506256, 95.068603515625],
    [0.5291961431503296, 2.819021463394165, 1.169393539428711, -146.33946228027344],
    [0.00845359731465578, -0.89469313621521, 3.808413505554199, -20.86005973815918],
    [0.0, 0.0, 0.0, 1.0]
],
  "dcmmeta_reorient_transform": [
    [0.0, -1.0, 0.0, 79.0],
    [1.0, 0.0, 0.0, 0.0],
    [0.0, 0.0, 1.0, 0.0],
    [0.0, 0.0, 0.0, 1.0]
],
  "dcmmeta_shape": [80, 80, 30, 200],
  "dcmmeta_slice_dim": 2,
  "dcmmeta_version": 0.6,
  "global": {
    "const": {
      "AccessionNumber": "qa",
      "AcquisitionMatrix": [80, 0, 0, 80],
      "AngioFlag": "N",
      "BitsAllocated": 16,
      "BitsStored": 12,
      "BodyPartExamined": "BRAIN",
      "Columns": 480,
      "EchoNumbers": 1,
      "EchoTime": 30.0,
      "EchoTrainLength": 80,
      "FlipAngle": 10.0,
      "HighBit": 11,
      "ImageOrientationPatient": [0.98431476203066, -0.1763987213128, 0.00281786581695, 0.16754487346259, 0.93967385970404, 0.29823103923858],
      "ImagePositionPatient": [-825.89251903135, -534.32833088868, -272.17015914974],
      "ImageType": [
        "ORIGINAL",
        "PRIMARY",
        "M",
        "ND",
        "NORM",
        "MOSAIC"
],
      "ImagedNucleus": "1H",
      "ImagingFrequency": 123.252371,
      "InPlanePhaseEncodingDirection": "COL",
      "MRAcquisitionType": "2D",
      "MagneticFieldStrength": 3.0,
      "Manufacturer": "SIEMENS",
      "ManufacturerModelName": "Prisma",
      "Modality": "MR",
      "NumberOfAverages": 1.0,
      "NumberOfPhaseEncodingSteps": 80,
      "PercentPhaseFieldOfView": 100.0,
      "PercentSampling": 100.0,
      "PerformedProcedureStepStartTime": "092919.541000",
      "PhotometricInterpretation": "MONOCHROME2",
      "PixelBandwidth": 2315.0,
      "PixelRepresentation": 0,
      "PixelSpacing": [3.0, 3.0],
      "ProtocolName": "func-bold_fa-10",
      "RepetitionTime": 2000.0,
      "Rows": 480,
      "SAR": 0.01167807987884,
      "SamplesPerPixel": 1,
      "ScanOptions": "FS",
      "ScanningSequence": "EP",
      "SequenceName": "*epfid2d1_80",
      "SequenceVariant": "SK",
      "SeriesDescription": "func-bold_fa-10",
      "SeriesNumber": 10,
      "SeriesTime": "095259.813000",
      "SliceLocation": -57.546979192375,
      "SliceThickness": 3.5,
      "SmallestImagePixelValue": 0,
      "SoftwareVersions": "syngo MR E11",
      "SpacingBetweenSlices": 3.9900000932531,
      "SpecificCharacterSet": "ISO_IR 100",
      "StudyID": "2",
      "StudyTime": "092919.487000",
      "TransmitCoilName": "Body",
      "VariableFlipAngleFlag": "N",
      "WindowCenterWidthExplanation": "Algo1"
    },
    "slices": {}
  },
  "time": {
    "samples": {
      "AcquisitionNumber": [1, 2, 3, 4, 5, 6, 7, 8, 9, 10, 11, 12, 13, 14, 15, 16, 17, 18, 19, 20, 21, 22, 23, 24, 25, 26, 27, 28, 29, 30, 31, 32, 33, 34, 35, 36, 37, 38, 39, 40, 41, 42, 43, 44, 45, 46, 47, 48, 49, 50, 51, 52, 53, 54, 55, 56, 57, 58, 59, 60, 61, 62, 63, 64, 65, 66, 67, 68, 69, 70, 71, 72, 73, 74, 75, 76, 77, 78, 79, 80, 81, 82, 83, 84, 85, 86, 87, 88, 89, 90, 91, 92, 93, 94, 95, 96, 97, 98, 99, 100, 101, 102, 103, 104, 105, 106, 107, 108, 109, 110, 111, 112, 113, 114, 115, 116, 117, 118, 119, 120, 121, 122, 123, 124, 125, 126, 127, 128, 129, 130, 131, 132, 133, 134, 135, 136, 137, 138, 139, 140, 141, 142, 143, 144, 145, 146, 147, 148, 149, 150, 151, 152, 153, 154, 155, 156, 157, 158, 159, 160, 161, 162, 163, 164, 165, 166, 167, 168, 169, 170, 171, 172, 173, 174, 175, 176, 177, 178, 179, 180, 181, 182, 183, 184, 185, 186, 187, 188, 189, 190, 191, 192, 193, 194, 195, 196, 197, 198, 199, 200],
      "AcquisitionTime": ["095212.485000", "095214.485000", "095216.485000", "095218.485000", "095220.485000", "095222.485000", "095224.485000", "095226.485000", "095228.485000", "095230.485000", "095232.485000", "095234.485000", "095236.485000", "095238.485000", "095240.485000", "095242.485000", "095244.485000", "095246.485000", "095248.485000", "095250.485000", "095252.485000", "095254.485000", "095256.485000", "095258.485000", "095300.485000", "095302.485000", "095304.485000", "095306.485000", "095308.485000", "095310.485000", "095312.485000", "095314.485000", "095316.485000", "095318.485000", "095320.485000", "095322.485000", "095324.485000", "095326.485000", "095328.485000", "095330.485000", "095332.485000", "095334.485000", "095336.485000", "095338.485000", "095340.485000", "095342.485000", "095344.485000", "095346.485000", "095348.485000", "095350.485000", "095352.485000", "095354.485000", "095356.485000", "095358.485000", "095400.485000", "095402.485000", "095404.485000", "095406.485000", "095408.485000", "095410.485000", "095412.485000", "095414.485000", "095416.485000", "095418.485000", "095420.485000", "095422.485000", "095424.485000", "095426.485000", "095428.485000", "095430.485000", "095432.485000", "095434.485000", "095436.485000", "095438.485000", "095440.485000", "095442.485000", "095444.485000", "095446.485000", "095448.485000", "095450.485000", "095452.485000", "095454.485000", "095456.485000", "095458.485000", "095500.485000", "095502.485000", "095504.485000", "095506.485000", "095508.485000", "095510.485000", "095512.485000", "095514.485000", "095516.485000", "095518.485000", "095520.485000", "095522.485000", "095524.485000", "095526.485000", "095528.485000", "095530.485000", "095532.485000", "095534.485000", "095536.485000", "095538.485000", "095540.485000", "095542.485000", "095544.485000", "095546.485000", "095548.485000", "095550.485000", "095552.485000", "095554.485000", "095556.485000", "095558.485000", "095600.485000", "095602.485000", "095604.485000", "095606.485000", "095608.485000", "095610.485000", "095612.485000", "095614.485000", "095616.485000", "095618.485000", "095620.485000", "095622.485000", "095624.485000", "095626.485000", "095628.485000", "095630.485000", "095632.485000", "095634.485000", "095636.485000", "095638.485000", "095640.485000", "095642.485000", "095644.485000", "095646.485000", "095648.485000", "095650.485000", "095652.485000", "095654.485000", "095656.485000", "095658.485000", "095700.485000", "095702.485000", "095704.485000", "095706.485000", "095708.485000", "095710.485000", "095712.485000", "095714.485000", "095716.485000", "095718.485000", "095720.485000", "095722.485000", "095724.485000", "095726.485000", "095728.485000", "095730.485000", "095732.485000", "095734.485000", "095736.485000", "095738.485000", "095740.485000", "095742.485000", "095744.485000", "095746.485000", "095748.485000", "095750.485000", "095752.485000", "095754.485000", "095756.485000", "095758.485000", "095800.485000", "095802.485000", "095804.485000", "095806.485000", "095808.485000", "095810.485000", "095812.485000", "095814.485000", "095816.485000", "095818.485000", "095820.485000", "095822.485000", "095824.485000", "095826.485000", "095828.485000", "095830.485000", "095832.485000", "095834.485000", "095836.485000", "095838.485000", "095840.485000", "095842.485000", "095844.485000", "095846.485000", "095848.485000", "095850.485000"],
      "ContentTime": ["095259.816000", "095259.840000", "095259.842000", "095259.844000", "095259.847000", "095259.849000", "095259.851000", "095259.854000", "095259.856000", "095259.858000", "095259.861000", "095259.863000", "095259.865000", "095259.868000", "095259.871000", "095259.873000", "095259.876000", "095259.878000", "095259.881000", "095259.883000", "095259.885000", "095259.888000", "095259.890000", "095319.811000", "095319.814000", "095319.816000", "095319.818000", "095319.821000", "095319.823000", "095319.825000", "095319.828000", "095319.830000", "095319.832000", "095359.810000", "095359.813000", "095359.815000", "095359.817000", "095359.820000", "095359.822000", "095359.824000", "095359.826000", "095359.829000", "095359.831000", "095359.833000", "095359.836000", "095359.838000", "095359.840000", "095359.843000", "095359.845000", "095359.847000", "095359.849000", "095359.852000", "095359.854000", "095439.811000", "095439.814000", "095439.816000", "095439.819000", "095439.821000", "095439.823000", "095439.825000", "095439.828000", "095439.830000", "095439.832000", "095439.835000", "095439.837000", "095439.839000", "095439.841000", "095439.844000", "095439.846000", "095439.848000", "095439.851000", "095439.853000", "095439.863000", "095519.811000", "095519.814000", "095519.816000", "095519.819000", "095519.821000", "095519.823000", "095519.826000", "095519.828000", "095519.830000", "095519.832000", "095519.835000", "095519.837000", "095519.839000", "095519.842000", "095519.844000", "095519.846000", "095519.848000", "095519.851000", "095519.853000", "095519.855000", "095559.811000", "095559.814000", "095559.816000", "095559.818000", "095559.821000", "095559.823000", "095559.825000", "095559.828000", "095559.830000", "095559.832000", "095559.835000", "095559.837000", "095559.839000", "095559.841000", "095559.844000", "095559.846000", "095559.848000", "095559.851000", "095559.853000", "095559.855000", "095639.811000", "095639.814000", "095639.816000", "095639.818000", "095639.821000", "095639.823000", "095639.825000", "095639.828000", "095639.830000", "095639.832000", "095639.834000", "095639.837000", "095639.885000", "095639.888000", "095639.890000", "095639.892000", "095639.895000", "095639.897000", "095639.899000", "095639.901000", "095719.811000", "095719.918000", "095719.921000", "095719.923000", "095719.925000", "095719.927000", "095719.930000", "095719.932000", "095719.934000", "095719.937000", "095719.939000", "095719.942000", "095719.944000", "095719.946000", "095719.949000", "095719.951000", "095719.953000", "095719.956000", "095719.958000", "095719.960000", "095759.811000", "095759.817000", "095759.820000", "095759.822000", "095759.824000", "095759.827000", "095759.829000", "095759.831000", "095759.833000", "095759.836000", "095759.838000", "095759.840000", "095759.842000", "095759.845000", "095759.847000", "095759.857000", "095759.859000", "095759.862000", "095759.864000", "095759.866000", "095839.810000", "095839.813000", "095839.815000", "095839.817000", "095839.819000", "095839.822000", "095839.824000", "095839.827000", "095839.829000", "095839.831000", "095839.833000", "095839.836000", "095839.838000", "095839.840000", "095839.843000", "095839.845000", "095839.847000", "095839.850000", "095839.852000", "095839.854000", "095852.039000", "095852.042000", "095852.044000", "095852.046000", "095852.049000", "095852.051000", "095852.053000"],
      "InstanceCreationTime": ["095259.816000", "095259.840000", "095259.842000", "095259.844000", "095259.847000", "095259.849000", "095259.851000", "095259.854000", "095259.856000", "095259.858000", "095259.861000", "095259.863000", "095259.865000", "095259.868000", "095259.871000", "095259.873000", "095259.876000", "095259.878000", "095259.881000", "095259.883000", "095259.885000", "095259.888000", "095259.890000", "095319.811000", "095319.814000", "095319.816000", "095319.818000", "095319.821000", "095319.823000", "095319.825000", "095319.828000", "095319.830000", "095319.832000", "095359.810000", "095359.813000", "095359.815000", "095359.817000", "095359.820000", "095359.822000", "095359.824000", "095359.826000", "095359.829000", "095359.831000", "095359.833000", "095359.836000", "095359.838000", "095359.840000", "095359.843000", "095359.845000", "095359.847000", "095359.849000", "095359.852000", "095359.854000", "095439.811000", "095439.814000", "095439.816000", "095439.819000", "095439.821000", "095439.823000", "095439.825000", "095439.828000", "095439.830000", "095439.832000", "095439.835000", "095439.837000", "095439.839000", "095439.841000", "095439.844000", "095439.846000", "095439.848000", "095439.851000", "095439.853000", "095439.863000", "095519.811000", "095519.814000", "095519.816000", "095519.819000", "095519.821000", "095519.823000", "095519.826000", "095519.828000", "095519.830000", "095519.832000", "095519.835000", "095519.837000", "095519.839000", "095519.842000", "095519.844000", "095519.846000", "095519.848000", "095519.851000", "095519.853000", "095519.855000", "095559.811000", "095559.814000", "095559.816000", "095559.818000", "095559.821000", "095559.823000", "095559.825000", "095559.828000", "095559.830000", "095559.832000", "095559.835000", "095559.837000", "095559.839000", "095559.841000", "095559.844000", "095559.846000", "095559.848000", "095559.851000", "095559.853000", "095559.855000", "095639.811000", "095639.814000", "095639.816000", "095639.818000", "095639.821000", "095639.823000", "095639.825000", "095639.828000", "095639.830000", "095639.832000", "095639.834000", "095639.837000", "095639.885000", "095639.888000", "095639.890000", "095639.892000", "095639.895000", "095639.897000", "095639.899000", "095639.901000", "095719.811000", "095719.918000", "095719.921000", "095719.923000", "095719.925000", "095719.927000", "095719.930000", "095719.932000", "095719.934000", "095719.937000", "095719.939000", "095719.942000", "095719.944000", "095719.946000", "095719.949000", "095719.951000", "095719.953000", "095719.956000", "095719.958000", "095719.960000", "095759.811000", "095759.817000", "095759.820000", "095759.822000", "095759.824000", "095759.827000", "095759.829000", "095759.831000", "095759.833000", "095759.836000", "095759.838000", "095759.840000", "095759.842000", "095759.845000", "095759.847000", "095759.857000", "095759.859000", "095759.862000", "095759.864000", "095759.866000", "095839.810000", "095839.813000", "095839.815000", "095839.817000", "095839.819000", "095839.822000", "095839.824000", "095839.827000", "095839.829000", "095839.831000", "095839.833000", "095839.836000", "095839.838000", "095839.840000", "095839.843000", "095839.845000", "095839.847000", "095839.850000", "095839.852000", "095839.854000", "095852.039000", "095852.042000", "095852.044000", "095852.046000", "095852.049000", "095852.051000", "095852.053000"],
      "InstanceNumber": [1, 2, 3, 4, 5, 6, 7, 8, 9, 10, 11, 12, 13, 14, 15, 16, 17, 18, 19, 20, 21, 22, 23, 24, 25, 26, 27, 28, 29, 30, 31, 32, 33, 34, 35, 36, 37, 38, 39, 40, 41, 42, 43, 44, 45, 46, 47, 48, 49, 50, 51, 52, 53, 54, 55, 56, 57, 58, 59, 60, 61, 62, 63, 64, 65, 66, 67, 68, 69, 70, 71, 72, 73, 74, 75, 76, 77, 78, 79, 80, 81, 82, 83, 84, 85, 86, 87, 88, 89, 90, 91, 92, 93, 94, 95, 96, 97, 98, 99, 100, 101, 102, 103, 104, 105, 106, 107, 108, 109, 110, 111, 112, 113, 114, 115, 116, 117, 118, 119, 120, 121, 122, 123, 124, 125, 126, 127, 128, 129, 130, 131, 132, 133, 134, 135, 136, 137, 138, 139, 140, 141, 142, 143, 144, 145, 146, 147, 148, 149, 150, 151, 152, 153, 154, 155, 156, 157, 158, 159, 160, 161, 162, 163, 164, 165, 166, 167, 168, 169, 170, 171, 172, 173, 174, 175, 176, 177, 178, 179, 180, 181, 182, 183, 184, 185, 186, 187, 188, 189, 190, 191, 192, 193, 194, 195, 196, 197, 198, 199, 200],
      "LargestImagePixelValue": [379, 379, 378, 380, 379, 379, 380, 379, 380, 380, 377, 381, 378, 379, 379, 380, 378, 380, 378, 380, 376, 380, 379, 378, 379, 378, 378, 377, 377, 379, 378, 378, 378, 379, 380, 379, 379, 377, 379, 378, 381, 377, 380, 378, 380, 377, 380, 378, 380, 378, 381, 378, 378, 376, 379, 378, 379, 378, 379, 379, 378, 378, 380, 378, 380, 378, 379, 378, 380, 377, 378, 380, 379, 379, 379, 378, 378, 379, 376, 378, 378, 380, 379, 379, 379, 379, 377, 379, 377, 380, 377, 380, 377, 381, 380, 379, 379, 377, 377, 379, 378, 379, 377, 381, 378, 378, 378, 378, 378, 378, 379, 379, 379, 376, 378, 378, 378, 379, 380, 380, 377, 378, 380, 376, 380, 376, 379, 378, 379, 376, 380, 379, 380, 377, 378, 377, 379, 379, 380, 378, 379, 379, 378, 379, 378, 380, 380, 377, 379, 378, 377, 379, 376, 377, 379, 378, 378, 379, 378, 378, 378, 379, 377, 379, 377, 378, 377, 378, 377, 378, 376, 379, 377, 379, 376, 379, 379, 379, 380, 379, 377, 379, 378, 379, 378, 378, 379, 379, 376, 377, 377, 377, 380, 379, 378, 377, 379, 377, 378, 376],
      "WindowCenter": [301.0, 301.0, 301.0, 301.0, 301.0, 301.0, 301.0, 301.0, 301.0, 301.0, 301.0, 301.0, 301.0, 301.0, 301.0, 301.0, 301.0, 301.0, 301.0, 301.0, 301.0, 301.0, 301.0, 301.0, 301.0, 301.0, 301.0, 301.0, 302.0, 301.0, 301.0, 301.0, 301.0, 301.0, 301.0, 301.0, 301.0, 301.0, 301.0, 301.0, 301.0, 301.0, 301.0, 301.0, 301.0, 301.0, 301.0, 301.0, 301.0, 301.0, 301.0, 301.0, 301.0, 301.0, 301.0, 301.0, 301.0, 301.0, 301.0, 301.0, 301.0, 301.0, 301.0, 301.0, 301.0, 301.0, 301.0, 301.0, 301.0, 301.0, 301.0, 301.0, 301.0, 301.0, 301.0, 301.0, 301.0, 301.0, 301.0, 301.0, 301.0, 301.0, 301.0, 301.0, 301.0, 301.0, 301.0, 301.0, 301.0, 301.0, 301.0, 301.0, 301.0, 301.0, 301.0, 301.0, 301.0, 301.0, 301.0, 301.0, 301.0, 301.0, 301.0, 301.0, 301.0, 301.0, 301.0, 301.0, 301.0, 301.0, 301.0, 301.0, 301.0, 301.0, 301.0, 301.0, 301.0, 301.0, 301.0, 301.0, 301.0, 301.0, 301.0, 301.0, 301.0, 301.0, 301.0, 301.0, 301.0, 301.0, 301.0, 301.0, 301.0, 301.0, 301.0, 301.0, 301.0, 301.0, 301.0, 301.0, 301.0, 301.0, 301.0, 301.0, 301.0, 301.0, 301.0, 301.0, 301.0, 301.0, 301.0, 301.0, 301.0, 301.0, 301.0, 301.0, 301.0, 301.0, 301.0, 301.0, 301.0, 301.0, 301.0, 301.0, 301.0, 301.0, 301.0, 301.0, 301.0, 301.0, 301.0, 301.0, 301.0, 301.0, 301.0, 301.0, 301.0, 301.0, 301.0, 301.0, 301.0, 301.0, 301.0, 301.0, 301.0, 300.0, 301.0, 301.0, 301.0, 301.0, 301.0, 301.0, 301.0, 301.0, 301.0, 301.0, 301.0, 301.0, 300.0, 301.0],
      "WindowWidth": [653.0, 652.0, 653.0, 653.0, 653.0, 653.0, 653.0, 653.0, 653.0, 653.0, 653.0, 653.0, 653.0, 653.0, 653.0, 652.0, 653.0, 652.0, 652.0, 652.0, 653.0, 652.0, 653.0, 652.0, 653.0, 653.0, 653.0, 652.0, 653.0, 653.0, 652.0, 653.0, 653.0, 653.0, 652.0, 652.0, 653.0, 653.0, 653.0, 652.0, 652.0, 652.0, 653.0, 653.0, 652.0, 653.0, 652.0, 653.0, 652.0, 653.0, 652.0, 653.0, 653.0, 653.0, 653.0, 652.0, 652.0, 652.0, 652.0, 652.0, 652.0, 652.0, 652.0, 652.0, 652.0, 652.0, 652.0, 652.0, 652.0, 652.0, 652.0, 652.0, 653.0, 652.0, 652.0, 652.0, 652.0, 653.0, 653.0, 652.0, 652.0, 652.0, 652.0, 652.0, 652.0, 652.0, 652.0, 652.0, 652.0, 652.0, 652.0, 652.0, 652.0, 652.0, 652.0, 652.0, 653.0, 652.0, 652.0, 652.0, 652.0, 652.0, 652.0, 652.0, 652.0, 652.0, 652.0, 652.0, 652.0, 652.0, 652.0, 652.0, 652.0, 652.0, 652.0, 652.0, 652.0, 652.0, 652.0, 652.0, 652.0, 652.0, 652.0, 652.0, 652.0, 652.0, 652.0, 652.0, 652.0, 652.0, 652.0, 652.0, 652.0, 652.0, 652.0, 652.0, 652.0, 652.0, 652.0, 652.0, 652.0, 652.0, 652.0, 652.0, 652.0, 652.0, 652.0, 652.0, 652.0, 652.0, 652.0, 652.0, 652.0, 652.0, 652.0, 652.0, 652.0, 652.0, 652.0, 652.0, 652.0, 652.0, 652.0, 652.0, 652.0, 652.0, 652.0, 652.0, 652.0, 652.0, 652.0, 652.0, 652.0, 652.0, 652.0, 652.0, 652.0, 652.0, 652.0, 652.0, 652.0, 652.0, 652.0, 652.0, 652.0, 651.0, 652.0, 652.0, 652.0, 652.0, 652.0, 652.0, 652.0, 652.0, 652.0, 652.0, 652.0, 652.0, 651.0, 652.0]
    },
    "slices": {}
  }
}