{
  "AcquisitionMatrixPE": 122,
  "AcquisitionNumber": 1,
  "AcquisitionTime": "10:59:56.475000",
  "BandwidthPerPixelPhaseEncode": 27.785,
  "BaseResolution": 122,
  "BodyPartExamined": "BRAIN",
  "CoilCombinationMethod": "Adaptive Combine",
  "ConsistencyInfo": "N4_VE11C_LATEST_20160120",
  "ConversionSoftware": "dcm2niix",
  "ConversionSoftwareVersion": "v1.0.20220720",
  "DerivedVendorReportedEchoSpacing": 0.000590011,
  "DeviceSerialNumber": "66112",
  "DiffusionScheme": "Monopolar",
  "DwellTime": 2e-06,
  "EchoTime": 0.068,
  "EchoTrainLength": 61,
  "EffectiveEchoSpacing": 0.000295005,
  "FlipAngle": 90,
  "HeudiconvVersion": "0.13.1",
  "ImageOrientationPatientDICOM": [0.992391, -0.123091, 0.00304086, 0.116404, 0.945955, 0.302686],
  "ImageOrientationText": "Tra>Cor(17.5)>Sag(2.3)",
  "ImageType": [
    "ORIGINAL",
    "PRIMARY",
    "DIFFUSION",
    "NONE",
    "ND",
    "NORM"
],
  "ImagingFrequency": 123.252,
  "InPlanePhaseEncodingDirectionDICOM": "COL",
  "InstitutionAddress": "Maynard 3,Hanover,NH,US,03755",
  "InstitutionName": "Dartmouth College - PBS",
  "InstitutionalDepartmentName": "Department",
  "MRAcquisitionType": "2D",
  "MagneticFieldStrength": 3,
  "Manufacturer": "Siemens",
  "ManufacturersModelName": "Prisma",
  "Modality": "MR",
  "MultibandAccelerationFactor": 4,
  "NonlinearGradientCorrection": false,
  "ParallelReductionFactorInPlane": 2,
  "PartialFourier": 1,
  "PatientPosition": "HFS",
  "PercentPhaseFOV": 100,
  "PercentSampling": 100,
  "PhaseEncodingDirection": "j-",
  "PhaseEncodingSteps": 122,
  "PhaseResolution": 1,
  "PixelBandwidth": 2050,
  "ProcedureStepDescription": "dbic^QA",
  "ProtocolName": "dwi_acq-DTI-30-p2-s4",
  "PulseSequenceDetails": "%SiemensSeq%\\ep2d_diff",
  "ReceiveCoilActiveElements": "HEA;HEP",
  "ReceiveCoilName": "Head_32",
  "ReconMatrixPE": 122,
  "RefLinesPE": 38,
  "RepetitionTime": 3.6,
  "SAR": 0.161665,
  "ScanOptions": "FS",
  "ScanningSequence": "EP",
  "SequenceName": "*ep_b0",
  "SequenceVariant": "SK\\SP",
  "SeriesDescription": "dwi_acq-DTI-30-p2-s4",
  "SeriesNumber": 9,
  "ShimSetting": [4147, -7688, -7523, 260, -90, -82, -91, 101],
  "SliceThickness": 2,
  "SliceTiming": [2.58594, 0, 1.78906, 0.20312, 1.98438, 0.39844, 2.1875, 0.59375, 2.39062, 0.99219, 2.78125, 1.19531, 2.98438, 1.39062, 3.17969, 1.58594, 3.38281, 0.79688, 2.58594, 0, 1.78906, 0.20312, 1.98438, 0.39844, 2.1875, 0.59375, 2.39062, 0.99219, 2.78125, 1.19531, 2.98438, 1.39062, 3.17969, 1.58594, 3.38281, 0.79688, 2.58594, 0, 1.78906, 0.20312, 1.98438, 0.39844, 2.1875, 0.59375, 2.39062, 0.99219, 2.78125, 1.19531, 2.98438, 1.39062, 3.17969, 1.58594, 3.38281, 0.79688, 2.58594, 0, 1.78906, 0.20312, 1.98438, 0.39844, 2.1875, 0.59375, 2.39062, 0.99219, 2.78125, 1.19531, 2.98438, 1.39062, 3.17969, 1.58594, 3.38281, 0.79688],
  "SoftwareVersions": "syngo MR E11",
  "SpacingBetweenSlices": 2,
  "SpoilingState": true,
  "StationName": "AWP66112",
  "TotalReadoutTime": 0.0356956,
  "TxRefAmp": 235.951,
  "dcmmeta_affine": [
    [-1.9522441625595093, 0.2289905548095703, 0.0802687406539917, 100.94379425048828],
    [0.24214549362659454, 1.8608955144882202, 0.6000595092773438, -142.43603515625],
    [0.005982029251754284, -0.5954483151435852, 1.9061737060546875, -36.79286575317383],
    [0.0, 0.0, 0.0, 1.0]
],
  "dcmmeta_reorient_transform": [
    [0.0, -1.0, 0.0, 121.0],
    [1.0, 0.0, 0.0, 0.0],
    [0.0, 0.0, -1.0, 71.0],
    [0.0, 0.0, 0.0, 1.0]
],
  "dcmmeta_shape": [122, 122, 72, 31],
  "dcmmeta_slice_dim": 2,
  "dcmmeta_version": 0.6,
  "global": {
    "const": {
      "AccessionNumber": "qa",
      "AcquisitionMatrix": [122, 0, 0, 122],
      "AngioFlag": "N",
      "BitsAllocated": 16,
      "BitsStored": 12,
      "BodyPartExamined": "BRAIN",
      "Columns": 122,
      "EchoNumbers": 1,
      "EchoTime": 68.0,
      "EchoTrainLength": 61,
      "FlipAngle": 90.0,
      "HighBit": 11,
      "ImageOrientationPatient": [0.99239077553541, -0.1230906242309, 0.00304086478907, 0.11640353116851, 0.945955219057, 0.30268620958069],
      "ImageType": [
        "ORIGINAL",
        "PRIMARY",
        "DIFFUSION",
        "NONE",
        "ND",
        "NORM"
],
      "ImagedNucleus": "1H",
      "ImagingFrequency": 123.252459,
      "InPlanePhaseEncodingDirection": "COL",
      "MRAcquisitionType": "2D",
      "MagneticFieldStrength": 3.0,
      "Manufacturer": "SIEMENS",
      "ManufacturerModelName": "Prisma",
      "Modality": "MR",
      "NumberOfAverages": 1.0,
      "NumberOfPhaseEncodingSteps": 122,
      "PercentPhaseFieldOfView": 100.0,
      "PercentSampling": 100.0,
      "PerformedProcedureStepStartTime": "102919.333000",
      "PhotometricInterpretation": "MONOCHROME2",
      "PixelBandwidth": 2050.0,
      "PixelRepresentation": 0,
      "PixelSpacing": [1.9672131538391, 1.9672131538391],
      "ProtocolName": "dwi_acq-DTI-30-p2-s4",
      "RepetitionTime": 3600.0,
      "Rows": 122,
      "SAR": 0.16166485368276,
      "SamplesPerPixel": 1,
      "ScanOptions": "FS",
      "ScanningSequence": "EP",
      "SequenceVariant": [
        "SK",
        "SP"
],
      "SeriesDescription": "dwi_acq-DTI-30-p2-s4",
      "SeriesNumber": 9,
      "SeriesTime": "110005.666000",
      "SliceThickness": 2.0,
      "SmallestImagePixelValue": 0,
      "SoftwareVersions": "syngo MR E11",
      "SpacingBetweenSlices": 2.0,
      "SpecificCharacterSet": "ISO_IR 100",
      "StudyID": "54",
      "StudyTime": "102919.224000",
      "TransmitCoilName": "Body",
      "VariableFlipAngleFlag": "N",
      "WindowCenterWidthExplanation": "Algo1",
      "dBdt": 0.0},
    "slices": {
      "AcquisitionTime": ["105956.475000", "105953.890000", "105955.680000", "105954.090000", "105955.877500", "105954.287500", "105956.077500", "105954.487500", "105956.277500", "105954.885000", "105956.675000", "105955.082500", "105956.872500", "105955.282500", "105957.072500", "105955.480000", "105957.270000", "105954.685000", "105956.475000", "105953.890000", "105955.680000", "105954.090000", "105955.877500", "105954.287500", "105956.077500", "105954.487500", "105956.277500", "105954.885000", "105956.675000", "105955.082500", "105956.872500", "105955.282500", "105957.072500", "105955.480000", "105957.270000", "105954.685000", "105956.475000", "105953.890000", "105955.680000", "105954.090000", "105955.877500", "105954.287500", "105956.077500", "105954.487500", "105956.277500", "105954.885000", "105956.675000", "105955.082500", "105956.872500", "105955.282500", "105957.072500", "105955.480000", "105957.270000", "105954.685000", "105956.475000", "105953.890000", "105955.680000", "105954.090000", "105955.877500", "105954.287500", "105956.077500", "105954.487500", "105956.277500", "105954.885000", "105956.675000", "105955.082500", "105956.872500", "105955.282500", "105957.072500", "105955.480000", "105957.270000", "105954.685000", "110000.075000", "105957.490000", "105959.280000", "105957.690000", "105959.477500", "105957.887500", "105959.677500", "105958.087500", "105959.877500", "105958.485000", "110000.275000", "105958.682500", "110000.472500", "105958.882500", "110000.672500", "105959.080000", "110000.870000", "105958.285000", "110000.075000", "105957.490000", "105959.280000", "105957.690000", "105959.477500", "105957.887500", "105959.677500", "105958.087500", "105959.877500", "105958.485000", "110000.275000", "105958.682500", "110000.472500", "105958.882500", "110000.672500", "105959.080000", "110000.870000", "105958.285000", "110000.075000", "105957.490000", "105959.280000", "105957.690000", "105959.477500", "105957.887500", "105959.677500", "105958.087500", "105959.877500", "105958.485000", "110000.275000", "105958.682500", "110000.472500", "105958.882500", "110000.672500", "105959.080000", "110000.870000", "105958.285000", "110000.075000", "105957.490000", "105959.280000", "105957.690000", "105959.477500", "105957.887500", "105959.677500", "105958.087500", "105959.877500", "105958.485000", "110000.275000", "105958.682500", "110000.472500", "105958.882500", "110000.672500", "105959.080000", "110000.870000", "105958.285000", "110003.675000", "110001.090000", "110002.880000", "110001.290000", "110003.077500", "110001.487500", "110003.277500", "110001.687500", "110003.477500", "110002.085000", "110003.875000", "110002.282500", "110004.072500", "110002.482500", "110004.272500", "110002.680000", "110004.470000", "110001.885000", "110003.675000", "110001.090000", "110002.880000", "110001.290000", "110003.077500", "110001.487500", "110003.277500", "110001.687500", "110003.477500", "110002.085000", "110003.875000", "110002.282500", "110004.072500", "110002.482500", "110004.272500", "110002.680000", "110004.470000", "110001.885000", "110003.675000", "110001.090000", "110002.880000", "110001.290000", "110003.077500", "110001.487500", "110003.277500", "110001.687500", "110003.477500", "110002.085000", "110003.875000", "110002.282500", "110004.072500", "110002.482500", "110004.272500", "110002.680000", "110004.470000", "110001.885000", "110003.675000", "110001.090000", "110002.880000", "110001.290000", "110003.077500", "110001.487500", "110003.277500", "110001.687500", "110003.477500", "110002.085000", "110003.875000", "110002.282500", "110004.072500", "110002.482500", "110004.272500", "110002.680000", "110004.470000", "110001.885000", "110007.275000", "110004.690000", "110006.480000", "110004.890000", "110006.677500", "110005.087500", "110006.877500", "110005.287500", "110007.077500", "110005.685000", "110007.475000", "110005.882500", "110007.672500", "110006.082500", "110007.872500", "110006.280000", "110008.070000", "110005.485000", "110007.275000", "110004.690000", "110006.480000", "110004.890000", "110006.677500", "110005.087500", "110006.877500", "110005.287500", "110007.077500", "110005.685000", "110007.475000", "110005.882500", "110007.672500", "110006.082500", "110007.872500", "110006.280000", "110008.070000", "110005.485000", "110007.275000", "110004.690000", "110006.480000", "110004.890000", "110006.677500", "110005.087500", "110006.877500", "110005.287500", "110007.077500", "110005.685000", "110007.475000", "110005.882500", "110007.672500", "110006.082500", "110007.872500", "110006.280000", "110008.070000", "110005.485000", "110007.275000", "110004.690000", "110006.480000", "110004.890000", "110006.677500", "110005.087500", "110006.877500", "110005.287500", "110007.077500", "110005.685000", "110007.475000", "110005.882500", "110007.672500", "110006.082500", "110007.872500", "110006.280000", "110008.070000", "110005.485000", "110010.875000", "110008.290000", "110010.080000", "110008.490000", "110010.277500", "110008.687500", "110010.477500", "110008.887500", "110010.677500", "110009.285000", "110011.075000", "110009.482500", "110011.272500", "110009.682500", "110011.472500", "110009.880000", "110011.670000", "110009.085000", "110010.875000", "110008.290000", "110010.080000", "110008.490000", "110010.277500", "110008.687500", "110010.477500", "110008.887500", "110010.677500", "110009.285000", "110011.075000", "110009.482500", "110011.272500", "110009.682500", "110011.472500", "110009.880000", "110011.670000", "110009.085000", "110010.875000", "110008.290000", "110010.080000", "110008.490000", "110010.277500", "110008.687500", "110010.477500", "110008.887500", "110010.677500", "110009.285000", "110011.075000", "110009.482500", "110011.272500", "110009.682500", "110011.472500", "110009.880000", "110011.670000", "110009.085000", "110010.875000", "110008.290000", "110010.080000", "110008.490000", "110010.277500", "110008.687500", "110010.477500", "110008.887500", "110010.677500", "110009.285000", "110011.075000", "110009.482500", "110011.272500", "110009.682500", "110011.472500", "110009.880000", "110011.670000", "110009.085000", "110014.475000", "110011.890000", "110013.680000", "110012.090000", "110013.877500", "110012.287500", "110014.077500", "110012.487500", "110014.277500", "110012.885000", "110014.675000", "110013.082500", "110014.872500", "110013.282500", "110015.072500", "110013.480000", "110015.270000", "110012.685000", "110014.475000", "110011.890000", "110013.680000", "110012.090000", "110013.877500", "110012.287500", "110014.077500", "110012.487500", "110014.277500", "110012.885000", "110014.675000", "110013.082500", "110014.872500", "110013.282500", "110015.072500", "110013.480000", "110015.270000", "110012.685000", "110014.475000", "110011.890000", "110013.680000", "110012.090000", "110013.877500", "110012.287500", "110014.077500", "110012.487500", "110014.277500", "110012.885000", "110014.675000", "110013.082500", "110014.872500", "110013.282500", "110015.072500", "110013.480000", "110015.270000", "110012.685000", "110014.475000", "110011.890000", "110013.680000", "110012.090000", "110013.877500", "110012.287500", "110014.077500", "110012.487500", "110014.277500", "110012.885000", "110014.675000", "110013.082500", "110014.872500", "110013.282500", "110015.072500", "110013.480000", "110015.270000", "110012.685000", "110018.075000", "110015.490000", "110017.280000", "110015.690000", "110017.477500", "110015.887500", "110017.677500", "110016.087500", "110017.877500", "110016.485000", "110018.275000", "110016.682500", "110018.472500", "110016.882500", "110018.672500", "110017.080000", "110018.870000", "110016.285000", "110018.075000", "110015.490000", "110017.280000", "110015.690000", "110017.477500", "110015.887500", "110017.677500", "110016.087500", "110017.877500", "110016.485000", "110018.275000", "110016.682500", "110018.472500", "110016.882500", "110018.672500", "110017.080000", "110018.870000", "110016.285000", "110018.075000", "110015.490000", "110017.280000", "110015.690000", "110017.477500", "110015.887500", "110017.677500", "110016.087500", "110017.877500", "110016.485000", "110018.275000", "110016.682500", "110018.472500", "110016.882500", "110018.672500", "110017.080000", "110018.870000", "110016.285000", "110018.075000", "110015.490000", "110017.280000", "110015.690000", "110017.477500", "110015.887500", "110017.677500", "110016.087500", "110017.877500", "110016.485000", "110018.275000", "110016.682500", "110018.472500", "110016.882500", "110018.672500", "110017.080000", "110018.870000", "110016.285000", "110021.675000", "110019.090000", "110020.880000", "110019.290000", "110021.077500", "110019.487500", "110021.277500", "110019.687500", "110021.477500", "110020.085000", "110021.875000", "110020.282500", "110022.072500", "110020.482500", "110022.272500", "110020.680000", "110022.470000", "110019.885000", "110021.675000", "110019.090000", "110020.880000", "110019.290000", "110021.077500", "110019.487500", "110021.277500", "110019.687500", "110021.477500", "110020.085000", "110021.875000", "110020.282500", "110022.072500", "110020.482500", "110022.272500", "110020.680000", "110022.470000", "110019.885000", "110021.675000", "110019.090000", "110020.880000", "110019.290000", "110021.077500", "110019.487500", "110021.277500", "110019.687500", "110021.477500", "110020.085000", "110021.875000", "110020.282500", "110022.072500", "110020.482500", "110022.272500", "110020.680000", "110022.470000", "110019.885000", "110021.675000", "110019.090000", "110020.880000", "110019.290000", "110021.077500", "110019.487500", "110021.277500", "110019.687500", "110021.477500", "110020.085000", "110021.875000", "110020.282500", "110022.072500", "110020.482500", "110022.272500", "110020.680000", "110022.470000", "110019.885000", "110025.275000", "110022.690000", "110024.480000", "110022.890000", "110024.677500", "110023.087500", "110024.877500", "110023.287500", "110025.077500", "110023.685000", "110025.475000", "110023.882500", "110025.672500", "110024.082500", "110025.872500", "110024.280000", "110026.070000", "110023.485000", "110025.275000", "110022.690000", "110024.480000", "110022.890000", "110024.677500", "110023.087500", "110024.877500", "110023.287500", "110025.077500", "110023.685000", "110025.475000", "110023.882500", "110025.672500", "110024.082500", "110025.872500", "110024.280000", "110026.070000", "110023.485000", "110025.275000", "110022.690000", "110024.480000", "110022.890000", "110024.677500", "110023.087500", "110024.877500", "110023.287500", "110025.077500", "110023.685000", "110025.475000", "110023.882500", "110025.672500", "110024.082500", "110025.872500", "110024.280000", "110026.070000", "110023.485000", "110025.275000", "110022.690000", "110024.480000", "110022.890000", "110024.677500", "110023.087500", "110024.877500", "110023.287500", "110025.077500", "110023.685000", "110025.475000", "110023.882500", "110025.672500", "110024.082500", "110025.872500", "110024.280000", "110026.070000", "110023.485000", "110028.875000", "110026.290000", "110028.080000", "110026.490000", "110028.277500", "110026.687500", "110028.477500", "110026.887500", "110028.677500", "110027.285000", "110029.075000", "110027.482500", "110029.272500", "110027.682500", "110029.472500", "110027.880000", "110029.670000", "110027.085000", "110028.875000", "110026.290000", "110028.080000", "110026.490000", "110028.277500", "110026.687500", "110028.477500", "110026.887500", "110028.677500", "110027.285000", "110029.075000", "110027.482500", "110029.272500", "110027.682500", "110029.472500", "110027.880000", "110029.670000", "110027.085000", "110028.875000", "110026.290000", "110028.080000", "110026.490000", "110028.277500", "110026.687500", "110028.477500", "110026.887500", "110028.677500", "110027.285000", "110029.075000", "110027.482500", "110029.272500", "110027.682500", "110029.472500", "110027.880000", "110029.670000", "110027.085000", "110028.875000", "110026.290000", "110028.080000", "110026.490000", "110028.277500", "110026.687500", "110028.477500", "110026.887500", "110028.677500", "110027.285000", "110029.075000", "110027.482500", "110029.272500", "110027.682500", "110029.472500", "110027.880000", "110029.670000", "110027.085000", "110032.475000", "110029.890000", "110031.680000", "110030.090000", "110031.877500", "110030.287500", "110032.077500", "110030.487500", "110032.277500", "110030.885000", "110032.675000", "110031.082500", "110032.872500", "110031.282500", "110033.072500", "110031.480000", "110033.270000", "110030.685000", "110032.475000", "110029.890000", "110031.680000", "110030.090000", "110031.877500", "110030.287500", "110032.077500", "110030.487500", "110032.277500", "110030.885000", "110032.675000", "110031.082500", "110032.872500", "110031.282500", "110033.072500", "110031.480000", "110033.270000", "110030.685000", "110032.475000", "110029.890000", "110031.680000", "110030.090000", "110031.877500", "110030.287500", "110032.077500", "110030.487500", "110032.277500", "110030.885000", "110032.675000", "110031.082500", "110032.872500", "110031.282500", "110033.072500", "110031.480000", "110033.270000", "110030.685000", "110032.475000", "110029.890000", "110031.680000", "110030.090000", "110031.877500", "110030.287500", "110032.077500", "110030.487500", "110032.277500", "110030.885000", "110032.675000", "110031.082500", "110032.872500", "110031.282500", "110033.072500", "110031.480000", "110033.270000", "110030.685000", "110036.075000", "110033.490000", "110035.280000", "110033.690000", "110035.477500", "110033.887500", "110035.677500", "110034.087500", "110035.877500", "110034.485000", "110036.275000", "110034.682500", "110036.472500", "110034.882500", "110036.672500", "110035.080000", "110036.870000", "110034.285000", "110036.075000", "110033.490000", "110035.280000", "110033.690000", "110035.477500", "110033.887500", "110035.677500", "110034.087500", "110035.877500", "110034.485000", "110036.275000", "110034.682500", "110036.472500", "110034.882500", "110036.672500", "110035.080000", "110036.870000", "110034.285000", "110036.075000", "110033.490000", "110035.280000", "110033.690000", "110035.477500", "110033.887500", "110035.677500", "110034.087500", "110035.877500", "110034.485000", "110036.275000", "110034.682500", "110036.472500", "110034.882500", "110036.672500", "110035.080000", "110036.870000", "110034.285000", "110036.075000", "110033.490000", "110035.280000", "110033.690000", "110035.477500", "110033.887500", "110035.677500", "110034.087500", "110035.877500", "110034.485000", "110036.275000", "110034.682500", "110036.472500", "110034.882500", "110036.672500", "110035.080000", "110036.870000", "110034.285000", "110039.675000", "110037.090000", "110038.880000", "110037.290000", "110039.077500", "110037.487500", "110039.277500", "110037.687500", "110039.477500", "110038.085000", "110039.875000", "110038.282500", "110040.072500", "110038.482500", "110040.272500", "110038.680000", "110040.470000", "110037.885000", "110039.675000", "110037.090000", "110038.880000", "110037.290000", "110039.077500", "110037.487500", "110039.277500", "110037.687500", "110039.477500", "110038.085000", "110039.875000", "110038.282500", "110040.072500", "110038.482500", "110040.272500", "110038.680000", "110040.470000", "110037.885000", "110039.675000", "110037.090000", "110038.880000", "110037.290000", "110039.077500", "110037.487500", "110039.277500", "110037.687500", "110039.477500", "110038.085000", "110039.875000", "110038.282500", "110040.072500", "110038.482500", "110040.272500", "110038.680000", "110040.470000", "110037.885000", "110039.675000", "110037.090000", "110038.880000", "110037.290000", "110039.077500", "110037.487500", "110039.277500", "110037.687500", "110039.477500", "110038.085000", "110039.875000", "110038.282500", "110040.072500", "110038.482500", "110040.272500", "110038.680000", "110040.470000", "110037.885000", "110043.275000", "110040.690000", "110042.480000", "110040.890000", "110042.677500", "110041.087500", "110042.877500", "110041.287500", "110043.077500", "110041.685000", "110043.475000", "110041.882500", "110043.672500", "110042.082500", "110043.872500", "110042.280000", "110044.070000", "110041.485000", "110043.275000", "110040.690000", "110042.480000", "110040.890000", "110042.677500", "110041.087500", "110042.877500", "110041.287500", "110043.077500", "110041.685000", "110043.475000", "110041.882500", "110043.672500", "110042.082500", "110043.872500", "110042.280000", "110044.070000", "110041.485000", "110043.275000", "110040.690000", "110042.480000", "110040.890000", "110042.677500", "110041.087500", "110042.877500", "110041.287500", "110043.077500", "110041.685000", "110043.475000", "110041.882500", "110043.672500", "110042.082500", "110043.872500", "110042.280000", "110044.070000", "110041.485000", "110043.275000", "110040.690000", "110042.480000", "110040.890000", "110042.677500", "110041.087500", "110042.877500", "110041.287500", "110043.077500", "110041.685000", "110043.475000", "110041.882500", "110043.672500", "110042.082500", "110043.872500", "110042.280000", "110044.070000", "110041.485000", "110046.875000", "110044.290000", "110046.080000", "110044.490000", "110046.277500", "110044.687500", "110046.477500", "110044.887500", "110046.677500", "110045.285000", "110047.075000", "110045.482500", "110047.272500", "110045.682500", "110047.472500", "110045.880000", "110047.670000", "110045.085000", "110046.875000", "110044.290000", "110046.080000", "110044.490000", "110046.277500", "110044.687500", "110046.477500", "110044.887500", "110046.677500", "110045.285000", "110047.075000", "110045.482500", "110047.272500", "110045.682500", "110047.472500", "110045.880000", "110047.670000", "110045.085000", "110046.875000", "110044.290000", "110046.080000", "110044.490000", "110046.277500", "110044.687500", "110046.477500", "110044.887500", "110046.677500", "110045.285000", "110047.075000", "110045.482500", "110047.272500", "110045.682500", "110047.472500", "110045.880000", "110047.670000", "110045.085000", "110046.875000", "110044.290000", "110046.080000", "110044.490000", "110046.277500", "110044.687500", "110046.477500", "110044.887500", "110046.677500", "110045.285000", "110047.075000", "110045.482500", "110047.272500", "110045.682500", "110047.472500", "110045.880000", "110047.670000", "110045.085000", "110050.475000", "110047.890000", "110049.680000", "110048.090000", "110049.877500", "110048.287500", "110050.077500", "110048.487500", "110050.277500", "110048.885000", "110050.675000", "110049.082500", "110050.872500", "110049.282500", "110051.072500", "110049.480000", "110051.270000", "110048.685000", "110050.475000", "110047.890000", "110049.680000", "110048.090000", "110049.877500", "110048.287500", "110050.077500", "110048.487500", "110050.277500", "110048.885000", "110050.675000", "110049.082500", "110050.872500", "110049.282500", "110051.072500", "110049.480000", "110051.270000", "110048.685000", "110050.475000", "110047.890000", "110049.680000", "110048.090000", "110049.877500", "110048.287500", "110050.077500", "110048.487500", "110050.277500", "110048.885000", "110050.675000", "110049.082500", "110050.872500", "110049.282500", "110051.072500", "110049.480000", "110051.270000", "110048.685000", "110050.475000", "110047.890000", "110049.680000", "110048.090000", "110049.877500", "110048.287500", "110050.077500", "110048.487500", "110050.277500", "110048.885000", "110050.675000", "110049.082500", "110050.872500", "110049.282500", "110051.072500", "110049.480000", "110051.270000", "110048.685000", "110054.075000", "110051.490000", "110053.280000", "110051.690000", "110053.477500", "110051.887500", "110053.677500", "110052.087500", "110053.877500", "110052.485000", "110054.275000", "110052.682500", "110054.472500", "110052.882500", "110054.672500", "110053.080000", "110054.870000", "110052.285000", "110054.075000", "110051.490000", "110053.280000", "110051.690000", "110053.477500", "110051.887500", "110053.677500", "110052.087500", "110053.877500", "110052.485000", "110054.275000", "110052.682500", "110054.472500", "110052.882500", "110054.672500", "110053.080000", "110054.870000", "110052.285000", "110054.075000", "110051.490000", "110053.280000", "110051.690000", "110053.477500", "110051.887500", "110053.677500", "110052.087500", "110053.877500", "110052.485000", "110054.275000", "110052.682500", "110054.472500", "110052.882500", "110054.672500", "110053.080000", "110054.870000", "110052.285000", "110054.075000", "110051.490000", "110053.280000", "110051.690000", "110053.477500", "110051.887500", "110053.677500", "110052.087500", "110053.877500", "110052.485000", "110054.275000", "110052.682500", "110054.472500", "110052.882500", "110054.672500", "110053.080000", "110054.870000", "110052.285000", "110057.675000", "110055.090000", "110056.880000", "110055.290000", "110057.077500", "110055.487500", "110057.277500", "110055.687500", "110057.477500", "110056.085000", "110057.875000", "110056.282500", "110058.072500", "110056.482500", "110058.272500", "110056.680000", "110058.470000", "110055.885000", "110057.675000", "110055.090000", "110056.880000", "110055.290000", "110057.077500", "110055.487500", "110057.277500", "110055.687500", "110057.477500", "110056.085000", "110057.875000", "110056.282500", "110058.072500", "110056.482500", "110058.272500", "110056.680000", "110058.470000", "110055.885000", "110057.675000", "110055.090000", "110056.880000", "110055.290000", "110057.077500", "110055.487500", "110057.277500", "110055.687500", "110057.477500", "110056.085000", "110057.875000", "110056.282500", "110058.072500", "110056.482500", "110058.272500", "110056.680000", "110058.470000", "110055.885000", "110057.675000", "110055.090000", "110056.880000", "110055.290000", "110057.077500", "110055.487500", "110057.277500", "110055.687500", "110057.477500", "110056.085000", "110057.875000", "110056.282500", "110058.072500", "110056.482500", "110058.272500", "110056.680000", "110058.470000", "110055.885000", "110101.275000", "110058.690000", "110100.480000", "110058.890000", "110100.677500", "110059.087500", "110100.877500", "110059.287500", "110101.077500", "110059.685000", "110101.475000", "110059.882500", "110101.672500", "110100.082500", "110101.872500", "110100.280000", "110102.070000", "110059.485000", "110101.275000", "110058.690000", "110100.480000", "110058.890000", "110100.677500", "110059.087500", "110100.877500", "110059.287500", "110101.077500", "110059.685000", "110101.475000", "110059.882500", "110101.672500", "110100.082500", "110101.872500", "110100.280000", "110102.070000", "110059.485000", "110101.275000", "110058.690000", "110100.480000", "110058.890000", "110100.677500", "110059.087500", "110100.877500", "110059.287500", "110101.077500", "110059.685000", "110101.475000", "110059.882500", "110101.672500", "110100.082500", "110101.872500", "110100.280000", "110102.070000", "110059.485000", "110101.275000", "110058.690000", "110100.480000", "110058.890000", "110100.677500", "110059.087500", "110100.877500", "110059.287500", "110101.077500", "110059.685000", "110101.475000", "110059.882500", "110101.672500", "110100.082500", "110101.872500", "110100.280000", "110102.070000", "110059.485000", "110104.875000", "110102.290000", "110104.080000", "110102.490000", "110104.277500", "110102.687500", "110104.477500", "110102.887500", "110104.677500", "110103.285000", "110105.075000", "110103.482500", "110105.272500", "110103.682500", "110105.472500", "110103.880000", "110105.670000", "110103.085000", "110104.875000", "110102.290000", "110104.080000", "110102.490000", "110104.277500", "110102.687500", "110104.477500", "110102.887500", "110104.677500", "110103.285000", "110105.075000", "110103.482500", "110105.272500", "110103.682500", "110105.472500", "110103.880000", "110105.670000", "110103.085000", "110104.875000", "110102.290000", "110104.080000", "110102.490000", "110104.277500", "110102.687500", "110104.477500", "110102.887500", "110104.677500", "110103.285000", "110105.075000", "110103.482500", "110105.272500", "110103.682500", "110105.472500", "110103.880000", "110105.670000", "110103.085000", "110104.875000", "110102.290000", "110104.080000", "110102.490000", "110104.277500", "110102.687500", "110104.477500", "110102.887500", "110104.677500", "110103.285000", "110105.075000", "110103.4