{
  "AcquisitionMatrixPE": 80,
  "AcquisitionNumber": 1,
  "AcquisitionTime": "10:23:11.142500",
  "BandwidthPerPixelPhaseEncode": 44.643,
  "BaseResolution": 80,
  "BodyPartExamined": "BRAIN",
  "CoilCombinationMethod": "Sum of Squares",
  "ConsistencyInfo": "N4_VE11C_LATEST_20160120",
  "ConversionSoftware": "dcm2niix",
  "ConversionSoftwareVersion": "v1.0.20220720",
  "DerivedVendorReportedEchoSpacing": 0.000559998,
  "DeviceSerialNumber": "66112",
  "DwellTime": 2.7e-06,
  "EchoTime": 0.035,
  "EchoTrainLength": 39,
  "EffectiveEchoSpacing": 0.000279999,
  "FlipAngle": 90,
  "HeudiconvVersion": "0.13.1",
  "ImageOrientationPatientDICOM": [0.985098, 0.171721, 0.00967155, -0.166617, 0.938845, 0.301344],
  "ImageOrientationText": "Tra>Cor(17.4)>Sag(-2.4)",
  "ImageType": [
    "ORIGINAL",
    "PRIMARY",
    "M",
    "ND",
    "NORM",
    "MOSAIC"
],
  "ImagingFrequency": 123.253,
  "InPlanePhaseEncodingDirectionDICOM": "COL",
  "InstitutionAddress": "Maynard 3,Hanover,NH,US,03755",
  "InstitutionName": "Dartmouth College - PBS",
  "InstitutionalDepartmentName": "Department",
  "MRAcquisitionType": "2D",
  "MagneticFieldStrength": 3,
  "Manufacturer": "Siemens",
  "ManufacturersModelName": "Prisma",
  "Modality": "MR",
  "MultibandAccelerationFactor": 4,
  "NonlinearGradientCorrection": false,
  "ParallelReductionFactorInPlane": 2,
  "PartialFourier": 1,
  "PatientPosition": "HFS",
  "PercentPhaseFOV": 100,
  "PercentSampling": 100,
  "PhaseEncodingDirection": "j-",
  "PhaseEncodingSteps": 79,
  "PhaseResolution": 1,
  "PixelBandwidth": 2315,
  "ProcedureStepDescription": "dbic^QA",
  "ProtocolName": "func-bold_task-rest_acq-p2-s4-3.5mm",
  "PulseSequenceDetails": "%SiemensSeq%\\ep2d_bold",
  "ReceiveCoilActiveElements": "HEA;HEP",
  "ReceiveCoilName": "Head_32",
  "ReconMatrixPE": 80,
  "RefLinesPE": 24,
  "RepetitionTime": 2,
  "SAR": 0.0178194,
  "ScanOptions": "FS",
  "ScanningSequence": "EP",
  "SequenceName": "*epfid2d1_80",
  "SequenceVariant": "SK",
  "SeriesDescription": "func-bold_task-rest_acq-p2-s4-3.5mm",
  "SeriesNumber": 7,
  "ShimSetting": [4146, -7695, -7523, 224, -41, -99, -22, 50],
  "SliceThickness": 3.5,
  "SliceTiming": [1.485, 0, 0.99, 0.2475, 1.2375, 0.7425, 1.7325, 0.495, 1.485, 0, 0.99, 0.2475, 1.2375, 0.7425, 1.7325, 0.495, 1.485, 0, 0.99, 0.2475, 1.2375, 0.7425, 1.7325, 0.495, 1.485, 0, 0.99, 0.2475, 1.2375, 0.7425, 1.7325, 0.495],
  "SoftwareVersions": "syngo MR E11",
  "SpacingBetweenSlices": 3.99,
  "StationName": "AWP66112",
  "TaskName": "rest",
  "TotalReadoutTime": 0.0221199,
  "TxRefAmp": 226.517,
  "dcmmeta_affine": [
    [-2.955294370651245, -0.49985063076019287, -0.17024129629135132, 144.63121032714844],
    [-0.5151631236076355, 2.8165361881256104, 1.1908743381500244, -100.9864273071289],
    [0.02901465632021427, -0.9040316343307495, 3.8043313026428223, -28.56077003479004],
    [0.0, 0.0, 0.0, 1.0]
],
  "dcmmeta_reorient_transform": [
    [0.0, -1.0, 0.0, 79.0],
    [1.0, 0.0, 0.0, 0.0],
    [0.0, 0.0, 1.0, 0.0],
    [0.0, 0.0, 0.0, 1.0]
],
  "dcmmeta_shape": [80, 80, 32, 200],
  "dcmmeta_slice_dim": 2,
  "dcmmeta_version": 0.6,
  "global": {
    "const": {
      "AccessionNumber": "qa",
      "AcquisitionMatrix": [80, 0, 0, 80],
      "AngioFlag": "N",
      "BitsAllocated": 16,
      "BitsStored": 12,
      "BodyPartExamined": "BRAIN",
      "Columns": 480,
      "EchoNumbers": 1,
      "EchoTime": 35.0,
      "EchoTrainLength": 39,
      "FlipAngle": 90.0,
      "HighBit": 11,
      "ImageOrientationPatient": [0.98509813935798, 0.17172104387273, 0.00967155234258, -0.1666168765405, 0.93884539912988, 0.30134387829279],
      "ImagePositionPatient": [-596.23176548085, -787.85979590158, -286.58852735483],
      "ImageType": [
        "ORIGINAL",
        "PRIMARY",
        "M",
        "ND",
        "NORM",
        "MOSAIC"
],
      "ImagedNucleus": "1H",
      "ImagingFrequency": 123.252568,
      "InPlanePhaseEncodingDirection": "COL",
      "MRAcquisitionType": "2D",
      "MagneticFieldStrength": 3.0,
      "Manufacturer": "SIEMENS",
      "ManufacturerModelName": "Prisma",
      "Modality": "MR",
      "NumberOfAverages": 1.0,
      "NumberOfPhaseEncodingSteps": 79,
      "PercentPhaseFieldOfView": 100.0,
      "PercentSampling": 100.0,
      "PerformedProcedureStepStartTime": "101120.210000",
      "PhotometricInterpretation": "MONOCHROME2",
      "PixelBandwidth": 2315.0,
      "PixelRepresentation": 0,
      "PixelSpacing": [3.0, 3.0],
      "ProtocolName": "func-bold_task-rest_acq-p2-s4-3.5mm",
      "RepetitionTime": 2000.0,
      "Rows": 480,
      "SAR": 0.01781942241573,
      "SamplesPerPixel": 1,
      "ScanOptions": "FS",
      "ScanningSequence": "EP",
      "SequenceName": "*epfid2d1_80",
      "SequenceVariant": "SK",
      "SeriesDescription": "func-bold_task-rest_acq-p2-s4-3.5mm",
      "SeriesNumber": 7,
      "SeriesTime": "102350.830000",
      "SliceLocation": -63.543603552988,
      "SliceThickness": 3.5,
      "SmallestImagePixelValue": 0,
      "SoftwareVersions": "syngo MR E11",
      "SpacingBetweenSlices": 3.9900000160584,
      "SpecificCharacterSet": "ISO_IR 100",
      "StudyID": "104",
      "StudyTime": "101120.122000",
      "TransmitCoilName": "Body",
      "VariableFlipAngleFlag": "N",
      "WindowCenter": 945.0,
      "WindowCenterWidthExplanation": "Algo1",
      "dBdt": 0.0},
    "slices": {}
  },
  "time": {
    "samples": {
      "AcquisitionNumber": [1, 2, 3, 4, 5, 6, 7, 8, 9, 10, 11, 12, 13, 14, 15, 16, 17, 18, 19, 20, 21, 22, 23, 24, 25, 26, 27, 28, 29, 30, 31, 32, 33, 34, 35, 36, 37, 38, 39, 40, 41, 42, 43, 44, 45, 46, 47, 48, 49, 50, 51, 52, 53, 54, 55, 56, 57, 58, 59, 60, 61, 62, 63, 64, 65, 66, 67, 68, 69, 70, 71, 72, 73, 74, 75, 76, 77, 78, 79, 80, 81, 82, 83, 84, 85, 86, 87, 88, 89, 90, 91, 92, 93, 94, 95, 96, 97, 98, 99, 100, 101, 102, 103, 104, 105, 106, 107, 108, 109, 110, 111, 112, 113, 114, 115, 116, 117, 118, 119, 120, 121, 122, 123, 124, 125, 126, 127, 128, 129, 130, 131, 132, 133, 134, 135, 136, 137, 138, 139, 140, 141, 142, 143, 144, 145, 146, 147, 148, 149, 150, 151, 152, 153, 154, 155, 156, 157, 158, 159, 160, 161, 162, 163, 164, 165, 166, 167, 168, 169, 170, 171, 172, 173, 174, 175, 176, 177, 178, 179, 180, 181, 182, 183, 184, 185, 186, 187, 188, 189, 190, 191, 192, 193, 194, 195, 196, 197, 198, 199, 200],
      "AcquisitionTime": ["102311.142500", "102313.142500", "102315.142500", "102317.142500", "102319.142500", "102321.142500", "102323.142500", "102325.142500", "102327.142500", "102329.142500", "102331.142500", "102333.142500", "102335.142500", "102337.142500", "102339.142500", "102341.142500", "102343.142500", "102345.142500", "102347.142500", "102349.142500", "102351.142500", "102353.142500", "102355.142500", "102357.142500", "102359.142500", "102401.142500", "102403.142500", "102405.142500", "102407.142500", "102409.142500", "102411.142500", "102413.142500", "102415.142500", "102417.142500", "102419.142500", "102421.142500", "102423.142500", "102425.142500", "102427.142500", "102429.142500", "102431.142500", "102433.142500", "102435.142500", "102437.142500", "102439.142500", "102441.142500", "102443.142500", "102445.142500", "102447.142500", "102449.142500", "102451.142500", "102453.142500", "102455.142500", "102457.142500", "102459.142500", "102501.142500", "102503.142500", "102505.142500", "102507.142500", "102509.142500", "102511.142500", "102513.142500", "102515.142500", "102517.142500", "102519.142500", "102521.142500", "102523.142500", "102525.142500", "102527.142500", "102529.142500", "102531.142500", "102533.142500", "102535.142500", "102537.142500", "102539.142500", "102541.142500", "102543.142500", "102545.142500", "102547.142500", "102549.142500", "102551.142500", "102553.142500", "102555.142500", "102557.142500", "102559.142500", "102601.142500", "102603.142500", "102605.142500", "102607.142500", "102609.142500", "102611.142500", "102613.142500", "102615.142500", "102617.142500", "102619.142500", "102621.142500", "102623.142500", "102625.142500", "102627.142500", "102629.142500", "102631.142500", "102633.142500", "102635.142500", "102637.142500", "102639.142500", "102641.142500", "102643.142500", "102645.142500", "102647.142500", "102649.142500", "102651.142500", "102653.142500", "102655.142500", "102657.142500", "102659.142500", "102701.142500", "102703.142500", "102705.142500", "102707.142500", "102709.142500", "102711.142500", "102713.142500", "102715.142500", "102717.142500", "102719.142500", "102721.142500", "102723.142500", "102725.142500", "102727.142500", "102729.142500", "102731.142500", "102733.142500", "102735.142500", "102737.142500", "102739.142500", "102741.142500", "102743.142500", "102745.142500", "102747.142500", "102749.142500", "102751.142500", "102753.142500", "102755.142500", "102757.142500", "102759.142500", "102801.142500", "102803.142500", "102805.142500", "102807.142500", "102809.142500", "102811.142500", "102813.142500", "102815.142500", "102817.142500", "102819.142500", "102821.142500", "102823.142500", "102825.142500", "102827.142500", "102829.142500", "102831.142500", "102833.142500", "102835.142500", "102837.142500", "102839.142500", "102841.142500", "102843.142500", "102845.142500", "102847.142500", "102849.142500", "102851.142500", "102853.142500", "102855.142500", "102857.142500", "102859.142500", "102901.142500", "102903.142500", "102905.142500", "102907.142500", "102909.142500", "102911.142500", "102913.142500", "102915.142500", "102917.142500", "102919.142500", "102921.142500", "102923.142500", "102925.142500", "102927.142500", "102929.142500", "102931.142500", "102933.142500", "102935.142500", "102937.142500", "102939.142500", "102941.142500", "102943.142500", "102945.142500", "102947.142500", "102949.142500"],
      "ContentTime": ["102350.833000", "102350.837000", "102350.839000", "102350.842000", "102350.844000", "102350.847000", "102350.849000", "102350.852000", "102350.854000", "102350.857000", "102350.859000", "102350.862000", "102350.864000", "102350.867000", "102350.870000", "102350.876000", "102350.879000", "102350.881000", "102350.884000", "102350.886000", "102430.828000", "102430.832000", "102430.834000", "102430.837000", "102430.839000", "102430.842000", "102430.844000", "102430.847000", "102430.849000", "102430.852000", "102430.854000", "102430.864000", "102430.867000", "102430.869000", "102430.872000", "102430.874000", "102430.877000", "102430.879000", "102430.882000", "102430.884000", "102510.829000", "102510.831000", "102510.834000", "102510.837000", "102510.839000", "102510.842000", "102510.844000", "102510.852000", "102510.854000", "102510.857000", "102510.859000", "102510.862000", "102510.865000", "102510.867000", "102510.870000", "102510.872000", "102510.875000", "102510.885000", "102510.888000", "102510.890000", "102550.828000", "102550.831000", "102550.834000", "102550.837000", "102550.839000", "102550.842000", "102550.844000", "102550.847000", "102550.849000", "102550.852000", "102550.855000", "102550.857000", "102550.860000", "102550.862000", "102550.865000", "102550.867000", "102550.870000", "102550.872000", "102550.875000", "102550.877000", "102630.828000", "102630.831000", "102630.834000", "102630.836000", "102630.839000", "102630.842000", "102630.844000", "102630.847000", "102630.849000", "102630.852000", "102630.854000", "102630.857000", "102630.859000", "102630.862000", "102630.865000", "102630.867000", "102630.870000", "102630.872000", "102630.875000", "102630.877000", "102710.829000", "102710.832000", "102710.834000", "102710.837000", "102710.839000", "102710.842000", "102710.845000", "102710.847000", "102710.850000", "102710.852000", "102710.855000", "102710.857000", "102710.860000", "102710.862000", "102710.865000", "102710.868000", "102710.870000", "102710.873000", "102710.875000", "102710.878000", "102750.827000", "102750.830000", "102750.833000", "102750.835000", "102750.838000", "102750.841000", "102750.843000", "102750.861000", "102750.864000", "102750.867000", "102750.869000", "102750.872000", "102750.874000", "102750.877000", "102750.879000", "102750.882000", "102750.884000", "102750.887000", "102750.889000", "102750.892000", "102830.828000", "102830.831000", "102830.834000", "102830.837000", "102830.839000", "102830.842000", "102830.844000", "102830.847000", "102830.849000", "102830.852000", "102830.855000", "102830.857000", "102830.860000", "102830.862000", "102830.865000", "102830.867000", "102830.870000", "102830.872000", "102830.875000", "102830.877000", "102910.829000", "102910.831000", "102910.834000", "102910.837000", "102910.839000", "102910.842000", "102910.844000", "102910.847000", "102910.849000", "102910.852000", "102910.855000", "102910.857000", "102910.860000", "102910.862000", "102910.865000", "102910.867000", "102910.870000", "102910.873000", "102910.875000", "102910.878000", "102950.625000", "102950.628000", "102950.630000", "102950.633000", "102950.636000", "102950.638000", "102950.641000", "102950.644000", "102950.646000", "102950.649000", "102950.651000", "102950.659000", "102950.666000", "102950.677000", "102950.680000", "102950.683000", "102950.686000", "102950.690000", "102950.694000", "102950.697000"],
      "InstanceCreationTime": ["102350.833000", "102350.837000", "102350.839000", "102350.842000", "102350.844000", "102350.847000", "102350.849000", "102350.852000", "102350.854000", "102350.857000", "102350.859000", "102350.862000", "102350.864000", "102350.867000", "102350.870000", "102350.876000", "102350.879000", "102350.881000", "102350.884000", "102350.886000", "102430.828000", "102430.832000", "102430.834000", "102430.837000", "102430.839000", "102430.842000", "102430.844000", "102430.847000", "102430.849000", "102430.852000", "102430.854000", "102430.864000", "102430.867000", "102430.869000", "102430.872000", "102430.874000", "102430.877000", "102430.879000", "102430.882000", "102430.884000", "102510.829000", "102510.831000", "102510.834000", "102510.837000", "102510.839000", "102510.842000", "102510.844000", "102510.852000", "102510.854000", "102510.857000", "102510.859000", "102510.862000", "102510.865000", "102510.867000", "102510.870000", "102510.872000", "102510.875000", "102510.885000", "102510.888000", "102510.890000", "102550.828000", "102550.831000", "102550.834000", "102550.837000", "102550.839000", "102550.842000", "102550.844000", "102550.847000", "102550.849000", "102550.852000", "102550.855000", "102550.857000", "102550.860000", "102550.862000", "102550.865000", "102550.867000", "102550.870000", "102550.872000", "102550.875000", "102550.877000", "102630.828000", "102630.831000", "102630.834000", "102630.836000", "102630.839000", "102630.842000", "102630.844000", "102630.847000", "102630.849000", "102630.852000", "102630.854000", "102630.857000", "102630.859000", "102630.862000", "102630.865000", "102630.867000", "102630.870000", "102630.872000", "102630.875000", "102630.877000", "102710.829000", "102710.832000", "102710.834000", "102710.837000", "102710.839000", "102710.842000", "102710.845000", "102710.847000", "102710.850000", "102710.852000", "102710.855000", "102710.857000", "102710.860000", "102710.862000", "102710.865000", "102710.868000", "102710.870000", "102710.873000", "102710.875000", "102710.878000", "102750.827000", "102750.830000", "102750.833000", "102750.835000", "102750.838000", "102750.841000", "102750.843000", "102750.861000", "102750.864000", "102750.867000", "102750.869000", "102750.872000", "102750.874000", "102750.877000", "102750.879000", "102750.882000", "102750.884000", "102750.887000", "102750.889000", "102750.892000", "102830.828000", "102830.831000", "102830.834000", "102830.837000", "102830.839000", "102830.842000", "102830.844000", "102830.847000", "102830.849000", "102830.852000", "102830.855000", "102830.857000", "102830.860000", "102830.862000", "102830.865000", "102830.867000", "102830.870000", "102830.872000", "102830.875000", "102830.877000", "102910.829000", "102910.831000", "102910.834000", "102910.837000", "102910.839000", "102910.842000", "102910.844000", "102910.847000", "102910.849000", "102910.852000", "102910.855000", "102910.857000", "102910.860000", "102910.862000", "102910.865000", "102910.867000", "102910.870000", "102910.873000", "102910.875000", "102910.878000", "102950.625000", "102950.628000", "102950.630000", "102950.633000", "102950.636000", "102950.638000", "102950.641000", "102950.644000", "102950.646000", "102950.649000", "102950.651000", "102950.659000", "102950.666000", "102950.677000", "102950.680000", "102950.683000", "102950.686000", "102950.690000", "102950.694000", "102950.697000"],
      "InstanceNumber": [1, 2, 3, 4, 5, 6, 7, 8, 9, 10, 11, 12, 13, 14, 15, 16, 17, 18, 19, 20, 21, 22, 23, 24, 25, 26, 27, 28, 29, 30, 31, 32, 33, 34, 35, 36, 37, 38, 39, 40, 41, 42, 43, 44, 45, 46, 47, 48, 49, 50, 51, 52, 53, 54, 55, 56, 57, 58, 59, 60, 61, 62, 63, 64, 65, 66, 67, 68, 69, 70, 71, 72, 73, 74, 75, 76, 77, 78, 79, 80, 81, 82, 83, 84, 85, 86, 87, 88, 89, 90, 91, 92, 93, 94, 95, 96, 97, 98, 99, 100, 101, 102, 103, 104, 105, 106, 107, 108, 109, 110, 111, 112, 113, 114, 115, 116, 117, 118, 119, 120, 121, 122, 123, 124, 125, 126, 127, 128, 129, 130, 131, 132, 133, 134, 135, 136, 137, 138, 139, 140, 141, 142, 143, 144, 145, 146, 147, 148, 149, 150, 151, 152, 153, 154, 155, 156, 157, 158, 159, 160, 161, 162, 163, 164, 165, 166, 167, 168, 169, 170, 171, 172, 173, 174, 175, 176, 177, 178, 179, 180, 181, 182, 183, 184, 185, 186, 187, 188, 189, 190, 191, 192, 193, 194, 195, 196, 197, 198, 199, 200],
      "LargestImagePixelValue": [2203, 2203, 2204, 2201, 2202, 2202, 2199, 2205, 2203, 2207, 2210, 2206, 2205, 2203, 2208, 2207, 2203, 2206, 2202, 2208, 2211, 2201, 2205, 2205, 2209, 2212, 2209, 2207, 2204, 2207, 2209, 2203, 2205, 2210, 2205, 2207, 2204, 2208, 2207, 2204, 2206, 2208, 2209, 2212, 2206, 2200, 2204, 2209, 2212, 2207, 2211, 2209, 2207, 2212, 2208, 2209, 2207, 2210, 2210, 2207, 2208, 2211, 2207, 2210, 2207, 2209, 2208, 2205, 2208, 2213, 2211, 2209, 2211, 2211, 2210, 2210, 2210, 2208, 2214, 2214, 2211, 2209, 2206, 2212, 2208, 2215, 2209, 2211, 2207, 2213, 2210, 2219, 2209, 2213, 2209, 2216, 2213, 2208, 2212, 2215, 2207, 2208, 2207, 2210, 2206, 2208, 2210, 2205, 2210, 2208, 2212, 2208, 2212, 2211, 2212, 2210, 2211, 2210, 2213, 2209, 2217, 2212, 2209, 2211, 2208, 2212, 2212, 2212, 2213, 2211, 2209, 2214, 2211, 2209, 2214, 2210, 2208, 2212, 2207, 2210, 2208, 2211, 2217, 2210, 2213, 2207, 2210, 2208, 2212, 2211, 2211, 2212, 2210, 2214, 2210, 2208, 2212, 2211, 2209, 2211, 2213, 2214, 2210, 2213, 2212, 2205, 2212, 2216, 2211, 2211, 2214, 2217, 2212, 2212, 2213, 2209, 2208, 2216, 2209, 2210, 2212, 2213, 2214, 2213, 2216, 2212, 2210, 2215, 2215, 2212, 2212, 2209, 2214, 2213, 2219, 2210, 2210, 2211, 2214, 2212],
      "WindowWidth": [2188.0, 2188.0, 2188.0, 2188.0, 2188.0, 2188.0, 2188.0, 2188.0, 2188.0, 2188.0, 2188.0, 2188.0, 2188.0, 2189.0, 2188.0, 2189.0, 2189.0, 2188.0, 2188.0, 2188.0, 2188.0, 2188.0, 2188.0, 2188.0, 2188.0, 2188.0, 2188.0, 2188.0, 2188.0, 2188.0, 2188.0, 2188.0, 2188.0, 2188.0, 2188.0, 2188.0, 2188.0, 2188.0, 2188.0, 2189.0, 2188.0, 2188.0, 2188.0, 2188.0, 2188.0, 2188.0, 2188.0, 2188.0, 2188.0, 2189.0, 2188.0, 2188.0, 2189.0, 2188.0, 2189.0, 2189.0, 2189.0, 2189.0, 2189.0, 2188.0, 2189.0, 2188.0, 2188.0, 2189.0, 2188.0, 2189.0, 2189.0, 2189.0, 2188.0, 2188.0, 2189.0, 2188.0, 2189.0, 2189.0, 2188.0, 2189.0, 2189.0, 2188.0, 2189.0, 2189.0, 2189.0, 2188.0, 2189.0, 2189.0, 2188.0, 2188.0, 2189.0, 2188.0, 2188.0, 2189.0, 2189.0, 2189.0, 2189.0, 2189.0, 2188.0, 2189.0, 2189.0, 2189.0, 2189.0, 2189.0, 2189.0, 2189.0, 2189.0, 2188.0, 2189.0, 2189.0, 2189.0, 2189.0, 2189.0, 2188.0, 2189.0, 2189.0, 2188.0, 2189.0, 2189.0, 2188.0, 2189.0, 2189.0, 2188.0, 2188.0, 2189.0, 2189.0, 2188.0, 2189.0, 2189.0, 2188.0, 2189.0, 2189.0, 2189.0, 2189.0, 2188.0, 2189.0, 2188.0, 2188.0, 2189.0, 2188.0, 2189.0, 2189.0, 2189.0, 2189.0, 2189.0, 2189.0, 2189.0, 2188.0, 2189.0, 2188.0, 2189.0, 2188.0, 2188.0, 2189.0, 2188.0, 2188.0, 2188.0, 2189.0, 2189.0, 2188.0, 2188.0, 2188.0, 2189.0, 2188.0, 2189.0, 2188.0, 2188.0, 2188.0, 2188.0, 2188.0, 2188.0, 2189.0, 2189.0, 2188.0, 2188.0, 2188.0, 2188.0, 2188.0, 2189.0, 2189.0, 2189.0, 2189.0, 2188.0, 2189.0, 2189.0, 2189.0, 2188.0, 2189.0, 2189.0, 2189.0, 2189.0, 2189.0, 2189.0, 2189.0, 2189.0, 2189.0, 2189.0, 2188.0, 2189.0, 2189.0, 2188.0, 2189.0, 2188.0, 2189.0]
    },
    "slices": {}
  }
}