{
  "AcquisitionMatrixPE": 80,
  "AcquisitionNumber": 1,
  "AcquisitionTime": "10:16:17.205000",
  "BandwidthPerPixelPhaseEncode": 48.077,
  "BaseResolution": 80,
  "BodyPartExamined": "BRAIN",
  "ConsistencyInfo": "N4_VE11C_LATEST_20160120",
  "ConversionSoftware": "dcm2niix",
  "ConversionSoftwareVersion": "v1.0.20170923 (OpenJPEG build) GCC6.3.0",
  "DerivedVendorReportedEchoSpacing": 0.000519999,
  "DeviceSerialNumber": "66112",
  "DwellTime": 2.7e-06,
  "EchoTime": 0.035,
  "EchoTrainLength": 39,
  "EffectiveEchoSpacing": 0.00026,
  "FlipAngle": 90,
  "ImageType": [
    "ORIGINAL",
    "PRIMARY",
    "M",
    "ND",
    "NORM",
    "MOSAIC"
],
  "InstitutionAddress": "Maynard_3_Hanover_NH_US_03755",
  "InstitutionName": "Dartmouth_College_-_PBS",
  "MagneticFieldStrength": 3,
  "Manufacturer": "Siemens",
  "ManufacturersModelName": "Prisma",
  "Modality": "MR",
  "ParallelReductionFactorInPlane": 2,
  "PartialFourier": 1,
  "PercentPhaseFOV": 100,
  "PhaseEncodingDirection": "j-",
  "PhaseEncodingSteps": 79,
  "PhaseResolution": 1,
  "ProcedureStepDescription": "dbic_QA",
  "ProtocolName": "func-bold_task-rest_acq-p2",
  "PulseSequenceDetails": "%SiemensSeq%_ep2d_bold",
  "ReceiveCoilActiveElements": "HEA;HEP",
  "ReceiveCoilName": "Head_32",
  "ReconMatrixPE": 80,
  "RepetitionTime": 2,
  "ScanOptions": "FS",
  "ScanningSequence": "EP",
  "SequenceName": "_epfid2d1_80",
  "SequenceVariant": "SK",
  "SeriesDescription": "func-bold_task-rest_acq-p2",
  "SliceTiming": [0.99, 0, 1.055, 0.065, 1.12, 0.13, 1.1875, 0.1975, 1.2525, 0.2625, 1.32, 0.33, 1.385, 0.395, 1.45, 0.46, 1.5175, 0.5275, 1.5825, 0.5925, 1.6475, 0.66, 1.715, 0.725, 1.78, 0.79, 1.8475, 0.8575, 1.9125, 0.9225],
  "SoftwareVersions": "syngo_MR_E11",
  "StationName": "AWP66112",
  "TaskName": "rest",
  "TotalReadoutTime": 0.02054,
  "dcmmeta_affine": [
    [-2.955294370651245, -0.49985063076019287, -0.1702413111925125, 144.46096801757812],
    [-0.5151631236076355, 2.8165361881256104, 1.1908743381500244, -99.7955551147461],
    [0.02901465632021427, -0.9040316343307495, 3.8043313026428223, -24.756437301635742],
    [0.0, 0.0, 0.0, 1.0]
],
  "dcmmeta_reorient_transform": [
    [0.0, -1.0, 0.0, 79.0],
    [1.0, 0.0, 0.0, 0.0],
    [0.0, 0.0, 1.0, 0.0],
    [0.0, 0.0, 0.0, 1.0]
],
  "dcmmeta_shape": [80, 80, 30, 200],
  "dcmmeta_slice_dim": 2,
  "dcmmeta_version": 0.6,
  "global": {
    "const": {
      "AccessionNumber": "qa",
      "AcquisitionMatrix": [80, 0, 0, 80],
      "AngioFlag": "N",
      "BitsAllocated": 16,
      "BitsStored": 12,
      "BodyPartExamined": "BRAIN",
      "Columns": 480,
      "EchoNumbers": 1,
      "EchoTime": 35.0,
      "EchoTrainLength": 39,
      "FlipAngle": 90.0,
      "HighBit": 11,
      "ImageOrientationPatient": [0.98509813935798, 0.17172104387273, 0.00967155234258, -0.1666168765405, 0.93884539912988, 0.30134387829279],
      "ImagePositionPatient": [-596.06152412496, -789.05067000131, -282.78419462167],
      "ImageType": [
        "ORIGINAL",
        "PRIMARY",
        "M",
        "ND",
        "NORM",
        "MOSAIC"
],
      "ImagedNucleus": "1H",
      "ImagingFrequency": 123.252567,
      "InPlanePhaseEncodingDirection": "COL",
      "MRAcquisitionType": "2D",
      "MagneticFieldStrength": 3.0,
      "Manufacturer": "SIEMENS",
      "ManufacturerModelName": "Prisma",
      "Modality": "MR",
      "NumberOfAverages": 1.0,
      "NumberOfPhaseEncodingSteps": 79,
      "PercentPhaseFieldOfView": 100.0,
      "PercentSampling": 100.0,
      "PerformedProcedureStepStartTime": "101120.210000",
      "PhotometricInterpretation": "MONOCHROME2",
      "PixelBandwidth": 2315.0,
      "PixelRepresentation": 0,
      "PixelSpacing": [3.0, 3.0],
      "PositionReferenceIndicator": "",
      "ProtocolName": "func-bold_task-rest_acq-p2",
      "RepetitionTime": 2000.0,
      "Rows": 480,
      "SAR": 0.04738840894798,
      "SamplesPerPixel": 1,
      "ScanOptions": "FS",
      "ScanningSequence": "EP",
      "SequenceName": "*epfid2d1_80",
      "SequenceVariant": "SK",
      "SeriesDescription": "func-bold_task-rest_acq-p2",
      "SeriesNumber": 5,
      "SeriesTime": "101710.771000",
      "SliceLocation": -59.553602201457,
      "SliceThickness": 3.5,
      "SmallestImagePixelValue": 0,
      "SoftwareVersions": "syngo MR E11",
      "SpacingBetweenSlices": 3.990000049377,
      "SpecificCharacterSet": "ISO_IR 100",
      "StudyID": "104",
      "StudyTime": "101120.122000",
      "TransmitCoilName": "Body",
      "VariableFlipAngleFlag": "N",
      "WindowCenterWidthExplanation": "Algo1",
      "dBdt": 0.0},
    "slices": {}
  },
  "time": {
    "samples": {
      "AcquisitionNumber": [1, 2, 3, 4, 5, 6, 7, 8, 9, 10, 11, 12, 13, 14, 15, 16, 17, 18, 19, 20, 21, 22, 23, 24, 25, 26, 27, 28, 29, 30, 31, 32, 33, 34, 35, 36, 37, 38, 39, 40, 41, 42, 43, 44, 45, 46, 47, 48, 49, 50, 51, 52, 53, 54, 55, 56, 57, 58, 59, 60, 61, 62, 63, 64, 65, 66, 67, 68, 69, 70, 71, 72, 73, 74, 75, 76, 77, 78, 79, 80, 81, 82, 83, 84, 85, 86, 87, 88, 89, 90, 91, 92, 93, 94, 95, 96, 97, 98, 99, 100, 101, 102, 103, 104, 105, 106, 107, 108, 109, 110, 111, 112, 113, 114, 115, 116, 117, 118, 119, 120, 121, 122, 123, 124, 125, 126, 127, 128, 129, 130, 131, 132, 133, 134, 135, 136, 137, 138, 139, 140, 141, 142, 143, 144, 145, 146, 147, 148, 149, 150, 151, 152, 153, 154, 155, 156, 157, 158, 159, 160, 161, 162, 163, 164, 165, 166, 167, 168, 169, 170, 171, 172, 173, 174, 175, 176, 177, 178, 179, 180, 181, 182, 183, 184, 185, 186, 187, 188, 189, 190, 191, 192, 193, 194, 195, 196, 197, 198, 199, 200],
      "AcquisitionTime": ["101617.205000", "101619.205000", "101621.205000", "101623.205000", "101625.205000", "101627.205000", "101629.205000", "101631.205000", "101633.205000", "101635.205000", "101637.205000", "101639.205000", "101641.205000", "101643.205000", "101645.205000", "101647.205000", "101649.205000", "101651.205000", "101653.205000", "101655.205000", "101657.205000", "101659.205000", "101701.205000", "101703.205000", "101705.205000", "101707.205000", "101709.205000", "101711.205000", "101713.205000", "101715.205000", "101717.205000", "101719.205000", "101721.205000", "101723.205000", "101725.205000", "101727.205000", "101729.205000", "101731.205000", "101733.205000", "101735.205000", "101737.205000", "101739.205000", "101741.205000", "101743.205000", "101745.205000", "101747.205000", "101749.205000", "101751.205000", "101753.205000", "101755.205000", "101757.205000", "101759.205000", "101801.205000", "101803.205000", "101805.205000", "101807.205000", "101809.205000", "101811.205000", "101813.205000", "101815.205000", "101817.205000", "101819.205000", "101821.205000", "101823.205000", "101825.205000", "101827.205000", "101829.205000", "101831.205000", "101833.205000", "101835.205000", "101837.205000", "101839.205000", "101841.205000", "101843.205000", "101845.205000", "101847.205000", "101849.205000", "101851.205000", "101853.205000", "101855.205000", "101857.205000", "101859.205000", "101901.205000", "101903.205000", "101905.205000", "101907.205000", "101909.205000", "101911.205000", "101913.205000", "101915.205000", "101917.205000", "101919.205000", "101921.205000", "101923.205000", "101925.205000", "101927.205000", "101929.205000", "101931.205000", "101933.205000", "101935.205000", "101937.205000", "101939.205000", "101941.205000", "101943.205000", "101945.205000", "101947.205000", "101949.205000", "101951.205000", "101953.205000", "101955.205000", "101957.205000", "101959.205000", "102001.205000", "102003.205000", "102005.205000", "102007.205000", "102009.205000", "102011.205000", "102013.205000", "102015.205000", "102017.205000", "102019.205000", "102021.205000", "102023.205000", "102025.205000", "102027.205000", "102029.205000", "102031.205000", "102033.205000", "102035.205000", "102037.205000", "102039.205000", "102041.205000", "102043.205000", "102045.205000", "102047.205000", "102049.205000", "102051.205000", "102053.205000", "102055.205000", "102057.205000", "102059.205000", "102101.205000", "102103.205000", "102105.205000", "102107.205000", "102109.205000", "102111.205000", "102113.205000", "102115.205000", "102117.205000", "102119.205000", "102121.205000", "102123.205000", "102125.205000", "102127.205000", "102129.205000", "102131.205000", "102133.205000", "102135.205000", "102137.205000", "102139.205000", "102141.205000", "102143.205000", "102145.205000", "102147.205000", "102149.205000", "102151.205000", "102153.205000", "102155.205000", "102157.205000", "102159.205000", "102201.205000", "102203.205000", "102205.205000", "102207.205000", "102209.205000", "102211.205000", "102213.205000", "102215.205000", "102217.205000", "102219.205000", "102221.205000", "102223.205000", "102225.205000", "102227.205000", "102229.205000", "102231.205000", "102233.205000", "102235.205000", "102237.205000", "102239.205000", "102241.205000", "102243.205000", "102245.205000", "102247.205000", "102249.205000", "102251.205000", "102253.205000", "102255.205000"],
      "ContentTime": ["101710.774000", "101710.778000", "101710.780000", "101710.783000", "101710.785000", "101710.788000", "101710.790000", "101710.793000", "101710.795000", "101710.798000", "101710.801000", "101710.803000", "101710.806000", "101710.808000", "101710.811000", "101710.813000", "101710.816000", "101710.818000", "101710.821000", "101710.823000", "101710.828000", "101710.831000", "101710.834000", "101710.836000", "101710.839000", "101710.841000", "101710.844000", "101750.760000", "101750.763000", "101750.766000", "101750.768000", "101750.771000", "101750.773000", "101750.776000", "101750.779000", "101750.781000", "101750.784000", "101750.787000", "101750.789000", "101750.792000", "101750.800000", "101750.803000", "101750.806000", "101750.808000", "101750.811000", "101750.813000", "101750.816000", "101830.759000", "101830.762000", "101830.765000", "101830.767000", "101830.770000", "101830.772000", "101830.775000", "101830.777000", "101830.780000", "101830.783000", "101830.785000", "101830.788000", "101830.795000", "101830.797000", "101830.800000", "101830.803000", "101830.805000", "101830.808000", "101830.810000", "101830.813000", "101910.760000", "101910.763000", "101910.766000", "101910.768000", "101910.771000", "101910.773000", "101910.776000", "101910.779000", "101910.781000", "101910.784000", "101910.786000", "101910.789000", "101910.792000", "101910.794000", "101910.797000", "101910.799000", "101910.802000", "101910.804000", "101910.807000", "101910.809000", "101950.760000", "101950.765000", "101950.768000", "101950.770000", "101950.773000", "101950.776000", "101950.778000", "101950.781000", "101950.784000", "101950.786000", "101950.789000", "101950.791000", "101950.794000", "101950.797000", "101950.799000", "101950.807000", "101950.809000", "101950.812000", "101950.815000", "101950.817000", "102030.760000", "102030.763000", "102030.766000", "102030.768000", "102030.771000", "102030.774000", "102030.776000", "102030.779000", "102030.781000", "102030.784000", "102030.786000", "102030.789000", "102030.791000", "102030.794000", "102030.797000", "102030.799000", "102030.802000", "102030.804000", "102030.807000", "102030.809000", "102110.760000", "102110.763000", "102110.766000", "102110.768000", "102110.771000", "102110.774000", "102110.776000", "102110.779000", "102110.781000", "102110.792000", "102110.795000", "102110.798000", "102110.800000", "102110.803000", "102110.805000", "102110.808000", "102110.811000", "102110.813000", "102110.816000", "102110.818000", "102150.760000", "102150.763000", "102150.766000", "102150.768000", "102150.780000", "102150.783000", "102150.786000", "102150.788000", "102150.791000", "102150.793000", "102150.796000", "102150.798000", "102150.801000", "102150.804000", "102150.806000", "102150.809000", "102150.812000", "102150.814000", "102150.817000", "102150.819000", "102230.761000", "102230.763000", "102230.766000", "102230.768000", "102230.771000", "102230.774000", "102230.776000", "102230.779000", "102230.781000", "102230.784000", "102230.787000", "102230.789000", "102230.792000", "102230.794000", "102230.797000", "102230.799000", "102230.802000", "102230.804000", "102230.807000", "102230.809000", "102256.641000", "102256.644000", "102256.647000", "102256.650000", "102256.652000", "102256.655000", "102256.657000", "102256.660000", "102256.663000", "102256.665000", "102256.668000", "102256.671000", "102256.678000"],
      "InstanceCreationTime": ["101710.774000", "101710.778000", "101710.780000", "101710.783000", "101710.785000", "101710.788000", "101710.790000", "101710.793000", "101710.795000", "101710.798000", "101710.801000", "101710.803000", "101710.806000", "101710.808000", "101710.811000", "101710.813000", "101710.816000", "101710.818000", "101710.821000", "101710.823000", "101710.828000", "101710.831000", "101710.834000", "101710.836000", "101710.839000", "101710.841000", "101710.844000", "101750.760000", "101750.763000", "101750.766000", "101750.768000", "101750.771000", "101750.773000", "101750.776000", "101750.779000", "101750.781000", "101750.784000", "101750.787000", "101750.789000", "101750.792000", "101750.800000", "101750.803000", "101750.806000", "101750.808000", "101750.811000", "101750.813000", "101750.816000", "101830.759000", "101830.762000", "101830.765000", "101830.767000", "101830.770000", "101830.772000", "101830.775000", "101830.777000", "101830.780000", "101830.783000", "101830.785000", "101830.788000", "101830.795000", "101830.797000", "101830.800000", "101830.803000", "101830.805000", "101830.808000", "101830.810000", "101830.813000", "101910.760000", "101910.763000", "101910.766000", "101910.768000", "101910.771000", "101910.773000", "101910.776000", "101910.779000", "101910.781000", "101910.784000", "101910.786000", "101910.789000", "101910.792000", "101910.794000", "101910.797000", "101910.799000", "101910.802000", "101910.804000", "101910.807000", "101910.809000", "101950.760000", "101950.765000", "101950.768000", "101950.770000", "101950.773000", "101950.776000", "101950.778000", "101950.781000", "101950.784000", "101950.786000", "101950.789000", "101950.791000", "101950.794000", "101950.797000", "101950.799000", "101950.807000", "101950.809000", "101950.812000", "101950.815000", "101950.817000", "102030.760000", "102030.763000", "102030.766000", "102030.768000", "102030.771000", "102030.774000", "102030.776000", "102030.779000", "102030.781000", "102030.784000", "102030.786000", "102030.789000", "102030.791000", "102030.794000", "102030.797000", "102030.799000", "102030.802000", "102030.804000", "102030.807000", "102030.809000", "102110.760000", "102110.763000", "102110.766000", "102110.768000", "102110.771000", "102110.774000", "102110.776000", "102110.779000", "102110.781000", "102110.792000", "102110.795000", "102110.798000", "102110.800000", "102110.803000", "102110.805000", "102110.808000", "102110.811000", "102110.813000", "102110.816000", "102110.818000", "102150.760000", "102150.763000", "102150.766000", "102150.768000", "102150.780000", "102150.783000", "102150.786000", "102150.788000", "102150.791000", "102150.793000", "102150.796000", "102150.798000", "102150.801000", "102150.804000", "102150.806000", "102150.809000", "102150.812000", "102150.814000", "102150.817000", "102150.819000", "102230.761000", "102230.763000", "102230.766000", "102230.768000", "102230.771000", "102230.774000", "102230.776000", "102230.779000", "102230.781000", "102230.784000", "102230.787000", "102230.789000", "102230.792000", "102230.794000", "102230.797000", "102230.799000", "102230.802000", "102230.804000", "102230.807000", "102230.809000", "102256.641000", "102256.644000", "102256.647000", "102256.650000", "102256.652000", "102256.655000", "102256.657000", "102256.660000", "102256.663000", "102256.665000", "102256.668000", "102256.671000", "102256.678000"],
      "InstanceNumber": [1, 2, 3, 4, 5, 6, 7, 8, 9, 10, 11, 12, 13, 14, 15, 16, 17, 18, 19, 20, 21, 22, 23, 24, 25, 26, 27, 28, 29, 30, 31, 32, 33, 34, 35, 36, 37, 38, 39, 40, 41, 42, 43, 44, 45, 46, 47, 48, 49, 50, 51, 52, 53, 54, 55, 56, 57, 58, 59, 60, 61, 62, 63, 64, 65, 66, 67, 68, 69, 70, 71, 72, 73, 74, 75, 76, 77, 78, 79, 80, 81, 82, 83, 84, 85, 86, 87, 88, 89, 90, 91, 92, 93, 94, 95, 96, 97, 98, 99, 100, 101, 102, 103, 104, 105, 106, 107, 108, 109, 110, 111, 112, 113, 114, 115, 116, 117, 118, 119, 120, 121, 122, 123, 124, 125, 126, 127, 128, 129, 130, 131, 132, 133, 134, 135, 136, 137, 138, 139, 140, 141, 142, 143, 144, 145, 146, 147, 148, 149, 150, 151, 152, 153, 154, 155, 156, 157, 158, 159, 160, 161, 162, 163, 164, 165, 166, 167, 168, 169, 170, 171, 172, 173, 174, 175, 176, 177, 178, 179, 180, 181, 182, 183, 184, 185, 186, 187, 188, 189, 190, 191, 192, 193, 194, 195, 196, 197, 198, 199, 200],
      "LargestImagePixelValue": [2207, 2218, 2215, 2206, 2213, 2217, 2214, 2211, 2219, 2214, 2219, 2213, 2206, 2221, 2215, 2214, 2211, 2218, 2204, 2219, 2213, 2215, 2217, 2209, 2218, 2217, 2218, 2213, 2212, 2212, 2211, 2215, 2205, 2207, 2218, 2212, 2217, 2214, 2221, 2211, 2213, 2213, 2220, 2220, 2213, 2216, 2217, 2219, 2215, 2213, 2219, 2221, 2214, 2220, 2210, 2219, 2218, 2210, 2216, 2219, 2212, 2218, 2216, 2211, 2212, 2219, 2214, 2207, 2209, 2214, 2221, 2214, 2213, 2223, 2216, 2218, 2213, 2217, 2224, 2219, 2210, 2217, 2226, 2218, 2214, 2223, 2213, 2218, 2215, 2215, 2216, 2212, 2213, 2210, 2211, 2218, 2216, 2217, 2210, 2211, 2207, 2210, 2212, 2217, 2218, 2221, 2219, 2226, 2216, 2212, 2216, 2210, 2208, 2217, 2220, 2217, 2222, 2210, 2220, 2216, 2217, 2206, 2221, 2214, 2214, 2215, 2220, 2215, 2212, 2215, 2221, 2215, 2214, 2223, 2210, 2213, 2220, 2218, 2214, 2222, 2211, 2217, 2216, 2219, 2216, 2217, 2213, 2216, 2218, 2222, 2213, 2214, 2224, 2218, 2218, 2222, 2214, 2215, 2209, 2220, 2213, 2214, 2206, 2222, 2217, 2209, 2218, 2213, 2210, 2215, 2212, 2219, 2218, 2220, 2222, 2217, 2216, 2216, 2219, 2223, 2211, 2216, 2216, 2213, 2214, 2222, 2219, 2221, 2214, 2215, 2221, 2215, 2210, 2219, 2220, 2212, 2220, 2214, 2220, 2222],
      "WindowCenter": [1020.0, 1019.0, 1020.0, 1019.0, 1020.0, 1018.0, 1018.0, 1019.0, 1019.0, 1019.0, 1019.0, 1019.0, 1019.0, 1019.0, 1019.0, 1018.0, 1019.0, 1019.0, 1019.0, 1018.0, 1019.0, 1018.0, 1018.0, 1018.0, 1018.0, 1018.0, 1019.0, 1018.0, 1018.0, 1018.0, 1018.0, 1018.0, 1018.0, 1018.0, 1019.0, 1018.0, 1018.0, 1018.0, 1018.0, 1018.0, 1018.0, 1018.0, 1018.0, 1018.0, 1019.0, 1018.0, 1018.0, 1019.0, 1018.0, 1018.0, 1018.0, 1018.0, 1018.0, 1018.0, 1019.0, 1018.0, 1018.0, 1018.0, 1018.0, 1018.0, 1018.0, 1018.0, 1019.0, 1018.0, 1018.0, 1018.0, 1018.0, 1018.0, 1018.0, 1018.0, 1018.0, 1018.0, 1018.0, 1018.0, 1018.0, 1018.0, 1018.0, 1018.0, 1018.0, 1018.0, 1019.0, 1018.0, 1018.0, 1018.0, 1018.0, 1018.0, 1018.0, 1018.0, 1018.0, 1018.0, 1019.0, 1018.0, 1018.0, 1019.0, 1018.0, 1018.0, 1019.0, 1018.0, 1018.0, 1019.0, 1018.0, 1019.0, 1018.0, 1019.0, 1018.0, 1018.0, 1018.0, 1018.0, 1018.0, 1018.0, 1019.0, 1018.0, 1018.0, 1019.0, 1018.0, 1019.0, 1018.0, 1018.0, 1018.0, 1018.0, 1018.0, 1018.0, 1018.0, 1018.0, 1018.0, 1018.0, 1018.0, 1018.0, 1018.0, 1018.0, 1018.0, 1018.0, 1018.0, 1018.0, 1019.0, 1018.0, 1019.0, 1019.0, 1019.0, 1018.0, 1018.0, 1018.0, 1018.0, 1018.0, 1018.0, 1018.0, 1018.0, 1018.0, 1018.0, 1018.0, 1018.0, 1019.0, 1018.0, 1018.0, 1019.0, 1019.0, 1018.0, 1018.0, 1018.0, 1018.0, 1018.0, 1018.0, 1018.0, 1018.0, 1018.0, 1018.0, 1018.0, 1018.0, 1017.0, 1018.0, 1018.0, 1018.0, 1018.0, 1018.0, 1017.0, 1018.0, 1017.0, 1018.0, 1018.0, 1018.0, 1018.0, 1018.0, 1017.0, 1018.0, 1018.0, 1018.0, 1018.0, 1018.0, 1019.0, 1017.0, 1017.0, 1018.0, 1018.0, 1018.0, 1018.0, 1017.0, 1019.0, 1018.0, 1018.0, 1017.0],
      "WindowWidth": [2260.0, 2258.0, 2259.0, 2259.0, 2259.0, 2259.0, 2259.0, 2259.0, 2258.0, 2258.0, 2258.0, 2258.0, 2258.0, 2258.0, 2259.0, 2259.0, 2258.0, 2259.0, 2258.0, 2258.0, 2259.0, 2258.0, 2258.0, 2258.0, 2258.0, 2258.0, 2258.0, 2258.0, 2258.0, 2258.0, 2258.0, 2258.0, 2258.0, 2258.0, 2259.0, 2258.0, 2258.0, 2258.0, 2258.0, 2258.0, 2258.0, 2258.0, 2258.0, 2258.0, 2259.0, 2258.0, 2258.0, 2259.0, 2258.0, 2258.0, 2258.0, 2258.0, 2258.0, 2258.0, 2259.0, 2258.0, 2258.0, 2258.0, 2258.0, 2258.0, 2258.0, 2258.0, 2258.0, 2258.0, 2258.0, 2257.0, 2257.0, 2257.0, 2257.0, 2258.0, 2257.0, 2257.0, 2257.0, 2257.0, 2257.0, 2258.0, 2257.0, 2257.0, 2257.0, 2257.0, 2258.0, 2257.0, 2257.0, 2257.0, 2257.0, 2257.0, 2257.0, 2257.0, 2257.0, 2257.0, 2258.0, 2257.0, 2257.0, 2258.0, 2257.0, 2257.0, 2258.0, 2257.0, 2257.0, 2258.0, 2257.0, 2258.0, 2257.0, 2258.0, 2257.0, 2257.0, 2257.0, 2257.0, 2256.0, 2257.0, 2258.0, 2257.0, 2257.0, 2258.0, 2257.0, 2258.0, 2257.0, 2257.0, 2257.0, 2257.0, 2257.0, 2257.0, 2257.0, 2257.0, 2257.0, 2257.0, 2257.0, 2257.0, 2257.0, 2257.0, 2256.0, 2257.0, 2257.0, 2257.0, 2257.0, 2257.0, 2257.0, 2257.0, 2257.0, 2256.0, 2257.0, 2257.0, 2257.0, 2257.0, 2257.0, 2257.0, 2257.0, 2257.0, 2257.0, 2257.0, 2257.0, 2257.0, 2257.0, 2257.0, 2257.0, 2257.0, 2257.0, 2257.0, 2257.0, 2257.0, 2257.0, 2257.0, 2257.0, 2257.0, 2256.0, 2257.0, 2257.0, 2257.0, 2257.0, 2257.0, 2257.0, 2256.0, 2257.0, 2256.0, 2257.0, 2257.0, 2257.0, 2256.0, 2257.0, 2257.0, 2256.0, 2256.0, 2257.0, 2256.0, 2256.0, 2256.0, 2256.0, 2256.0, 2257.0, 2256.0, 2256.0, 2257.0, 2256.0, 2256.0, 2257.0, 2256.0, 2257.0, 2256.0, 2256.0, 2256.0]
    },
    "slices": {}
  }
}