{
  "AcquisitionMatrixPE": 80,
  "AcquisitionNumber": 1,
  "AcquisitionTime": "09:35:19.757500",
  "BandwidthPerPixelPhaseEncode": 48.077,
  "BaseResolution": 80,
  "BodyPartExamined": "BRAIN",
  "CoilCombinationMethod": "Sum of Squares",
  "ConsistencyInfo": "N4_VE11E_LATEST_20181129",
  "ConversionSoftware": "dcm2niix",
  "ConversionSoftwareVersion": "v1.0.20220720",
  "DerivedVendorReportedEchoSpacing": 0.000519999,
  "DeviceSerialNumber": "66112",
  "DwellTime": 2.7e-06,
  "EchoTime": 0.035,
  "EchoTrainLength": 39,
  "EffectiveEchoSpacing": 0.00026,
  "FlipAngle": 90,
  "HeudiconvVersion": "0.13.1",
  "ImageOrientationPatientDICOM": [0.994572, -0.104007, 0.00297826, 0.0978692, 0.944833, 0.312589],
  "ImageOrientationText": "Tra>Cor(18.1)>Sag(2.0)",
  "ImageType": [
    "ORIGINAL",
    "PRIMARY",
    "M",
    "ND",
    "NORM",
    "MOSAIC"
],
  "ImagingFrequency": 123.259,
  "InPlanePhaseEncodingDirectionDICOM": "COL",
  "InstitutionAddress": "Maynard 3,Hanover,NH,US,03755",
  "InstitutionName": "Dartmouth College - PBS",
  "InstitutionalDepartmentName": "Department",
  "MRAcquisitionType": "2D",
  "MagneticFieldStrength": 3,
  "Manufacturer": "Siemens",
  "ManufacturersModelName": "Prisma",
  "MatrixCoilMode": "GRAPPA",
  "Modality": "MR",
  "NonlinearGradientCorrection": false,
  "ParallelReductionFactorInPlane": 2,
  "PartialFourier": 1,
  "PatientPosition": "HFS",
  "PercentPhaseFOV": 100,
  "PercentSampling": 100,
  "PhaseEncodingDirection": "j-",
  "PhaseEncodingSteps": 79,
  "PhaseResolution": 1,
  "PixelBandwidth": 2315,
  "ProcedureStepDescription": "dbic^QA",
  "ProtocolName": "func-bold_task-rest_acq-p2",
  "PulseSequenceDetails": "%SiemensSeq%\\ep2d_bold",
  "ReceiveCoilActiveElements": "HC1-7;NC1,2",
  "ReceiveCoilName": "HeadNeck_64",
  "ReconMatrixPE": 80,
  "RefLinesPE": 24,
  "RepetitionTime": 2,
  "SAR": 0.0408991,
  "ScanOptions": "FS",
  "ScanningSequence": "EP",
  "SequenceName": "*epfid2d1_80",
  "SequenceVariant": "SK",
  "SeriesDescription": "func-bold_task-rest_acq-p2",
  "SeriesNumber": 5,
  "ShimSetting": [4214, -7745, -7480, -137, -151, -225, -59, 92],
  "SliceThickness": 3.5,
  "SliceTiming": [0.99, 0, 1.055, 0.065, 1.1225, 0.1325, 1.1875, 0.1975, 1.2525, 0.2625, 1.32, 0.33, 1.385, 0.395, 1.4525, 0.4625, 1.5175, 0.5275, 1.5825, 0.5925, 1.65, 0.66, 1.715, 0.725, 1.7825, 0.7925, 1.8475, 0.8575, 1.9125, 0.9225],
  "SoftwareVersions": "syngo MR E11",
  "SpacingBetweenSlices": 3.99,
  "StationName": "AWP66112",
  "TaskName": "rest",
  "TotalReadoutTime": 0.02054,
  "TxRefAmp": 212.075,
  "dcmmeta_affine": [
    [-2.9837164878845215, 0.29360759258270264, 0.14094816148281097, 108.33240509033203],
    [0.31202006340026855, 2.8344991207122803, 1.2392990589141846, -139.70236206054688],
    [0.008934790268540382, -0.937768280506134, 3.7900359630584717, -24.015016555786133],
    [0.0, 0.0, 0.0, 1.0]
],
  "dcmmeta_reorient_transform": [
    [0.0, -1.0, 0.0, 79.0],
    [1.0, 0.0, 0.0, 0.0],
    [0.0, 0.0, 1.0, 0.0],
    [0.0, 0.0, 0.0, 1.0]
],
  "dcmmeta_shape": [80, 80, 30, 200],
  "dcmmeta_slice_dim": 2,
  "dcmmeta_version": 0.6,
  "global": {
    "const": {
      "AccessionNumber": "qa64",
      "AcquisitionMatrix": [80, 0, 0, 80],
      "AngioFlag": "N",
      "BitsAllocated": 16,
      "BitsStored": 12,
      "BodyPartExamined": "BRAIN",
      "Columns": 480,
      "EchoNumbers": 1,
      "EchoTime": 35.0,
      "EchoTrainLength": 39,
      "FlipAngle": 90.0,
      "HighBit": 11,
      "ImageOrientationPatient": [0.99457213869359, -0.1040066867166, 0.00297826336823, 0.0978692005922, 0.94483303801967, 0.31258942695165],
      "ImagePositionPatient": [-786.99220653769, -588.71888460509, -287.43932403593],
      "ImageType": [
        "ORIGINAL",
        "PRIMARY",
        "M",
        "ND",
        "NORM",
        "MOSAIC"
],
      "ImagedNucleus": "1H",
      "ImagingFrequency": 123.259227,
      "InPlanePhaseEncodingDirection": "COL",
      "MRAcquisitionType": "2D",
      "MagneticFieldStrength": 3.0,
      "Manufacturer": "SIEMENS",
      "ManufacturerModelName": "Prisma",
      "Modality": "MR",
      "NumberOfAverages": 1.0,
      "NumberOfPhaseEncodingSteps": 79,
      "PercentPhaseFieldOfView": 100.0,
      "PercentSampling": 100.0,
      "PerformedProcedureStepStartTime": "092128.066000",
      "PhotometricInterpretation": "MONOCHROME2",
      "PixelBandwidth": 2315.0,
      "PixelRepresentation": 0,
      "PixelSpacing": [3.0, 3.0],
      "ProtocolName": "func-bold_task-rest_acq-p2",
      "RepetitionTime": 2000.0,
      "Rows": 480,
      "SAR": 0.04089910119209,
      "SamplesPerPixel": 1,
      "ScanOptions": "FS",
      "ScanningSequence": "EP",
      "SequenceName": "*epfid2d1_80",
      "SequenceVariant": "SK",
      "SeriesDescription": "func-bold_task-rest_acq-p2",
      "SeriesNumber": 5,
      "SeriesTime": "093617.653000",
      "SliceLocation": -62.376317960583,
      "SliceThickness": 3.5,
      "SmallestImagePixelValue": 0,
      "SoftwareVersions": "syngo MR E11",
      "SpacingBetweenSlices": 3.9900000642518,
      "SpecificCharacterSet": "ISO_IR 100",
      "StudyID": "13",
      "StudyTime": "092127.988000",
      "TransmitCoilName": "Body",
      "VariableFlipAngleFlag": "N",
      "WindowCenterWidthExplanation": "Algo1"
    },
    "slices": {}
  },
  "time": {
    "samples": {
      "AcquisitionNumber": [1, 2, 3, 4, 5, 6, 7, 8, 9, 10, 11, 12, 13, 14, 15, 16, 17, 18, 19, 20, 21, 22, 23, 24, 25, 26, 27, 28, 29, 30, 31, 32, 33, 34, 35, 36, 37, 38, 39, 40, 41, 42, 43, 44, 45, 46, 47, 48, 49, 50, 51, 52, 53, 54, 55, 56, 57, 58, 59, 60, 61, 62, 63, 64, 65, 66, 67, 68, 69, 70, 71, 72, 73, 74, 75, 76, 77, 78, 79, 80, 81, 82, 83, 84, 85, 86, 87, 88, 89, 90, 91, 92, 93, 94, 95, 96, 97, 98, 99, 100, 101, 102, 103, 104, 105, 106, 107, 108, 109, 110, 111, 112, 113, 114, 115, 116, 117, 118, 119, 120, 121, 122, 123, 124, 125, 126, 127, 128, 129, 130, 131, 132, 133, 134, 135, 136, 137, 138, 139, 140, 141, 142, 143, 144, 145, 146, 147, 148, 149, 150, 151, 152, 153, 154, 155, 156, 157, 158, 159, 160, 161, 162, 163, 164, 165, 166, 167, 168, 169, 170, 171, 172, 173, 174, 175, 176, 177, 178, 179, 180, 181, 182, 183, 184, 185, 186, 187, 188, 189, 190, 191, 192, 193, 194, 195, 196, 197, 198, 199, 200],
      "AcquisitionTime": ["093519.757500", "093521.757500", "093523.757500", "093525.757500", "093527.757500", "093529.757500", "093531.757500", "093533.757500", "093535.757500", "093537.757500", "093539.757500", "093541.757500", "093543.757500", "093545.757500", "093547.757500", "093549.757500", "093551.757500", "093553.757500", "093555.757500", "093557.757500", "093559.757500", "093601.757500", "093603.757500", "093605.757500", "093607.757500", "093609.757500", "093611.757500", "093613.757500", "093615.757500", "093617.757500", "093619.757500", "093621.757500", "093623.757500", "093625.757500", "093627.757500", "093629.757500", "093631.757500", "093633.757500", "093635.757500", "093637.757500", "093639.757500", "093641.757500", "093643.757500", "093645.757500", "093647.757500", "093649.757500", "093651.757500", "093653.757500", "093655.757500", "093657.757500", "093659.757500", "093701.757500", "093703.757500", "093705.757500", "093707.757500", "093709.757500", "093711.757500", "093713.757500", "093715.757500", "093717.757500", "093719.757500", "093721.757500", "093723.757500", "093725.757500", "093727.757500", "093729.757500", "093731.757500", "093733.757500", "093735.757500", "093737.757500", "093739.757500", "093741.757500", "093743.757500", "093745.757500", "093747.757500", "093749.757500", "093751.757500", "093753.757500", "093755.757500", "093757.757500", "093759.757500", "093801.757500", "093803.757500", "093805.757500", "093807.757500", "093809.757500", "093811.757500", "093813.757500", "093815.757500", "093817.757500", "093819.757500", "093821.757500", "093823.757500", "093825.757500", "093827.757500", "093829.757500", "093831.757500", "093833.757500", "093835.757500", "093837.757500", "093839.757500", "093841.757500", "093843.757500", "093845.757500", "093847.757500", "093849.757500", "093851.757500", "093853.757500", "093855.757500", "093857.757500", "093859.757500", "093901.757500", "093903.757500", "093905.757500", "093907.757500", "093909.757500", "093911.757500", "093913.757500", "093915.757500", "093917.757500", "093919.757500", "093921.757500", "093923.757500", "093925.757500", "093927.757500", "093929.757500", "093931.757500", "093933.757500", "093935.757500", "093937.757500", "093939.757500", "093941.757500", "093943.757500", "093945.757500", "093947.757500", "093949.757500", "093951.757500", "093953.757500", "093955.757500", "093957.757500", "093959.757500", "094001.757500", "094003.757500", "094005.757500", "094007.757500", "094009.757500", "094011.757500", "094013.757500", "094015.757500", "094017.757500", "094019.757500", "094021.757500", "094023.757500", "094025.757500", "094027.757500", "094029.757500", "094031.757500", "094033.757500", "094035.757500", "094037.757500", "094039.757500", "094041.757500", "094043.757500", "094045.757500", "094047.757500", "094049.757500", "094051.757500", "094053.757500", "094055.757500", "094057.757500", "094059.757500", "094101.757500", "094103.757500", "094105.757500", "094107.757500", "094109.757500", "094111.757500", "094113.757500", "094115.757500", "094117.757500", "094119.757500", "094121.757500", "094123.757500", "094125.757500", "094127.757500", "094129.757500", "094131.757500", "094133.757500", "094135.757500", "094137.757500", "094139.757500", "094141.757500", "094143.757500", "094145.757500", "094147.757500", "094149.757500", "094151.757500", "094153.757500", "094155.757500", "094157.757500"],
      "ContentTime": ["093617.657000", "093617.660000", "093617.670000", "093617.672000", "093617.674000", "093617.677000", "093617.679000", "093617.681000", "093617.684000", "093617.686000", "093617.688000", "093617.691000", "093617.693000", "093617.695000", "093617.698000", "093617.700000", "093617.707000", "093617.710000", "093617.712000", "093617.714000", "093617.717000", "093617.725000", "093617.727000", "093617.730000", "093617.732000", "093617.734000", "093617.737000", "093617.739000", "093617.741000", "093657.651000", "093657.654000", "093657.656000", "093657.658000", "093657.661000", "093657.663000", "093657.665000", "093657.668000", "093657.670000", "093657.672000", "093657.675000", "093657.677000", "093657.679000", "093657.682000", "093657.684000", "093657.686000", "093657.689000", "093657.691000", "093657.693000", "093657.701000", "093737.651000", "093737.654000", "093737.656000", "093737.658000", "093737.661000", "093737.663000", "093737.665000", "093737.668000", "093737.670000", "093737.672000", "093737.675000", "093737.677000", "093737.679000", "093737.682000", "093737.684000", "093737.686000", "093737.689000", "093737.691000", "093737.693000", "093737.696000", "093817.651000", "093817.654000", "093817.656000", "093817.659000", "093817.661000", "093817.664000", "093817.666000", "093817.668000", "093817.671000", "093817.673000", "093817.675000", "093817.678000", "093817.680000", "093817.682000", "093817.685000", "093817.687000", "093817.689000", "093817.692000", "093817.694000", "093817.696000", "093857.651000", "093857.654000", "093857.656000", "093857.658000", "093857.661000", "093857.663000", "093857.665000", "093857.668000", "093857.670000", "093857.672000", "093857.675000", "093857.677000", "093857.679000", "093857.682000", "093857.684000", "093857.687000", "093857.689000", "093857.698000", "093857.700000", "093857.702000", "093937.651000", "093937.654000", "093937.656000", "093937.658000", "093937.661000", "093937.663000", "093937.665000", "093937.668000", "093937.670000", "093937.672000", "093937.675000", "093937.677000", "093937.680000", "093937.682000", "093937.684000", "093937.686000", "093937.689000", "093937.691000", "093937.694000", "093937.696000", "094017.652000", "094017.655000", "094017.657000", "094017.660000", "094017.662000", "094017.665000", "094017.667000", "094017.669000", "094017.672000", "094017.674000", "094017.676000", "094017.679000", "094017.681000", "094017.683000", "094017.686000", "094017.688000", "094017.690000", "094017.693000", "094017.695000", "094017.697000", "094057.651000", "094057.654000", "094057.656000", "094057.658000", "094057.661000", "094057.663000", "094057.665000", "094057.668000", "094057.670000", "094057.672000", "094057.675000", "094057.677000", "094057.679000", "094057.682000", "094057.684000", "094057.686000", "094057.689000", "094057.691000", "094057.693000", "094057.696000", "094137.651000", "094137.661000", "094137.663000", "094137.665000", "094137.668000", "094137.670000", "094137.672000", "094137.675000", "094137.677000", "094137.679000", "094137.682000", "094137.684000", "094137.686000", "094137.689000", "094137.691000", "094137.693000", "094137.696000", "094137.698000", "094137.700000", "094137.703000", "094159.548000", "094159.551000", "094159.554000", "094159.556000", "094159.558000", "094159.561000", "094159.563000", "094159.566000", "094159.568000", "094159.571000", "094159.573000"],
      "InstanceCreationTime": ["093617.657000", "093617.660000", "093617.670000", "093617.672000", "093617.674000", "093617.677000", "093617.679000", "093617.681000", "093617.684000", "093617.686000", "093617.688000", "093617.691000", "093617.693000", "093617.695000", "093617.698000", "093617.700000", "093617.707000", "093617.710000", "093617.712000", "093617.714000", "093617.717000", "093617.725000", "093617.727000", "093617.730000", "093617.732000", "093617.734000", "093617.737000", "093617.739000", "093617.741000", "093657.651000", "093657.654000", "093657.656000", "093657.658000", "093657.661000", "093657.663000", "093657.665000", "093657.668000", "093657.670000", "093657.672000", "093657.675000", "093657.677000", "093657.679000", "093657.682000", "093657.684000", "093657.686000", "093657.689000", "093657.691000", "093657.693000", "093657.701000", "093737.651000", "093737.654000", "093737.656000", "093737.658000", "093737.661000", "093737.663000", "093737.665000", "093737.668000", "093737.670000", "093737.672000", "093737.675000", "093737.677000", "093737.679000", "093737.682000", "093737.684000", "093737.686000", "093737.689000", "093737.691000", "093737.693000", "093737.696000", "093817.651000", "093817.654000", "093817.656000", "093817.659000", "093817.661000", "093817.664000", "093817.666000", "093817.668000", "093817.671000", "093817.673000", "093817.675000", "093817.678000", "093817.680000", "093817.682000", "093817.685000", "093817.687000", "093817.689000", "093817.692000", "093817.694000", "093817.696000", "093857.651000", "093857.654000", "093857.656000", "093857.658000", "093857.661000", "093857.663000", "093857.665000", "093857.668000", "093857.670000", "093857.672000", "093857.675000", "093857.677000", "093857.679000", "093857.682000", "093857.684000", "093857.687000", "093857.689000", "093857.698000", "093857.700000", "093857.702000", "093937.651000", "093937.654000", "093937.656000", "093937.658000", "093937.661000", "093937.663000", "093937.665000", "093937.668000", "093937.670000", "093937.672000", "093937.675000", "093937.677000", "093937.680000", "093937.682000", "093937.684000", "093937.686000", "093937.689000", "093937.691000", "093937.694000", "093937.696000", "094017.652000", "094017.655000", "094017.657000", "094017.660000", "094017.662000", "094017.665000", "094017.667000", "094017.669000", "094017.672000", "094017.674000", "094017.676000", "094017.679000", "094017.681000", "094017.683000", "094017.686000", "094017.688000", "094017.690000", "094017.693000", "094017.695000", "094017.697000", "094057.651000", "094057.654000", "094057.656000", "094057.658000", "094057.661000", "094057.663000", "094057.665000", "094057.668000", "094057.670000", "094057.672000", "094057.675000", "094057.677000", "094057.679000", "094057.682000", "094057.684000", "094057.686000", "094057.689000", "094057.691000", "094057.693000", "094057.696000", "094137.651000", "094137.661000", "094137.663000", "094137.665000", "094137.668000", "094137.670000", "094137.672000", "094137.675000", "094137.677000", "094137.679000", "094137.682000", "094137.684000", "094137.686000", "094137.689000", "094137.691000", "094137.693000", "094137.696000", "094137.698000", "094137.700000", "094137.703000", "094159.548000", "094159.551000", "094159.554000", "094159.556000", "094159.558000", "094159.561000", "094159.563000", "094159.566000", "094159.568000", "094159.571000", "094159.573000"],
      "InstanceNumber": [1, 2, 3, 4, 5, 6, 7, 8, 9, 10, 11, 12, 13, 14, 15, 16, 17, 18, 19, 20, 21, 22, 23, 24, 25, 26, 27, 28, 29, 30, 31, 32, 33, 34, 35, 36, 37, 38, 39, 40, 41, 42, 43, 44, 45, 46, 47, 48, 49, 50, 51, 52, 53, 54, 55, 56, 57, 58, 59, 60, 61, 62, 63, 64, 65, 66, 67, 68, 69, 70, 71, 72, 73, 74, 75, 76, 77, 78, 79, 80, 81, 82, 83, 84, 85, 86, 87, 88, 89, 90, 91, 92, 93, 94, 95, 96, 97, 98, 99, 100, 101, 102, 103, 104, 105, 106, 107, 108, 109, 110, 111, 112, 113, 114, 115, 116, 117, 118, 119, 120, 121, 122, 123, 124, 125, 126, 127, 128, 129, 130, 131, 132, 133, 134, 135, 136, 137, 138, 139, 140, 141, 142, 143, 144, 145, 146, 147, 148, 149, 150, 151, 152, 153, 154, 155, 156, 157, 158, 159, 160, 161, 162, 163, 164, 165, 166, 167, 168, 169, 170, 171, 172, 173, 174, 175, 176, 177, 178, 179, 180, 181, 182, 183, 184, 185, 186, 187, 188, 189, 190, 191, 192, 193, 194, 195, 196, 197, 198, 199, 200],
      "LargestImagePixelValue": [3883, 3890, 3888, 3884, 3892, 3883, 3886, 3886, 3885, 3883, 3895, 3885, 3877, 3883, 3883, 3889, 3885, 3888, 3882, 3894, 3882, 3883, 3884, 3886, 3882, 3877, 3885, 3885, 3875, 3891, 3877, 3881, 3885, 3886, 3882, 3884, 3885, 3882, 3892, 3875, 3880, 3884, 3889, 3884, 3885, 3885, 3880, 3883, 3884, 3882, 3888, 3884, 3889, 3884, 3877, 3883, 3878, 3881, 3877, 3888, 3880, 3884, 3884, 3878, 3877, 3889, 3878, 3882, 3888, 3878, 3879, 3883, 3884, 3885, 3880, 3883, 3889, 3885, 3879, 3890, 3890, 3881, 3885, 3878, 3878, 3877, 3875, 3885, 3881, 3875, 3884, 3890, 3890, 3887, 3875, 3884, 3873, 3883, 3877, 3883, 3878, 3872, 3885, 3876, 3879, 3887, 3871, 3879, 3877, 3877, 3873, 3874, 3879, 3878, 3879, 3876, 3875, 3880, 3883, 3870, 3878, 3880, 3879, 3879, 3875, 3884, 3877, 3874, 3879, 3878, 3870, 3874, 3871, 3876, 3879, 3884, 3879, 3876, 3886, 3877, 3880, 3879, 3876, 3870, 3878, 3885, 3870, 3888, 3886, 3872, 3883, 3883, 3877, 3883, 3882, 3873, 3874, 3879, 3875, 3883, 3874, 3886, 3885, 3873, 3873, 3883, 3870, 3879, 3876, 3864, 3870, 3876, 3878, 3887, 3877, 3875, 3875, 3872, 3874, 3874, 3881, 3873, 3875, 3876, 3872, 3881, 3871, 3874, 3871, 3874, 3880, 3879, 3878, 3866, 3873, 3879, 3871, 3869, 3868, 3873],
      "WindowCenter": [1468.0, 1468.0, 1467.0, 1467.0, 1468.0, 1468.0, 1466.0, 1467.0, 1466.0, 1466.0, 1467.0, 1467.0, 1467.0, 1468.0, 1467.0, 1467.0, 1467.0, 1467.0, 1467.0, 1466.0, 1467.0, 1467.0, 1467.0, 1467.0, 1467.0, 1467.0, 1467.0, 1466.0, 1466.0, 1466.0, 1466.0, 1467.0, 1466.0, 1467.0, 1466.0, 1466.0, 1466.0, 1467.0, 1466.0, 1466.0, 1466.0, 1467.0, 1466.0, 1466.0, 1467.0, 1466.0, 1466.0, 1466.0, 1465.0, 1466.0, 1466.0, 1466.0, 1466.0, 1466.0, 1466.0, 1465.0, 1465.0, 1466.0, 1466.0, 1465.0, 1465.0, 1465.0, 1466.0, 1466.0, 1466.0, 1465.0, 1465.0, 1466.0, 1466.0, 1466.0, 1466.0, 1465.0, 1465.0, 1465.0, 1465.0, 1466.0, 1465.0, 1466.0, 1465.0, 1465.0, 1465.0, 1465.0, 1465.0, 1465.0, 1465.0, 1465.0, 1465.0, 1464.0, 1464.0, 1465.0, 1464.0, 1465.0, 1464.0, 1465.0, 1465.0, 1465.0, 1465.0, 1465.0, 1465.0, 1464.0, 1465.0, 1465.0, 1464.0, 1464.0, 1464.0, 1464.0, 1464.0, 1464.0, 1464.0, 1464.0, 1463.0, 1463.0, 1463.0, 1464.0, 1463.0, 1464.0, 1464.0, 1463.0, 1464.0, 1464.0, 1463.0, 1464.0, 1463.0, 1463.0, 1463.0, 1464.0, 1464.0, 1463.0, 1464.0, 1463.0, 1464.0, 1463.0, 1463.0, 1464.0, 1464.0, 1463.0, 1464.0, 1463.0, 1464.0, 1463.0, 1464.0, 1463.0, 1463.0, 1463.0, 1464.0, 1463.0, 1463.0, 1463.0, 1463.0, 1463.0, 1462.0, 1463.0, 1462.0, 1462.0, 1462.0, 1463.0, 1463.0, 1462.0, 1463.0, 1463.0, 1462.0, 1462.0, 1463.0, 1462.0, 1463.0, 1463.0, 1463.0, 1462.0, 1463.0, 1463.0, 1463.0, 1463.0, 1463.0, 1463.0, 1462.0, 1462.0, 1463.0, 1462.0, 1462.0, 1462.0, 1462.0, 1462.0, 1462.0, 1462.0, 1463.0, 1462.0, 1462.0, 1462.0, 1462.0, 1462.0, 1462.0, 1462.0, 1462.0, 1463.0, 1462.0, 1462.0, 1462.0, 1462.0, 1462.0, 1462.0],
      "WindowWidth": [3358.0, 3356.0, 3357.0, 3357.0, 3356.0, 3356.0, 3357.0, 3356.0, 3357.0, 3356.0, 3356.0, 3357.0, 3356.0, 3356.0, 3356.0, 3357.0, 3356.0, 3356.0, 3356.0, 3356.0, 3356.0, 3356.0, 3356.0, 3356.0, 3356.0, 3356.0, 3356.0, 3356.0, 3356.0, 3356.0, 3356.0, 3356.0, 3356.0, 3356.0, 3356.0, 3356.0, 3356.0, 3356.0, 3356.0, 3356.0, 3356.0, 3356.0, 3356.0, 3356.0, 3356.0, 3356.0, 3356.0, 3356.0, 3356.0, 3356.0, 3356.0, 3356.0, 3356.0, 3356.0, 3356.0, 3356.0, 3356.0, 3356.0, 3356.0, 3356.0, 3356.0, 3356.0, 3356.0, 3356.0, 3356.0, 3356.0, 3356.0, 3356.0, 3356.0, 3356.0, 3356.0, 3356.0, 3356.0, 3356.0, 3356.0, 3356.0, 3356.0, 3355.0, 3356.0, 3355.0, 3356.0, 3355.0, 3355.0, 3355.0, 3355.0, 3355.0, 3355.0, 3355.0, 3355.0, 3355.0, 3355.0, 3355.0, 3355.0, 3355.0, 3355.0, 3355.0, 3355.0, 3355.0, 3355.0, 3355.0, 3355.0, 3355.0, 3355.0, 3355.0, 3355.0, 3355.0, 3355.0, 3355.0, 3355.0, 3355.0, 3355.0, 3355.0, 3355.0, 3355.0, 3355.0, 3355.0, 3355.0, 3355.0, 3355.0, 3355.0, 3355.0, 3355.0, 3355.0, 3355.0, 3355.0, 3354.0, 3354.0, 3355.0, 3354.0, 3355.0, 3354.0, 3354.0, 3355.0, 3354.0, 3354.0, 3355.0, 3355.0, 3355.0, 3354.0, 3355.0, 3354.0, 3355.0, 3355.0, 3355.0, 3354.0, 3355.0, 3354.0, 3355.0, 3354.0, 3355.0, 3355.0, 3354.0, 3355.0, 3355.0, 3355.0, 3354.0, 3354.0, 3355.0, 3354.0, 3354.0, 3355.0, 3355.0, 3354.0, 3355.0, 3354.0, 3354.0, 3354.0, 3354.0, 3354.0, 3354.0, 3354.0, 3354.0, 3354.0, 3354.0, 3354.0, 3354.0, 3354.0, 3354.0, 3354.0, 3354.0, 3354.0, 3354.0, 3354.0, 3354.0, 3354.0, 3354.0, 3354.0, 3354.0, 3354.0, 3354.0, 3354.0, 3354.0, 3354.0, 3354.0, 3354.0, 3354.0, 3354.0, 3354.0, 3354.0, 3354.0]
    },
    "slices": {}
  }
}