{
  "AcquisitionMatrixPE": 80,
  "AcquisitionNumber": 1,
  "AcquisitionTime": "09:48:57.485000",
  "BandwidthPerPixelPhaseEncode": 25,
  "BaseResolution": 80,
  "BodyPartExamined": "BRAIN",
  "CoilCombinationMethod": "Sum of Squares",
  "ConsistencyInfo": "N4_VE11E_LATEST_20181129",
  "ConversionSoftware": "dcm2niix",
  "ConversionSoftwareVersion": "v1.0.20220720",
  "DerivedVendorReportedEchoSpacing": 0.0005,
  "DeviceSerialNumber": "66112",
  "DwellTime": 2.7e-06,
  "EchoTime": 0.03,
  "EchoTrainLength": 80,
  "EffectiveEchoSpacing": 0.0005,
  "FlipAngle": 10,
  "HeudiconvVersion": "0.13.1",
  "ImageOrientationPatientDICOM": [0.994572, -0.104007, 0.00297826, 0.0978692, 0.944833, 0.312589],
  "ImageOrientationText": "Tra>Cor(18.1)>Sag(2.0)",
  "ImageType": [
    "ORIGINAL",
    "PRIMARY",
    "M",
    "ND",
    "NORM",
    "MOSAIC"
],
  "ImagingFrequency": 123.259,
  "InPlanePhaseEncodingDirectionDICOM": "COL",
  "InstitutionAddress": "Maynard 3,Hanover,NH,US,03755",
  "InstitutionName": "Dartmouth College - PBS",
  "InstitutionalDepartmentName": "Department",
  "MRAcquisitionType": "2D",
  "MagneticFieldStrength": 3,
  "Manufacturer": "Siemens",
  "ManufacturersModelName": "Prisma",
  "MatrixCoilMode": "SENSE",
  "Modality": "MR",
  "NonlinearGradientCorrection": false,
  "PartialFourier": 1,
  "PatientPosition": "HFS",
  "PercentPhaseFOV": 100,
  "PercentSampling": 100,
  "PhaseEncodingDirection": "j-",
  "PhaseEncodingSteps": 80,
  "PhaseResolution": 1,
  "PixelBandwidth": 2315,
  "ProcedureStepDescription": "dbic^QA",
  "ProtocolName": "func-bold_fa-10",
  "PulseSequenceDetails": "%SiemensSeq%\\ep2d_bold",
  "ReceiveCoilActiveElements": "HC1-7;NC1,2",
  "ReceiveCoilName": "HeadNeck_64",
  "ReconMatrixPE": 80,
  "RepetitionTime": 2,
  "SAR": 0.00862167,
  "ScanOptions": "FS",
  "ScanningSequence": "EP",
  "SequenceName": "*epfid2d1_80",
  "SequenceVariant": "SK",
  "SeriesDescription": "func-bold_fa-10",
  "SeriesNumber": 7,
  "ShimSetting": [4214, -7746, -7479, -136, -152, -223, -58, 91],
  "SliceThickness": 3.5,
  "SliceTiming": [0.99, 0, 1.0575, 0.0675, 1.1225, 0.1325, 1.1875, 0.1975, 1.255, 0.265, 1.32, 0.33, 1.3875, 0.3975, 1.4525, 0.4625, 1.5175, 0.5275, 1.585, 0.595, 1.65, 0.66, 1.715, 0.7275, 1.7825, 0.7925, 1.8475, 0.8575, 1.915, 0.925],
  "SoftwareVersions": "syngo MR E11",
  "SpacingBetweenSlices": 3.99,
  "StationName": "AWP66112",
  "TotalReadoutTime": 0.0395,
  "TxRefAmp": 212.075,
  "dcmmeta_affine": [
    [-2.9837164878845215, 0.29360759258270264, 0.14094814658164978, 106.65603637695312],
    [0.31202006340026855, 2.8344991207122803, 1.239298939704895, -137.29049682617188],
    [0.008934790268540382, -0.937768280506134, 3.7900357246398926, -23.39552116394043],
    [0.0, 0.0, 0.0, 1.0]
],
  "dcmmeta_reorient_transform": [
    [0.0, -1.0, 0.0, 79.0],
    [1.0, 0.0, 0.0, 0.0],
    [0.0, 0.0, 1.0, 0.0],
    [0.0, 0.0, 0.0, 1.0]
],
  "dcmmeta_shape": [80, 80, 30, 200],
  "dcmmeta_slice_dim": 2,
  "dcmmeta_version": 0.6,
  "global": {
    "const": {
      "AccessionNumber": "qa64",
      "AcquisitionMatrix": [80, 0, 0, 80],
      "AngioFlag": "N",
      "BitsAllocated": 16,
      "BitsStored": 12,
      "BodyPartExamined": "BRAIN",
      "Columns": 480,
      "EchoNumbers": 1,
      "EchoTime": 30.0,
      "EchoTrainLength": 80,
      "FlipAngle": 10.0,
      "HighBit": 11,
      "ImageOrientationPatient": [0.99457213869359, -0.1040066867166, 0.00297826336823, 0.0978692005922, 0.94483303801967, 0.31258942695165],
      "ImagePositionPatient": [-785.31584143039, -591.13074888579, -286.81982864408],
      "ImageType": [
        "ORIGINAL",
        "PRIMARY",
        "M",
        "ND",
        "NORM",
        "MOSAIC"
],
      "ImagedNucleus": "1H",
      "ImagingFrequency": 123.259226,
      "InPlanePhaseEncodingDirection": "COL",
      "MRAcquisitionType": "2D",
      "MagneticFieldStrength": 3.0,
      "Manufacturer": "SIEMENS",
      "ManufacturerModelName": "Prisma",
      "Modality": "MR",
      "NumberOfAverages": 1.0,
      "NumberOfPhaseEncodingSteps": 80,
      "PercentPhaseFieldOfView": 100.0,
      "PercentSampling": 100.0,
      "PerformedProcedureStepStartTime": "092128.066000",
      "PhotometricInterpretation": "MONOCHROME2",
      "PixelBandwidth": 2315.0,
      "PixelRepresentation": 0,
      "PixelSpacing": [3.0, 3.0],
      "ProtocolName": "func-bold_fa-10",
      "RepetitionTime": 2000.0,
      "Rows": 480,
      "SAR": 0.00862167459382,
      "SamplesPerPixel": 1,
      "ScanOptions": "FS",
      "ScanningSequence": "EP",
      "SequenceName": "*epfid2d1_80",
      "SequenceVariant": "SK",
      "SeriesDescription": "func-bold_fa-10",
      "SeriesNumber": 7,
      "SeriesTime": "094917.568000",
      "SliceLocation": -61.09795952259,
      "SliceThickness": 3.5,
      "SmallestImagePixelValue": 0,
      "SoftwareVersions": "syngo MR E11",
      "SpacingBetweenSlices": 3.9899999491904,
      "SpecificCharacterSet": "ISO_IR 100",
      "StudyID": "13",
      "StudyTime": "092127.988000",
      "TransmitCoilName": "Body",
      "VariableFlipAngleFlag": "N",
      "WindowCenterWidthExplanation": "Algo1"
    },
    "slices": {}
  },
  "time": {
    "samples": {
      "AcquisitionNumber": [1, 2, 3, 4, 5, 6, 7, 8, 9, 10, 11, 12, 13, 14, 15, 16, 17, 18, 19, 20, 21, 22, 23, 24, 25, 26, 27, 28, 29, 30, 31, 32, 33, 34, 35, 36, 37, 38, 39, 40, 41, 42, 43, 44, 45, 46, 47, 48, 49, 50, 51, 52, 53, 54, 55, 56, 57, 58, 59, 60, 61, 62, 63, 64, 65, 66, 67, 68, 69, 70, 71, 72, 73, 74, 75, 76, 77, 78, 79, 80, 81, 82, 83, 84, 85, 86, 87, 88, 89, 90, 91, 92, 93, 94, 95, 96, 97, 98, 99, 100, 101, 102, 103, 104, 105, 106, 107, 108, 109, 110, 111, 112, 113, 114, 115, 116, 117, 118, 119, 120, 121, 122, 123, 124, 125, 126, 127, 128, 129, 130, 131, 132, 133, 134, 135, 136, 137, 138, 139, 140, 141, 142, 143, 144, 145, 146, 147, 148, 149, 150, 151, 152, 153, 154, 155, 156, 157, 158, 159, 160, 161, 162, 163, 164, 165, 166, 167, 168, 169, 170, 171, 172, 173, 174, 175, 176, 177, 178, 179, 180, 181, 182, 183, 184, 185, 186, 187, 188, 189, 190, 191, 192, 193, 194, 195, 196, 197, 198, 199, 200],
      "AcquisitionTime": ["094857.485000", "094859.485000", "094901.485000", "094903.485000", "094905.485000", "094907.485000", "094909.485000", "094911.485000", "094913.485000", "094915.485000", "094917.485000", "094919.485000", "094921.485000", "094923.485000", "094925.485000", "094927.485000", "094929.485000", "094931.485000", "094933.485000", "094935.485000", "094937.485000", "094939.485000", "094941.485000", "094943.485000", "094945.485000", "094947.485000", "094949.485000", "094951.485000", "094953.485000", "094955.485000", "094957.485000", "094959.485000", "095001.485000", "095003.485000", "095005.485000", "095007.485000", "095009.485000", "095011.485000", "095013.485000", "095015.485000", "095017.485000", "095019.485000", "095021.485000", "095023.485000", "095025.485000", "095027.485000", "095029.485000", "095031.485000", "095033.485000", "095035.485000", "095037.485000", "095039.485000", "095041.485000", "095043.485000", "095045.485000", "095047.485000", "095049.485000", "095051.485000", "095053.485000", "095055.485000", "095057.485000", "095059.485000", "095101.485000", "095103.485000", "095105.485000", "095107.485000", "095109.485000", "095111.485000", "095113.485000", "095115.485000", "095117.485000", "095119.485000", "095121.485000", "095123.485000", "095125.485000", "095127.485000", "095129.485000", "095131.485000", "095133.485000", "095135.485000", "095137.485000", "095139.485000", "095141.485000", "095143.485000", "095145.485000", "095147.485000", "095149.485000", "095151.485000", "095153.485000", "095155.485000", "095157.485000", "095159.485000", "095201.485000", "095203.485000", "095205.485000", "095207.485000", "095209.485000", "095211.485000", "095213.485000", "095215.485000", "095217.485000", "095219.485000", "095221.485000", "095223.485000", "095225.485000", "095227.485000", "095229.485000", "095231.485000", "095233.485000", "095235.485000", "095237.485000", "095239.485000", "095241.485000", "095243.485000", "095245.485000", "095247.485000", "095249.485000", "095251.485000", "095253.485000", "095255.485000", "095257.485000", "095259.485000", "095301.485000", "095303.485000", "095305.485000", "095307.485000", "095309.485000", "095311.485000", "095313.485000", "095315.485000", "095317.485000", "095319.485000", "095321.485000", "095323.485000", "095325.485000", "095327.485000", "095329.485000", "095331.485000", "095333.485000", "095335.485000", "095337.485000", "095339.485000", "095341.485000", "095343.485000", "095345.485000", "095347.485000", "095349.485000", "095351.485000", "095353.485000", "095355.485000", "095357.485000", "095359.485000", "095401.485000", "095403.485000", "095405.485000", "095407.485000", "095409.485000", "095411.485000", "095413.485000", "095415.485000", "095417.485000", "095419.485000", "095421.485000", "095423.485000", "095425.485000", "095427.485000", "095429.485000", "095431.485000", "095433.485000", "095435.485000", "095437.485000", "095439.485000", "095441.485000", "095443.485000", "095445.485000", "095447.485000", "095449.485000", "095451.485000", "095453.485000", "095455.485000", "095457.485000", "095459.485000", "095501.485000", "095503.485000", "095505.485000", "095507.485000", "095509.485000", "095511.485000", "095513.485000", "095515.485000", "095517.485000", "095519.485000", "095521.485000", "095523.485000", "095525.485000", "095527.485000", "095529.485000", "095531.485000", "095533.485000", "095535.485000"],
      "ContentTime": ["094917.571000", "094917.574000", "094917.577000", "094917.579000", "094917.581000", "094917.584000", "094917.593000", "094917.596000", "094917.598000", "094917.611000", "094957.566000", "094957.569000", "094957.571000", "094957.574000", "094957.576000", "094957.579000", "094957.581000", "094957.583000", "094957.586000", "094957.588000", "094957.590000", "094957.593000", "094957.595000", "094957.597000", "094957.600000", "094957.606000", "094957.609000", "094957.611000", "094957.613000", "094957.616000", "095037.566000", "095037.569000", "095037.571000", "095037.574000", "095037.577000", "095037.579000", "095037.581000", "095037.584000", "095037.586000", "095037.588000", "095037.590000", "095037.593000", "095037.595000", "095037.597000", "095037.600000", "095037.602000", "095037.605000", "095037.607000", "095037.609000", "095037.612000", "095117.566000", "095117.569000", "095117.571000", "095117.574000", "095117.576000", "095117.578000", "095117.581000", "095117.583000", "095117.586000", "095117.588000", "095117.590000", "095117.593000", "095117.595000", "095117.597000", "095117.600000", "095117.602000", "095117.605000", "095117.607000", "095117.612000", "095117.614000", "095157.567000", "095157.570000", "095157.572000", "095157.574000", "095157.577000", "095157.579000", "095157.581000", "095157.584000", "095157.586000", "095157.588000", "095157.590000", "095157.593000", "095157.595000", "095157.597000", "095157.599000", "095157.605000", "095157.607000", "095157.610000", "095157.612000", "095157.614000", "095237.566000", "095237.569000", "095237.571000", "095237.573000", "095237.575000", "095237.578000", "095237.580000", "095237.582000", "095237.585000", "095237.587000", "095237.589000", "095237.592000", "095237.594000", "095237.596000", "095237.598000", "095237.601000", "095237.603000", "095237.605000", "095237.608000", "095237.610000", "095317.566000", "095317.569000", "095317.571000", "095317.573000", "095317.576000", "095317.578000", "095317.580000", "095317.582000", "095317.585000", "095317.587000", "095317.589000", "095317.591000", "095317.594000", "095317.596000", "095317.598000", "095317.601000", "095317.603000", "095317.605000", "095317.607000", "095317.610000", "095357.566000", "095357.569000", "095357.571000", "095357.573000", "095357.576000", "095357.578000", "095357.580000", "095357.583000", "095357.585000", "095357.587000", "095357.589000", "095357.592000", "095357.594000", "095357.596000", "095357.598000", "095357.601000", "095357.603000", "095357.606000", "095357.608000", "095357.610000", "095437.566000", "095437.569000", "095437.571000", "095437.573000", "095437.576000", "095437.578000", "095437.581000", "095437.583000", "095437.585000", "095437.587000", "095437.590000", "095437.592000", "095437.594000", "095437.596000", "095437.599000", "095437.601000", "095437.603000", "095437.606000", "095437.608000", "095437.610000", "095517.566000", "095517.569000", "095517.571000", "095517.573000", "095517.576000", "095517.578000", "095517.580000", "095517.583000", "095517.585000", "095517.587000", "095517.589000", "095517.592000", "095517.594000", "095517.596000", "095517.599000", "095517.601000", "095517.603000", "095517.605000", "095517.608000", "095517.610000", "095537.398000", "095537.401000", "095537.403000", "095537.405000", "095537.408000", "095537.410000", "095537.412000", "095537.415000", "095537.417000", "095537.431000"],
      "InstanceCreationTime": ["094917.571000", "094917.574000", "094917.577000", "094917.579000", "094917.581000", "094917.584000", "094917.593000", "094917.596000", "094917.598000", "094917.611000", "094957.566000", "094957.569000", "094957.571000", "094957.574000", "094957.576000", "094957.579000", "094957.581000", "094957.583000", "094957.586000", "094957.588000", "094957.590000", "094957.593000", "094957.595000", "094957.597000", "094957.600000", "094957.606000", "094957.609000", "094957.611000", "094957.613000", "094957.616000", "095037.566000", "095037.569000", "095037.571000", "095037.574000", "095037.577000", "095037.579000", "095037.581000", "095037.584000", "095037.586000", "095037.588000", "095037.590000", "095037.593000", "095037.595000", "095037.597000", "095037.600000", "095037.602000", "095037.605000", "095037.607000", "095037.609000", "095037.612000", "095117.566000", "095117.569000", "095117.571000", "095117.574000", "095117.576000", "095117.578000", "095117.581000", "095117.583000", "095117.586000", "095117.588000", "095117.590000", "095117.593000", "095117.595000", "095117.597000", "095117.600000", "095117.602000", "095117.605000", "095117.607000", "095117.612000", "095117.614000", "095157.567000", "095157.570000", "095157.572000", "095157.574000", "095157.577000", "095157.579000", "095157.581000", "095157.584000", "095157.586000", "095157.588000", "095157.590000", "095157.593000", "095157.595000", "095157.597000", "095157.599000", "095157.605000", "095157.607000", "095157.610000", "095157.612000", "095157.614000", "095237.566000", "095237.569000", "095237.571000", "095237.573000", "095237.575000", "095237.578000", "095237.580000", "095237.582000", "095237.585000", "095237.587000", "095237.589000", "095237.592000", "095237.594000", "095237.596000", "095237.598000", "095237.601000", "095237.603000", "095237.605000", "095237.608000", "095237.610000", "095317.566000", "095317.569000", "095317.571000", "095317.573000", "095317.576000", "095317.578000", "095317.580000", "095317.582000", "095317.585000", "095317.587000", "095317.589000", "095317.591000", "095317.594000", "095317.596000", "095317.598000", "095317.601000", "095317.603000", "095317.605000", "095317.607000", "095317.610000", "095357.566000", "095357.569000", "095357.571000", "095357.573000", "095357.576000", "095357.578000", "095357.580000", "095357.583000", "095357.585000", "095357.587000", "095357.589000", "095357.592000", "095357.594000", "095357.596000", "095357.598000", "095357.601000", "095357.603000", "095357.606000", "095357.608000", "095357.610000", "095437.566000", "095437.569000", "095437.571000", "095437.573000", "095437.576000", "095437.578000", "095437.581000", "095437.583000", "095437.585000", "095437.587000", "095437.590000", "095437.592000", "095437.594000", "095437.596000", "095437.599000", "095437.601000", "095437.603000", "095437.606000", "095437.608000", "095437.610000", "095517.566000", "095517.569000", "095517.571000", "095517.573000", "095517.576000", "095517.578000", "095517.580000", "095517.583000", "095517.585000", "095517.587000", "095517.589000", "095517.592000", "095517.594000", "095517.596000", "095517.599000", "095517.601000", "095517.603000", "095517.605000", "095517.608000", "095517.610000", "095537.398000", "095537.401000", "095537.403000", "095537.405000", "095537.408000", "095537.410000", "095537.412000", "095537.415000", "095537.417000", "095537.431000"],
      "InstanceNumber": [1, 2, 3, 4, 5, 6, 7, 8, 9, 10, 11, 12, 13, 14, 15, 16, 17, 18, 19, 20, 21, 22, 23, 24, 25, 26, 27, 28, 29, 30, 31, 32, 33, 34, 35, 36, 37, 38, 39, 40, 41, 42, 43, 44, 45, 46, 47, 48, 49, 50, 51, 52, 53, 54, 55, 56, 57, 58, 59, 60, 61, 62, 63, 64, 65, 66, 67, 68, 69, 70, 71, 72, 73, 74, 75, 76, 77, 78, 79, 80, 81, 82, 83, 84, 85, 86, 87, 88, 89, 90, 91, 92, 93, 94, 95, 96, 97, 98, 99, 100, 101, 102, 103, 104, 105, 106, 107, 108, 109, 110, 111, 112, 113, 114, 115, 116, 117, 118, 119, 120, 121, 122, 123, 124, 125, 126, 127, 128, 129, 130, 131, 132, 133, 134, 135, 136, 137, 138, 139, 140, 141, 142, 143, 144, 145, 146, 147, 148, 149, 150, 151, 152, 153, 154, 155, 156, 157, 158, 159, 160, 161, 162, 163, 164, 165, 166, 167, 168, 169, 170, 171, 172, 173, 174, 175, 176, 177, 178, 179, 180, 181, 182, 183, 184, 185, 186, 187, 188, 189, 190, 191, 192, 193, 194, 195, 196, 197, 198, 199, 200],
      "LargestImagePixelValue": [642, 639, 642, 641, 644, 642, 644, 638, 641, 642, 643, 640, 645, 649, 641, 643, 640, 645, 643, 645, 646, 646, 643, 640, 642, 645, 643, 647, 646, 643, 643, 644, 638, 639, 648, 645, 646, 645, 640, 641, 644, 642, 644, 643, 639, 642, 644, 637, 646, 645, 646, 646, 645, 639, 644, 637, 640, 645, 650, 640, 646, 642, 644, 647, 642, 644, 644, 645, 641, 642, 638, 643, 648, 644, 645, 649, 645, 641, 641, 644, 644, 643, 647, 645, 640, 642, 642, 643, 643, 648, 645, 646, 645, 642, 641, 644, 650, 644, 643, 644, 642, 642, 643, 646, 642, 645, 642, 642, 640, 641, 644, 645, 647, 642, 643, 640, 641, 641, 641, 644, 644, 644, 641, 643, 641, 644, 647, 644, 648, 642, 647, 643, 642, 639, 642, 644, 640, 641, 639, 644, 642, 647, 644, 642, 640, 640, 644, 641, 645, 643, 645, 646, 643, 643, 642, 643, 639, 644, 645, 645, 643, 644, 643, 647, 645, 641, 641, 644, 647, 642, 639, 644, 643, 642, 646, 641, 643, 641, 643, 644, 645, 646, 641, 641, 644, 646, 643, 645, 644, 644, 645, 641, 643, 639, 644, 640, 645, 646, 641, 642],
      "WindowCenter": [455.0, 455.0, 455.0, 455.0, 455.0, 455.0, 455.0, 455.0, 455.0, 455.0, 455.0, 455.0, 455.0, 455.0, 455.0, 455.0, 455.0, 455.0, 455.0, 455.0, 455.0, 455.0, 455.0, 455.0, 455.0, 455.0, 455.0, 455.0, 454.0, 455.0, 455.0, 455.0, 455.0, 455.0, 455.0, 455.0, 454.0, 455.0, 455.0, 455.0, 455.0, 455.0, 455.0, 454.0, 455.0, 455.0, 455.0, 455.0, 455.0, 454.0, 455.0, 454.0, 454.0, 455.0, 455.0, 455.0, 454.0, 454.0, 455.0, 454.0, 455.0, 454.0, 454.0, 455.0, 454.0, 454.0, 455.0, 454.0, 454.0, 455.0, 455.0, 455.0, 455.0, 454.0, 454.0, 454.0, 454.0, 455.0, 455.0, 454.0, 454.0, 454.0, 454.0, 454.0, 454.0, 454.0, 454.0, 454.0, 454.0, 454.0, 454.0, 454.0, 455.0, 455.0, 454.0, 454.0, 455.0, 454.0, 455.0, 455.0, 454.0, 454.0, 454.0, 454.0, 454.0, 454.0, 454.0, 454.0, 454.0, 454.0, 454.0, 454.0, 454.0, 454.0, 454.0, 454.0, 454.0, 454.0, 454.0, 454.0, 454.0, 454.0, 454.0, 454.0, 454.0, 454.0, 454.0, 454.0, 454.0, 454.0, 454.0, 454.0, 454.0, 454.0, 454.0, 454.0, 454.0, 454.0, 454.0, 454.0, 454.0, 454.0, 454.0, 454.0, 454.0, 454.0, 454.0, 454.0, 454.0, 454.0, 454.0, 454.0, 454.0, 454.0, 454.0, 454.0, 454.0, 454.0, 454.0, 454.0, 454.0, 454.0, 454.0, 454.0, 454.0, 454.0, 454.0, 454.0, 454.0, 454.0, 454.0, 454.0, 454.0, 454.0, 454.0, 454.0, 454.0, 454.0, 454.0, 454.0, 454.0, 453.0, 454.0, 454.0, 454.0, 454.0, 454.0, 454.0, 454.0, 454.0, 454.0, 454.0, 454.0, 454.0, 454.0, 454.0, 453.0, 453.0, 453.0, 454.0],
      "WindowWidth": [947.0, 947.0, 947.0, 946.0, 946.0, 946.0, 946.0, 946.0, 947.0, 947.0, 946.0, 946.0, 946.0, 946.0, 946.0, 946.0, 946.0, 946.0, 946.0, 946.0, 946.0, 946.0, 946.0, 946.0, 946.0, 946.0, 946.0, 946.0, 945.0, 946.0, 946.0, 946.0, 946.0, 946.0, 946.0, 946.0, 945.0, 946.0, 946.0, 946.0, 946.0, 946.0, 946.0, 945.0, 946.0, 946.0, 946.0, 946.0, 946.0, 945.0, 946.0, 945.0, 945.0, 946.0, 946.0, 946.0, 945.0, 945.0, 946.0, 945.0, 946.0, 945.0, 945.0, 946.0, 945.0, 945.0, 946.0, 945.0, 945.0, 946.0, 946.0, 946.0, 946.0, 945.0, 945.0, 945.0, 945.0, 946.0, 946.0, 945.0, 945.0, 945.0, 945.0, 945.0, 945.0, 945.0, 945.0, 945.0, 945.0, 945.0, 945.0, 945.0, 946.0, 946.0, 945.0, 945.0, 946.0, 945.0, 946.0, 946.0, 945.0, 945.0, 945.0, 945.0, 945.0, 945.0, 945.0, 945.0, 945.0, 945.0, 945.0, 945.0, 945.0, 945.0, 945.0, 945.0, 945.0, 945.0, 945.0, 945.0, 945.0, 945.0, 945.0, 945.0, 945.0, 945.0, 945.0, 945.0, 945.0, 945.0, 945.0, 945.0, 945.0, 945.0, 945.0, 945.0, 944.0, 945.0, 945.0, 945.0, 945.0, 945.0, 945.0, 945.0, 945.0, 945.0, 945.0, 945.0, 945.0, 945.0, 944.0, 944.0, 944.0, 945.0, 945.0, 945.0, 945.0, 944.0, 944.0, 944.0, 945.0, 945.0, 945.0, 945.0, 945.0, 944.0, 944.0, 944.0, 945.0, 945.0, 945.0, 944.0, 945.0, 944.0, 944.0, 944.0, 945.0, 945.0, 945.0, 945.0, 944.0, 944.0, 944.0, 944.0, 945.0, 945.0, 945.0, 944.0, 944.0, 944.0, 944.0, 944.0, 945.0, 945.0, 944.0, 944.0, 944.0, 944.0, 944.0, 944.0]
    },
    "slices": {}
  }
}