{
  "AcquisitionMatrixPE": 122,
  "AcquisitionNumber": 1,
  "AcquisitionTime": "10:17:56.132500",
  "BandwidthPerPixelPhaseEncode": 28.76,
  "BaseResolution": 122,
  "BodyPartExamined": "BRAIN",
  "CoilCombinationMethod": "Adaptive Combine",
  "ConsistencyInfo": "N4_VE11C_LATEST_20160120",
  "ConversionSoftware": "dcm2niix",
  "ConversionSoftwareVersion": "v1.0.20220720",
  "DerivedVendorReportedEchoSpacing": 0.000570008,
  "DeviceSerialNumber": "66112",
  "DiffusionScheme": "Monopolar",
  "DwellTime": 2e-06,
  "EchoTime": 0.075,
  "EchoTrainLength": 61,
  "EffectiveEchoSpacing": 0.000285004,
  "FlipAngle": 90,
  "HeudiconvVersion": "0.13.1",
  "ImageOrientationPatientDICOM": [0.98339, 0.181474, 0.00324889, -0.173575, 0.935055, 0.3091],
  "ImageOrientationText": "Tra>Cor(17.8)>Sag(-3.0)",
  "ImageType": [
    "ORIGINAL",
    "PRIMARY",
    "DIFFUSION",
    "NONE",
    "ND",
    "NORM"
],
  "ImagingFrequency": 123.253,
  "InPlanePhaseEncodingDirectionDICOM": "COL",
  "InstitutionAddress": "Maynard 3,Hanover,NH,US,03755",
  "InstitutionName": "Dartmouth College - PBS",
  "InstitutionalDepartmentName": "Department",
  "MRAcquisitionType": "2D",
  "MagneticFieldStrength": 3,
  "Manufacturer": "Siemens",
  "ManufacturersModelName": "Prisma",
  "MatrixCoilMode": "GRAPPA",
  "Modality": "MR",
  "NonlinearGradientCorrection": false,
  "ParallelReductionFactorInPlane": 2,
  "PartialFourier": 1,
  "PatientPosition": "HFS",
  "PercentPhaseFOV": 100,
  "PercentSampling": 100,
  "PhaseEncodingDirection": "j-",
  "PhaseEncodingSteps": 122,
  "PhaseResolution": 1,
  "PixelBandwidth": 2050,
  "ProcedureStepDescription": "dbic^QA",
  "ProtocolName": "dwi_acq-DTI-30-p2",
  "PulseSequenceDetails": "%SiemensSeq%\\ep2d_diff",
  "ReceiveCoilActiveElements": "HEA;HEP",
  "ReceiveCoilName": "Head_32",
  "ReconMatrixPE": 122,
  "RefLinesPE": 38,
  "RepetitionTime": 7.7,
  "SAR": 0.10183,
  "ScanOptions": "FS",
  "ScanningSequence": "EP",
  "SequenceName": "*ep_b0",
  "SequenceVariant": "SK\\SP",
  "SeriesDescription": "dwi_acq-DTI-30-p2",
  "SeriesNumber": 8,
  "ShimSetting": [4149, -7701, -7504, 472, -28, 54, -92, 110],
  "SliceThickness": 2,
  "SliceTiming": [3.84375, 0, 3.95312, 0.11719, 4.0625, 0.22656, 4.17188, 0.33594, 4.28125, 0.44531, 4.39062, 0.55469, 4.5, 0.66406, 4.60938, 0.77344, 4.71875, 0.88281, 4.82812, 0.99219, 4.9375, 1.10156, 5.05469, 1.21094, 5.16406, 1.32031, 5.27344, 1.42969, 5.375, 1.53906, 5.49219, 1.64844, 5.60156, 1.75781, 5.71094, 1.86719, 5.82031, 1.97656, 5.92969, 2.08594, 6.03906, 2.19531, 6.14844, 2.30469, 6.25781, 2.42188, 6.36719, 2.52344, 6.47656, 2.63281, 6.58594, 2.74219, 6.69531, 2.85938, 6.80469, 2.96875, 6.91406, 3.07812, 7.02344, 3.1875, 7.13281, 3.29688, 7.24219, 3.40625, 7.35156, 3.51562, 7.46094, 3.625, 7.57031, 3.73438],
  "SoftwareVersions": "syngo MR E11",
  "SpacingBetweenSlices": 2,
  "SpoilingState": true,
  "StationName": "AWP66112",
  "TotalReadoutTime": 0.0344855,
  "TxRefAmp": 240.947,
  "dcmmeta_affine": [
    [-1.9345386028289795, -0.3414594531059265, -0.10611128807067871, 149.16006469726562],
    [-0.35699746012687683, 1.8394533395767212, 0.6090602874755859, -106.8558120727539],
    [0.0063912649638950825, -0.6080660223960876, 1.9020462036132812, -46.00015640258789],
    [0.0, 0.0, 0.0, 1.0]
],
  "dcmmeta_reorient_transform": [
    [0.0, -1.0, 0.0, 121.0],
    [1.0, 0.0, 0.0, 0.0],
    [0.0, 0.0, -1.0, 69.0],
    [0.0, 0.0, 0.0, 1.0]
],
  "dcmmeta_shape": [122, 122, 70, 31],
  "dcmmeta_slice_dim": 2,
  "dcmmeta_version": 0.6,
  "global": {
    "const": {
      "AccessionNumber": "qa",
      "AcquisitionMatrix": [122, 0, 0, 122],
      "AngioFlag": "N",
      "BitsAllocated": 16,
      "BitsStored": 12,
      "BodyPartExamined": "BRAIN",
      "Columns": 122,
      "EchoNumbers": 1,
      "EchoTime": 75.0,
      "EchoTrainLength": 61,
      "FlipAngle": 90.0,
      "HighBit": 11,
      "ImageOrientationPatient": [0.98339042962975, 0.18147371051451, 0.00324889284341, -0.1735752259283, 0.93505545265564, 0.30910021255717],
      "ImageType": [
        "ORIGINAL",
        "PRIMARY",
        "DIFFUSION",
        "NONE",
        "ND",
        "NORM"
],
      "ImagedNucleus": "1H",
      "ImagingFrequency": 123.252581,
      "InPlanePhaseEncodingDirection": "COL",
      "MRAcquisitionType": "2D",
      "MagneticFieldStrength": 3.0,
      "Manufacturer": "SIEMENS",
      "ManufacturerModelName": "Prisma",
      "Modality": "MR",
      "NumberOfAverages": 1.0,
      "NumberOfPhaseEncodingSteps": 122,
      "PercentPhaseFieldOfView": 100.0,
      "PercentSampling": 100.0,
      "PerformedProcedureStepStartTime": "095836.725000",
      "PhotometricInterpretation": "MONOCHROME2",
      "PixelBandwidth": 2050.0,
      "PixelRepresentation": 0,
      "PixelSpacing": [1.9672131538391, 1.9672131538391],
      "ProtocolName": "dwi_acq-DTI-30-p2",
      "RepetitionTime": 7700.0,
      "Rows": 122,
      "SAR": 0.10182976575981,
      "SamplesPerPixel": 1,
      "ScanOptions": "FS",
      "ScanningSequence": "EP",
      "SequenceVariant": [
        "SK",
        "SP"
],
      "SeriesDescription": "dwi_acq-DTI-30-p2",
      "SeriesNumber": 8,
      "SeriesTime": "101809.311000",
      "SliceThickness": 2.0,
      "SmallestImagePixelValue": 0,
      "SoftwareVersions": "syngo MR E11",
      "SpacingBetweenSlices": 2.0,
      "SpecificCharacterSet": "ISO_IR 100",
      "StudyID": "101",
      "StudyTime": "095836.632000",
      "TransmitCoilName": "Body",
      "VariableFlipAngleFlag": "N",
      "WindowCenterWidthExplanation": "Algo1",
      "dBdt": 0.0},
    "slices": {
      "AcquisitionTime": ["101756.132500", "101752.292500", "101756.242500", "101752.402500", "101756.352500", "101752.512500", "101756.462500", "101752.622500", "101756.572500", "101752.732500", "101756.682500", "101752.842500", "101756.790000", "101752.950000", "101756.900000", "101753.060000", "101757.010000", "101753.170000", "101757.120000", "101753.280000", "101757.230000", "101753.390000", "101757.340000", "101753.500000", "101757.450000", "101753.610000", "101757.560000", "101753.720000", "101757.667500", "101753.830000", "101757.777500", "101753.937500", "101757.887500", "101754.047500", "101757.997500", "101754.157500", "101758.107500", "101754.267500", "101758.217500", "101754.377500", "101758.327500", "101754.487500", "101758.437500", "101754.597500", "101758.547500", "101754.707500", "101758.655000", "101754.815000", "101758.765000", "101754.925000", "101758.875000", "101755.035000", "101758.985000", "101755.145000", "101759.095000", "101755.255000", "101759.205000", "101755.365000", "101759.315000", "101755.475000", "101759.425000", "101755.585000", "101759.535000", "101755.695000", "101759.642500", "101755.802500", "101759.752500", "101755.912500", "101759.862500", "101756.022500", "101803.832500", "101759.992500", "101803.942500", "101800.102500", "101804.052500", "101800.212500", "101804.162500", "101800.322500", "101804.272500", "101800.432500", "101804.382500", "101800.542500", "101804.490000", "101800.650000", "101804.600000", "101800.760000", "101804.710000", "101800.870000", "101804.820000", "101800.980000", "101804.930000", "101801.090000", "101805.040000", "101801.200000", "101805.150000", "101801.310000", "101805.260000", "101801.420000", "101805.367500", "101801.530000", "101805.477500", "101801.637500", "101805.587500", "101801.747500", "101805.697500", "101801.857500", "101805.807500", "101801.967500", "101805.917500", "101802.077500", "101806.027500", "101802.187500", "101806.137500", "101802.297500", "101806.247500", "101802.407500", "101806.355000", "101802.515000", "101806.465000", "101802.625000", "101806.575000", "101802.735000", "101806.685000", "101802.845000", "101806.795000", "101802.955000", "101806.905000", "101803.065000", "101807.015000", "101803.175000", "101807.125000", "101803.285000", "101807.235000", "101803.395000", "101807.342500", "101803.502500", "101807.452500", "101803.612500", "101807.562500", "101803.722500", "101811.532500", "101807.692500", "101811.642500", "101807.802500", "101811.752500", "101807.912500", "101811.862500", "101808.022500", "101811.972500", "101808.132500", "101812.082500", "101808.242500", "101812.190000", "101808.350000", "101812.300000", "101808.460000", "101812.410000", "101808.570000", "101812.520000", "101808.680000", "101812.630000", "101808.790000", "101812.740000", "101808.900000", "101812.850000", "101809.010000", "101812.960000", "101809.120000", "101813.067500", "101809.230000", "101813.177500", "101809.337500", "101813.287500", "101809.447500", "101813.397500", "101809.557500", "101813.507500", "101809.667500", "101813.617500", "101809.777500", "101813.727500", "101809.887500", "101813.837500", "101809.997500", "101813.947500", "101810.107500", "101814.055000", "101810.215000", "101814.165000", "101810.325000", "101814.275000", "101810.435000", "101814.385000", "101810.545000", "101814.495000", "101810.655000", "101814.605000", "101810.765000", "101814.715000", "101810.875000", "101814.825000", "101810.985000", "101814.935000", "101811.095000", "101815.042500", "101811.202500", "101815.152500", "101811.312500", "101815.262500", "101811.422500", "101819.232500", "101815.392500", "101819.342500", "101815.502500", "101819.452500", "101815.612500", "101819.562500", "101815.722500", "101819.672500", "101815.832500", "101819.782500", "101815.942500", "101819.890000", "101816.050000", "101820.000000", "101816.160000", "101820.110000", "101816.270000", "101820.220000", "101816.380000", "101820.330000", "101816.490000", "101820.440000", "101816.600000", "101820.550000", "101816.710000", "101820.660000", "101816.820000", "101820.767500", "101816.930000", "101820.877500", "101817.037500", "101820.987500", "101817.147500", "101821.097500", "101817.257500", "101821.207500", "101817.367500", "101821.317500", "101817.477500", "101821.427500", "101817.587500", "101821.537500", "101817.697500", "101821.647500", "101817.807500", "101821.755000", "101817.915000", "101821.865000", "101818.025000", "101821.975000", "101818.135000", "101822.085000", "101818.245000", "101822.195000", "101818.355000", "101822.305000", "101818.465000", "101822.415000", "101818.575000", "101822.525000", "101818.685000", "101822.635000", "101818.795000", "101822.742500", "101818.902500", "101822.852500", "101819.012500", "101822.962500", "101819.122500", "101826.932500", "101823.092500", "101827.042500", "101823.202500", "101827.152500", "101823.312500", "101827.262500", "101823.422500", "101827.372500", "101823.532500", "101827.482500", "101823.642500", "101827.590000", "101823.750000", "101827.700000", "101823.860000", "101827.810000", "101823.970000", "101827.920000", "101824.080000", "101828.030000", "101824.190000", "101828.140000", "101824.300000", "101828.250000", "101824.410000", "101828.360000", "101824.520000", "101828.467500", "101824.630000", "101828.577500", "101824.737500", "101828.687500", "101824.847500", "101828.797500", "101824.957500", "101828.907500", "101825.067500", "101829.017500", "101825.177500", "101829.127500", "101825.287500", "101829.237500", "101825.397500", "101829.347500", "101825.507500", "101829.455000", "101825.615000", "101829.565000", "101825.725000", "101829.675000", "101825.835000", "101829.785000", "101825.945000", "101829.895000", "101826.055000", "101830.005000", "101826.165000", "101830.115000", "101826.275000", "101830.225000", "101826.385000", "101830.335000", "101826.495000", "101830.442500", "101826.602500", "101830.552500", "101826.712500", "101830.662500", "101826.822500", "101834.632500", "101830.792500", "101834.742500", "101830.902500", "101834.852500", "101831.012500", "101834.962500", "101831.122500", "101835.072500", "101831.232500", "101835.182500", "101831.342500", "101835.290000", "101831.450000", "101835.400000", "101831.560000", "101835.510000", "101831.670000", "101835.620000", "101831.780000", "101835.730000", "101831.890000", "101835.840000", "101832.000000", "101835.950000", "101832.110000", "101836.060000", "101832.220000", "101836.167500", "101832.330000", "101836.277500", "101832.437500", "101836.387500", "101832.547500", "101836.497500", "101832.657500", "101836.607500", "101832.767500", "101836.717500", "101832.877500", "101836.827500", "101832.987500", "101836.937500", "101833.097500", "101837.047500", "101833.207500", "101837.155000", "101833.315000", "101837.265000", "101833.425000", "101837.375000", "101833.535000", "101837.485000", "101833.645000", "101837.595000", "101833.755000", "101837.705000", "101833.865000", "101837.815000", "101833.975000", "101837.925000", "101834.085000", "101838.035000", "101834.195000", "101838.142500", "101834.302500", "101838.252500", "101834.412500", "101838.362500", "101834.522500", "101842.332500", "101838.492500", "101842.442500", "101838.602500", "101842.552500", "101838.712500", "101842.662500", "101838.822500", "101842.772500", "101838.932500", "101842.882500", "101839.042500", "101842.990000", "101839.150000", "101843.100000", "101839.260000", "101843.210000", "101839.370000", "101843.320000", "101839.480000", "101843.430000", "101839.590000", "101843.540000", "101839.700000", "101843.650000", "101839.810000", "101843.760000", "101839.920000", "101843.867500", "101840.030000", "101843.977500", "101840.137500", "101844.087500", "101840.247500", "101844.197500", "101840.357500", "101844.307500", "101840.467500", "101844.417500", "101840.577500", "101844.527500", "101840.687500", "101844.637500", "101840.797500", "101844.747500", "101840.907500", "101844.855000", "101841.015000", "101844.965000", "101841.125000", "101845.075000", "101841.235000", "101845.185000", "101841.345000", "101845.295000", "101841.455000", "101845.405000", "101841.565000", "101845.515000", "101841.675000", "101845.625000", "101841.785000", "101845.735000", "101841.895000", "101845.842500", "101842.002500", "101845.952500", "101842.112500", "101846.062500", "101842.222500", "101850.032500", "101846.192500", "101850.142500", "101846.302500", "101850.252500", "101846.412500", "101850.362500", "101846.522500", "101850.472500", "101846.632500", "101850.582500", "101846.742500", "101850.690000", "101846.850000", "101850.800000", "101846.960000", "101850.910000", "101847.070000", "101851.020000", "101847.180000", "101851.130000", "101847.290000", "101851.240000", "101847.400000", "101851.350000", "101847.510000", "101851.460000", "101847.620000", "101851.567500", "101847.730000", "101851.677500", "101847.837500", "101851.787500", "101847.947500", "101851.897500", "101848.057500", "101852.007500", "101848.167500", "101852.117500", "101848.277500", "101852.227500", "101848.387500", "101852.337500", "101848.497500", "101852.447500", "101848.607500", "101852.555000", "101848.715000", "101852.665000", "101848.825000", "101852.775000", "101848.935000", "101852.885000", "101849.045000", "101852.995000", "101849.155000", "101853.105000", "101849.265000", "101853.215000", "101849.375000", "101853.325000", "101849.485000", "101853.435000", "101849.595000", "101853.542500", "101849.702500", "101853.652500", "101849.812500", "101853.762500", "101849.922500", "101857.732500", "101853.892500", "101857.842500", "101854.002500", "101857.952500", "101854.112500", "101858.062500", "101854.222500", "101858.172500", "101854.332500", "101858.282500", "101854.442500", "101858.390000", "101854.550000", "101858.500000", "101854.660000", "101858.610000", "101854.770000", "101858.720000", "101854.880000", "101858.830000", "101854.990000", "101858.940000", "101855.100000", "101859.050000", "101855.210000", "101859.160000", "101855.320000", "101859.267500", "101855.430000", "101859.377500", "101855.537500", "101859.487500", "101855.647500", "101859.597500", "101855.757500", "101859.707500", "101855.867500", "101859.817500", "101855.977500", "101859.927500", "101856.087500", "101900.037500", "101856.197500", "101900.147500", "101856.307500", "101900.255000", "101856.415000", "101900.365000", "101856.525000", "101900.475000", "101856.635000", "101900.585000", "101856.745000", "101900.695000", "101856.855000", "101900.805000", "101856.965000", "101900.915000", "101857.075000", "101901.025000", "101857.185000", "101901.135000", "101857.295000", "101901.242500", "101857.402500", "101901.352500", "101857.512500", "101901.462500", "101857.622500", "101905.432500", "101901.592500", "101905.542500", "101901.702500", "101905.652500", "101901.812500", "101905.762500", "101901.922500", "101905.872500", "101902.032500", "101905.982500", "101902.142500", "101906.090000", "101902.250000", "101906.200000", "101902.360000", "101906.310000", "101902.470000", "101906.420000", "101902.580000", "101906.530000", "101902.690000", "101906.640000", "101902.800000", "101906.750000", "101902.910000", "101906.860000", "101903.020000", "101906.967500", "101903.130000", "101907.077500", "101903.237500", "101907.187500", "101903.347500", "101907.297500", "101903.457500", "101907.407500", "101903.567500", "101907.517500", "101903.677500", "101907.627500", "101903.787500", "101907.737500", "101903.897500", "101907.847500", "101904.007500", "101907.955000", "101904.115000", "101908.065000", "101904.225000", "101908.175000", "101904.335000", "101908.285000", "101904.445000", "101908.395000", "101904.555000", "101908.505000", "101904.665000", "101908.615000", "101904.775000", "101908.725000", "101904.885000", "101908.835000", "101904.995000", "101908.942500", "101905.102500", "101909.052500", "101905.212500", "101909.162500", "101905.322500", "101913.132500", "101909.292500", "101913.242500", "101909.402500", "101913.352500", "101909.512500", "101913.462500", "101909.622500", "101913.572500", "101909.732500", "101913.682500", "101909.842500", "101913.790000", "101909.950000", "101913.900000", "101910.060000", "101914.010000", "101910.170000", "101914.120000", "101910.280000", "101914.230000", "101910.390000", "101914.340000", "101910.500000", "101914.450000", "101910.610000", "101914.560000", "101910.720000", "101914.667500", "101910.830000", "101914.777500", "101910.937500", "101914.887500", "101911.047500", "101914.997500", "101911.157500", "101915.107500", "101911.267500", "101915.217500", "101911.377500", "101915.327500", "101911.487500", "101915.437500", "101911.597500", "101915.547500", "101911.707500", "101915.655000", "101911.815000", "101915.765000", "101911.925000", "101915.875000", "101912.035000", "101915.985000", "101912.145000", "101916.095000", "101912.255000", "101916.205000", "101912.365000", "101916.315000", "101912.475000", "101916.425000", "101912.585000", "101916.535000", "101912.695000", "101916.642500", "101912.802500", "101916.752500", "101912.912500", "101916.862500", "101913.022500", "101920.832500", "101916.992500", "101920.942500", "101917.102500", "101921.052500", "101917.212500", "101921.162500", "101917.322500", "101921.272500", "101917.432500", "101921.382500", "101917.542500", "101921.490000", "101917.650000", "101921.600000", "101917.760000", "101921.710000", "101917.870000", "101921.820000", "101917.980000", "101921.930000", "101918.090000", "101922.040000", "101918.200000", "101922.150000", "101918.310000", "101922.260000", "101918.420000", "101922.367500", "101918.530000", "101922.477500", "101918.637500", "101922.587500", "101918.747500", "101922.697500", "101918.857500", "101922.807500", "101918.967500", "101922.917500", "101919.077500", "101923.027500", "101919.187500", "101923.137500", "101919.297500", "101923.247500", "101919.407500", "101923.355000", "101919.515000", "101923.465000", "101919.625000", "101923.575000", "101919.735000", "101923.685000", "101919.845000", "101923.795000", "101919.955000", "101923.905000", "101920.065000", "101924.015000", "101920.175000", "101924.125000", "101920.285000", "101924.235000", "101920.395000", "101924.342500", "101920.502500", "101924.452500", "101920.612500", "101924.562500", "101920.722500", "101928.532500", "101924.692500", "101928.642500", "101924.802500", "101928.752500", "101924.912500", "101928.862500", "101925.022500", "101928.972500", "101925.132500", "101929.082500", "101925.242500", "101929.190000", "101925.350000", "101929.300000", "101925.460000", "101929.410000", "101925.570000", "101929.520000", "101925.680000", "101929.630000", "101925.790000", "101929.740000", "101925.900000", "101929.850000", "101926.010000", "101929.960000", "101926.120000", "101930.067500", "101926.230000", "101930.177500", "101926.337500", "101930.287500", "101926.447500", "101930.397500", "101926.557500", "101930.507500", "101926.667500", "101930.617500", "101926.777500", "101930.727500", "101926.887500", "101930.837500", "101926.997500", "101930.947500", "101927.107500", "101931.055000", "101927.215000", "101931.165000", "101927.325000", "101931.275000", "101927.435000", "101931.385000", "101927.545000", "101931.495000", "101927.655000", "101931.605000", "101927.765000", "101931.715000", "101927.875000", "101931.825000", "101927.985000", "101931.935000", "101928.095000", "101932.042500", "101928.202500", "101932.152500", "101928.312500", "101932.262500", "101928.422500", "101936.232500", "101932.392500", "101936.342500", "101932.502500", "101936.452500", "101932.612500", "101936.562500", "101932.722500", "101936.672500", "101932.832500", "101936.782500", "101932.942500", "101936.890000", "101933.050000", "101937.000000", "101933.160000", "101937.110000", "101933.270000", "101937.220000", "101933.380000", "101937.330000", "101933.490000", "101937.440000", "101933.600000", "101937.550000", "101933.710000", "101937.660000", "101933.820000", "101937.767500", "101933.930000", "101937.877500", "101934.037500", "101937.987500", "101934.147500", "101938.097500", "101934.257500", "101938.207500", "101934.367500", "101938.317500", "101934.477500", "101938.427500", "101934.587500", "101938.537500", "101934.697500", "101938.647500", "101934.807500", "101938.755000", "101934.915000", "101938.865000", "101935.025000", "101938.975000", "101935.135000", "101939.085000", "101935.245000", "101939.195000", "101935.355000", "101939.305000", "101935.465000", "101939.415000", "101935.575000", "101939.525000", "101935.685000", "101939.635000", "101935.795000", "101939.742500", "101935.902500", "101939.852500", "101936.012500", "101939.962500", "101936.122500", "101943.932500", "101940.092500", "101944.042500", "101940.202500", "101944.152500", "101940.312500", "101944.262500", "101940.422500", "101944.372500", "101940.532500", "101944.482500", "101940.642500", "101944.590000", "101940.750000", "101944.700000", "101940.860000", "101944.810000", "101940.970000", "101944.920000", "101941.080000", "101945.030000", "101941.190000", "101945.140000", "101941.300000", "101945.250000", "101941.410000", "101945.360000", "101941.520000", "101945.467500", "101941.630000", "101945.577500", "101941.737500", "101945.687500", "101941.847500", "101945.797500", "101941.957500", "101945.907500", "101942.067500", "101946.017500", "101942.177500", "101946.127500", "101942.287500", "101946.237500", "101942.397500", "101946.347500", "101942.507500", "101946.455000", "101942.615000", "101946.565000", "101942.725000", "101946.675000", "101942.835000", "101946.785000", "101942.945000", "101946.895000", "101943.055000", "101947.005000", "101943.165000", "101947.115000", "101943.275000", "101947.225000", "101943.385000", "101947.335000", "101943.495000", "101947.442500", "101943.602500", "101947.552500", "101943.712500", "101947.662500", "101943.822500", "101951.632500", "101947.792500", "101951.742500", "101947.902500", "101951.852500", "101948.012500", "101951.962500", "101948.122500", "101952.072500", "101948.232500", "101952.182500", "101948.342500", "101952.290000", "101948.450000", "101952.400000", "101948.560000", "101952.510000", "101948.670000", "101952.620000", "101948.780000", "101952.730000", "101948.890000", "101952.840000", "101949.000000", "101952.950000", "101949.110000", "101953.060000", "101949.220000", "101953.167500", "101949.330000", "101953.277500", "101949.437500", "101953.387500", "101949.547500", "101953.497500", "101949.657500", "101953.607500", "101949.767500", "101953.717500", "101949.877500", "101953.827500", "101949.987500", "101953.937500", "101950.097500", "101954.047500", "101950.207500", "101954.155000", "101950.315000", "101954.265000", "101950.425000", "101954.375000", "101950.535000", "101954.485000", "101950.645000", "101954.595000", "101950.755000", "101954.705000", "101950.865000", "101954.815000", "101950.975000", "101954.925000", "101951.085000", "101955.035000", "101951.195000", "101955.142500", "101951.302500", "101955.252500", "101951.412500", "101955.362500", "101951.522500", "101959.332500", "101955.492500", "101959.442500", "101955.602500", "101959.552500", "101955.712500", "101959.662500", "101955.822500", "101959.772500", "101955.932500", "101959.882500", "101956.042500", "101959.990000", "101956.150000", "102000.100000", "101956.260000", "102000.210000", "101956.370000", "102000.320000", "101956.480000", "102000.430000", "101956.590000", "102000.540000", "101956.700000", "102000.650000", "101956.810000", "102000.760000", "101956.920000", "102000.867500", "101957.030000", "102000.977500", "101957.137500", "102001.087500", "101957.247500", "102001.197500", "101957.357500", "102001.307500", "101957.467500", "102001.417500", "101957.577500", "102001.527500", "101957.687500", "102001.637500", "101957.797500", "102001.747500", "101957.907500", "102001.855000", "101958.015000", "102001.965000", "101958.125000", "102002.075000", "101958.235000", "102002.185000", "101958.345000", "102002.295000", "101958.455000", "102002.405000", "101958.565000", "102002.515000", "101958.675000", "102002.625000", "101958.785000", "102002.735000", "101958.895000", "102002.842500", "101959.002500", "102002.952500", "101959.112500", "102003.062500", "101959.222500", "102007.032500", "102003.192500", "102007.142500", "102003.302500", "102007.252500", "102003.412500", "102007.362500", "102003.522500", "102007.472500", "102003.632500", "102007.582500", "102003.742500", "102007.690000", "102003.850000", "102007.800000", "102003.960000", "102007.910000", "102004.070000", "102008.020000", "102004.180000", "102008.130000", "102004.290000", "102008.240000", "102004.400000", "102008.350000", "102004.510000", "102008.460000", "102004.620000", "102008.567500", "102004.730000", "102008.677500", "102004.837500", "102008.787500", "102004.947500", "102008.897500", "102005.057500", "102009.007500", "102005.167500", "102009.117500", "102005.277500", "102009.227500", "102005.387500", "102009.337500", "102005.497500", "102009.447500", "102005.607500", "102009.555000", "102005.715000", "102009.665000", "102005.825000", "102009.775000", "102005.935000", "102009.885000", "102006.045000", "102009.995000", "102006.155000", "102010.105000", "102006.265000", "102010.215000", "102006.375000", "102010.325000", "102006.485000", "102010.435000", "102006.595000", "102010.542500", "102006.702500", "102010.652500", "102006.812500", "102010.762500", "102006.922500", "102014.732500", "102010.892500", "102014.842500", "102011.002500", "102014.952500", "102011.112500", "102015.062500", "102011.222500", "102015.172500", "102011.332500", "102015.282500", "102011.442500", "102015.390000", "102011.550000", "102015.500000", "102011.660000", "102015.610000", "102011.770000", "102015.720000", "102011.880000", "102015.830000", "102011.990000", "102015.940000", "102012.100000", "102016.050000", "102012.210000", "102016.160000", "102012.320000", "102016.267500", "102012.430000", "102016.377500", "102012.537500", "102016.487500", "102012.647500", "102016.597500", "102012.757500", "102016.707500", "102012.867500", "102016.817500", "102012.977500", "102016.927500", "102013.087500", "102017.037500", "102013.197500", "102017.147500", "102013.307500", "102017.255000", "102013.415000", "102017.365000", "102013.525000", "102017.475000", "102013.635000", "102017.585000", "102013.745000", "102017.695000", "102013.855000", "102017.805000", "102013.965000", "102017.915000", "102014.075000", "102018.025000", "102014.185000", "102018.135000", "102014.295000", "102018.242500", "102014.402500", "102018.352500", "102014.512500", "102018.462500", "102014.622500", "102022.432500", "102018.592500", "102022.542500", "102018.702500", "102022.652500", "102018.812500", "102022.762500", "102018.922500", "102022.872500", "102019.032500", "102022.982500", "102019.142500", "102023.090000", "102019.250000", "102023.200000", "102019.360000", "102023.310000", "102019.470000", "102023.420000", "102019.580000", "102023.530000", "102019.690000", "102023.640000", "102019.800000", "102023.750000", "102019.910000", "102023.860000", "102020.020000", "102023.967500", "102020.130000", "102024.077500", "102020.237500", "102024.187500", "102020.347500", "102024.297500", "102020.457500", "102024.407500", "102020.567500", "102024.517500", "102020.677500", "102024.627500", "102020.787500", "102024.737500", "102020.897500", "102024.847500", "102021.007500", "102024.955000", "102021.115000", "102025.065000", "102021.225000", "102025.175000", "102021.335000", "102025.285000", "102021.445000", "102025.395000", "102021.555000", "102025.505000", "102021.665000", "102025.615000", "102021.775000", "102025.725000", "102021.885000", "102025.835000", "102021.995000", "102025.942500", "102022.102500", "102026.052500", "102022.212500", "102026.162500", "102022.322500", "102030.132500", "102026.292500", "102030.242500", "102026.402500", "102030.352500", "102026.512500", "102030.462500", "102026.622500", "102030.572500", "102026.732500", "102030.682500", "102026.842500", "102030.790000", "102026.950000", "102030.900000", "102027.060000", "102031.010000", "102027.170000", "102031.120000", "102027.280000", "102031.230000", "102027.390000", "102031.340000", "102027.500000", "102031.450000", "102027.610000", "102031.560000", "102027.720000", "102031.667500", "102027.830000", "102031.777500", "102027.937500", "102031.887500", "102028.047500", "102031.9975