{
  "AcquisitionMatrixPE": 80,
  "AcquisitionNumber": 1,
  "AcquisitionTime": "10:08:19.132500",
  "BandwidthPerPixelPhaseEncode": 44.643,
  "BaseResolution": 80,
  "BodyPartExamined": "BRAIN",
  "CoilCombinationMethod": "Sum of Squares",
  "ConsistencyInfo": "N4_VE11C_LATEST_20160120",
  "ConversionSoftware": "dcm2niix",
  "ConversionSoftwareVersion": "v1.0.20220720",
  "DerivedVendorReportedEchoSpacing": 0.000559998,
  "DeviceSerialNumber": "66112",
  "DwellTime": 2.7e-06,
  "EchoTime": 0.035,
  "EchoTrainLength": 39,
  "EffectiveEchoSpacing": 0.000279999,
  "FlipAngle": 90,
  "HeudiconvVersion": "0.13.1",
  "ImageOrientationPatientDICOM": [0.98339, 0.181474, 0.00324889, -0.173575, 0.935055, 0.3091],
  "ImageOrientationText": "Tra>Cor(17.8)>Sag(-3.0)",
  "ImageType": [
    "ORIGINAL",
    "PRIMARY",
    "M",
    "ND",
    "NORM",
    "MOSAIC"
],
  "ImagingFrequency": 123.253,
  "InPlanePhaseEncodingDirectionDICOM": "COL",
  "InstitutionAddress": "Maynard 3,Hanover,NH,US,03755",
  "InstitutionName": "Dartmouth College - PBS",
  "InstitutionalDepartmentName": "Department",
  "MRAcquisitionType": "2D",
  "MagneticFieldStrength": 3,
  "Manufacturer": "Siemens",
  "ManufacturersModelName": "Prisma",
  "Modality": "MR",
  "MultibandAccelerationFactor": 4,
  "NonlinearGradientCorrection": false,
  "ParallelReductionFactorInPlane": 2,
  "PartialFourier": 1,
  "PatientPosition": "HFS",
  "PercentPhaseFOV": 100,
  "PercentSampling": 100,
  "PhaseEncodingDirection": "j-",
  "PhaseEncodingSteps": 79,
  "PhaseResolution": 1,
  "PixelBandwidth": 2315,
  "ProcedureStepDescription": "dbic^QA",
  "ProtocolName": "func-bold_task-rest_acq-p2-s4-3.5mm",
  "PulseSequenceDetails": "%SiemensSeq%\\ep2d_bold",
  "ReceiveCoilActiveElements": "HEA;HEP",
  "ReceiveCoilName": "Head_32",
  "ReconMatrixPE": 80,
  "RefLinesPE": 24,
  "RepetitionTime": 2,
  "SAR": 0.0209019,
  "ScanOptions": "FS",
  "ScanningSequence": "EP",
  "SequenceName": "*epfid2d1_80",
  "SequenceVariant": "SK",
  "SeriesDescription": "func-bold_task-rest_acq-p2-s4-3.5mm",
  "SeriesNumber": 7,
  "ShimSetting": [4149, -7701, -7506, 478, -29, 51, -94, 109],
  "SliceThickness": 3.5,
  "SliceTiming": [1.485, 0, 0.99, 0.2475, 1.2375, 0.7425, 1.7325, 0.495, 1.485, 0, 0.99, 0.2475, 1.2375, 0.7425, 1.7325, 0.495, 1.485, 0, 0.99, 0.2475, 1.2375, 0.7425, 1.7325, 0.495, 1.485, 0, 0.99, 0.2475, 1.2375, 0.7425, 1.7325, 0.495],
  "SoftwareVersions": "syngo MR E11",
  "SpacingBetweenSlices": 3.99,
  "StationName": "AWP66112",
  "TaskName": "rest",
  "TotalReadoutTime": 0.0221199,
  "TxRefAmp": 240.947,
  "dcmmeta_affine": [
    [-2.9501712322235107, -0.520725667476654, -0.21169212460517883, 148.60118103027344],
    [-0.5444211363792419, 2.805166244506836, 1.2150752544403076, -103.711181640625],
    [0.009746678173542023, -0.9273006319999695, 3.7945854663848877, -39.514930725097656],
    [0.0, 0.0, 0.0, 1.0]
],
  "dcmmeta_reorient_transform": [
    [0.0, -1.0, 0.0, 79.0],
    [1.0, 0.0, 0.0, 0.0],
    [0.0, 0.0, 1.0, 0.0],
    [0.0, 0.0, 0.0, 1.0]
],
  "dcmmeta_shape": [80, 80, 32, 200],
  "dcmmeta_slice_dim": 2,
  "dcmmeta_version": 0.6,
  "global": {
    "const": {
      "AccessionNumber": "qa",
      "AcquisitionMatrix": [80, 0, 0, 80],
      "AngioFlag": "N",
      "BitsAllocated": 16,
      "BitsStored": 12,
      "BodyPartExamined": "BRAIN",
      "Columns": 480,
      "EchoNumbers": 1,
      "EchoTime": 35.0,
      "EchoTrainLength": 39,
      "FlipAngle": 90.0,
      "HighBit": 11,
      "ImageOrientationPatient": [0.98339042962975, 0.18147371051451, 0.00324889284341, -0.1735752259283, 0.93505545265564, 0.30910021255717],
      "ImagePositionPatient": [-593.35297934174, -787.81445726034, -300.1811431809],
      "ImageType": [
        "ORIGINAL",
        "PRIMARY",
        "M",
        "ND",
        "NORM",
        "MOSAIC"
],
      "ImagedNucleus": "1H",
      "ImagingFrequency": 123.252581,
      "InPlanePhaseEncodingDirection": "COL",
      "MRAcquisitionType": "2D",
      "MagneticFieldStrength": 3.0,
      "Manufacturer": "SIEMENS",
      "ManufacturerModelName": "Prisma",
      "Modality": "MR",
      "NumberOfAverages": 1.0,
      "NumberOfPhaseEncodingSteps": 79,
      "PercentPhaseFieldOfView": 100.0,
      "PercentSampling": 100.0,
      "PerformedProcedureStepStartTime": "095836.725000",
      "PhotometricInterpretation": "MONOCHROME2",
      "PixelBandwidth": 2315.0,
      "PixelRepresentation": 0,
      "PixelSpacing": [3.0, 3.0],
      "ProtocolName": "func-bold_task-rest_acq-p2-s4-3.5mm",
      "RepetitionTime": 2000.0,
      "Rows": 480,
      "SAR": 0.0209018620228,
      "SamplesPerPixel": 1,
      "ScanOptions": "FS",
      "ScanningSequence": "EP",
      "SequenceName": "*epfid2d1_80",
      "SequenceVariant": "SK",
      "SeriesDescription": "func-bold_task-rest_acq-p2-s4-3.5mm",
      "SeriesNumber": 7,
      "SeriesTime": "100909.374000",
      "SliceLocation": -77.046957243287,
      "SliceThickness": 3.5,
      "SmallestImagePixelValue": 0,
      "SoftwareVersions": "syngo MR E11",
      "SpacingBetweenSlices": 3.9900001207421,
      "SpecificCharacterSet": "ISO_IR 100",
      "StudyID": "101",
      "StudyTime": "095836.632000",
      "TransmitCoilName": "Body",
      "VariableFlipAngleFlag": "N",
      "WindowCenterWidthExplanation": "Algo1",
      "dBdt": 0.0},
    "slices": {}
  },
  "time": {
    "samples": {
      "AcquisitionNumber": [1, 2, 3, 4, 5, 6, 7, 8, 9, 10, 11, 12, 13, 14, 15, 16, 17, 18, 19, 20, 21, 22, 23, 24, 25, 26, 27, 28, 29, 30, 31, 32, 33, 34, 35, 36, 37, 38, 39, 40, 41, 42, 43, 44, 45, 46, 47, 48, 49, 50, 51, 52, 53, 54, 55, 56, 57, 58, 59, 60, 61, 62, 63, 64, 65, 66, 67, 68, 69, 70, 71, 72, 73, 74, 75, 76, 77, 78, 79, 80, 81, 82, 83, 84, 85, 86, 87, 88, 89, 90, 91, 92, 93, 94, 95, 96, 97, 98, 99, 100, 101, 102, 103, 104, 105, 106, 107, 108, 109, 110, 111, 112, 113, 114, 115, 116, 117, 118, 119, 120, 121, 122, 123, 124, 125, 126, 127, 128, 129, 130, 131, 132, 133, 134, 135, 136, 137, 138, 139, 140, 141, 142, 143, 144, 145, 146, 147, 148, 149, 150, 151, 152, 153, 154, 155, 156, 157, 158, 159, 160, 161, 162, 163, 164, 165, 166, 167, 168, 169, 170, 171, 172, 173, 174, 175, 176, 177, 178, 179, 180, 181, 182, 183, 184, 185, 186, 187, 188, 189, 190, 191, 192, 193, 194, 195, 196, 197, 198, 199, 200],
      "AcquisitionTime": ["100819.132500", "100821.132500", "100823.132500", "100825.132500", "100827.132500", "100829.132500", "100831.132500", "100833.132500", "100835.132500", "100837.132500", "100839.132500", "100841.132500", "100843.132500", "100845.132500", "100847.132500", "100849.132500", "100851.132500", "100853.132500", "100855.132500", "100857.132500", "100859.132500", "100901.132500", "100903.132500", "100905.132500", "100907.132500", "100909.132500", "100911.132500", "100913.132500", "100915.132500", "100917.132500", "100919.132500", "100921.132500", "100923.132500", "100925.132500", "100927.132500", "100929.132500", "100931.132500", "100933.132500", "100935.132500", "100937.132500", "100939.132500", "100941.132500", "100943.132500", "100945.132500", "100947.132500", "100949.132500", "100951.132500", "100953.132500", "100955.132500", "100957.132500", "100959.132500", "101001.132500", "101003.132500", "101005.132500", "101007.132500", "101009.132500", "101011.132500", "101013.132500", "101015.132500", "101017.132500", "101019.132500", "101021.132500", "101023.132500", "101025.132500", "101027.132500", "101029.132500", "101031.132500", "101033.132500", "101035.132500", "101037.132500", "101039.132500", "101041.132500", "101043.132500", "101045.132500", "101047.132500", "101049.132500", "101051.132500", "101053.132500", "101055.132500", "101057.132500", "101059.132500", "101101.132500", "101103.132500", "101105.132500", "101107.132500", "101109.132500", "101111.132500", "101113.132500", "101115.132500", "101117.132500", "101119.132500", "101121.132500", "101123.132500", "101125.132500", "101127.132500", "101129.132500", "101131.132500", "101133.132500", "101135.132500", "101137.132500", "101139.132500", "101141.132500", "101143.132500", "101145.132500", "101147.132500", "101149.132500", "101151.132500", "101153.132500", "101155.132500", "101157.132500", "101159.132500", "101201.132500", "101203.132500", "101205.132500", "101207.132500", "101209.132500", "101211.132500", "101213.132500", "101215.132500", "101217.132500", "101219.132500", "101221.132500", "101223.132500", "101225.132500", "101227.132500", "101229.132500", "101231.132500", "101233.132500", "101235.132500", "101237.132500", "101239.132500", "101241.132500", "101243.132500", "101245.132500", "101247.132500", "101249.132500", "101251.132500", "101253.132500", "101255.132500", "101257.132500", "101259.132500", "101301.132500", "101303.132500", "101305.132500", "101307.132500", "101309.132500", "101311.132500", "101313.132500", "101315.132500", "101317.132500", "101319.132500", "101321.132500", "101323.132500", "101325.132500", "101327.132500", "101329.132500", "101331.132500", "101333.132500", "101335.132500", "101337.132500", "101339.132500", "101341.132500", "101343.132500", "101345.132500", "101347.132500", "101349.132500", "101351.132500", "101353.132500", "101355.132500", "101357.132500", "101359.132500", "101401.132500", "101403.132500", "101405.132500", "101407.132500", "101409.132500", "101411.132500", "101413.132500", "101415.132500", "101417.132500", "101419.132500", "101421.132500", "101423.132500", "101425.132500", "101427.132500", "101429.132500", "101431.132500", "101433.132500", "101435.132500", "101437.132500", "101439.132500", "101441.132500", "101443.132500", "101445.132500", "101447.132500", "101449.132500", "101451.132500", "101453.132500", "101455.132500", "101457.132500"],
      "ContentTime": ["100909.385000", "100909.389000", "100909.391000", "100909.394000", "100909.396000", "100909.399000", "100909.401000", "100909.404000", "100909.406000", "100909.409000", "100909.411000", "100909.414000", "100909.416000", "100909.429000", "100909.431000", "100909.434000", "100909.436000", "100909.442000", "100909.444000", "100909.447000", "100909.450000", "100909.452000", "100949.372000", "100949.375000", "100949.378000", "100949.380000", "100949.383000", "100949.386000", "100949.388000", "100949.391000", "100949.393000", "100949.396000", "100949.398000", "100949.401000", "100949.404000", "100949.406000", "100949.409000", "100949.411000", "100949.414000", "100949.416000", "100949.419000", "100949.421000", "101029.373000", "101029.376000", "101029.387000", "101029.389000", "101029.392000", "101029.394000", "101029.397000", "101029.400000", "101029.402000", "101029.405000", "101029.407000", "101029.410000", "101029.412000", "101029.415000", "101029.417000", "101029.420000", "101029.422000", "101029.425000", "101029.427000", "101029.430000", "101109.372000", "101109.375000", "101109.378000", "101109.380000", "101109.383000", "101109.386000", "101109.388000", "101109.391000", "101109.393000", "101109.396000", "101109.398000", "101109.401000", "101109.404000", "101109.406000", "101109.409000", "101109.411000", "101109.414000", "101109.416000", "101109.419000", "101109.421000", "101149.372000", "101149.375000", "101149.378000", "101149.394000", "101149.397000", "101149.400000", "101149.402000", "101149.405000", "101149.407000", "101149.410000", "101149.412000", "101149.415000", "101149.417000", "101149.420000", "101149.422000", "101149.425000", "101149.427000", "101149.430000", "101149.432000", "101149.435000", "101229.373000", "101229.376000", "101229.379000", "101229.381000", "101229.389000", "101229.392000", "101229.394000", "101229.397000", "101229.399000", "101229.402000", "101229.404000", "101229.407000", "101229.410000", "101229.412000", "101229.415000", "101229.417000", "101229.420000", "101229.422000", "101229.425000", "101229.427000", "101309.372000", "101309.375000", "101309.378000", "101309.380000", "101309.383000", "101309.386000", "101309.388000", "101309.391000", "101309.393000", "101309.396000", "101309.398000", "101309.401000", "101309.403000", "101309.406000", "101309.408000", "101309.411000", "101309.419000", "101309.422000", "101309.425000", "101309.438000", "101349.373000", "101349.375000", "101349.378000", "101349.380000", "101349.383000", "101349.386000", "101349.388000", "101349.391000", "101349.394000", "101349.396000", "101349.399000", "101349.401000", "101349.404000", "101349.407000", "101349.409000", "101349.412000", "101349.414000", "101349.417000", "101349.419000", "101349.422000", "101429.372000", "101429.375000", "101429.378000", "101429.380000", "101429.383000", "101429.386000", "101429.388000", "101429.391000", "101429.393000", "101429.396000", "101429.398000", "101429.401000", "101429.403000", "101429.406000", "101429.408000", "101429.411000", "101429.413000", "101429.416000", "101429.418000", "101429.421000", "101504.485000", "101504.487000", "101504.490000", "101504.493000", "101504.496000", "101504.498000", "101504.501000", "101504.503000", "101504.506000", "101504.509000", "101504.511000", "101504.514000", "101504.523000", "101504.526000", "101504.530000", "101504.534000", "101504.538000", "101504.541000"],
      "InstanceCreationTime": ["100909.385000", "100909.389000", "100909.391000", "100909.394000", "100909.396000", "100909.399000", "100909.401000", "100909.404000", "100909.406000", "100909.409000", "100909.411000", "100909.414000", "100909.416000", "100909.429000", "100909.431000", "100909.434000", "100909.436000", "100909.442000", "100909.444000", "100909.447000", "100909.450000", "100909.452000", "100949.372000", "100949.375000", "100949.378000", "100949.380000", "100949.383000", "100949.386000", "100949.388000", "100949.391000", "100949.393000", "100949.396000", "100949.398000", "100949.401000", "100949.404000", "100949.406000", "100949.409000", "100949.411000", "100949.414000", "100949.416000", "100949.419000", "100949.421000", "101029.373000", "101029.376000", "101029.387000", "101029.389000", "101029.392000", "101029.394000", "101029.397000", "101029.400000", "101029.402000", "101029.405000", "101029.407000", "101029.410000", "101029.412000", "101029.415000", "101029.417000", "101029.420000", "101029.422000", "101029.425000", "101029.427000", "101029.430000", "101109.372000", "101109.375000", "101109.378000", "101109.380000", "101109.383000", "101109.386000", "101109.388000", "101109.391000", "101109.393000", "101109.396000", "101109.398000", "101109.401000", "101109.404000", "101109.406000", "101109.409000", "101109.411000", "101109.414000", "101109.416000", "101109.419000", "101109.421000", "101149.372000", "101149.375000", "101149.378000", "101149.394000", "101149.397000", "101149.400000", "101149.402000", "101149.405000", "101149.407000", "101149.410000", "101149.412000", "101149.415000", "101149.417000", "101149.420000", "101149.422000", "101149.425000", "101149.427000", "101149.430000", "101149.432000", "101149.435000", "101229.373000", "101229.376000", "101229.379000", "101229.381000", "101229.389000", "101229.392000", "101229.394000", "101229.397000", "101229.399000", "101229.402000", "101229.404000", "101229.407000", "101229.410000", "101229.412000", "101229.415000", "101229.417000", "101229.420000", "101229.422000", "101229.425000", "101229.427000", "101309.372000", "101309.375000", "101309.378000", "101309.380000", "101309.383000", "101309.386000", "101309.388000", "101309.391000", "101309.393000", "101309.396000", "101309.398000", "101309.401000", "101309.403000", "101309.406000", "101309.408000", "101309.411000", "101309.419000", "101309.422000", "101309.425000", "101309.438000", "101349.373000", "101349.375000", "101349.378000", "101349.380000", "101349.383000", "101349.386000", "101349.388000", "101349.391000", "101349.394000", "101349.396000", "101349.399000", "101349.401000", "101349.404000", "101349.407000", "101349.409000", "101349.412000", "101349.414000", "101349.417000", "101349.419000", "101349.422000", "101429.372000", "101429.375000", "101429.378000", "101429.380000", "101429.383000", "101429.386000", "101429.388000", "101429.391000", "101429.393000", "101429.396000", "101429.398000", "101429.401000", "101429.403000", "101429.406000", "101429.408000", "101429.411000", "101429.413000", "101429.416000", "101429.418000", "101429.421000", "101504.485000", "101504.487000", "101504.490000", "101504.493000", "101504.496000", "101504.498000", "101504.501000", "101504.503000", "101504.506000", "101504.509000", "101504.511000", "101504.514000", "101504.523000", "101504.526000", "101504.530000", "101504.534000", "101504.538000", "101504.541000"],
      "InstanceNumber": [1, 2, 3, 4, 5, 6, 7, 8, 9, 10, 11, 12, 13, 14, 15, 16, 17, 18, 19, 20, 21, 22, 23, 24, 25, 26, 27, 28, 29, 30, 31, 32, 33, 34, 35, 36, 37, 38, 39, 40, 41, 42, 43, 44, 45, 46, 47, 48, 49, 50, 51, 52, 53, 54, 55, 56, 57, 58, 59, 60, 61, 62, 63, 64, 65, 66, 67, 68, 69, 70, 71, 72, 73, 74, 75, 76, 77, 78, 79, 80, 81, 82, 83, 84, 85, 86, 87, 88, 89, 90, 91, 92, 93, 94, 95, 96, 97, 98, 99, 100, 101, 102, 103, 104, 105, 106, 107, 108, 109, 110, 111, 112, 113, 114, 115, 116, 117, 118, 119, 120, 121, 122, 123, 124, 125, 126, 127, 128, 129, 130, 131, 132, 133, 134, 135, 136, 137, 138, 139, 140, 141, 142, 143, 144, 145, 146, 147, 148, 149, 150, 151, 152, 153, 154, 155, 156, 157, 158, 159, 160, 161, 162, 163, 164, 165, 166, 167, 168, 169, 170, 171, 172, 173, 174, 175, 176, 177, 178, 179, 180, 181, 182, 183, 184, 185, 186, 187, 188, 189, 190, 191, 192, 193, 194, 195, 196, 197, 198, 199, 200],
      "LargestImagePixelValue": [2003, 2003, 2006, 2010, 2004, 2007, 2006, 2001, 2002, 2006, 2006, 2006, 2008, 2003, 2006, 2005, 2005, 2008, 2010, 2005, 2006, 2007, 2007, 2007, 2005, 2009, 2005, 2008, 2007, 2006, 2005, 2005, 2007, 2004, 2003, 2005, 2003, 2012, 2003, 2008, 2009, 2007, 2005, 2003, 2004, 2007, 2007, 2008, 2007, 2008, 2009, 2004, 2009, 2005, 2012, 2008, 2007, 2009, 2008, 2008, 2011, 2008, 2008, 2012, 2007, 2014, 2009, 2011, 2014, 2013, 2009, 2010, 2010, 2006, 2009, 2011, 2011, 2005, 2014, 2016, 2009, 2013, 2018, 2016, 2012, 2009, 2010, 2007, 2010, 2006, 2011, 2009, 2011, 2008, 2008, 2009, 2010, 2004, 2010, 2008, 2007, 2008, 2011, 2010, 2010, 2011, 2010, 2013, 2012, 2014, 2012, 2011, 2012, 2006, 2011, 2005, 2014, 2015, 2015, 2011, 2012, 2009, 2007, 2011, 2015, 2009, 2014, 2015, 2015, 2010, 2011, 2009, 2016, 2014, 2010, 2011, 2010, 2012, 2012, 2011, 2007, 2014, 2017, 2014, 2019, 2015, 2012, 2013, 2013, 2013, 2013, 2016, 2014, 2013, 2015, 2015, 2014, 2011, 2017, 2009, 2017, 2018, 2012, 2008, 2012, 2008, 2010, 2010, 2014, 2014, 2012, 2011, 2010, 2010, 2011, 2014, 2008, 2011, 2017, 2014, 2017, 2011, 2017, 2015, 2011, 2015, 2013, 2010, 2016, 2015, 2006, 2015, 2014, 2019, 2015, 2011, 2015, 2013, 2016, 2014],
      "WindowCenter": [905.0, 905.0, 905.0, 904.0, 904.0, 905.0, 904.0, 904.0, 905.0, 905.0, 905.0, 905.0, 905.0, 905.0, 905.0, 905.0, 904.0, 905.0, 905.0, 904.0, 905.0, 905.0, 905.0, 904.0, 905.0, 905.0, 904.0, 904.0, 905.0, 904.0, 905.0, 905.0, 905.0, 905.0, 905.0, 904.0, 905.0, 905.0, 905.0, 905.0, 905.0, 905.0, 905.0, 905.0, 905.0, 905.0, 905.0, 905.0, 905.0, 905.0, 905.0, 905.0, 905.0, 905.0, 905.0, 905.0, 905.0, 905.0, 905.0, 905.0, 905.0, 905.0, 905.0, 905.0, 905.0, 905.0, 905.0, 905.0, 905.0, 905.0, 905.0, 905.0, 905.0, 905.0, 905.0, 905.0, 905.0, 905.0, 905.0, 905.0, 905.0, 905.0, 905.0, 905.0, 905.0, 905.0, 905.0, 905.0, 905.0, 905.0, 905.0, 905.0, 905.0, 905.0, 905.0, 905.0, 905.0, 905.0, 905.0, 905.0, 905.0, 905.0, 905.0, 905.0, 905.0, 905.0, 905.0, 905.0, 905.0, 905.0, 905.0, 905.0, 905.0, 905.0, 905.0, 905.0, 905.0, 905.0, 905.0, 905.0, 905.0, 905.0, 905.0, 905.0, 905.0, 905.0, 905.0, 905.0, 905.0, 905.0, 905.0, 905.0, 905.0, 905.0, 905.0, 905.0, 905.0, 905.0, 905.0, 905.0, 905.0, 905.0, 905.0, 905.0, 905.0, 905.0, 905.0, 905.0, 905.0, 905.0, 905.0, 905.0, 905.0, 905.0, 905.0, 905.0, 905.0, 905.0, 905.0, 905.0, 905.0, 905.0, 905.0, 905.0, 905.0, 905.0, 905.0, 905.0, 905.0, 905.0, 905.0, 905.0, 905.0, 905.0, 905.0, 905.0, 905.0, 905.0, 905.0, 905.0, 905.0, 905.0, 905.0, 905.0, 905.0, 905.0, 905.0, 905.0, 905.0, 905.0, 905.0, 905.0, 905.0, 905.0, 905.0, 905.0, 905.0, 905.0, 905.0, 905.0],
      "WindowWidth": [2044.0, 2044.0, 2044.0, 2043.0, 2044.0, 2044.0, 2044.0, 2043.0, 2044.0, 2044.0, 2044.0, 2044.0, 2044.0, 2044.0, 2044.0, 2044.0, 2043.0, 2044.0, 2044.0, 2043.0, 2044.0, 2044.0, 2044.0, 2043.0, 2044.0, 2044.0, 2043.0, 2044.0, 2044.0, 2044.0, 2044.0, 2044.0, 2044.0, 2044.0, 2044.0, 2044.0, 2044.0, 2044.0, 2044.0, 2044.0, 2044.0, 2044.0, 2044.0, 2044.0, 2044.0, 2044.0, 2045.0, 2044.0, 2044.0, 2044.0, 2044.0, 2044.0, 2044.0, 2044.0, 2044.0, 2044.0, 2045.0, 2044.0, 2045.0, 2044.0, 2044.0, 2045.0, 2044.0, 2045.0, 2045.0, 2045.0, 2044.0, 2044.0, 2045.0, 2045.0, 2044.0, 2044.0, 2044.0, 2045.0, 2045.0, 2044.0, 2045.0, 2044.0, 2044.0, 2044.0, 2045.0, 2044.0, 2045.0, 2044.0, 2044.0, 2044.0, 2044.0, 2044.0, 2044.0, 2044.0, 2045.0, 2044.0, 2045.0, 2045.0, 2045.0, 2045.0, 2044.0, 2045.0, 2044.0, 2045.0, 2045.0, 2045.0, 2045.0, 2044.0, 2045.0, 2044.0, 2045.0, 2045.0, 2045.0, 2045.0, 2044.0, 2045.0, 2045.0, 2045.0, 2044.0, 2045.0, 2044.0, 2045.0, 2045.0, 2045.0, 2045.0, 2045.0, 2044.0, 2045.0, 2044.0, 2044.0, 2045.0, 2044.0, 2045.0, 2044.0, 2045.0, 2045.0, 2045.0, 2045.0, 2044.0, 2045.0, 2045.0, 2045.0, 2044.0, 2044.0, 2045.0, 2044.0, 2045.0, 2044.0, 2044.0, 2044.0, 2044.0, 2045.0, 2043.0, 2044.0, 2045.0, 2044.0, 2045.0, 2045.0, 2045.0, 2045.0, 2045.0, 2044.0, 2044.0, 2044.0, 2044.0, 2045.0, 2045.0, 2045.0, 2045.0, 2045.0, 2045.0, 2044.0, 2045.0, 2045.0, 2045.0, 2045.0, 2044.0, 2045.0, 2045.0, 2045.0, 2044.0, 2044.0, 2044.0, 2045.0, 2044.0, 2045.0, 2045.0, 2045.0, 2045.0, 2044.0, 2044.0, 2044.0, 2045.0, 2044.0, 2045.0, 2045.0, 2045.0, 2045.0, 2044.0, 2045.0, 2045.0, 2045.0, 2044.0, 2045.0]
    },
    "slices": {}
  }
}