{
  "AcquisitionMatrixPE": 80,
  "AcquisitionNumber": 1,
  "AcquisitionTime": "09:40:45.730000",
  "BandwidthPerPixelPhaseEncode": 48.077,
  "BaseResolution": 80,
  "BodyPartExamined": "BRAIN",
  "CoilCombinationMethod": "Sum of Squares",
  "ConsistencyInfo": "N4_VE11E_LATEST_20181129",
  "ConversionSoftware": "dcm2niix",
  "ConversionSoftwareVersion": "v1.0.20220720",
  "DerivedVendorReportedEchoSpacing": 0.000519999,
  "DeviceSerialNumber": "66112",
  "DwellTime": 2.7e-06,
  "EchoTime": 0.035,
  "EchoTrainLength": 39,
  "EffectiveEchoSpacing": 0.00026,
  "FlipAngle": 90,
  "HeudiconvVersion": "0.13.1",
  "ImageOrientationPatientDICOM": [0.990962, -0.134123, 0.00244944, 0.127297, 0.945972, 0.298214],
  "ImageOrientationText": "Tra>Cor(17.2)>Sag(2.4)",
  "ImageType": [
    "ORIGINAL",
    "PRIMARY",
    "M",
    "ND",
    "NORM",
    "MOSAIC"
],
  "ImagingFrequency": 123.259,
  "InPlanePhaseEncodingDirectionDICOM": "COL",
  "InstitutionAddress": "Maynard 3,Hanover,NH,US,03755",
  "InstitutionName": "Dartmouth College - PBS",
  "InstitutionalDepartmentName": "Department",
  "MRAcquisitionType": "2D",
  "MagneticFieldStrength": 3,
  "Manufacturer": "Siemens",
  "ManufacturersModelName": "Prisma",
  "MatrixCoilMode": "GRAPPA",
  "Modality": "MR",
  "NonlinearGradientCorrection": false,
  "ParallelReductionFactorInPlane": 2,
  "PartialFourier": 1,
  "PatientPosition": "HFS",
  "PercentPhaseFOV": 100,
  "PercentSampling": 100,
  "PhaseEncodingDirection": "j-",
  "PhaseEncodingSteps": 79,
  "PhaseResolution": 1,
  "PixelBandwidth": 2315,
  "ProcedureStepDescription": "dbic^QA",
  "ProtocolName": "func-bold_task-rest_acq-p2",
  "PulseSequenceDetails": "%SiemensSeq%\\ep2d_bold",
  "ReceiveCoilActiveElements": "HEA;HEP",
  "ReceiveCoilName": "Head_32",
  "ReconMatrixPE": 80,
  "RefLinesPE": 24,
  "RepetitionTime": 2,
  "SAR": 0.0470854,
  "ScanOptions": "FS",
  "ScanningSequence": "EP",
  "SequenceName": "*epfid2d1_80",
  "SequenceVariant": "SK",
  "SeriesDescription": "func-bold_task-rest_acq-p2",
  "SeriesNumber": 5,
  "ShimSetting": [4216, -7745, -7498, -32, -159, -29, -16, 61],
  "SliceThickness": 3.5,
  "SliceTiming": [0.99, 0, 1.055, 0.065, 1.12, 0.1325, 1.1875, 0.1975, 1.2525, 0.2625, 1.32, 0.33, 1.385, 0.395, 1.45, 0.4625, 1.5175, 0.5275, 1.5825, 0.5925, 1.65, 0.66, 1.715, 0.725, 1.78, 0.7925, 1.8475, 0.8575, 1.9125, 0.9225],
  "SoftwareVersions": "syngo MR E11",
  "SpacingBetweenSlices": 3.99,
  "StationName": "AWP66112",
  "TaskName": "rest",
  "TotalReadoutTime": 0.02054,
  "TxRefAmp": 226.073,
  "dcmmeta_affine": [
    [-2.9728848934173584, 0.38189026713371277, 0.16883496940135956, 101.69853973388672],
    [0.40236905217170715, 2.8379170894622803, 1.1778771877288818, -142.5623016357422],
    [0.007348319981247187, -0.8946434855461121, 3.8084380626678467, -30.449621200561523],
    [0.0, 0.0, 0.0, 1.0]
],
  "dcmmeta_reorient_transform": [
    [0.0, -1.0, 0.0, 79.0],
    [1.0, 0.0, 0.0, 0.0],
    [0.0, 0.0, 1.0, 0.0],
    [0.0, 0.0, 0.0, 1.0]
],
  "dcmmeta_shape": [80, 80, 30, 200],
  "dcmmeta_slice_dim": 2,
  "dcmmeta_version": 0.6,
  "global": {
    "const": {
      "AccessionNumber": "qa",
      "AcquisitionMatrix": [80, 0, 0, 80],
      "AngioFlag": "N",
      "BitsAllocated": 16,
      "BitsStored": 12,
      "BodyPartExamined": "BRAIN",
      "Columns": 480,
      "EchoNumbers": 1,
      "EchoTime": 35.0,
      "EchoTrainLength": 39,
      "FlipAngle": 90.0,
      "HighBit": 11,
      "ImageOrientationPatient": [0.99096166238843, -0.1341230178618, 0.00244943993692, 0.12729675668214, 0.94597233285659, 0.29821448859517],
      "ImagePositionPatient": [-802.82292301697, -568.7427313522, -281.52481199037],
      "ImageType": [
        "ORIGINAL",
        "PRIMARY",
        "M",
        "ND",
        "NORM",
        "MOSAIC"
],
      "ImagedNucleus": "1H",
      "ImagingFrequency": 123.259126,
      "InPlanePhaseEncodingDirection": "COL",
      "MRAcquisitionType": "2D",
      "MagneticFieldStrength": 3.0,
      "Manufacturer": "SIEMENS",
      "ManufacturerModelName": "Prisma",
      "Modality": "MR",
      "NumberOfAverages": 1.0,
      "NumberOfPhaseEncodingSteps": 79,
      "PercentPhaseFieldOfView": 100.0,
      "PercentSampling": 100.0,
      "PerformedProcedureStepStartTime": "093644.786000",
      "PhotometricInterpretation": "MONOCHROME2",
      "PixelBandwidth": 2315.0,
      "PixelRepresentation": 0,
      "PixelSpacing": [3.0, 3.0],
      "ProtocolName": "func-bold_task-rest_acq-p2",
      "RepetitionTime": 2000.0,
      "Rows": 480,
      "SAR": 0.04708541877946,
      "SamplesPerPixel": 1,
      "ScanOptions": "FS",
      "ScanningSequence": "EP",
      "SequenceName": "*epfid2d1_80",
      "SequenceVariant": "SK",
      "SeriesDescription": "func-bold_task-rest_acq-p2",
      "SeriesNumber": 5,
      "SeriesTime": "094140.652000",
      "SliceLocation": -66.846142347943,
      "SliceThickness": 3.5,
      "SmallestImagePixelValue": 0,
      "SoftwareVersions": "syngo MR E11",
      "SpacingBetweenSlices": 3.9899999949083,
      "SpecificCharacterSet": "ISO_IR 100",
      "StudyID": "18",
      "StudyTime": "093644.715000",
      "TransmitCoilName": "Body",
      "VariableFlipAngleFlag": "N",
      "WindowCenterWidthExplanation": "Algo1"
    },
    "slices": {}
  },
  "time": {
    "samples": {
      "AcquisitionNumber": [1, 2, 3, 4, 5, 6, 7, 8, 9, 10, 11, 12, 13, 14, 15, 16, 17, 18, 19, 20, 21, 22, 23, 24, 25, 26, 27, 28, 29, 30, 31, 32, 33, 34, 35, 36, 37, 38, 39, 40, 41, 42, 43, 44, 45, 46, 47, 48, 49, 50, 51, 52, 53, 54, 55, 56, 57, 58, 59, 60, 61, 62, 63, 64, 65, 66, 67, 68, 69, 70, 71, 72, 73, 74, 75, 76, 77, 78, 79, 80, 81, 82, 83, 84, 85, 86, 87, 88, 89, 90, 91, 92, 93, 94, 95, 96, 97, 98, 99, 100, 101, 102, 103, 104, 105, 106, 107, 108, 109, 110, 111, 112, 113, 114, 115, 116, 117, 118, 119, 120, 121, 122, 123, 124, 125, 126, 127, 128, 129, 130, 131, 132, 133, 134, 135, 136, 137, 138, 139, 140, 141, 142, 143, 144, 145, 146, 147, 148, 149, 150, 151, 152, 153, 154, 155, 156, 157, 158, 159, 160, 161, 162, 163, 164, 165, 166, 167, 168, 169, 170, 171, 172, 173, 174, 175, 176, 177, 178, 179, 180, 181, 182, 183, 184, 185, 186, 187, 188, 189, 190, 191, 192, 193, 194, 195, 196, 197, 198, 199, 200],
      "AcquisitionTime": ["094045.730000", "094047.730000", "094049.730000", "094051.730000", "094053.730000", "094055.730000", "094057.730000", "094059.730000", "094101.730000", "094103.730000", "094105.730000", "094107.730000", "094109.730000", "094111.730000", "094113.730000", "094115.730000", "094117.730000", "094119.730000", "094121.730000", "094123.730000", "094125.730000", "094127.730000", "094129.730000", "094131.730000", "094133.730000", "094135.730000", "094137.730000", "094139.730000", "094141.730000", "094143.730000", "094145.730000", "094147.730000", "094149.730000", "094151.730000", "094153.730000", "094155.730000", "094157.730000", "094159.730000", "094201.730000", "094203.730000", "094205.730000", "094207.730000", "094209.730000", "094211.730000", "094213.730000", "094215.730000", "094217.730000", "094219.730000", "094221.730000", "094223.730000", "094225.730000", "094227.730000", "094229.730000", "094231.730000", "094233.730000", "094235.730000", "094237.730000", "094239.730000", "094241.730000", "094243.730000", "094245.730000", "094247.730000", "094249.730000", "094251.730000", "094253.730000", "094255.730000", "094257.730000", "094259.730000", "094301.730000", "094303.730000", "094305.730000", "094307.730000", "094309.730000", "094311.730000", "094313.730000", "094315.730000", "094317.730000", "094319.730000", "094321.730000", "094323.730000", "094325.730000", "094327.730000", "094329.730000", "094331.730000", "094333.730000", "094335.730000", "094337.730000", "094339.730000", "094341.730000", "094343.730000", "094345.730000", "094347.730000", "094349.730000", "094351.730000", "094353.730000", "094355.730000", "094357.730000", "094359.730000", "094401.730000", "094403.730000", "094405.730000", "094407.730000", "094409.730000", "094411.730000", "094413.730000", "094415.730000", "094417.730000", "094419.730000", "094421.730000", "094423.730000", "094425.730000", "094427.730000", "094429.730000", "094431.730000", "094433.730000", "094435.730000", "094437.730000", "094439.730000", "094441.730000", "094443.730000", "094445.730000", "094447.730000", "094449.730000", "094451.730000", "094453.730000", "094455.730000", "094457.730000", "094459.730000", "094501.730000", "094503.730000", "094505.730000", "094507.730000", "094509.730000", "094511.730000", "094513.730000", "094515.730000", "094517.730000", "094519.730000", "094521.730000", "094523.730000", "094525.730000", "094527.730000", "094529.730000", "094531.730000", "094533.730000", "094535.730000", "094537.730000", "094539.730000", "094541.730000", "094543.730000", "094545.730000", "094547.730000", "094549.730000", "094551.730000", "094553.730000", "094555.730000", "094557.730000", "094559.730000", "094601.730000", "094603.730000", "094605.730000", "094607.730000", "094609.730000", "094611.730000", "094613.730000", "094615.730000", "094617.730000", "094619.730000", "094621.730000", "094623.730000", "094625.730000", "094627.730000", "094629.730000", "094631.730000", "094633.730000", "094635.730000", "094637.730000", "094639.730000", "094641.730000", "094643.730000", "094645.730000", "094647.730000", "094649.730000", "094651.730000", "094653.730000", "094655.730000", "094657.730000", "094659.730000", "094701.730000", "094703.730000", "094705.730000", "094707.730000", "094709.730000", "094711.730000", "094713.730000", "094715.730000", "094717.730000", "094719.730000", "094721.730000", "094723.730000"],
      "ContentTime": ["094140.655000", "094140.659000", "094140.668000", "094140.670000", "094140.672000", "094140.675000", "094140.677000", "094140.679000", "094140.681000", "094140.684000", "094140.686000", "094140.688000", "094140.691000", "094140.693000", "094140.695000", "094140.698000", "094140.707000", "094140.709000", "094140.711000", "094140.714000", "094140.716000", "094140.718000", "094140.721000", "094140.723000", "094140.725000", "094140.728000", "094140.730000", "094220.651000", "094220.654000", "094220.656000", "094220.659000", "094220.661000", "094220.663000", "094220.666000", "094220.668000", "094220.670000", "094220.673000", "094220.675000", "094220.677000", "094220.679000", "094220.682000", "094220.684000", "094220.686000", "094220.689000", "094220.691000", "094220.693000", "094220.696000", "094300.650000", "094300.653000", "094300.655000", "094300.657000", "094300.660000", "094300.662000", "094300.664000", "094300.667000", "094300.669000", "094300.671000", "094300.673000", "094300.676000", "094300.678000", "094300.680000", "094300.687000", "094300.689000", "094300.691000", "094300.694000", "094300.696000", "094300.698000", "094340.650000", "094340.653000", "094340.655000", "094340.657000", "094340.660000", "094340.662000", "094340.664000", "094340.667000", "094340.669000", "094340.671000", "094340.673000", "094340.676000", "094340.678000", "094340.680000", "094340.683000", "094340.685000", "094340.687000", "094340.690000", "094340.692000", "094340.694000", "094420.650000", "094420.653000", "094420.655000", "094420.657000", "094420.660000", "094420.662000", "094420.665000", "094420.667000", "094420.669000", "094420.671000", "094420.674000", "094420.676000", "094420.678000", "094420.681000", "094420.683000", "094420.685000", "094420.688000", "094420.690000", "094420.692000", "094420.694000", "094500.650000", "094500.653000", "094500.655000", "094500.657000", "094500.660000", "094500.662000", "094500.664000", "094500.667000", "094500.669000", "094500.671000", "094500.673000", "094500.676000", "094500.678000", "094500.680000", "094500.683000", "094500.685000", "094500.687000", "094500.690000", "094500.692000", "094500.694000", "094540.650000", "094540.653000", "094540.655000", "094540.657000", "094540.660000", "094540.662000", "094540.665000", "094540.667000", "094540.669000", "094540.672000", "094540.674000", "094540.676000", "094540.678000", "094540.681000", "094540.683000", "094540.685000", "094540.688000", "094540.690000", "094540.692000", "094540.695000", "094620.650000", "094620.653000", "094620.655000", "094620.657000", "094620.660000", "094620.662000", "094620.664000", "094620.667000", "094620.669000", "094620.671000", "094620.674000", "094620.676000", "094620.678000", "094620.681000", "094620.683000", "094620.685000", "094620.688000", "094620.690000", "094620.692000", "094620.694000", "094700.651000", "094700.654000", "094700.656000", "094700.669000", "094700.671000", "094700.673000", "094700.676000", "094700.678000", "094700.680000", "094700.683000", "094700.685000", "094700.687000", "094700.689000", "094700.692000", "094700.694000", "094700.696000", "094700.699000", "094700.701000", "094700.703000", "094700.705000", "094724.986000", "094724.989000", "094724.991000", "094724.994000", "094724.996000", "094724.998000", "094725.002000", "094725.004000", "094725.006000", "094725.009000", "094725.011000", "094725.013000", "094725.016000"],
      "InstanceCreationTime": ["094140.655000", "094140.659000", "094140.668000", "094140.670000", "094140.672000", "094140.675000", "094140.677000", "094140.679000", "094140.681000", "094140.684000", "094140.686000", "094140.688000", "094140.691000", "094140.693000", "094140.695000", "094140.698000", "094140.707000", "094140.709000", "094140.711000", "094140.714000", "094140.716000", "094140.718000", "094140.721000", "094140.723000", "094140.725000", "094140.728000", "094140.730000", "094220.651000", "094220.654000", "094220.656000", "094220.659000", "094220.661000", "094220.663000", "094220.666000", "094220.668000", "094220.670000", "094220.673000", "094220.675000", "094220.677000", "094220.679000", "094220.682000", "094220.684000", "094220.686000", "094220.689000", "094220.691000", "094220.693000", "094220.696000", "094300.650000", "094300.653000", "094300.655000", "094300.657000", "094300.660000", "094300.662000", "094300.664000", "094300.667000", "094300.669000", "094300.671000", "094300.673000", "094300.676000", "094300.678000", "094300.680000", "094300.687000", "094300.689000", "094300.691000", "094300.694000", "094300.696000", "094300.698000", "094340.650000", "094340.653000", "094340.655000", "094340.657000", "094340.660000", "094340.662000", "094340.664000", "094340.667000", "094340.669000", "094340.671000", "094340.673000", "094340.676000", "094340.678000", "094340.680000", "094340.683000", "094340.685000", "094340.687000", "094340.690000", "094340.692000", "094340.694000", "094420.650000", "094420.653000", "094420.655000", "094420.657000", "094420.660000", "094420.662000", "094420.665000", "094420.667000", "094420.669000", "094420.671000", "094420.674000", "094420.676000", "094420.678000", "094420.681000", "094420.683000", "094420.685000", "094420.688000", "094420.690000", "094420.692000", "094420.694000", "094500.650000", "094500.653000", "094500.655000", "094500.657000", "094500.660000", "094500.662000", "094500.664000", "094500.667000", "094500.669000", "094500.671000", "094500.673000", "094500.676000", "094500.678000", "094500.680000", "094500.683000", "094500.685000", "094500.687000", "094500.690000", "094500.692000", "094500.694000", "094540.650000", "094540.653000", "094540.655000", "094540.657000", "094540.660000", "094540.662000", "094540.665000", "094540.667000", "094540.669000", "094540.672000", "094540.674000", "094540.676000", "094540.678000", "094540.681000", "094540.683000", "094540.685000", "094540.688000", "094540.690000", "094540.692000", "094540.695000", "094620.650000", "094620.653000", "094620.655000", "094620.657000", "094620.660000", "094620.662000", "094620.664000", "094620.667000", "094620.669000", "094620.671000", "094620.674000", "094620.676000", "094620.678000", "094620.681000", "094620.683000", "094620.685000", "094620.688000", "094620.690000", "094620.692000", "094620.694000", "094700.651000", "094700.654000", "094700.656000", "094700.669000", "094700.671000", "094700.673000", "094700.676000", "094700.678000", "094700.680000", "094700.683000", "094700.685000", "094700.687000", "094700.689000", "094700.692000", "094700.694000", "094700.696000", "094700.699000", "094700.701000", "094700.703000", "094700.705000", "094724.986000", "094724.989000", "094724.991000", "094724.994000", "094724.996000", "094724.998000", "094725.002000", "094725.004000", "094725.006000", "094725.009000", "094725.011000", "094725.013000", "094725.016000"],
      "InstanceNumber": [1, 2, 3, 4, 5, 6, 7, 8, 9, 10, 11, 12, 13, 14, 15, 16, 17, 18, 19, 20, 21, 22, 23, 24, 25, 26, 27, 28, 29, 30, 31, 32, 33, 34, 35, 36, 37, 38, 39, 40, 41, 42, 43, 44, 45, 46, 47, 48, 49, 50, 51, 52, 53, 54, 55, 56, 57, 58, 59, 60, 61, 62, 63, 64, 65, 66, 67, 68, 69, 70, 71, 72, 73, 74, 75, 76, 77, 78, 79, 80, 81, 82, 83, 84, 85, 86, 87, 88, 89, 90, 91, 92, 93, 94, 95, 96, 97, 98, 99, 100, 101, 102, 103, 104, 105, 106, 107, 108, 109, 110, 111, 112, 113, 114, 115, 116, 117, 118, 119, 120, 121, 122, 123, 124, 125, 126, 127, 128, 129, 130, 131, 132, 133, 134, 135, 136, 137, 138, 139, 140, 141, 142, 143, 144, 145, 146, 147, 148, 149, 150, 151, 152, 153, 154, 155, 156, 157, 158, 159, 160, 161, 162, 163, 164, 165, 166, 167, 168, 169, 170, 171, 172, 173, 174, 175, 176, 177, 178, 179, 180, 181, 182, 183, 184, 185, 186, 187, 188, 189, 190, 191, 192, 193, 194, 195, 196, 197, 198, 199, 200],
      "LargestImagePixelValue": [2134, 2130, 2131, 2134, 2134, 2134, 2132, 2134, 2133, 2130, 2130, 2135, 2133, 2131, 2131, 2131, 2132, 2132, 2134, 2134, 2135, 2133, 2131, 2131, 2131, 2131, 2131, 2133, 2135, 2133, 2132, 2135, 2135, 2131, 2135, 2135, 2136, 2133, 2133, 2133, 2130, 2132, 2134, 2130, 2135, 2132, 2129, 2133, 2132, 2131, 2132, 2132, 2132, 2132, 2133, 2134, 2133, 2132, 2133, 2132, 2134, 2131, 2132, 2130, 2130, 2132, 2133, 2131, 2132, 2132, 2130, 2131, 2132, 2130, 2133, 2129, 2129, 2131, 2131, 2130, 2131, 2129, 2130, 2131, 2134, 2133, 2133, 2133, 2130, 2131, 2134, 2128, 2131, 2135, 2133, 2134, 2130, 2132, 2131, 2131, 2127, 2132, 2130, 2131, 2130, 2133, 2132, 2133, 2126, 2130, 2133, 2131, 2129, 2131, 2129, 2131, 2133, 2130, 2134, 2131, 2128, 2132, 2132, 2131, 2130, 2131, 2129, 2131, 2128, 2136, 2133, 2132, 2133, 2126, 2127, 2131, 2127, 2127, 2129, 2139, 2131, 2134, 2131, 2128, 2132, 2130, 2129, 2131, 2129, 2129, 2129, 2133, 2128, 2133, 2130, 2132, 2129, 2130, 2134, 2133, 2131, 2131, 2126, 2133, 2130, 2132, 2135, 2126, 2130, 2130, 2128, 2129, 2130, 2133, 2129, 2127, 2126, 2131, 2132, 2133, 2130, 2129, 2131, 2131, 2132, 2135, 2127, 2129, 2129, 2134, 2131, 2132, 2128, 2130, 2130, 2127, 2129, 2126, 2130, 2129],
      "WindowCenter": [1025.0, 1025.0, 1025.0, 1025.0, 1025.0, 1025.0, 1025.0, 1025.0, 1025.0, 1025.0, 1025.0, 1025.0, 1025.0, 1025.0, 1025.0, 1025.0, 1025.0, 1025.0, 1025.0, 1025.0, 1025.0, 1025.0, 1025.0, 1025.0, 1025.0, 1025.0, 1025.0, 1025.0, 1025.0, 1025.0, 1025.0, 1025.0, 1025.0, 1025.0, 1025.0, 1025.0, 1025.0, 1025.0, 1025.0, 1025.0, 1025.0, 1025.0, 1025.0, 1025.0, 1025.0, 1025.0, 1025.0, 1025.0, 1025.0, 1025.0, 1025.0, 1025.0, 1025.0, 1025.0, 1025.0, 1025.0, 1025.0, 1025.0, 1025.0, 1025.0, 1025.0, 1025.0, 1025.0, 1025.0, 1025.0, 1025.0, 1025.0, 1025.0, 1025.0, 1025.0, 1024.0, 1025.0, 1024.0, 1024.0, 1025.0, 1025.0, 1025.0, 1025.0, 1025.0, 1024.0, 1025.0, 1024.0, 1024.0, 1024.0, 1025.0, 1024.0, 1024.0, 1024.0, 1025.0, 1024.0, 1024.0, 1025.0, 1024.0, 1024.0, 1024.0, 1024.0, 1024.0, 1024.0, 1024.0, 1024.0, 1024.0, 1024.0, 1024.0, 1024.0, 1024.0, 1024.0, 1024.0, 1024.0, 1024.0, 1024.0, 1024.0, 1024.0, 1024.0, 1024.0, 1024.0, 1024.0, 1024.0, 1024.0, 1024.0, 1024.0, 1024.0, 1024.0, 1024.0, 1024.0, 1024.0, 1024.0, 1024.0, 1024.0, 1024.0, 1024.0, 1024.0, 1024.0, 1024.0, 1024.0, 1024.0, 1024.0, 1024.0, 1024.0, 1024.0, 1024.0, 1024.0, 1024.0, 1024.0, 1024.0, 1024.0, 1024.0, 1024.0, 1024.0, 1024.0, 1024.0, 1024.0, 1024.0, 1024.0, 1024.0, 1024.0, 1024.0, 1024.0, 1024.0, 1024.0, 1024.0, 1024.0, 1024.0, 1024.0, 1024.0, 1024.0, 1024.0, 1024.0, 1024.0, 1024.0, 1024.0, 1024.0, 1024.0, 1024.0, 1024.0, 1024.0, 1024.0, 1024.0, 1024.0, 1024.0, 1024.0, 1024.0, 1024.0, 1024.0, 1024.0, 1024.0, 1024.0, 1024.0, 1024.0, 1024.0, 1024.0, 1024.0, 1024.0, 1024.0, 1024.0, 1024.0, 1024.0, 1024.0, 1024.0, 1024.0, 1024.0],
      "WindowWidth": [2285.0, 2285.0, 2285.0, 2285.0, 2285.0, 2284.0, 2285.0, 2285.0, 2284.0, 2284.0, 2285.0, 2284.0, 2284.0, 2284.0, 2285.0, 2284.0, 2284.0, 2284.0, 2284.0, 2284.0, 2284.0, 2284.0, 2284.0, 2284.0, 2284.0, 2284.0, 2284.0, 2284.0, 2284.0, 2284.0, 2284.0, 2284.0, 2284.0, 2284.0, 2284.0, 2284.0, 2284.0, 2284.0, 2284.0, 2284.0, 2284.0, 2284.0, 2284.0, 2284.0, 2284.0, 2284.0, 2284.0, 2284.0, 2284.0, 2284.0, 2284.0, 2284.0, 2284.0, 2284.0, 2283.0, 2283.0, 2284.0, 2284.0, 2283.0, 2284.0, 2284.0, 2284.0, 2284.0, 2284.0, 2284.0, 2283.0, 2283.0, 2283.0, 2283.0, 2283.0, 2283.0, 2284.0, 2283.0, 2284.0, 2283.0, 2283.0, 2283.0, 2283.0, 2283.0, 2283.0, 2283.0, 2283.0, 2283.0, 2283.0, 2283.0, 2283.0, 2283.0, 2283.0, 2283.0, 2283.0, 2283.0, 2283.0, 2283.0, 2283.0, 2283.0, 2283.0, 2283.0, 2283.0, 2283.0, 2283.0, 2283.0, 2283.0, 2283.0, 2283.0, 2283.0, 2283.0, 2283.0, 2283.0, 2283.0, 2283.0, 2283.0, 2282.0, 2283.0, 2283.0, 2283.0, 2283.0, 2283.0, 2283.0, 2283.0, 2282.0, 2282.0, 2283.0, 2282.0, 2283.0, 2282.0, 2282.0, 2283.0, 2283.0, 2282.0, 2282.0, 2282.0, 2283.0, 2282.0, 2282.0, 2282.0, 2283.0, 2282.0, 2282.0, 2282.0, 2282.0, 2282.0, 2282.0, 2282.0, 2282.0, 2282.0, 2282.0, 2282.0, 2282.0, 2282.0, 2282.0, 2282.0, 2282.0, 2282.0, 2282.0, 2282.0, 2282.0, 2282.0, 2282.0, 2282.0, 2282.0, 2282.0, 2282.0, 2282.0, 2282.0, 2282.0, 2282.0, 2282.0, 2282.0, 2282.0, 2282.0, 2282.0, 2282.0, 2282.0, 2281.0, 2282.0, 2282.0, 2282.0, 2282.0, 2282.0, 2282.0, 2282.0, 2282.0, 2282.0, 2282.0, 2281.0, 2282.0, 2281.0, 2282.0, 2282.0, 2282.0, 2282.0, 2281.0, 2282.0, 2281.0, 2281.0, 2281.0, 2281.0, 2281.0, 2281.0, 2281.0]
    },
    "slices": {}
  }
}