{
  "AcquisitionMatrixPE": 80,
  "AcquisitionNumber": 1,
  "AcquisitionTime": "09:47:40.080000",
  "BandwidthPerPixelPhaseEncode": 46.296,
  "BaseResolution": 80,
  "BodyPartExamined": "BRAIN",
  "CoilCombinationMethod": "Sum of Squares",
  "ConsistencyInfo": "N4_VE11E_LATEST_20181129",
  "ConversionSoftware": "dcm2niix",
  "ConversionSoftwareVersion": "v1.0.20220720",
  "DerivedVendorReportedEchoSpacing": 0.000540003,
  "DeviceSerialNumber": "66112",
  "DwellTime": 2.7e-06,
  "EchoTime": 0.035,
  "EchoTrainLength": 39,
  "EffectiveEchoSpacing": 0.000270002,
  "FlipAngle": 90,
  "HeudiconvVersion": "0.13.1",
  "ImageOrientationPatientDICOM": [0.990962, -0.134123, 0.00244944, 0.127297, 0.945972, 0.298214],
  "ImageOrientationText": "Tra>Cor(17.2)>Sag(2.4)",
  "ImageType": [
    "ORIGINAL",
    "PRIMARY",
    "M",
    "ND",
    "NORM",
    "MOSAIC"
],
  "ImagingFrequency": 123.259,
  "InPlanePhaseEncodingDirectionDICOM": "COL",
  "InstitutionAddress": "Maynard 3,Hanover,NH,US,03755",
  "InstitutionName": "Dartmouth College - PBS",
  "InstitutionalDepartmentName": "Department",
  "MRAcquisitionType": "2D",
  "MagneticFieldStrength": 3,
  "Manufacturer": "Siemens",
  "ManufacturersModelName": "Prisma",
  "Modality": "MR",
  "MultibandAccelerationFactor": 4,
  "NonlinearGradientCorrection": false,
  "ParallelReductionFactorInPlane": 2,
  "PartialFourier": 1,
  "PatientPosition": "HFS",
  "PercentPhaseFOV": 100,
  "PercentSampling": 100,
  "PhaseEncodingDirection": "j-",
  "PhaseEncodingSteps": 79,
  "PhaseResolution": 1,
  "PixelBandwidth": 2315,
  "ProcedureStepDescription": "dbic^QA",
  "ProtocolName": "func-bold_task-rest_acq-p2-s4-3.5mm",
  "PulseSequenceDetails": "%SiemensSeq%\\ep2d_bold",
  "ReceiveCoilActiveElements": "HEA;HEP",
  "ReceiveCoilName": "Head_32",
  "ReconMatrixPE": 80,
  "RefLinesPE": 24,
  "RepetitionTime": 2,
  "SAR": 0.0177066,
  "ScanOptions": "FS",
  "ScanningSequence": "EP",
  "SequenceName": "*epfid2d1_80",
  "SequenceVariant": "SK",
  "SeriesDescription": "func-bold_task-rest_acq-p2-s4-3.5mm",
  "SeriesNumber": 6,
  "ShimSetting": [4216, -7746, -7498, -29, -160, -28, -15, 62],
  "SliceThickness": 3.5,
  "SliceTiming": [1.485, 0, 0.99, 0.2475, 1.2375, 0.7425, 1.7325, 0.495, 1.485, 0, 0.99, 0.2475, 1.2375, 0.7425, 1.7325, 0.495, 1.485, 0, 0.99, 0.2475, 1.2375, 0.7425, 1.7325, 0.495, 1.485, 0, 0.99, 0.2475, 1.2375, 0.7425, 1.7325, 0.495],
  "SoftwareVersions": "syngo MR E11",
  "SpacingBetweenSlices": 3.99,
  "StationName": "AWP66112",
  "TaskName": "rest",
  "TotalReadoutTime": 0.0213301,
  "TxRefAmp": 226.073,
  "dcmmeta_affine": [
    [-2.9728848934173584, 0.38189026713371277, 0.16883496940135956, 101.52970886230469],
    [0.40236905217170715, 2.8379170894622803, 1.1778771877288818, -143.74017333984375],
    [0.007348319981247187, -0.8946434855461121, 3.8084380626678467, -34.258060455322266],
    [0.0, 0.0, 0.0, 1.0]
],
  "dcmmeta_reorient_transform": [
    [0.0, -1.0, 0.0, 79.0],
    [1.0, 0.0, 0.0, 0.0],
    [0.0, 0.0, 1.0, 0.0],
    [0.0, 0.0, 0.0, 1.0]
],
  "dcmmeta_shape": [80, 80, 32, 200],
  "dcmmeta_slice_dim": 2,
  "dcmmeta_version": 0.6,
  "global": {
    "const": {
      "AccessionNumber": "qa",
      "AcquisitionMatrix": [80, 0, 0, 80],
      "AngioFlag": "N",
      "BitsAllocated": 16,
      "BitsStored": 12,
      "BodyPartExamined": "BRAIN",
      "Columns": 480,
      "EchoNumbers": 1,
      "EchoTime": 35.0,
      "EchoTrainLength": 39,
      "FlipAngle": 90.0,
      "HighBit": 11,
      "ImageOrientationPatient": [0.99096166238843, -0.1341230178618, 0.00244943993692, 0.12729675668214, 0.94597233285659, 0.29821448859517],
      "ImagePositionPatient": [-802.65408809228, -567.56485487972, -285.33325315248],
      "ImageType": [
        "ORIGINAL",
        "PRIMARY",
        "M",
        "ND",
        "NORM",
        "MOSAIC"
],
      "ImagedNucleus": "1H",
      "ImagingFrequency": 123.259126,
      "InPlanePhaseEncodingDirection": "COL",
      "MRAcquisitionType": "2D",
      "MagneticFieldStrength": 3.0,
      "Manufacturer": "SIEMENS",
      "ManufacturerModelName": "Prisma",
      "Modality": "MR",
      "NumberOfAverages": 1.0,
      "NumberOfPhaseEncodingSteps": 79,
      "PercentPhaseFieldOfView": 100.0,
      "PercentSampling": 100.0,
      "PerformedProcedureStepStartTime": "093644.786000",
      "PhotometricInterpretation": "MONOCHROME2",
      "PixelBandwidth": 2315.0,
      "PixelRepresentation": 0,
      "PixelSpacing": [3.0, 3.0],
      "ProtocolName": "func-bold_task-rest_acq-p2-s4-3.5mm",
      "RepetitionTime": 2000.0,
      "Rows": 480,
      "SAR": 0.0177066291998,
      "SamplesPerPixel": 1,
      "ScanOptions": "FS",
      "ScanningSequence": "EP",
      "SequenceName": "*epfid2d1_80",
      "SequenceVariant": "SK",
      "SeriesDescription": "func-bold_task-rest_acq-p2-s4-3.5mm",
      "SeriesNumber": 6,
      "SeriesTime": "094820.737000",
      "SliceLocation": -70.836145142609,
      "SliceThickness": 3.5,
      "SmallestImagePixelValue": 0,
      "SoftwareVersions": "syngo MR E11",
      "SpacingBetweenSlices": 3.9900000671644,
      "SpecificCharacterSet": "ISO_IR 100",
      "StudyID": "18",
      "StudyTime": "093644.715000",
      "TransmitCoilName": "Body",
      "VariableFlipAngleFlag": "N",
      "WindowCenterWidthExplanation": "Algo1"
    },
    "slices": {}
  },
  "time": {
    "samples": {
      "AcquisitionNumber": [1, 2, 3, 4, 5, 6, 7, 8, 9, 10, 11, 12, 13, 14, 15, 16, 17, 18, 19, 20, 21, 22, 23, 24, 25, 26, 27, 28, 29, 30, 31, 32, 33, 34, 35, 36, 37, 38, 39, 40, 41, 42, 43, 44, 45, 46, 47, 48, 49, 50, 51, 52, 53, 54, 55, 56, 57, 58, 59, 60, 61, 62, 63, 64, 65, 66, 67, 68, 69, 70, 71, 72, 73, 74, 75, 76, 77, 78, 79, 80, 81, 82, 83, 84, 85, 86, 87, 88, 89, 90, 91, 92, 93, 94, 95, 96, 97, 98, 99, 100, 101, 102, 103, 104, 105, 106, 107, 108, 109, 110, 111, 112, 113, 114, 115, 116, 117, 118, 119, 120, 121, 122, 123, 124, 125, 126, 127, 128, 129, 130, 131, 132, 133, 134, 135, 136, 137, 138, 139, 140, 141, 142, 143, 144, 145, 146, 147, 148, 149, 150, 151, 152, 153, 154, 155, 156, 157, 158, 159, 160, 161, 162, 163, 164, 165, 166, 167, 168, 169, 170, 171, 172, 173, 174, 175, 176, 177, 178, 179, 180, 181, 182, 183, 184, 185, 186, 187, 188, 189, 190, 191, 192, 193, 194, 195, 196, 197, 198, 199, 200],
      "AcquisitionTime": ["094740.080000", "094742.080000", "094744.080000", "094746.080000", "094748.080000", "094750.080000", "094752.080000", "094754.080000", "094756.080000", "094758.080000", "094800.080000", "094802.080000", "094804.080000", "094806.080000", "094808.080000", "094810.080000", "094812.080000", "094814.080000", "094816.080000", "094818.080000", "094820.080000", "094822.080000", "094824.080000", "094826.080000", "094828.080000", "094830.080000", "094832.080000", "094834.080000", "094836.080000", "094838.080000", "094840.080000", "094842.080000", "094844.080000", "094846.080000", "094848.080000", "094850.080000", "094852.080000", "094854.080000", "094856.080000", "094858.080000", "094900.080000", "094902.080000", "094904.080000", "094906.080000", "094908.080000", "094910.080000", "094912.080000", "094914.080000", "094916.080000", "094918.080000", "094920.080000", "094922.080000", "094924.080000", "094926.080000", "094928.080000", "094930.080000", "094932.080000", "094934.080000", "094936.080000", "094938.080000", "094940.080000", "094942.080000", "094944.080000", "094946.080000", "094948.080000", "094950.080000", "094952.080000", "094954.080000", "094956.080000", "094958.080000", "095000.080000", "095002.080000", "095004.080000", "095006.080000", "095008.080000", "095010.080000", "095012.080000", "095014.080000", "095016.080000", "095018.080000", "095020.080000", "095022.080000", "095024.080000", "095026.080000", "095028.080000", "095030.080000", "095032.080000", "095034.080000", "095036.080000", "095038.080000", "095040.080000", "095042.080000", "095044.080000", "095046.080000", "095048.080000", "095050.080000", "095052.080000", "095054.080000", "095056.080000", "095058.080000", "095100.080000", "095102.080000", "095104.080000", "095106.080000", "095108.080000", "095110.080000", "095112.080000", "095114.080000", "095116.080000", "095118.080000", "095120.080000", "095122.080000", "095124.080000", "095126.080000", "095128.080000", "095130.080000", "095132.080000", "095134.080000", "095136.080000", "095138.080000", "095140.080000", "095142.080000", "095144.080000", "095146.080000", "095148.080000", "095150.080000", "095152.080000", "095154.080000", "095156.080000", "095158.080000", "095200.080000", "095202.080000", "095204.080000", "095206.080000", "095208.080000", "095210.080000", "095212.080000", "095214.080000", "095216.080000", "095218.080000", "095220.080000", "095222.080000", "095224.080000", "095226.080000", "095228.080000", "095230.080000", "095232.080000", "095234.080000", "095236.080000", "095238.080000", "095240.080000", "095242.080000", "095244.080000", "095246.080000", "095248.080000", "095250.080000", "095252.080000", "095254.080000", "095256.080000", "095258.080000", "095300.080000", "095302.080000", "095304.080000", "095306.080000", "095308.080000", "095310.080000", "095312.080000", "095314.080000", "095316.080000", "095318.080000", "095320.080000", "095322.080000", "095324.080000", "095326.080000", "095328.080000", "095330.080000", "095332.080000", "095334.080000", "095336.080000", "095338.080000", "095340.080000", "095342.080000", "095344.080000", "095346.080000", "095348.080000", "095350.080000", "095352.080000", "095354.080000", "095356.080000", "095358.080000", "095400.080000", "095402.080000", "095404.080000", "095406.080000", "095408.080000", "095410.080000", "095412.080000", "095414.080000", "095416.080000", "095418.080000"],
      "ContentTime": ["094820.740000", "094820.748000", "094820.750000", "094820.752000", "094820.755000", "094820.757000", "094820.759000", "094820.761000", "094820.764000", "094820.766000", "094820.768000", "094820.771000", "094820.773000", "094820.777000", "094820.787000", "094820.789000", "094820.792000", "094820.794000", "094820.796000", "094820.799000", "094900.735000", "094900.738000", "094900.740000", "094900.742000", "094900.745000", "094900.747000", "094900.749000", "094900.752000", "094900.754000", "094900.756000", "094900.759000", "094900.761000", "094900.763000", "094900.766000", "094900.768000", "094900.770000", "094900.773000", "094900.775000", "094900.777000", "094900.787000", "094940.735000", "094940.738000", "094940.740000", "094940.742000", "094940.745000", "094940.747000", "094940.749000", "094940.760000", "094940.763000", "094940.765000", "094940.767000", "094940.769000", "094940.772000", "094940.774000", "094940.777000", "094940.779000", "094940.781000", "094940.784000", "094940.786000", "094940.788000", "095020.735000", "095020.738000", "095020.740000", "095020.743000", "095020.745000", "095020.747000", "095020.750000", "095020.752000", "095020.754000", "095020.757000", "095020.759000", "095020.761000", "095020.763000", "095020.766000", "095020.768000", "095020.770000", "095020.773000", "095020.775000", "095020.778000", "095020.780000", "095100.735000", "095100.738000", "095100.740000", "095100.743000", "095100.745000", "095100.747000", "095100.750000", "095100.752000", "095100.754000", "095100.757000", "095100.759000", "095100.761000", "095100.764000", "095100.766000", "095100.768000", "095100.771000", "095100.773000", "095100.775000", "095100.778000", "095100.780000", "095140.736000", "095140.739000", "095140.741000", "095140.743000", "095140.746000", "095140.748000", "095140.750000", "095140.753000", "095140.755000", "095140.757000", "095140.760000", "095140.762000", "095140.764000", "095140.767000", "095140.769000", "095140.771000", "095140.773000", "095140.776000", "095140.778000", "095140.781000", "095220.735000", "095220.738000", "095220.740000", "095220.742000", "095220.745000", "095220.747000", "095220.749000", "095220.752000", "095220.754000", "095220.756000", "095220.759000", "095220.761000", "095220.763000", "095220.766000", "095220.768000", "095220.770000", "095220.773000", "095220.775000", "095220.777000", "095220.780000", "095300.735000", "095300.738000", "095300.740000", "095300.742000", "095300.745000", "095300.747000", "095300.749000", "095300.752000", "095300.754000", "095300.756000", "095300.759000", "095300.761000", "095300.763000", "095300.766000", "095300.768000", "095300.770000", "095300.773000", "095300.775000", "095300.777000", "095300.780000", "095340.735000", "095340.738000", "095340.740000", "095340.742000", "095340.745000", "095340.747000", "095340.749000", "095340.752000", "095340.754000", "095340.756000", "095340.759000", "095340.761000", "095340.763000", "095340.766000", "095340.768000", "095340.770000", "095340.773000", "095340.775000", "095340.778000", "095340.780000", "095418.866000", "095418.869000", "095418.871000", "095418.873000", "095418.876000", "095418.878000", "095418.880000", "095418.882000", "095418.885000", "095418.887000", "095418.890000", "095418.914000", "095418.916000", "095418.919000", "095418.921000", "095418.923000", "095418.926000", "095418.928000", "095418.930000", "095418.933000"],
      "InstanceCreationTime": ["094820.740000", "094820.748000", "094820.750000", "094820.752000", "094820.755000", "094820.757000", "094820.759000", "094820.761000", "094820.764000", "094820.766000", "094820.768000", "094820.771000", "094820.773000", "094820.777000", "094820.787000", "094820.789000", "094820.792000", "094820.794000", "094820.796000", "094820.799000", "094900.735000", "094900.738000", "094900.740000", "094900.742000", "094900.745000", "094900.747000", "094900.749000", "094900.752000", "094900.754000", "094900.756000", "094900.759000", "094900.761000", "094900.763000", "094900.766000", "094900.768000", "094900.770000", "094900.773000", "094900.775000", "094900.777000", "094900.787000", "094940.735000", "094940.738000", "094940.740000", "094940.742000", "094940.745000", "094940.747000", "094940.749000", "094940.760000", "094940.763000", "094940.765000", "094940.767000", "094940.769000", "094940.772000", "094940.774000", "094940.777000", "094940.779000", "094940.781000", "094940.784000", "094940.786000", "094940.788000", "095020.735000", "095020.738000", "095020.740000", "095020.743000", "095020.745000", "095020.747000", "095020.750000", "095020.752000", "095020.754000", "095020.757000", "095020.759000", "095020.761000", "095020.763000", "095020.766000", "095020.768000", "095020.770000", "095020.773000", "095020.775000", "095020.778000", "095020.780000", "095100.735000", "095100.738000", "095100.740000", "095100.743000", "095100.745000", "095100.747000", "095100.750000", "095100.752000", "095100.754000", "095100.757000", "095100.759000", "095100.761000", "095100.764000", "095100.766000", "095100.768000", "095100.771000", "095100.773000", "095100.775000", "095100.778000", "095100.780000", "095140.736000", "095140.739000", "095140.741000", "095140.743000", "095140.746000", "095140.748000", "095140.750000", "095140.753000", "095140.755000", "095140.757000", "095140.760000", "095140.762000", "095140.764000", "095140.767000", "095140.769000", "095140.771000", "095140.773000", "095140.776000", "095140.778000", "095140.781000", "095220.735000", "095220.738000", "095220.740000", "095220.742000", "095220.745000", "095220.747000", "095220.749000", "095220.752000", "095220.754000", "095220.756000", "095220.759000", "095220.761000", "095220.763000", "095220.766000", "095220.768000", "095220.770000", "095220.773000", "095220.775000", "095220.777000", "095220.780000", "095300.735000", "095300.738000", "095300.740000", "095300.742000", "095300.745000", "095300.747000", "095300.749000", "095300.752000", "095300.754000", "095300.756000", "095300.759000", "095300.761000", "095300.763000", "095300.766000", "095300.768000", "095300.770000", "095300.773000", "095300.775000", "095300.777000", "095300.780000", "095340.735000", "095340.738000", "095340.740000", "095340.742000", "095340.745000", "095340.747000", "095340.749000", "095340.752000", "095340.754000", "095340.756000", "095340.759000", "095340.761000", "095340.763000", "095340.766000", "095340.768000", "095340.770000", "095340.773000", "095340.775000", "095340.778000", "095340.780000", "095418.866000", "095418.869000", "095418.871000", "095418.873000", "095418.876000", "095418.878000", "095418.880000", "095418.882000", "095418.885000", "095418.887000", "095418.890000", "095418.914000", "095418.916000", "095418.919000", "095418.921000", "095418.923000", "095418.926000", "095418.928000", "095418.930000", "095418.933000"],
      "InstanceNumber": [1, 2, 3, 4, 5, 6, 7, 8, 9, 10, 11, 12, 13, 14, 15, 16, 17, 18, 19, 20, 21, 22, 23, 24, 25, 26, 27, 28, 29, 30, 31, 32, 33, 34, 35, 36, 37, 38, 39, 40, 41, 42, 43, 44, 45, 46, 47, 48, 49, 50, 51, 52, 53, 54, 55, 56, 57, 58, 59, 60, 61, 62, 63, 64, 65, 66, 67, 68, 69, 70, 71, 72, 73, 74, 75, 76, 77, 78, 79, 80, 81, 82, 83, 84, 85, 86, 87, 88, 89, 90, 91, 92, 93, 94, 95, 96, 97, 98, 99, 100, 101, 102, 103, 104, 105, 106, 107, 108, 109, 110, 111, 112, 113, 114, 115, 116, 117, 118, 119, 120, 121, 122, 123, 124, 125, 126, 127, 128, 129, 130, 131, 132, 133, 134, 135, 136, 137, 138, 139, 140, 141, 142, 143, 144, 145, 146, 147, 148, 149, 150, 151, 152, 153, 154, 155, 156, 157, 158, 159, 160, 161, 162, 163, 164, 165, 166, 167, 168, 169, 170, 171, 172, 173, 174, 175, 176, 177, 178, 179, 180, 181, 182, 183, 184, 185, 186, 187, 188, 189, 190, 191, 192, 193, 194, 195, 196, 197, 198, 199, 200],
      "LargestImagePixelValue": [2168, 2166, 2164, 2169, 2166, 2165, 2165, 2164, 2166, 2168, 2165, 2163, 2164, 2163, 2163, 2162, 2159, 2166, 2159, 2163, 2162, 2166, 2166, 2162, 2160, 2165, 2165, 2167, 2165, 2169, 2163, 2166, 2166, 2165, 2164, 2164, 2166, 2167, 2170, 2166, 2165, 2165, 2166, 2163, 2167, 2166, 2168, 2168, 2170, 2165, 2166, 2166, 2163, 2165, 2166, 2170, 2162, 2170, 2165, 2168, 2165, 2168, 2165, 2168, 2168, 2169, 2162, 2168, 2164, 2164, 2164, 2163, 2165, 2166, 2167, 2168, 2169, 2167, 2169, 2167, 2165, 2168, 2168, 2166, 2168, 2170, 2166, 2164, 2167, 2167, 2171, 2174, 2166, 2168, 2163, 2167, 2164, 2168, 2165, 2169, 2167, 2165, 2168, 2169, 2169, 2165, 2169, 2164, 2166, 2164, 2172, 2167, 2172, 2167, 2172, 2165, 2170, 2169, 2168, 2167, 2170, 2170, 2167, 2165, 2168, 2168, 2167, 2165, 2166, 2166, 2166, 2168, 2164, 2172, 2164, 2171, 2168, 2170, 2166, 2166, 2169, 2170, 2169, 2170, 2170, 2166, 2166, 2169, 2169, 2170, 2172, 2166, 2170, 2165, 2170, 2168, 2174, 2169, 2174, 2170, 2170, 2170, 2167, 2171, 2168, 2171, 2168, 2170, 2167, 2170, 2168, 2173, 2168, 2172, 2168, 2168, 2168, 2173, 2169, 2168, 2171, 2172, 2173, 2169, 2171, 2171, 2174, 2166, 2172, 2168, 2172, 2169, 2170, 2173, 2171, 2166, 2170, 2168, 2171, 2171],
      "WindowCenter": [960.0, 958.0, 959.0, 960.0, 960.0, 961.0, 960.0, 959.0, 959.0, 959.0, 958.0, 958.0, 959.0, 959.0, 958.0, 959.0, 960.0, 958.0, 959.0, 959.0, 960.0, 960.0, 958.0, 958.0, 960.0, 959.0, 960.0, 958.0, 958.0, 959.0, 959.0, 958.0, 958.0, 959.0, 960.0, 958.0, 959.0, 958.0, 959.0, 959.0, 960.0, 958.0, 959.0, 959.0, 958.0, 959.0, 959.0, 960.0, 960.0, 959.0, 960.0, 959.0, 959.0, 960.0, 959.0, 959.0, 959.0, 958.0, 960.0, 959.0, 960.0, 959.0, 958.0, 960.0, 958.0, 960.0, 959.0, 958.0, 959.0, 959.0, 960.0, 958.0, 959.0, 958.0, 958.0, 959.0, 960.0, 958.0, 958.0, 960.0, 958.0, 959.0, 959.0, 960.0, 958.0, 959.0, 958.0, 960.0, 958.0, 960.0, 959.0, 958.0, 959.0, 958.0, 959.0, 959.0, 959.0, 959.0, 958.0, 959.0, 958.0, 959.0, 959.0, 958.0, 959.0, 959.0, 958.0, 959.0, 959.0, 960.0, 958.0, 959.0, 959.0, 959.0, 958.0, 959.0, 958.0, 959.0, 959.0, 959.0, 960.0, 959.0, 958.0, 959.0, 959.0, 960.0, 959.0, 959.0, 959.0, 958.0, 959.0, 958.0, 959.0, 960.0, 959.0, 959.0, 960.0, 958.0, 958.0, 960.0, 958.0, 959.0, 959.0, 958.0, 958.0, 959.0, 959.0, 958.0, 959.0, 959.0, 958.0, 958.0, 960.0, 959.0, 959.0, 958.0, 958.0, 960.0, 958.0, 958.0, 959.0, 959.0, 958.0, 959.0, 959.0, 959.0, 958.0, 959.0, 960.0, 960.0, 959.0, 958.0, 959.0, 958.0, 959.0, 960.0, 960.0, 959.0, 960.0, 959.0, 959.0, 959.0, 959.0, 958.0, 958.0, 959.0, 958.0, 960.0, 958.0, 960.0, 958.0, 958.0, 958.0, 960.0, 959.0, 959.0, 958.0, 959.0, 959.0, 958.0],
      "WindowWidth": [2259.0, 2256.0, 2258.0, 2259.0, 2259.0, 2259.0, 2259.0, 2257.0, 2258.0, 2257.0, 2257.0, 2257.0, 2258.0, 2257.0, 2257.0, 2257.0, 2259.0, 2257.0, 2258.0, 2257.0, 2258.0, 2258.0, 2257.0, 2256.0, 2258.0, 2258.0, 2258.0, 2257.0, 2256.0, 2257.0, 2257.0, 2256.0, 2256.0, 2257.0, 2258.0, 2256.0, 2257.0, 2256.0, 2258.0, 2257.0, 2258.0, 2256.0, 2257.0, 2257.0, 2256.0, 2257.0, 2257.0, 2258.0, 2259.0, 2257.0, 2258.0, 2258.0, 2257.0, 2258.0, 2257.0, 2257.0, 2257.0, 2256.0, 2258.0, 2257.0, 2258.0, 2257.0, 2256.0, 2259.0, 2256.0, 2259.0, 2257.0, 2256.0, 2257.0, 2258.0, 2258.0, 2256.0, 2257.0, 2256.0, 2256.0, 2257.0, 2258.0, 2256.0, 2256.0, 2258.0, 2256.0, 2257.0, 2257.0, 2258.0, 2256.0, 2257.0, 2256.0, 2258.0, 2256.0, 2258.0, 2257.0, 2256.0, 2257.0, 2256.0, 2257.0, 2257.0, 2257.0, 2257.0, 2256.0, 2257.0, 2256.0, 2257.0, 2257.0, 2256.0, 2257.0, 2257.0, 2256.0, 2257.0, 2257.0, 2257.0, 2256.0, 2257.0, 2257.0, 2257.0, 2256.0, 2257.0, 2256.0, 2257.0, 2257.0, 2257.0, 2258.0, 2257.0, 2256.0, 2256.0, 2256.0, 2257.0, 2257.0, 2257.0, 2257.0, 2256.0, 2257.0, 2256.0, 2257.0, 2258.0, 2257.0, 2257.0, 2257.0, 2256.0, 2256.0, 2258.0, 2256.0, 2257.0, 2257.0, 2256.0, 2256.0, 2256.0, 2256.0, 2256.0, 2256.0, 2257.0, 2256.0, 2256.0, 2257.0, 2256.0, 2256.0, 2256.0, 2256.0, 2257.0, 2256.0, 2255.0, 2257.0, 2256.0, 2256.0, 2257.0, 2257.0, 2256.0, 2256.0, 2256.0, 2257.0, 2257.0, 2256.0, 2256.0, 2256.0, 2256.0, 2256.0, 2257.0, 2257.0, 2256.0, 2257.0, 2256.0, 2256.0, 2257.0, 2256.0, 2256.0, 2255.0, 2256.0, 2256.0, 2257.0, 2255.0, 2257.0, 2256.0, 2256.0, 2255.0, 2257.0, 2256.0, 2256.0, 2255.0, 2256.0, 2256.0, 2255.0]
    },
    "slices": {}
  }
}