{
  "AcquisitionMatrixPE": 122,
  "AcquisitionNumber": 1,
  "AcquisitionTime": "09:41:50.467500",
  "BandwidthPerPixelPhaseEncode": 27.785,
  "BaseResolution": 122,
  "BodyPartExamined": "BRAIN",
  "CoilCombinationMethod": "Adaptive Combine",
  "ConsistencyInfo": "N4_VE11C_LATEST_20160120",
  "ConversionSoftware": "dcm2niix",
  "ConversionSoftwareVersion": "v1.0.20220720",
  "DerivedVendorReportedEchoSpacing": 0.000590011,
  "DeviceSerialNumber": "66112",
  "DiffusionScheme": "Monopolar",
  "DwellTime": 2e-06,
  "EchoTime": 0.068,
  "EchoTrainLength": 61,
  "EffectiveEchoSpacing": 0.000295005,
  "FlipAngle": 90,
  "HeudiconvVersion": "0.13.1",
  "ImageOrientationPatientDICOM": [0.985077, 0.171805, 0.0102806, -0.16679, 0.938171, 0.303341],
  "ImageOrientationText": "Tra>Cor(17.5)>Sag(-2.4)",
  "ImageType": [
    "ORIGINAL",
    "PRIMARY",
    "DIFFUSION",
    "NONE",
    "ND",
    "NORM"
],
  "ImagingFrequency": 123.252,
  "InPlanePhaseEncodingDirectionDICOM": "COL",
  "InstitutionAddress": "Maynard 3,Hanover,NH,US,03755",
  "InstitutionName": "Dartmouth College - PBS",
  "InstitutionalDepartmentName": "Department",
  "MRAcquisitionType": "2D",
  "MagneticFieldStrength": 3,
  "Manufacturer": "Siemens",
  "ManufacturersModelName": "Prisma",
  "Modality": "MR",
  "MultibandAccelerationFactor": 4,
  "NonlinearGradientCorrection": false,
  "ParallelReductionFactorInPlane": 2,
  "PartialFourier": 1,
  "PatientPosition": "HFS",
  "PercentPhaseFOV": 100,
  "PercentSampling": 100,
  "PhaseEncodingDirection": "j-",
  "PhaseEncodingSteps": 122,
  "PhaseResolution": 1,
  "PixelBandwidth": 2050,
  "ProcedureStepDescription": "dbic^QA",
  "ProtocolName": "dwi_acq-DTI-30-p2-s4",
  "PulseSequenceDetails": "%SiemensSeq%\\ep2d_diff",
  "ReceiveCoilActiveElements": "HEA;HEP",
  "ReceiveCoilName": "Head_32",
  "ReconMatrixPE": 122,
  "RefLinesPE": 38,
  "RepetitionTime": 3.6,
  "SAR": 0.161748,
  "ScanOptions": "FS",
  "ScanningSequence": "EP",
  "SequenceName": "*ep_b0",
  "SequenceVariant": "SK\\SP",
  "SeriesDescription": "dwi_acq-DTI-30-p2-s4",
  "SeriesNumber": 13,
  "ShimSetting": [4152, -7689, -7518, 266, -15, -123, -16, 89],
  "SliceThickness": 2,
  "SliceTiming": [2.58594, 0, 1.78906, 0.19531, 1.98438, 0.39844, 2.1875, 0.59375, 2.38281, 0.99219, 2.78125, 1.19531, 2.98438, 1.39062, 3.17969, 1.58594, 3.38281, 0.79688, 2.58594, 0, 1.78906, 0.19531, 1.98438, 0.39844, 2.1875, 0.59375, 2.38281, 0.99219, 2.78125, 1.19531, 2.98438, 1.39062, 3.17969, 1.58594, 3.38281, 0.79688, 2.58594, 0, 1.78906, 0.19531, 1.98438, 0.39844, 2.1875, 0.59375, 2.38281, 0.99219, 2.78125, 1.19531, 2.98438, 1.39062, 3.17969, 1.58594, 3.38281, 0.79688, 2.58594, 0, 1.78906, 0.19531, 1.98438, 0.39844, 2.1875, 0.59375, 2.38281, 0.99219, 2.78125, 1.19531, 2.98438, 1.39062, 3.17969, 1.58594, 3.38281, 0.79688],
  "SoftwareVersions": "syngo MR E11",
  "SpacingBetweenSlices": 2,
  "SpoilingState": true,
  "StationName": "AWP66112",
  "TotalReadoutTime": 0.0356956,
  "TxRefAmp": 227.178,
  "dcmmeta_affine": [
    [-1.9378570318222046, -0.3281119167804718, -0.08494162559509277, 146.82049560546875],
    [-0.3379775881767273, 1.8455824851989746, 0.6010589599609375, -105.89820098876953],
    [0.02022404409945011, -0.5967373251914978, 1.9056549072265625, -34.220176696777344],
    [0.0, 0.0, 0.0, 1.0]
],
  "dcmmeta_reorient_transform": [
    [0.0, -1.0, 0.0, 121.0],
    [1.0, 0.0, 0.0, 0.0],
    [0.0, 0.0, -1.0, 71.0],
    [0.0, 0.0, 0.0, 1.0]
],
  "dcmmeta_shape": [122, 122, 72, 31],
  "dcmmeta_slice_dim": 2,
  "dcmmeta_version": 0.6,
  "global": {
    "const": {
      "AccessionNumber": "qa",
      "AcquisitionMatrix": [122, 0, 0, 122],
      "AngioFlag": "N",
      "BitsAllocated": 16,
      "BitsStored": 12,
      "BodyPartExamined": "BRAIN",
      "Columns": 122,
      "EchoNumbers": 1,
      "EchoTime": 68.0,
      "EchoTrainLength": 61,
      "FlipAngle": 90.0,
      "HighBit": 11,
      "ImageOrientationPatient": [0.9850772863221, 0.17180526812471, 0.01028055528113, -0.1667902155512, 0.93817108144169, 0.3033414675624],
      "ImageType": [
        "ORIGINAL",
        "PRIMARY",
        "DIFFUSION",
        "NONE",
        "ND",
        "NORM"
],
      "ImagedNucleus": "1H",
      "ImagingFrequency": 123.252406,
      "InPlanePhaseEncodingDirection": "COL",
      "MRAcquisitionType": "2D",
      "MagneticFieldStrength": 3.0,
      "Manufacturer": "SIEMENS",
      "ManufacturerModelName": "Prisma",
      "Modality": "MR",
      "NumberOfAverages": 1.0,
      "NumberOfPhaseEncodingSteps": 122,
      "PercentPhaseFieldOfView": 100.0,
      "PercentSampling": 100.0,
      "PerformedProcedureStepStartTime": "090416.335000",
      "PhotometricInterpretation": "MONOCHROME2",
      "PixelBandwidth": 2050.0,
      "PixelRepresentation": 0,
      "PixelSpacing": [1.9672131538391, 1.9672131538391],
      "ProtocolName": "dwi_acq-DTI-30-p2-s4",
      "RepetitionTime": 3600.0,
      "Rows": 122,
      "SAR": 0.16174780293217,
      "SamplesPerPixel": 1,
      "ScanOptions": "FS",
      "ScanningSequence": "EP",
      "SequenceVariant": [
        "SK",
        "SP"
],
      "SeriesDescription": "dwi_acq-DTI-30-p2-s4",
      "SeriesNumber": 13,
      "SeriesTime": "094159.370000",
      "SliceThickness": 2.0,
      "SmallestImagePixelValue": 0,
      "SoftwareVersions": "syngo MR E11",
      "SpacingBetweenSlices": 2.0,
      "SpecificCharacterSet": "ISO_IR 100",
      "StudyID": "16",
      "StudyTime": "090416.298000",
      "TransmitCoilName": "Body",
      "VariableFlipAngleFlag": "N",
      "WindowCenterWidthExplanation": "Algo1",
      "dBdt": 0.0},
    "slices": {
      "AcquisitionTime": ["094150.467500", "094147.882500", "094149.672500", "094148.080000", "094149.870000", "094148.280000", "094150.070000", "094148.477500", "094150.267500", "094148.877500", "094150.665000", "094149.075000", "094150.865000", "094149.275000", "094151.065000", "094149.472500", "094151.262500", "094148.677500", "094150.467500", "094147.882500", "094149.672500", "094148.080000", "094149.870000", "094148.280000", "094150.070000", "094148.477500", "094150.267500", "094148.877500", "094150.665000", "094149.075000", "094150.865000", "094149.275000", "094151.065000", "094149.472500", "094151.262500", "094148.677500", "094150.467500", "094147.882500", "094149.672500", "094148.080000", "094149.870000", "094148.280000", "094150.070000", "094148.477500", "094150.267500", "094148.877500", "094150.665000", "094149.075000", "094150.865000", "094149.275000", "094151.065000", "094149.472500", "094151.262500", "094148.677500", "094150.467500", "094147.882500", "094149.672500", "094148.080000", "094149.870000", "094148.280000", "094150.070000", "094148.477500", "094150.267500", "094148.877500", "094150.665000", "094149.075000", "094150.865000", "094149.275000", "094151.065000", "094149.472500", "094151.262500", "094148.677500", "094154.067500", "094151.482500", "094153.272500", "094151.680000", "094153.470000", "094151.880000", "094153.670000", "094152.077500", "094153.867500", "094152.477500", "094154.265000", "094152.675000", "094154.465000", "094152.875000", "094154.665000", "094153.072500", "094154.862500", "094152.277500", "094154.067500", "094151.482500", "094153.272500", "094151.680000", "094153.470000", "094151.880000", "094153.670000", "094152.077500", "094153.867500", "094152.477500", "094154.265000", "094152.675000", "094154.465000", "094152.875000", "094154.665000", "094153.072500", "094154.862500", "094152.277500", "094154.067500", "094151.482500", "094153.272500", "094151.680000", "094153.470000", "094151.880000", "094153.670000", "094152.077500", "094153.867500", "094152.477500", "094154.265000", "094152.675000", "094154.465000", "094152.875000", "094154.665000", "094153.072500", "094154.862500", "094152.277500", "094154.067500", "094151.482500", "094153.272500", "094151.680000", "094153.470000", "094151.880000", "094153.670000", "094152.077500", "094153.867500", "094152.477500", "094154.265000", "094152.675000", "094154.465000", "094152.875000", "094154.665000", "094153.072500", "094154.862500", "094152.277500", "094157.667500", "094155.082500", "094156.872500", "094155.280000", "094157.070000", "094155.480000", "094157.270000", "094155.677500", "094157.467500", "094156.077500", "094157.865000", "094156.275000", "094158.065000", "094156.475000", "094158.265000", "094156.672500", "094158.462500", "094155.877500", "094157.667500", "094155.082500", "094156.872500", "094155.280000", "094157.070000", "094155.480000", "094157.270000", "094155.677500", "094157.467500", "094156.077500", "094157.865000", "094156.275000", "094158.065000", "094156.475000", "094158.265000", "094156.672500", "094158.462500", "094155.877500", "094157.667500", "094155.082500", "094156.872500", "094155.280000", "094157.070000", "094155.480000", "094157.270000", "094155.677500", "094157.467500", "094156.077500", "094157.865000", "094156.275000", "094158.065000", "094156.475000", "094158.265000", "094156.672500", "094158.462500", "094155.877500", "094157.667500", "094155.082500", "094156.872500", "094155.280000", "094157.070000", "094155.480000", "094157.270000", "094155.677500", "094157.467500", "094156.077500", "094157.865000", "094156.275000", "094158.065000", "094156.475000", "094158.265000", "094156.672500", "094158.462500", "094155.877500", "094201.267500", "094158.682500", "094200.472500", "094158.880000", "094200.670000", "094159.080000", "094200.870000", "094159.277500", "094201.067500", "094159.677500", "094201.465000", "094159.875000", "094201.665000", "094200.075000", "094201.865000", "094200.272500", "094202.062500", "094159.477500", "094201.267500", "094158.682500", "094200.472500", "094158.880000", "094200.670000", "094159.080000", "094200.870000", "094159.277500", "094201.067500", "094159.677500", "094201.465000", "094159.875000", "094201.665000", "094200.075000", "094201.865000", "094200.272500", "094202.062500", "094159.477500", "094201.267500", "094158.682500", "094200.472500", "094158.880000", "094200.670000", "094159.080000", "094200.870000", "094159.277500", "094201.067500", "094159.677500", "094201.465000", "094159.875000", "094201.665000", "094200.075000", "094201.865000", "094200.272500", "094202.062500", "094159.477500", "094201.267500", "094158.682500", "094200.472500", "094158.880000", "094200.670000", "094159.080000", "094200.870000", "094159.277500", "094201.067500", "094159.677500", "094201.465000", "094159.875000", "094201.665000", "094200.075000", "094201.865000", "094200.272500", "094202.062500", "094159.477500", "094204.867500", "094202.282500", "094204.072500", "094202.480000", "094204.270000", "094202.680000", "094204.470000", "094202.877500", "094204.667500", "094203.277500", "094205.065000", "094203.475000", "094205.265000", "094203.675000", "094205.465000", "094203.872500", "094205.662500", "094203.077500", "094204.867500", "094202.282500", "094204.072500", "094202.480000", "094204.270000", "094202.680000", "094204.470000", "094202.877500", "094204.667500", "094203.277500", "094205.065000", "094203.475000", "094205.265000", "094203.675000", "094205.465000", "094203.872500", "094205.662500", "094203.077500", "094204.867500", "094202.282500", "094204.072500", "094202.480000", "094204.270000", "094202.680000", "094204.470000", "094202.877500", "094204.667500", "094203.277500", "094205.065000", "094203.475000", "094205.265000", "094203.675000", "094205.465000", "094203.872500", "094205.662500", "094203.077500", "094204.867500", "094202.282500", "094204.072500", "094202.480000", "094204.270000", "094202.680000", "094204.470000", "094202.877500", "094204.667500", "094203.277500", "094205.065000", "094203.475000", "094205.265000", "094203.675000", "094205.465000", "094203.872500", "094205.662500", "094203.077500", "094208.467500", "094205.882500", "094207.672500", "094206.080000", "094207.870000", "094206.280000", "094208.070000", "094206.477500", "094208.267500", "094206.877500", "094208.665000", "094207.075000", "094208.865000", "094207.275000", "094209.065000", "094207.472500", "094209.262500", "094206.677500", "094208.467500", "094205.882500", "094207.672500", "094206.080000", "094207.870000", "094206.280000", "094208.070000", "094206.477500", "094208.267500", "094206.877500", "094208.665000", "094207.075000", "094208.865000", "094207.275000", "094209.065000", "094207.472500", "094209.262500", "094206.677500", "094208.467500", "094205.882500", "094207.672500", "094206.080000", "094207.870000", "094206.280000", "094208.070000", "094206.477500", "094208.267500", "094206.877500", "094208.665000", "094207.075000", "094208.865000", "094207.275000", "094209.065000", "094207.472500", "094209.262500", "094206.677500", "094208.467500", "094205.882500", "094207.672500", "094206.080000", "094207.870000", "094206.280000", "094208.070000", "094206.477500", "094208.267500", "094206.877500", "094208.665000", "094207.075000", "094208.865000", "094207.275000", "094209.065000", "094207.472500", "094209.262500", "094206.677500", "094212.067500", "094209.482500", "094211.272500", "094209.680000", "094211.470000", "094209.880000", "094211.670000", "094210.077500", "094211.867500", "094210.477500", "094212.265000", "094210.675000", "094212.465000", "094210.875000", "094212.665000", "094211.072500", "094212.862500", "094210.277500", "094212.067500", "094209.482500", "094211.272500", "094209.680000", "094211.470000", "094209.880000", "094211.670000", "094210.077500", "094211.867500", "094210.477500", "094212.265000", "094210.675000", "094212.465000", "094210.875000", "094212.665000", "094211.072500", "094212.862500", "094210.277500", "094212.067500", "094209.482500", "094211.272500", "094209.680000", "094211.470000", "094209.880000", "094211.670000", "094210.077500", "094211.867500", "094210.477500", "094212.265000", "094210.675000", "094212.465000", "094210.875000", "094212.665000", "094211.072500", "094212.862500", "094210.277500", "094212.067500", "094209.482500", "094211.272500", "094209.680000", "094211.470000", "094209.880000", "094211.670000", "094210.077500", "094211.867500", "094210.477500", "094212.265000", "094210.675000", "094212.465000", "094210.875000", "094212.665000", "094211.072500", "094212.862500", "094210.277500", "094215.667500", "094213.082500", "094214.872500", "094213.280000", "094215.070000", "094213.480000", "094215.270000", "094213.677500", "094215.467500", "094214.077500", "094215.865000", "094214.275000", "094216.065000", "094214.475000", "094216.265000", "094214.672500", "094216.462500", "094213.877500", "094215.667500", "094213.082500", "094214.872500", "094213.280000", "094215.070000", "094213.480000", "094215.270000", "094213.677500", "094215.467500", "094214.077500", "094215.865000", "094214.275000", "094216.065000", "094214.475000", "094216.265000", "094214.672500", "094216.462500", "094213.877500", "094215.667500", "094213.082500", "094214.872500", "094213.280000", "094215.070000", "094213.480000", "094215.270000", "094213.677500", "094215.467500", "094214.077500", "094215.865000", "094214.275000", "094216.065000", "094214.475000", "094216.265000", "094214.672500", "094216.462500", "094213.877500", "094215.667500", "094213.082500", "094214.872500", "094213.280000", "094215.070000", "094213.480000", "094215.270000", "094213.677500", "094215.467500", "094214.077500", "094215.865000", "094214.275000", "094216.065000", "094214.475000", "094216.265000", "094214.672500", "094216.462500", "094213.877500", "094219.267500", "094216.682500", "094218.472500", "094216.880000", "094218.670000", "094217.080000", "094218.870000", "094217.277500", "094219.067500", "094217.677500", "094219.465000", "094217.875000", "094219.665000", "094218.075000", "094219.865000", "094218.272500", "094220.062500", "094217.477500", "094219.267500", "094216.682500", "094218.472500", "094216.880000", "094218.670000", "094217.080000", "094218.870000", "094217.277500", "094219.067500", "094217.677500", "094219.465000", "094217.875000", "094219.665000", "094218.075000", "094219.865000", "094218.272500", "094220.062500", "094217.477500", "094219.267500", "094216.682500", "094218.472500", "094216.880000", "094218.670000", "094217.080000", "094218.870000", "094217.277500", "094219.067500", "094217.677500", "094219.465000", "094217.875000", "094219.665000", "094218.075000", "094219.865000", "094218.272500", "094220.062500", "094217.477500", "094219.267500", "094216.682500", "094218.472500", "094216.880000", "094218.670000", "094217.080000", "094218.870000", "094217.277500", "094219.067500", "094217.677500", "094219.465000", "094217.875000", "094219.665000", "094218.075000", "094219.865000", "094218.272500", "094220.062500", "094217.477500", "094222.867500", "094220.282500", "094222.072500", "094220.480000", "094222.270000", "094220.680000", "094222.470000", "094220.877500", "094222.667500", "094221.277500", "094223.065000", "094221.475000", "094223.265000", "094221.675000", "094223.465000", "094221.872500", "094223.662500", "094221.077500", "094222.867500", "094220.282500", "094222.072500", "094220.480000", "094222.270000", "094220.680000", "094222.470000", "094220.877500", "094222.667500", "094221.277500", "094223.065000", "094221.475000", "094223.265000", "094221.675000", "094223.465000", "094221.872500", "094223.662500", "094221.077500", "094222.867500", "094220.282500", "094222.072500", "094220.480000", "094222.270000", "094220.680000", "094222.470000", "094220.877500", "094222.667500", "094221.277500", "094223.065000", "094221.475000", "094223.265000", "094221.675000", "094223.465000", "094221.872500", "094223.662500", "094221.077500", "094222.867500", "094220.282500", "094222.072500", "094220.480000", "094222.270000", "094220.680000", "094222.470000", "094220.877500", "094222.667500", "094221.277500", "094223.065000", "094221.475000", "094223.265000", "094221.675000", "094223.465000", "094221.872500", "094223.662500", "094221.077500", "094226.467500", "094223.882500", "094225.672500", "094224.080000", "094225.870000", "094224.280000", "094226.070000", "094224.477500", "094226.267500", "094224.877500", "094226.665000", "094225.075000", "094226.865000", "094225.275000", "094227.065000", "094225.472500", "094227.262500", "094224.677500", "094226.467500", "094223.882500", "094225.672500", "094224.080000", "094225.870000", "094224.280000", "094226.070000", "094224.477500", "094226.267500", "094224.877500", "094226.665000", "094225.075000", "094226.865000", "094225.275000", "094227.065000", "094225.472500", "094227.262500", "094224.677500", "094226.467500", "094223.882500", "094225.672500", "094224.080000", "094225.870000", "094224.280000", "094226.070000", "094224.477500", "094226.267500", "094224.877500", "094226.665000", "094225.075000", "094226.865000", "094225.275000", "094227.065000", "094225.472500", "094227.262500", "094224.677500", "094226.467500", "094223.882500", "094225.672500", "094224.080000", "094225.870000", "094224.280000", "094226.070000", "094224.477500", "094226.267500", "094224.877500", "094226.665000", "094225.075000", "094226.865000", "094225.275000", "094227.065000", "094225.472500", "094227.262500", "094224.677500", "094230.067500", "094227.482500", "094229.272500", "094227.680000", "094229.470000", "094227.880000", "094229.670000", "094228.077500", "094229.867500", "094228.477500", "094230.265000", "094228.675000", "094230.465000", "094228.875000", "094230.665000", "094229.072500", "094230.862500", "094228.277500", "094230.067500", "094227.482500", "094229.272500", "094227.680000", "094229.470000", "094227.880000", "094229.670000", "094228.077500", "094229.867500", "094228.477500", "094230.265000", "094228.675000", "094230.465000", "094228.875000", "094230.665000", "094229.072500", "094230.862500", "094228.277500", "094230.067500", "094227.482500", "094229.272500", "094227.680000", "094229.470000", "094227.880000", "094229.670000", "094228.077500", "094229.867500", "094228.477500", "094230.265000", "094228.675000", "094230.465000", "094228.875000", "094230.665000", "094229.072500", "094230.862500", "094228.277500", "094230.067500", "094227.482500", "094229.272500", "094227.680000", "094229.470000", "094227.880000", "094229.670000", "094228.077500", "094229.867500", "094228.477500", "094230.265000", "094228.675000", "094230.465000", "094228.875000", "094230.665000", "094229.072500", "094230.862500", "094228.277500", "094233.667500", "094231.082500", "094232.872500", "094231.280000", "094233.070000", "094231.480000", "094233.270000", "094231.677500", "094233.467500", "094232.077500", "094233.865000", "094232.275000", "094234.065000", "094232.475000", "094234.265000", "094232.672500", "094234.462500", "094231.877500", "094233.667500", "094231.082500", "094232.872500", "094231.280000", "094233.070000", "094231.480000", "094233.270000", "094231.677500", "094233.467500", "094232.077500", "094233.865000", "094232.275000", "094234.065000", "094232.475000", "094234.265000", "094232.672500", "094234.462500", "094231.877500", "094233.667500", "094231.082500", "094232.872500", "094231.280000", "094233.070000", "094231.480000", "094233.270000", "094231.677500", "094233.467500", "094232.077500", "094233.865000", "094232.275000", "094234.065000", "094232.475000", "094234.265000", "094232.672500", "094234.462500", "094231.877500", "094233.667500", "094231.082500", "094232.872500", "094231.280000", "094233.070000", "094231.480000", "094233.270000", "094231.677500", "094233.467500", "094232.077500", "094233.865000", "094232.275000", "094234.065000", "094232.475000", "094234.265000", "094232.672500", "094234.462500", "094231.877500", "094237.267500", "094234.682500", "094236.472500", "094234.880000", "094236.670000", "094235.080000", "094236.870000", "094235.277500", "094237.067500", "094235.677500", "094237.465000", "094235.875000", "094237.665000", "094236.075000", "094237.865000", "094236.272500", "094238.062500", "094235.477500", "094237.267500", "094234.682500", "094236.472500", "094234.880000", "094236.670000", "094235.080000", "094236.870000", "094235.277500", "094237.067500", "094235.677500", "094237.465000", "094235.875000", "094237.665000", "094236.075000", "094237.865000", "094236.272500", "094238.062500", "094235.477500", "094237.267500", "094234.682500", "094236.472500", "094234.880000", "094236.670000", "094235.080000", "094236.870000", "094235.277500", "094237.067500", "094235.677500", "094237.465000", "094235.875000", "094237.665000", "094236.075000", "094237.865000", "094236.272500", "094238.062500", "094235.477500", "094237.267500", "094234.682500", "094236.472500", "094234.880000", "094236.670000", "094235.080000", "094236.870000", "094235.277500", "094237.067500", "094235.677500", "094237.465000", "094235.875000", "094237.665000", "094236.075000", "094237.865000", "094236.272500", "094238.062500", "094235.477500", "094240.867500", "094238.282500", "094240.072500", "094238.480000", "094240.270000", "094238.680000", "094240.470000", "094238.877500", "094240.667500", "094239.277500", "094241.065000", "094239.475000", "094241.265000", "094239.675000", "094241.465000", "094239.872500", "094241.662500", "094239.077500", "094240.867500", "094238.282500", "094240.072500", "094238.480000", "094240.270000", "094238.680000", "094240.470000", "094238.877500", "094240.667500", "094239.277500", "094241.065000", "094239.475000", "094241.265000", "094239.675000", "094241.465000", "094239.872500", "094241.662500", "094239.077500", "094240.867500", "094238.282500", "094240.072500", "094238.480000", "094240.270000", "094238.680000", "094240.470000", "094238.877500", "094240.667500", "094239.277500", "094241.065000", "094239.475000", "094241.265000", "094239.675000", "094241.465000", "094239.872500", "094241.662500", "094239.077500", "094240.867500", "094238.282500", "094240.072500", "094238.480000", "094240.270000", "094238.680000", "094240.470000", "094238.877500", "094240.667500", "094239.277500", "094241.065000", "094239.475000", "094241.265000", "094239.675000", "094241.465000", "094239.872500", "094241.662500", "094239.077500", "094244.467500", "094241.882500", "094243.672500", "094242.080000", "094243.870000", "094242.280000", "094244.070000", "094242.477500", "094244.267500", "094242.877500", "094244.665000", "094243.075000", "094244.865000", "094243.275000", "094245.065000", "094243.472500", "094245.262500", "094242.677500", "094244.467500", "094241.882500", "094243.672500", "094242.080000", "094243.870000", "094242.280000", "094244.070000", "094242.477500", "094244.267500", "094242.877500", "094244.665000", "094243.075000", "094244.865000", "094243.275000", "094245.065000", "094243.472500", "094245.262500", "094242.677500", "094244.467500", "094241.882500", "094243.672500", "094242.080000", "094243.870000", "094242.280000", "094244.070000", "094242.477500", "094244.267500", "094242.877500", "094244.665000", "094243.075000", "094244.865000", "094243.275000", "094245.065000", "094243.472500", "094245.262500", "094242.677500", "094244.467500", "094241.882500", "094243.672500", "094242.080000", "094243.870000", "094242.280000", "094244.070000", "094242.477500", "094244.267500", "094242.877500", "094244.665000", "094243.075000", "094244.865000", "094243.275000", "094245.065000", "094243.472500", "094245.262500", "094242.677500", "094248.067500", "094245.482500", "094247.272500", "094245.680000", "094247.470000", "094245.880000", "094247.670000", "094246.077500", "094247.867500", "094246.477500", "094248.265000", "094246.675000", "094248.465000", "094246.875000", "094248.665000", "094247.072500", "094248.862500", "094246.277500", "094248.067500", "094245.482500", "094247.272500", "094245.680000", "094247.470000", "094245.880000", "094247.670000", "094246.077500", "094247.867500", "094246.477500", "094248.265000", "094246.675000", "094248.465000", "094246.875000", "094248.665000", "094247.072500", "094248.862500", "094246.277500", "094248.067500", "094245.482500", "094247.272500", "094245.680000", "094247.470000", "094245.880000", "094247.670000", "094246.077500", "094247.867500", "094246.477500", "094248.265000", "094246.675000", "094248.465000", "094246.875000", "094248.665000", "094247.072500", "094248.862500", "094246.277500", "094248.067500", "094245.482500", "094247.272500", "094245.680000", "094247.470000", "094245.880000", "094247.670000", "094246.077500", "094247.867500", "094246.477500", "094248.265000", "094246.675000", "094248.465000", "094246.875000", "094248.665000", "094247.072500", "094248.862500", "094246.277500", "094251.667500", "094249.082500", "094250.872500", "094249.280000", "094251.070000", "094249.480000", "094251.270000", "094249.677500", "094251.467500", "094250.077500", "094251.865000", "094250.275000", "094252.065000", "094250.475000", "094252.265000", "094250.672500", "094252.462500", "094249.877500", "094251.667500", "094249.082500", "094250.872500", "094249.280000", "094251.070000", "094249.480000", "094251.270000", "094249.677500", "094251.467500", "094250.077500", "094251.865000", "094250.275000", "094252.065000", "094250.475000", "094252.265000", "094250.672500", "094252.462500", "094249.877500", "094251.667500", "094249.082500", "094250.872500", "094249.280000", "094251.070000", "094249.480000", "094251.270000", "094249.677500", "094251.467500", "094250.077500", "094251.865000", "094250.275000", "094252.065000", "094250.475000", "094252.265000", "094250.672500", "094252.462500", "094249.877500", "094251.667500", "094249.082500", "094250.872500", "094249.280000", "094251.070000", "094249.480000", "094251.270000", "094249.677500", "094251.467500", "094250.077500", "094251.865000", "094250.275000", "094252.065000", "094250.475000", "094252.265000", "094250.672500", "094252.462500", "094249.877500", "094255.267500", "094252.682500", "094254.472500", "094252.880000", "094254.670000", "094253.080000", "094254.870000", "094253.277500", "094255.067500", "094253.677500", "094255.465000", "094253.875000", "094255.665000", "094254.075000", "094255.865000", "094254.272500", "094256.062500", "094253.477500", "094255.267500", "094252.682500", "094254.472500", "094252.880000", "094254.670000", "094253.080000", "094254.870000", "094253.277500", "094255.067500", "094253.677500", "094255.465000", "094253.875000", "094255.665000", "094254.075000", "094255.865000", "094254.272500", "094256.062500", "094253.477500", "094255.267500", "094252.682500", "094254.472500", "094252.880000", "094254.670000", "094253.080000", "094254.870000", "094253.277500", "094255.067500", "094253.677500", "094255.465000", "094253.875000", "094255.665000", "094254.075000", "094255.865000", "094254.272500", "094256.062500", "094253.477500", "094255.267500", "094252.682500", "094254.472500", "094252.880000", "094254.670000", "094253.080000", "094254.870000", "094253.277500", "094255.067500", "094253.677500", "094255.465000", "094253.875000", "094255.665000", "094254.075000", "094255.865000", "094254.272500", "094256.062500", "094253.477500", "094258.867500", "094256.282500", "094258.072500", "094256.480000", "094258.270000", "094256.680000", "094258.470000", "094256.877500", "094258.667500", "094257.277500", "094259.065000", "094257.475000", "094259.265000", "094257.675000", "094259.465000", "094257.872500", "094259.662500", "094257.077500", "094258.867500", "094256.282500", "094258.072500", "094256.480000", "094258.270000", "094256.680000", "094258.470000", "094256.877500", "094258.667500", "094257.277500", "094259.065000", "094257.475000", "094259.265000", "094257.675000", "094259.465000", "094257.872500", "094259.662500", "094257.077500", "094258.867500", "094256.282500", "094258.072500", "094256.480000", "094258.270000", "094256.680000", "094258.470000", "094256.877500", "094258.667500", "094257.277500", "094259.065000", "094257.475000", "094259.265000", "094257.675000", "094259.465000", "094257.872500", "094259.662500", "094257.077500", "094258.867500", "094256.282500", "094258.072500", "094256.480000", "094258.270000", "094256.680000", "094258.470000", "094256.877500", "094258.667500", "094257.277500", "094259.065000", "0