{
  "AcquisitionMatrixPE": 122,
  "AcquisitionNumber": 1,
  "AcquisitionTime": "09:35:17.057500",
  "BandwidthPerPixelPhaseEncode": 28.76,
  "BaseResolution": 122,
  "BodyPartExamined": "BRAIN",
  "CoilCombinationMethod": "Adaptive Combine",
  "ConsistencyInfo": "N4_VE11C_LATEST_20160120",
  "ConversionSoftware": "dcm2niix",
  "ConversionSoftwareVersion": "v1.0.20220720",
  "DerivedVendorReportedEchoSpacing": 0.000570008,
  "DeviceSerialNumber": "66112",
  "DiffusionScheme": "Monopolar",
  "DwellTime": 2e-06,
  "EchoTime": 0.075,
  "EchoTrainLength": 61,
  "EffectiveEchoSpacing": 0.000285004,
  "FlipAngle": 90,
  "HeudiconvVersion": "0.13.1",
  "ImageOrientationPatientDICOM": [0.984883, 0.172752, 0.0127562, -0.168526, 0.938546, 0.301214],
  "ImageOrientationText": "Tra>Cor(17.4)>Sag(-2.3)",
  "ImageType": [
    "ORIGINAL",
    "PRIMARY",
    "DIFFUSION",
    "NONE",
    "ND",
    "NORM"
],
  "ImagingFrequency": 123.252,
  "InPlanePhaseEncodingDirectionDICOM": "COL",
  "InstitutionAddress": "Maynard 3,Hanover,NH,US,03755",
  "InstitutionName": "Dartmouth College - PBS",
  "InstitutionalDepartmentName": "Department",
  "MRAcquisitionType": "2D",
  "MagneticFieldStrength": 3,
  "Manufacturer": "Siemens",
  "ManufacturersModelName": "Prisma",
  "MatrixCoilMode": "GRAPPA",
  "Modality": "MR",
  "NonlinearGradientCorrection": false,
  "ParallelReductionFactorInPlane": 2,
  "PartialFourier": 1,
  "PatientPosition": "HFS",
  "PercentPhaseFOV": 100,
  "PercentSampling": 100,
  "PhaseEncodingDirection": "j-",
  "PhaseEncodingSteps": 122,
  "PhaseResolution": 1,
  "PixelBandwidth": 2050,
  "ProcedureStepDescription": "dbic^QA",
  "ProtocolName": "dwi_acq-DTI-30-p2",
  "PulseSequenceDetails": "%SiemensSeq%\\ep2d_diff",
  "ReceiveCoilActiveElements": "HEA;HEP",
  "ReceiveCoilName": "Head_32",
  "ReconMatrixPE": 122,
  "RefLinesPE": 38,
  "RepetitionTime": 7.7,
  "SAR": 0.102082,
  "ScanOptions": "FS",
  "ScanningSequence": "EP",
  "SequenceName": "*ep_b0",
  "SequenceVariant": "SK\\SP",
  "SeriesDescription": "dwi_acq-DTI-30-p2",
  "SeriesNumber": 8,
  "ShimSetting": [4144, -7689, -7522, 304, -31, -158, -38, 66],
  "SliceThickness": 2,
  "SliceTiming": [3.83594, 0, 3.94531, 0.10938, 4.0625, 0.21875, 4.17188, 0.32812, 4.28125, 0.4375, 4.38281, 0.54688, 4.5, 0.65625, 4.60938, 0.76562, 4.71875, 0.875, 4.82812, 0.98438, 4.9375, 1.09375, 5.04688, 1.20312, 5.15625, 1.3125, 5.26562, 1.42969, 5.375, 1.53125, 5.48438, 1.64062, 5.59375, 1.75, 5.70312, 1.86719, 5.8125, 1.97656, 5.92188, 2.08594, 6.03125, 2.19531, 6.14062, 2.30469, 6.25, 2.41406, 6.35938, 2.52344, 6.46875, 2.63281, 6.57812, 2.74219, 6.6875, 2.85156, 6.80469, 2.96094, 6.91406, 3.07031, 7.02344, 3.17969, 7.13281, 3.28906, 7.24219, 3.39844, 7.35156, 3.50781, 7.46094, 3.61719, 7.57031, 3.72656],
  "SoftwareVersions": "syngo MR E11",
  "SpacingBetweenSlices": 2,
  "SpoilingState": true,
  "StationName": "AWP66112",
  "TotalReadoutTime": 0.0344855,
  "TxRefAmp": 232.269,
  "dcmmeta_affine": [
    [-1.937474250793457, -0.33152663707733154, -0.08012604713439941, 145.87225341796875],
    [-0.3398405611515045, 1.8463208675384521, 0.5976200103759766, -112.0649642944336],
    [0.0250941663980484, -0.5925513505935669, 1.9069442749023438, -39.67774963378906],
    [0.0, 0.0, 0.0, 1.0]
],
  "dcmmeta_reorient_transform": [
    [0.0, -1.0, 0.0, 121.0],
    [1.0, 0.0, 0.0, 0.0],
    [0.0, 0.0, -1.0, 69.0],
    [0.0, 0.0, 0.0, 1.0]
],
  "dcmmeta_shape": [122, 122, 70, 31],
  "dcmmeta_slice_dim": 2,
  "dcmmeta_version": 0.6,
  "global": {
    "const": {
      "AccessionNumber": "qa",
      "AcquisitionMatrix": [122, 0, 0, 122],
      "AngioFlag": "N",
      "BitsAllocated": 16,
      "BitsStored": 12,
      "BodyPartExamined": "BRAIN",
      "Columns": 122,
      "EchoNumbers": 1,
      "EchoTime": 75.0,
      "EchoTrainLength": 61,
      "FlipAngle": 90.0,
      "HighBit": 11,
      "ImageOrientationPatient": [0.98488269725683, 0.17275228503163, 0.01275620086331, -0.1685260348405, 0.93854639553175, 0.30121361027564],
      "ImageType": [
        "ORIGINAL",
        "PRIMARY",
        "DIFFUSION",
        "NONE",
        "ND",
        "NORM"
],
      "ImagedNucleus": "1H",
      "ImagingFrequency": 123.252473,
      "InPlanePhaseEncodingDirection": "COL",
      "MRAcquisitionType": "2D",
      "MagneticFieldStrength": 3.0,
      "Manufacturer": "SIEMENS",
      "ManufacturerModelName": "Prisma",
      "Modality": "MR",
      "NumberOfAverages": 1.0,
      "NumberOfPhaseEncodingSteps": 122,
      "PercentPhaseFieldOfView": 100.0,
      "PercentSampling": 100.0,
      "PerformedProcedureStepStartTime": "091713.388000",
      "PhotometricInterpretation": "MONOCHROME2",
      "PixelBandwidth": 2050.0,
      "PixelRepresentation": 0,
      "PixelSpacing": [1.9672131538391, 1.9672131538391],
      "ProtocolName": "dwi_acq-DTI-30-p2",
      "RepetitionTime": 7700.0,
      "Rows": 122,
      "SAR": 0.10208152072182,
      "SamplesPerPixel": 1,
      "ScanOptions": "FS",
      "ScanningSequence": "EP",
      "SequenceVariant": [
        "SK",
        "SP"
],
      "SeriesDescription": "dwi_acq-DTI-30-p2",
      "SeriesNumber": 8,
      "SeriesTime": "093531.147000",
      "SliceThickness": 2.0,
      "SmallestImagePixelValue": 0,
      "SoftwareVersions": "syngo MR E11",
      "SpacingBetweenSlices": 2.0,
      "SpecificCharacterSet": "ISO_IR 100",
      "StudyID": "35",
      "StudyTime": "091713.265000",
      "TransmitCoilName": "Body",
      "VariableFlipAngleFlag": "N",
      "WindowCenterWidthExplanation": "Algo1",
      "dBdt": 0.0},
    "slices": {
      "AcquisitionTime": ["093517.057500", "093513.217500", "093517.167500", "093513.327500", "093517.277500", "093513.437500", "093517.387500", "093513.547500", "093517.497500", "093513.657500", "093517.605000", "093513.767500", "093517.715000", "093513.875000", "093517.825000", "093513.985000", "093517.935000", "093514.095000", "093518.045000", "093514.205000", "093518.155000", "093514.315000", "093518.265000", "093514.425000", "093518.375000", "093514.535000", "093518.485000", "093514.645000", "093518.592500", "093514.752500", "093518.702500", "093514.862500", "093518.812500", "093514.972500", "093518.922500", "093515.082500", "093519.032500", "093515.192500", "093519.142500", "093515.302500", "093519.252500", "093515.412500", "093519.362500", "093515.522500", "093519.470000", "093515.632500", "093519.580000", "093515.740000", "093519.690000", "093515.850000", "093519.800000", "093515.960000", "093519.910000", "093516.070000", "093520.020000", "093516.180000", "093520.130000", "093516.290000", "093520.240000", "093516.400000", "093520.350000", "093516.510000", "093520.457500", "093516.620000", "093520.567500", "093516.727500", "093520.677500", "093516.837500", "093520.787500", "093516.947500", "093524.757500", "093520.917500", "093524.867500", "093521.027500", "093524.977500", "093521.137500", "093525.087500", "093521.247500", "093525.197500", "093521.357500", "093525.305000", "093521.467500", "093525.415000", "093521.575000", "093525.525000", "093521.685000", "093525.635000", "093521.795000", "093525.745000", "093521.905000", "093525.855000", "093522.015000", "093525.965000", "093522.125000", "093526.075000", "093522.235000", "093526.185000", "093522.345000", "093526.292500", "093522.452500", "093526.402500", "093522.562500", "093526.512500", "093522.672500", "093526.622500", "093522.782500", "093526.732500", "093522.892500", "093526.842500", "093523.002500", "093526.952500", "093523.112500", "093527.062500", "093523.222500", "093527.170000", "093523.332500", "093527.280000", "093523.440000", "093527.390000", "093523.550000", "093527.500000", "093523.660000", "093527.610000", "093523.770000", "093527.720000", "093523.880000", "093527.830000", "093523.990000", "093527.940000", "093524.100000", "093528.050000", "093524.210000", "093528.157500", "093524.320000", "093528.267500", "093524.427500", "093528.377500", "093524.537500", "093528.487500", "093524.647500", "093532.457500", "093528.617500", "093532.567500", "093528.727500", "093532.677500", "093528.837500", "093532.787500", "093528.947500", "093532.897500", "093529.057500", "093533.005000", "093529.167500", "093533.115000", "093529.275000", "093533.225000", "093529.385000", "093533.335000", "093529.495000", "093533.445000", "093529.605000", "093533.555000", "093529.715000", "093533.665000", "093529.825000", "093533.775000", "093529.935000", "093533.885000", "093530.045000", "093533.992500", "093530.152500", "093534.102500", "093530.262500", "093534.212500", "093530.372500", "093534.322500", "093530.482500", "093534.432500", "093530.592500", "093534.542500", "093530.702500", "093534.652500", "093530.812500", "093534.762500", "093530.922500", "093534.870000", "093531.032500", "093534.980000", "093531.140000", "093535.090000", "093531.250000", "093535.200000", "093531.360000", "093535.310000", "093531.470000", "093535.420000", "093531.580000", "093535.530000", "093531.690000", "093535.640000", "093531.800000", "093535.750000", "093531.910000", "093535.857500", "093532.020000", "093535.967500", "093532.127500", "093536.077500", "093532.237500", "093536.187500", "093532.347500", "093540.157500", "093536.317500", "093540.267500", "093536.427500", "093540.377500", "093536.537500", "093540.487500", "093536.647500", "093540.597500", "093536.757500", "093540.705000", "093536.867500", "093540.815000", "093536.975000", "093540.925000", "093537.085000", "093541.035000", "093537.195000", "093541.145000", "093537.305000", "093541.255000", "093537.415000", "093541.365000", "093537.525000", "093541.475000", "093537.635000", "093541.585000", "093537.745000", "093541.692500", "093537.852500", "093541.802500", "093537.962500", "093541.912500", "093538.072500", "093542.022500", "093538.182500", "093542.132500", "093538.292500", "093542.242500", "093538.402500", "093542.352500", "093538.512500", "093542.462500", "093538.622500", "093542.570000", "093538.732500", "093542.680000", "093538.840000", "093542.790000", "093538.950000", "093542.900000", "093539.060000", "093543.010000", "093539.170000", "093543.120000", "093539.280000", "093543.230000", "093539.390000", "093543.340000", "093539.500000", "093543.450000", "093539.610000", "093543.557500", "093539.720000", "093543.667500", "093539.827500", "093543.777500", "093539.937500", "093543.887500", "093540.047500", "093547.857500", "093544.017500", "093547.967500", "093544.127500", "093548.077500", "093544.237500", "093548.187500", "093544.347500", "093548.297500", "093544.457500", "093548.405000", "093544.567500", "093548.515000", "093544.675000", "093548.625000", "093544.785000", "093548.735000", "093544.895000", "093548.845000", "093545.005000", "093548.955000", "093545.115000", "093549.065000", "093545.225000", "093549.175000", "093545.335000", "093549.285000", "093545.445000", "093549.392500", "093545.552500", "093549.502500", "093545.662500", "093549.612500", "093545.772500", "093549.722500", "093545.882500", "093549.832500", "093545.992500", "093549.942500", "093546.102500", "093550.052500", "093546.212500", "093550.162500", "093546.322500", "093550.270000", "093546.432500", "093550.380000", "093546.540000", "093550.490000", "093546.650000", "093550.600000", "093546.760000", "093550.710000", "093546.870000", "093550.820000", "093546.980000", "093550.930000", "093547.090000", "093551.040000", "093547.200000", "093551.150000", "093547.310000", "093551.257500", "093547.420000", "093551.367500", "093547.527500", "093551.477500", "093547.637500", "093551.587500", "093547.747500", "093555.557500", "093551.717500", "093555.667500", "093551.827500", "093555.777500", "093551.937500", "093555.887500", "093552.047500", "093555.997500", "093552.157500", "093556.105000", "093552.267500", "093556.215000", "093552.375000", "093556.325000", "093552.485000", "093556.435000", "093552.595000", "093556.545000", "093552.705000", "093556.655000", "093552.815000", "093556.765000", "093552.925000", "093556.875000", "093553.035000", "093556.985000", "093553.145000", "093557.092500", "093553.252500", "093557.202500", "093553.362500", "093557.312500", "093553.472500", "093557.422500", "093553.582500", "093557.532500", "093553.692500", "093557.642500", "093553.802500", "093557.752500", "093553.912500", "093557.862500", "093554.022500", "093557.970000", "093554.132500", "093558.080000", "093554.240000", "093558.190000", "093554.350000", "093558.300000", "093554.460000", "093558.410000", "093554.570000", "093558.520000", "093554.680000", "093558.630000", "093554.790000", "093558.740000", "093554.900000", "093558.850000", "093555.010000", "093558.957500", "093555.120000", "093559.067500", "093555.227500", "093559.177500", "093555.337500", "093559.287500", "093555.447500", "093603.257500", "093559.417500", "093603.367500", "093559.527500", "093603.477500", "093559.637500", "093603.587500", "093559.747500", "093603.697500", "093559.857500", "093603.805000", "093559.967500", "093603.915000", "093600.075000", "093604.025000", "093600.185000", "093604.135000", "093600.295000", "093604.245000", "093600.405000", "093604.355000", "093600.515000", "093604.465000", "093600.625000", "093604.575000", "093600.735000", "093604.685000", "093600.845000", "093604.792500", "093600.952500", "093604.902500", "093601.062500", "093605.012500", "093601.172500", "093605.122500", "093601.282500", "093605.232500", "093601.392500", "093605.342500", "093601.502500", "093605.452500", "093601.612500", "093605.562500", "093601.722500", "093605.670000", "093601.832500", "093605.780000", "093601.940000", "093605.890000", "093602.050000", "093606.000000", "093602.160000", "093606.110000", "093602.270000", "093606.220000", "093602.380000", "093606.330000", "093602.490000", "093606.440000", "093602.600000", "093606.550000", "093602.710000", "093606.657500", "093602.820000", "093606.767500", "093602.927500", "093606.877500", "093603.037500", "093606.987500", "093603.147500", "093610.957500", "093607.117500", "093611.067500", "093607.227500", "093611.177500", "093607.337500", "093611.287500", "093607.447500", "093611.397500", "093607.557500", "093611.505000", "093607.667500", "093611.615000", "093607.775000", "093611.725000", "093607.885000", "093611.835000", "093607.995000", "093611.945000", "093608.105000", "093612.055000", "093608.215000", "093612.165000", "093608.325000", "093612.275000", "093608.435000", "093612.385000", "093608.545000", "093612.492500", "093608.652500", "093612.602500", "093608.762500", "093612.712500", "093608.872500", "093612.822500", "093608.982500", "093612.932500", "093609.092500", "093613.042500", "093609.202500", "093613.152500", "093609.312500", "093613.262500", "093609.422500", "093613.370000", "093609.532500", "093613.480000", "093609.640000", "093613.590000", "093609.750000", "093613.700000", "093609.860000", "093613.810000", "093609.970000", "093613.920000", "093610.080000", "093614.030000", "093610.190000", "093614.140000", "093610.300000", "093614.250000", "093610.410000", "093614.357500", "093610.520000", "093614.467500", "093610.627500", "093614.577500", "093610.737500", "093614.687500", "093610.847500", "093618.657500", "093614.817500", "093618.767500", "093614.927500", "093618.877500", "093615.037500", "093618.987500", "093615.147500", "093619.097500", "093615.257500", "093619.205000", "093615.367500", "093619.315000", "093615.475000", "093619.425000", "093615.585000", "093619.535000", "093615.695000", "093619.645000", "093615.805000", "093619.755000", "093615.915000", "093619.865000", "093616.025000", "093619.975000", "093616.135000", "093620.085000", "093616.245000", "093620.192500", "093616.352500", "093620.302500", "093616.462500", "093620.412500", "093616.572500", "093620.522500", "093616.682500", "093620.632500", "093616.792500", "093620.742500", "093616.902500", "093620.852500", "093617.012500", "093620.962500", "093617.122500", "093621.070000", "093617.232500", "093621.180000", "093617.340000", "093621.290000", "093617.450000", "093621.400000", "093617.560000", "093621.510000", "093617.670000", "093621.620000", "093617.780000", "093621.730000", "093617.890000", "093621.840000", "093618.000000", "093621.950000", "093618.110000", "093622.057500", "093618.220000", "093622.167500", "093618.327500", "093622.277500", "093618.437500", "093622.387500", "093618.547500", "093626.357500", "093622.517500", "093626.467500", "093622.627500", "093626.577500", "093622.737500", "093626.687500", "093622.847500", "093626.797500", "093622.957500", "093626.905000", "093623.067500", "093627.015000", "093623.175000", "093627.125000", "093623.285000", "093627.235000", "093623.395000", "093627.345000", "093623.505000", "093627.455000", "093623.615000", "093627.565000", "093623.725000", "093627.675000", "093623.835000", "093627.785000", "093623.945000", "093627.892500", "093624.052500", "093628.002500", "093624.162500", "093628.112500", "093624.272500", "093628.222500", "093624.382500", "093628.332500", "093624.492500", "093628.442500", "093624.602500", "093628.552500", "093624.712500", "093628.662500", "093624.822500", "093628.770000", "093624.932500", "093628.880000", "093625.040000", "093628.990000", "093625.150000", "093629.100000", "093625.260000", "093629.210000", "093625.370000", "093629.320000", "093625.480000", "093629.430000", "093625.590000", "093629.540000", "093625.700000", "093629.650000", "093625.810000", "093629.757500", "093625.920000", "093629.867500", "093626.027500", "093629.977500", "093626.137500", "093630.087500", "093626.247500", "093634.057500", "093630.217500", "093634.167500", "093630.327500", "093634.277500", "093630.437500", "093634.387500", "093630.547500", "093634.497500", "093630.657500", "093634.605000", "093630.767500", "093634.715000", "093630.875000", "093634.825000", "093630.985000", "093634.935000", "093631.095000", "093635.045000", "093631.205000", "093635.155000", "093631.315000", "093635.265000", "093631.425000", "093635.375000", "093631.535000", "093635.485000", "093631.645000", "093635.592500", "093631.752500", "093635.702500", "093631.862500", "093635.812500", "093631.972500", "093635.922500", "093632.082500", "093636.032500", "093632.192500", "093636.142500", "093632.302500", "093636.252500", "093632.412500", "093636.362500", "093632.522500", "093636.470000", "093632.632500", "093636.580000", "093632.740000", "093636.690000", "093632.850000", "093636.800000", "093632.960000", "093636.910000", "093633.070000", "093637.020000", "093633.180000", "093637.130000", "093633.290000", "093637.240000", "093633.400000", "093637.350000", "093633.510000", "093637.457500", "093633.620000", "093637.567500", "093633.727500", "093637.677500", "093633.837500", "093637.787500", "093633.947500", "093641.757500", "093637.917500", "093641.867500", "093638.027500", "093641.977500", "093638.137500", "093642.087500", "093638.247500", "093642.197500", "093638.357500", "093642.305000", "093638.467500", "093642.415000", "093638.575000", "093642.525000", "093638.685000", "093642.635000", "093638.795000", "093642.745000", "093638.905000", "093642.855000", "093639.015000", "093642.965000", "093639.125000", "093643.075000", "093639.235000", "093643.185000", "093639.345000", "093643.292500", "093639.452500", "093643.402500", "093639.562500", "093643.512500", "093639.672500", "093643.622500", "093639.782500", "093643.732500", "093639.892500", "093643.842500", "093640.002500", "093643.952500", "093640.112500", "093644.062500", "093640.222500", "093644.170000", "093640.332500", "093644.280000", "093640.440000", "093644.390000", "093640.550000", "093644.500000", "093640.660000", "093644.610000", "093640.770000", "093644.720000", "093640.880000", "093644.830000", "093640.990000", "093644.940000", "093641.100000", "093645.050000", "093641.210000", "093645.157500", "093641.320000", "093645.267500", "093641.427500", "093645.377500", "093641.537500", "093645.487500", "093641.647500", "093649.457500", "093645.617500", "093649.567500", "093645.727500", "093649.677500", "093645.837500", "093649.787500", "093645.947500", "093649.897500", "093646.057500", "093650.005000", "093646.167500", "093650.115000", "093646.275000", "093650.225000", "093646.385000", "093650.335000", "093646.495000", "093650.445000", "093646.605000", "093650.555000", "093646.715000", "093650.665000", "093646.825000", "093650.775000", "093646.935000", "093650.885000", "093647.045000", "093650.992500", "093647.152500", "093651.102500", "093647.262500", "093651.212500", "093647.372500", "093651.322500", "093647.482500", "093651.432500", "093647.592500", "093651.542500", "093647.702500", "093651.652500", "093647.812500", "093651.762500", "093647.922500", "093651.870000", "093648.032500", "093651.980000", "093648.140000", "093652.090000", "093648.250000", "093652.200000", "093648.360000", "093652.310000", "093648.470000", "093652.420000", "093648.580000", "093652.530000", "093648.690000", "093652.640000", "093648.800000", "093652.750000", "093648.910000", "093652.857500", "093649.020000", "093652.967500", "093649.127500", "093653.077500", "093649.237500", "093653.187500", "093649.347500", "093657.157500", "093653.317500", "093657.267500", "093653.427500", "093657.377500", "093653.537500", "093657.487500", "093653.647500", "093657.597500", "093653.757500", "093657.705000", "093653.867500", "093657.815000", "093653.975000", "093657.925000", "093654.085000", "093658.035000", "093654.195000", "093658.145000", "093654.305000", "093658.255000", "093654.415000", "093658.365000", "093654.525000", "093658.475000", "093654.635000", "093658.585000", "093654.745000", "093658.692500", "093654.852500", "093658.802500", "093654.962500", "093658.912500", "093655.072500", "093659.022500", "093655.182500", "093659.132500", "093655.292500", "093659.242500", "093655.402500", "093659.352500", "093655.512500", "093659.462500", "093655.622500", "093659.570000", "093655.732500", "093659.680000", "093655.840000", "093659.790000", "093655.950000", "093659.900000", "093656.060000", "093700.010000", "093656.170000", "093700.120000", "093656.280000", "093700.230000", "093656.390000", "093700.340000", "093656.500000", "093700.450000", "093656.610000", "093700.557500", "093656.720000", "093700.667500", "093656.827500", "093700.777500", "093656.937500", "093700.887500", "093657.047500", "093704.857500", "093701.017500", "093704.967500", "093701.127500", "093705.077500", "093701.237500", "093705.187500", "093701.347500", "093705.297500", "093701.457500", "093705.405000", "093701.567500", "093705.515000", "093701.675000", "093705.625000", "093701.785000", "093705.735000", "093701.895000", "093705.845000", "093702.005000", "093705.955000", "093702.115000", "093706.065000", "093702.225000", "093706.175000", "093702.335000", "093706.285000", "093702.445000", "093706.392500", "093702.552500", "093706.502500", "093702.662500", "093706.612500", "093702.772500", "093706.722500", "093702.882500", "093706.832500", "093702.992500", "093706.942500", "093703.102500", "093707.052500", "093703.212500", "093707.162500", "093703.322500", "093707.270000", "093703.432500", "093707.380000", "093703.540000", "093707.490000", "093703.650000", "093707.600000", "093703.760000", "093707.710000", "093703.870000", "093707.820000", "093703.980000", "093707.930000", "093704.090000", "093708.040000", "093704.200000", "093708.150000", "093704.310000", "093708.257500", "093704.420000", "093708.367500", "093704.527500", "093708.477500", "093704.637500", "093708.587500", "093704.747500", "093712.557500", "093708.717500", "093712.667500", "093708.827500", "093712.777500", "093708.937500", "093712.887500", "093709.047500", "093712.997500", "093709.157500", "093713.105000", "093709.267500", "093713.215000", "093709.375000", "093713.325000", "093709.485000", "093713.435000", "093709.595000", "093713.545000", "093709.705000", "093713.655000", "093709.815000", "093713.765000", "093709.925000", "093713.875000", "093710.035000", "093713.985000", "093710.145000", "093714.092500", "093710.252500", "093714.202500", "093710.362500", "093714.312500", "093710.472500", "093714.422500", "093710.582500", "093714.532500", "093710.692500", "093714.642500", "093710.802500", "093714.752500", "093710.912500", "093714.862500", "093711.022500", "093714.970000", "093711.132500", "093715.080000", "093711.240000", "093715.190000", "093711.350000", "093715.300000", "093711.460000", "093715.410000", "093711.570000", "093715.520000", "093711.680000", "093715.630000", "093711.790000", "093715.740000", "093711.900000", "093715.850000", "093712.010000", "093715.957500", "093712.120000", "093716.067500", "093712.227500", "093716.177500", "093712.337500", "093716.287500", "093712.447500", "093720.257500", "093716.417500", "093720.367500", "093716.527500", "093720.477500", "093716.637500", "093720.587500", "093716.747500", "093720.697500", "093716.857500", "093720.805000", "093716.967500", "093720.915000", "093717.075000", "093721.025000", "093717.185000", "093721.135000", "093717.295000", "093721.245000", "093717.405000", "093721.355000", "093717.515000", "093721.465000", "093717.625000", "093721.575000", "093717.735000", "093721.685000", "093717.845000", "093721.792500", "093717.952500", "093721.902500", "093718.062500", "093722.012500", "093718.172500", "093722.122500", "093718.282500", "093722.232500", "093718.392500", "093722.342500", "093718.502500", "093722.452500", "093718.612500", "093722.562500", "093718.722500", "093722.670000", "093718.832500", "093722.780000", "093718.940000", "093722.890000", "093719.050000", "093723.000000", "093719.160000", "093723.110000", "093719.270000", "093723.220000", "093719.380000", "093723.330000", "093719.490000", "093723.440000", "093719.600000", "093723.550000", "093719.710000", "093723.657500", "093719.820000", "093723.767500", "093719.927500", "093723.877500", "093720.037500", "093723.987500", "093720.147500", "093727.957500", "093724.117500", "093728.067500", "093724.227500", "093728.177500", "093724.337500", "093728.287500", "093724.447500", "093728.397500", "093724.557500", "093728.505000", "093724.667500", "093728.615000", "093724.775000", "093728.725000", "093724.885000", "093728.835000", "093724.995000", "093728.945000", "093725.105000", "093729.055000", "093725.215000", "093729.165000", "093725.325000", "093729.275000", "093725.435000", "093729.385000", "093725.545000", "093729.492500", "093725.652500", "093729.602500", "093725.762500", "093729.712500", "093725.872500", "093729.822500", "093725.982500", "093729.932500", "093726.092500", "093730.042500", "093726.202500", "093730.152500", "093726.312500", "093730.262500", "093726.422500", "093730.370000", "093726.532500", "093730.480000", "093726.640000", "093730.590000", "093726.750000", "093730.700000", "093726.860000", "093730.810000", "093726.970000", "093730.920000", "093727.080000", "093731.030000", "093727.190000", "093731.140000", "093727.300000", "093731.250000", "093727.410000", "093731.357500", "093727.520000", "093731.467500", "093727.627500", "093731.577500", "093727.737500", "093731.687500", "093727.847500", "093735.657500", "093731.817500", "093735.767500", "093731.927500", "093735.877500", "093732.037500", "093735.987500", "093732.147500", "093736.097500", "093732.257500", "093736.205000", "093732.367500", "093736.315000", "093732.475000", "093736.425000", "093732.585000", "093736.535000", "093732.695000", "093736.645000", "093732.805000", "093736.755000", "093732.915000", "093736.865000", "093733.025000", "093736.975000", "093733.135000", "093737.085000", "093733.245000", "093737.192500", "093733.352500", "093737.302500", "093733.462500", "093737.412500", "093733.572500", "093737.522500", "093733.682500", "093737.632500", "093733.792500", "093737.742500", "093733.902500", "093737.852500", "093734.012500", "093737.962500", "093734.122500", "093738.070000", "093734.232500", "093738.180000", "093734.340000", "093738.290000", "093734.450000", "093738.400000", "093734.560000", "093738.510000", "093734.670000", "093738.620000", "093734.780000", "093738.730000", "093734.890000", "093738.840000", "093735.000000", "093738.950000", "093735.110000", "093739.057500", "093735.220000", "093739.167500", "093735.327500", "093739.277500", "093735.437500", "093739.387500", "093735.547500", "093743.357500", "093739.517500", "093743.467500", "093739.627500", "093743.577500", "093739.737500", "093743.687500", "093739.847500", "093743.797500", "093739.957500", "093743.905000", "093740.067500", "093744.015000", "093740.175000", "093744.125000", "093740.285000", "093744.235000", "093740.395000", "093744.345000", "093740.505000", "093744.455000", "093740.615000", "093744.565000", "093740.725000", "093744.675000", "093740.835000", "093744.785000", "093740.945000", "093744.892500", "093741.052500", "093745.002500", "093741.162500", "093745.112500", "093741.272500", "093745.222500", "093741.382500", "093745.332500", "093741.492500", "093745.442500", "093741.602500", "093745.552500", "093741.712500", "093745.662500", "093741.822500", "093745.770000", "093741.932500", "093745.880000", "093742.040000", "093745.990000", "093742.150000", "093746.100000", "093742.260000", "093746.210000", "093742.370000", "093746.320000", "093742.480000", "093746.430000", "093742.590000", "093746.540000", "093742.700000", "093746.650000", "093742.810000", "093746.757500", "093742.920000", "093746.867500", "093743.027500", "093746.977500", "093743.137500", "093747.087500", "093743.247500", "093751.057500", "093747.217500", "093751.167500", "093747.327500", "093751.277500", "093747.437500", "093751.387500", "093747.547500", "093751.497500", "093747.657500", "093751.605000", "093747.767500", "093751.715000", "093747.875000", "093751.825000", "093747.985000", "093751.935000", "093748.095000", "093752.045000", "093748.205000", "093752.155000", "093748.315000", "093752.265000", "093748.425000", "093752.375000", "093748.535000", "093752.485000", "093748.645000", "093752.592500", "093748.752500", "093752.702500", "093748.862500", "093752.812500", "093748.972500", "093752.922500", "0937