{
  "AcquisitionMatrixPE": 122,
  "AcquisitionNumber": 1,
  "AcquisitionTime": "09:39:39.452500",
  "BandwidthPerPixelPhaseEncode": 27.785,
  "BaseResolution": 122,
  "BodyPartExamined": "BRAIN",
  "CoilCombinationMethod": "Adaptive Combine",
  "ConsistencyInfo": "N4_VE11C_LATEST_20160120",
  "ConversionSoftware": "dcm2niix",
  "ConversionSoftwareVersion": "v1.0.20220720",
  "DerivedVendorReportedEchoSpacing": 0.000590011,
  "DeviceSerialNumber": "66112",
  "DiffusionScheme": "Monopolar",
  "DwellTime": 2e-06,
  "EchoTime": 0.068,
  "EchoTrainLength": 61,
  "EffectiveEchoSpacing": 0.000295005,
  "FlipAngle": 90,
  "HeudiconvVersion": "0.13.1",
  "ImageOrientationPatientDICOM": [0.984883, 0.172752, 0.0127562, -0.168526, 0.938546, 0.301214],
  "ImageOrientationText": "Tra>Cor(17.4)>Sag(-2.3)",
  "ImageType": [
    "ORIGINAL",
    "PRIMARY",
    "DIFFUSION",
    "NONE",
    "ND",
    "NORM"
],
  "ImagingFrequency": 123.252,
  "InPlanePhaseEncodingDirectionDICOM": "COL",
  "InstitutionAddress": "Maynard 3,Hanover,NH,US,03755",
  "InstitutionName": "Dartmouth College - PBS",
  "InstitutionalDepartmentName": "Department",
  "MRAcquisitionType": "2D",
  "MagneticFieldStrength": 3,
  "Manufacturer": "Siemens",
  "ManufacturersModelName": "Prisma",
  "Modality": "MR",
  "MultibandAccelerationFactor": 4,
  "NonlinearGradientCorrection": false,
  "ParallelReductionFactorInPlane": 2,
  "PartialFourier": 1,
  "PatientPosition": "HFS",
  "PercentPhaseFOV": 100,
  "PercentSampling": 100,
  "PhaseEncodingDirection": "j-",
  "PhaseEncodingSteps": 122,
  "PhaseResolution": 1,
  "PixelBandwidth": 2050,
  "ProcedureStepDescription": "dbic^QA",
  "ProtocolName": "dwi_acq-DTI-30-p2-s4",
  "PulseSequenceDetails": "%SiemensSeq%\\ep2d_diff",
  "ReceiveCoilActiveElements": "HEA;HEP",
  "ReceiveCoilName": "Head_32",
  "ReconMatrixPE": 122,
  "RefLinesPE": 38,
  "RepetitionTime": 3.6,
  "SAR": 0.162117,
  "ScanOptions": "FS",
  "ScanningSequence": "EP",
  "SequenceName": "*ep_b0",
  "SequenceVariant": "SK\\SP",
  "SeriesDescription": "dwi_acq-DTI-30-p2-s4",
  "SeriesNumber": 9,
  "ShimSetting": [4145, -7689, -7522, 306, -31, -160, -37, 66],
  "SliceThickness": 2,
  "SliceTiming": [2.58594, 0, 1.78906, 0.19531, 1.98438, 0.39844, 2.1875, 0.60156, 2.39062, 0.99219, 2.78906, 1.19531, 2.98438, 1.39062, 3.17969, 1.59375, 3.38281, 0.79688, 2.58594, 0, 1.78906, 0.19531, 1.98438, 0.39844, 2.1875, 0.60156, 2.39062, 0.99219, 2.78906, 1.19531, 2.98438, 1.39062, 3.17969, 1.59375, 3.38281, 0.79688, 2.58594, 0, 1.78906, 0.19531, 1.98438, 0.39844, 2.1875, 0.60156, 2.39062, 0.99219, 2.78906, 1.19531, 2.98438, 1.39062, 3.17969, 1.59375, 3.38281, 0.79688, 2.58594, 0, 1.78906, 0.19531, 1.98438, 0.39844, 2.1875, 0.60156, 2.39062, 0.99219, 2.78906, 1.19531, 2.98438, 1.39062, 3.17969, 1.59375, 3.38281, 0.79688],
  "SoftwareVersions": "syngo MR E11",
  "SpacingBetweenSlices": 2,
  "SpoilingState": true,
  "StationName": "AWP66112",
  "TotalReadoutTime": 0.0356956,
  "TxRefAmp": 232.269,
  "dcmmeta_affine": [
    [-1.937474250793457, -0.33152663707733154, -0.08012628555297852, 145.952392578125],
    [-0.3398405611515045, 1.8463208675384521, 0.5976200103759766, -112.66258239746094],
    [0.0250941663980484, -0.5925513505935669, 1.9069442749023438, -41.584693908691406],
    [0.0, 0.0, 0.0, 1.0]
],
  "dcmmeta_reorient_transform": [
    [0.0, -1.0, 0.0, 121.0],
    [1.0, 0.0, 0.0, 0.0],
    [0.0, 0.0, -1.0, 71.0],
    [0.0, 0.0, 0.0, 1.0]
],
  "dcmmeta_shape": [122, 122, 72, 31],
  "dcmmeta_slice_dim": 2,
  "dcmmeta_version": 0.6,
  "global": {
    "const": {
      "AccessionNumber": "qa",
      "AcquisitionMatrix": [122, 0, 0, 122],
      "AngioFlag": "N",
      "BitsAllocated": 16,
      "BitsStored": 12,
      "BodyPartExamined": "BRAIN",
      "Columns": 122,
      "EchoNumbers": 1,
      "EchoTime": 68.0,
      "EchoTrainLength": 61,
      "FlipAngle": 90.0,
      "HighBit": 11,
      "ImageOrientationPatient": [0.98488269725683, 0.17275228503163, 0.01275620086331, -0.1685260348405, 0.93854639553175, 0.30121361027564],
      "ImageType": [
        "ORIGINAL",
        "PRIMARY",
        "DIFFUSION",
        "NONE",
        "ND",
        "NORM"
],
      "ImagedNucleus": "1H",
      "ImagingFrequency": 123.252474,
      "InPlanePhaseEncodingDirection": "COL",
      "MRAcquisitionType": "2D",
      "MagneticFieldStrength": 3.0,
      "Manufacturer": "SIEMENS",
      "ManufacturerModelName": "Prisma",
      "Modality": "MR",
      "NumberOfAverages": 1.0,
      "NumberOfPhaseEncodingSteps": 122,
      "PercentPhaseFieldOfView": 100.0,
      "PercentSampling": 100.0,
      "PerformedProcedureStepStartTime": "091713.388000",
      "PhotometricInterpretation": "MONOCHROME2",
      "PixelBandwidth": 2050.0,
      "PixelRepresentation": 0,
      "PixelSpacing": [1.9672131538391, 1.9672131538391],
      "ProtocolName": "dwi_acq-DTI-30-p2-s4",
      "RepetitionTime": 3600.0,
      "Rows": 122,
      "SAR": 0.1621168905335,
      "SamplesPerPixel": 1,
      "ScanOptions": "FS",
      "ScanningSequence": "EP",
      "SequenceVariant": [
        "SK",
        "SP"
],
      "SeriesDescription": "dwi_acq-DTI-30-p2-s4",
      "SeriesNumber": 9,
      "SeriesTime": "093948.134000",
      "SliceThickness": 2.0,
      "SmallestImagePixelValue": 0,
      "SoftwareVersions": "syngo MR E11",
      "SpacingBetweenSlices": 2.0,
      "SpecificCharacterSet": "ISO_IR 100",
      "StudyID": "35",
      "StudyTime": "091713.265000",
      "TransmitCoilName": "Body",
      "VariableFlipAngleFlag": "N",
      "WindowCenterWidthExplanation": "Algo1",
      "dBdt": 0.0},
    "slices": {
      "AcquisitionTime": ["093939.452500", "093936.867500", "093938.657500", "093937.065000", "093938.855000", "093937.265000", "093939.055000", "093937.465000", "093939.255000", "093937.862500", "093939.652500", "093938.060000", "093939.850000", "093938.260000", "093940.050000", "093938.457500", "093940.247500", "093937.662500", "093939.452500", "093936.867500", "093938.657500", "093937.065000", "093938.855000", "093937.265000", "093939.055000", "093937.465000", "093939.255000", "093937.862500", "093939.652500", "093938.060000", "093939.850000", "093938.260000", "093940.050000", "093938.457500", "093940.247500", "093937.662500", "093939.452500", "093936.867500", "093938.657500", "093937.065000", "093938.855000", "093937.265000", "093939.055000", "093937.465000", "093939.255000", "093937.862500", "093939.652500", "093938.060000", "093939.850000", "093938.260000", "093940.050000", "093938.457500", "093940.247500", "093937.662500", "093939.452500", "093936.867500", "093938.657500", "093937.065000", "093938.855000", "093937.265000", "093939.055000", "093937.465000", "093939.255000", "093937.862500", "093939.652500", "093938.060000", "093939.850000", "093938.260000", "093940.050000", "093938.457500", "093940.247500", "093937.662500", "093943.052500", "093940.467500", "093942.257500", "093940.665000", "093942.455000", "093940.865000", "093942.655000", "093941.065000", "093942.855000", "093941.462500", "093943.252500", "093941.660000", "093943.450000", "093941.860000", "093943.650000", "093942.057500", "093943.847500", "093941.262500", "093943.052500", "093940.467500", "093942.257500", "093940.665000", "093942.455000", "093940.865000", "093942.655000", "093941.065000", "093942.855000", "093941.462500", "093943.252500", "093941.660000", "093943.450000", "093941.860000", "093943.650000", "093942.057500", "093943.847500", "093941.262500", "093943.052500", "093940.467500", "093942.257500", "093940.665000", "093942.455000", "093940.865000", "093942.655000", "093941.065000", "093942.855000", "093941.462500", "093943.252500", "093941.660000", "093943.450000", "093941.860000", "093943.650000", "093942.057500", "093943.847500", "093941.262500", "093943.052500", "093940.467500", "093942.257500", "093940.665000", "093942.455000", "093940.865000", "093942.655000", "093941.065000", "093942.855000", "093941.462500", "093943.252500", "093941.660000", "093943.450000", "093941.860000", "093943.650000", "093942.057500", "093943.847500", "093941.262500", "093946.652500", "093944.067500", "093945.857500", "093944.265000", "093946.055000", "093944.465000", "093946.255000", "093944.665000", "093946.455000", "093945.062500", "093946.852500", "093945.260000", "093947.050000", "093945.460000", "093947.250000", "093945.657500", "093947.447500", "093944.862500", "093946.652500", "093944.067500", "093945.857500", "093944.265000", "093946.055000", "093944.465000", "093946.255000", "093944.665000", "093946.455000", "093945.062500", "093946.852500", "093945.260000", "093947.050000", "093945.460000", "093947.250000", "093945.657500", "093947.447500", "093944.862500", "093946.652500", "093944.067500", "093945.857500", "093944.265000", "093946.055000", "093944.465000", "093946.255000", "093944.665000", "093946.455000", "093945.062500", "093946.852500", "093945.260000", "093947.050000", "093945.460000", "093947.250000", "093945.657500", "093947.447500", "093944.862500", "093946.652500", "093944.067500", "093945.857500", "093944.265000", "093946.055000", "093944.465000", "093946.255000", "093944.665000", "093946.455000", "093945.062500", "093946.852500", "093945.260000", "093947.050000", "093945.460000", "093947.250000", "093945.657500", "093947.447500", "093944.862500", "093950.252500", "093947.667500", "093949.457500", "093947.865000", "093949.655000", "093948.065000", "093949.855000", "093948.265000", "093950.055000", "093948.662500", "093950.452500", "093948.860000", "093950.650000", "093949.060000", "093950.850000", "093949.257500", "093951.047500", "093948.462500", "093950.252500", "093947.667500", "093949.457500", "093947.865000", "093949.655000", "093948.065000", "093949.855000", "093948.265000", "093950.055000", "093948.662500", "093950.452500", "093948.860000", "093950.650000", "093949.060000", "093950.850000", "093949.257500", "093951.047500", "093948.462500", "093950.252500", "093947.667500", "093949.457500", "093947.865000", "093949.655000", "093948.065000", "093949.855000", "093948.265000", "093950.055000", "093948.662500", "093950.452500", "093948.860000", "093950.650000", "093949.060000", "093950.850000", "093949.257500", "093951.047500", "093948.462500", "093950.252500", "093947.667500", "093949.457500", "093947.865000", "093949.655000", "093948.065000", "093949.855000", "093948.265000", "093950.055000", "093948.662500", "093950.452500", "093948.860000", "093950.650000", "093949.060000", "093950.850000", "093949.257500", "093951.047500", "093948.462500", "093953.852500", "093951.267500", "093953.057500", "093951.465000", "093953.255000", "093951.665000", "093953.455000", "093951.865000", "093953.655000", "093952.262500", "093954.052500", "093952.460000", "093954.250000", "093952.660000", "093954.450000", "093952.857500", "093954.647500", "093952.062500", "093953.852500", "093951.267500", "093953.057500", "093951.465000", "093953.255000", "093951.665000", "093953.455000", "093951.865000", "093953.655000", "093952.262500", "093954.052500", "093952.460000", "093954.250000", "093952.660000", "093954.450000", "093952.857500", "093954.647500", "093952.062500", "093953.852500", "093951.267500", "093953.057500", "093951.465000", "093953.255000", "093951.665000", "093953.455000", "093951.865000", "093953.655000", "093952.262500", "093954.052500", "093952.460000", "093954.250000", "093952.660000", "093954.450000", "093952.857500", "093954.647500", "093952.062500", "093953.852500", "093951.267500", "093953.057500", "093951.465000", "093953.255000", "093951.665000", "093953.455000", "093951.865000", "093953.655000", "093952.262500", "093954.052500", "093952.460000", "093954.250000", "093952.660000", "093954.450000", "093952.857500", "093954.647500", "093952.062500", "093957.452500", "093954.867500", "093956.657500", "093955.065000", "093956.855000", "093955.265000", "093957.055000", "093955.465000", "093957.255000", "093955.862500", "093957.652500", "093956.060000", "093957.850000", "093956.260000", "093958.050000", "093956.457500", "093958.247500", "093955.662500", "093957.452500", "093954.867500", "093956.657500", "093955.065000", "093956.855000", "093955.265000", "093957.055000", "093955.465000", "093957.255000", "093955.862500", "093957.652500", "093956.060000", "093957.850000", "093956.260000", "093958.050000", "093956.457500", "093958.247500", "093955.662500", "093957.452500", "093954.867500", "093956.657500", "093955.065000", "093956.855000", "093955.265000", "093957.055000", "093955.465000", "093957.255000", "093955.862500", "093957.652500", "093956.060000", "093957.850000", "093956.260000", "093958.050000", "093956.457500", "093958.247500", "093955.662500", "093957.452500", "093954.867500", "093956.657500", "093955.065000", "093956.855000", "093955.265000", "093957.055000", "093955.465000", "093957.255000", "093955.862500", "093957.652500", "093956.060000", "093957.850000", "093956.260000", "093958.050000", "093956.457500", "093958.247500", "093955.662500", "094001.052500", "093958.467500", "094000.257500", "093958.665000", "094000.455000", "093958.865000", "094000.655000", "093959.065000", "094000.855000", "093959.462500", "094001.252500", "093959.660000", "094001.450000", "093959.860000", "094001.650000", "094000.057500", "094001.847500", "093959.262500", "094001.052500", "093958.467500", "094000.257500", "093958.665000", "094000.455000", "093958.865000", "094000.655000", "093959.065000", "094000.855000", "093959.462500", "094001.252500", "093959.660000", "094001.450000", "093959.860000", "094001.650000", "094000.057500", "094001.847500", "093959.262500", "094001.052500", "093958.467500", "094000.257500", "093958.665000", "094000.455000", "093958.865000", "094000.655000", "093959.065000", "094000.855000", "093959.462500", "094001.252500", "093959.660000", "094001.450000", "093959.860000", "094001.650000", "094000.057500", "094001.847500", "093959.262500", "094001.052500", "093958.467500", "094000.257500", "093958.665000", "094000.455000", "093958.865000", "094000.655000", "093959.065000", "094000.855000", "093959.462500", "094001.252500", "093959.660000", "094001.450000", "093959.860000", "094001.650000", "094000.057500", "094001.847500", "093959.262500", "094004.652500", "094002.067500", "094003.857500", "094002.265000", "094004.055000", "094002.465000", "094004.255000", "094002.665000", "094004.455000", "094003.062500", "094004.852500", "094003.260000", "094005.050000", "094003.460000", "094005.250000", "094003.657500", "094005.447500", "094002.862500", "094004.652500", "094002.067500", "094003.857500", "094002.265000", "094004.055000", "094002.465000", "094004.255000", "094002.665000", "094004.455000", "094003.062500", "094004.852500", "094003.260000", "094005.050000", "094003.460000", "094005.250000", "094003.657500", "094005.447500", "094002.862500", "094004.652500", "094002.067500", "094003.857500", "094002.265000", "094004.055000", "094002.465000", "094004.255000", "094002.665000", "094004.455000", "094003.062500", "094004.852500", "094003.260000", "094005.050000", "094003.460000", "094005.250000", "094003.657500", "094005.447500", "094002.862500", "094004.652500", "094002.067500", "094003.857500", "094002.265000", "094004.055000", "094002.465000", "094004.255000", "094002.665000", "094004.455000", "094003.062500", "094004.852500", "094003.260000", "094005.050000", "094003.460000", "094005.250000", "094003.657500", "094005.447500", "094002.862500", "094008.252500", "094005.667500", "094007.457500", "094005.865000", "094007.655000", "094006.065000", "094007.855000", "094006.265000", "094008.055000", "094006.662500", "094008.452500", "094006.860000", "094008.650000", "094007.060000", "094008.850000", "094007.257500", "094009.047500", "094006.462500", "094008.252500", "094005.667500", "094007.457500", "094005.865000", "094007.655000", "094006.065000", "094007.855000", "094006.265000", "094008.055000", "094006.662500", "094008.452500", "094006.860000", "094008.650000", "094007.060000", "094008.850000", "094007.257500", "094009.047500", "094006.462500", "094008.252500", "094005.667500", "094007.457500", "094005.865000", "094007.655000", "094006.065000", "094007.855000", "094006.265000", "094008.055000", "094006.662500", "094008.452500", "094006.860000", "094008.650000", "094007.060000", "094008.850000", "094007.257500", "094009.047500", "094006.462500", "094008.252500", "094005.667500", "094007.457500", "094005.865000", "094007.655000", "094006.065000", "094007.855000", "094006.265000", "094008.055000", "094006.662500", "094008.452500", "094006.860000", "094008.650000", "094007.060000", "094008.850000", "094007.257500", "094009.047500", "094006.462500", "094011.852500", "094009.267500", "094011.057500", "094009.465000", "094011.255000", "094009.665000", "094011.455000", "094009.865000", "094011.655000", "094010.262500", "094012.052500", "094010.460000", "094012.250000", "094010.660000", "094012.450000", "094010.857500", "094012.647500", "094010.062500", "094011.852500", "094009.267500", "094011.057500", "094009.465000", "094011.255000", "094009.665000", "094011.455000", "094009.865000", "094011.655000", "094010.262500", "094012.052500", "094010.460000", "094012.250000", "094010.660000", "094012.450000", "094010.857500", "094012.647500", "094010.062500", "094011.852500", "094009.267500", "094011.057500", "094009.465000", "094011.255000", "094009.665000", "094011.455000", "094009.865000", "094011.655000", "094010.262500", "094012.052500", "094010.460000", "094012.250000", "094010.660000", "094012.450000", "094010.857500", "094012.647500", "094010.062500", "094011.852500", "094009.267500", "094011.057500", "094009.465000", "094011.255000", "094009.665000", "094011.455000", "094009.865000", "094011.655000", "094010.262500", "094012.052500", "094010.460000", "094012.250000", "094010.660000", "094012.450000", "094010.857500", "094012.647500", "094010.062500", "094015.452500", "094012.867500", "094014.657500", "094013.065000", "094014.855000", "094013.265000", "094015.055000", "094013.465000", "094015.255000", "094013.862500", "094015.652500", "094014.060000", "094015.850000", "094014.260000", "094016.050000", "094014.457500", "094016.247500", "094013.662500", "094015.452500", "094012.867500", "094014.657500", "094013.065000", "094014.855000", "094013.265000", "094015.055000", "094013.465000", "094015.255000", "094013.862500", "094015.652500", "094014.060000", "094015.850000", "094014.260000", "094016.050000", "094014.457500", "094016.247500", "094013.662500", "094015.452500", "094012.867500", "094014.657500", "094013.065000", "094014.855000", "094013.265000", "094015.055000", "094013.465000", "094015.255000", "094013.862500", "094015.652500", "094014.060000", "094015.850000", "094014.260000", "094016.050000", "094014.457500", "094016.247500", "094013.662500", "094015.452500", "094012.867500", "094014.657500", "094013.065000", "094014.855000", "094013.265000", "094015.055000", "094013.465000", "094015.255000", "094013.862500", "094015.652500", "094014.060000", "094015.850000", "094014.260000", "094016.050000", "094014.457500", "094016.247500", "094013.662500", "094019.052500", "094016.467500", "094018.257500", "094016.665000", "094018.455000", "094016.865000", "094018.655000", "094017.065000", "094018.855000", "094017.462500", "094019.252500", "094017.660000", "094019.450000", "094017.860000", "094019.650000", "094018.057500", "094019.847500", "094017.262500", "094019.052500", "094016.467500", "094018.257500", "094016.665000", "094018.455000", "094016.865000", "094018.655000", "094017.065000", "094018.855000", "094017.462500", "094019.252500", "094017.660000", "094019.450000", "094017.860000", "094019.650000", "094018.057500", "094019.847500", "094017.262500", "094019.052500", "094016.467500", "094018.257500", "094016.665000", "094018.455000", "094016.865000", "094018.655000", "094017.065000", "094018.855000", "094017.462500", "094019.252500", "094017.660000", "094019.450000", "094017.860000", "094019.650000", "094018.057500", "094019.847500", "094017.262500", "094019.052500", "094016.467500", "094018.257500", "094016.665000", "094018.455000", "094016.865000", "094018.655000", "094017.065000", "094018.855000", "094017.462500", "094019.252500", "094017.660000", "094019.450000", "094017.860000", "094019.650000", "094018.057500", "094019.847500", "094017.262500", "094022.652500", "094020.067500", "094021.857500", "094020.265000", "094022.055000", "094020.465000", "094022.255000", "094020.665000", "094022.455000", "094021.062500", "094022.852500", "094021.260000", "094023.050000", "094021.460000", "094023.250000", "094021.657500", "094023.447500", "094020.862500", "094022.652500", "094020.067500", "094021.857500", "094020.265000", "094022.055000", "094020.465000", "094022.255000", "094020.665000", "094022.455000", "094021.062500", "094022.852500", "094021.260000", "094023.050000", "094021.460000", "094023.250000", "094021.657500", "094023.447500", "094020.862500", "094022.652500", "094020.067500", "094021.857500", "094020.265000", "094022.055000", "094020.465000", "094022.255000", "094020.665000", "094022.455000", "094021.062500", "094022.852500", "094021.260000", "094023.050000", "094021.460000", "094023.250000", "094021.657500", "094023.447500", "094020.862500", "094022.652500", "094020.067500", "094021.857500", "094020.265000", "094022.055000", "094020.465000", "094022.255000", "094020.665000", "094022.455000", "094021.062500", "094022.852500", "094021.260000", "094023.050000", "094021.460000", "094023.250000", "094021.657500", "094023.447500", "094020.862500", "094026.252500", "094023.667500", "094025.457500", "094023.865000", "094025.655000", "094024.065000", "094025.855000", "094024.265000", "094026.055000", "094024.662500", "094026.452500", "094024.860000", "094026.650000", "094025.060000", "094026.850000", "094025.257500", "094027.047500", "094024.462500", "094026.252500", "094023.667500", "094025.457500", "094023.865000", "094025.655000", "094024.065000", "094025.855000", "094024.265000", "094026.055000", "094024.662500", "094026.452500", "094024.860000", "094026.650000", "094025.060000", "094026.850000", "094025.257500", "094027.047500", "094024.462500", "094026.252500", "094023.667500", "094025.457500", "094023.865000", "094025.655000", "094024.065000", "094025.855000", "094024.265000", "094026.055000", "094024.662500", "094026.452500", "094024.860000", "094026.650000", "094025.060000", "094026.850000", "094025.257500", "094027.047500", "094024.462500", "094026.252500", "094023.667500", "094025.457500", "094023.865000", "094025.655000", "094024.065000", "094025.855000", "094024.265000", "094026.055000", "094024.662500", "094026.452500", "094024.860000", "094026.650000", "094025.060000", "094026.850000", "094025.257500", "094027.047500", "094024.462500", "094029.852500", "094027.267500", "094029.057500", "094027.465000", "094029.255000", "094027.665000", "094029.455000", "094027.865000", "094029.655000", "094028.262500", "094030.052500", "094028.460000", "094030.250000", "094028.660000", "094030.450000", "094028.857500", "094030.647500", "094028.062500", "094029.852500", "094027.267500", "094029.057500", "094027.465000", "094029.255000", "094027.665000", "094029.455000", "094027.865000", "094029.655000", "094028.262500", "094030.052500", "094028.460000", "094030.250000", "094028.660000", "094030.450000", "094028.857500", "094030.647500", "094028.062500", "094029.852500", "094027.267500", "094029.057500", "094027.465000", "094029.255000", "094027.665000", "094029.455000", "094027.865000", "094029.655000", "094028.262500", "094030.052500", "094028.460000", "094030.250000", "094028.660000", "094030.450000", "094028.857500", "094030.647500", "094028.062500", "094029.852500", "094027.267500", "094029.057500", "094027.465000", "094029.255000", "094027.665000", "094029.455000", "094027.865000", "094029.655000", "094028.262500", "094030.052500", "094028.460000", "094030.250000", "094028.660000", "094030.450000", "094028.857500", "094030.647500", "094028.062500", "094033.452500", "094030.867500", "094032.657500", "094031.065000", "094032.855000", "094031.265000", "094033.055000", "094031.465000", "094033.255000", "094031.862500", "094033.652500", "094032.060000", "094033.850000", "094032.260000", "094034.050000", "094032.457500", "094034.247500", "094031.662500", "094033.452500", "094030.867500", "094032.657500", "094031.065000", "094032.855000", "094031.265000", "094033.055000", "094031.465000", "094033.255000", "094031.862500", "094033.652500", "094032.060000", "094033.850000", "094032.260000", "094034.050000", "094032.457500", "094034.247500", "094031.662500", "094033.452500", "094030.867500", "094032.657500", "094031.065000", "094032.855000", "094031.265000", "094033.055000", "094031.465000", "094033.255000", "094031.862500", "094033.652500", "094032.060000", "094033.850000", "094032.260000", "094034.050000", "094032.457500", "094034.247500", "094031.662500", "094033.452500", "094030.867500", "094032.657500", "094031.065000", "094032.855000", "094031.265000", "094033.055000", "094031.465000", "094033.255000", "094031.862500", "094033.652500", "094032.060000", "094033.850000", "094032.260000", "094034.050000", "094032.457500", "094034.247500", "094031.662500", "094037.052500", "094034.467500", "094036.257500", "094034.665000", "094036.455000", "094034.865000", "094036.655000", "094035.065000", "094036.855000", "094035.462500", "094037.252500", "094035.660000", "094037.450000", "094035.860000", "094037.650000", "094036.057500", "094037.847500", "094035.262500", "094037.052500", "094034.467500", "094036.257500", "094034.665000", "094036.455000", "094034.865000", "094036.655000", "094035.065000", "094036.855000", "094035.462500", "094037.252500", "094035.660000", "094037.450000", "094035.860000", "094037.650000", "094036.057500", "094037.847500", "094035.262500", "094037.052500", "094034.467500", "094036.257500", "094034.665000", "094036.455000", "094034.865000", "094036.655000", "094035.065000", "094036.855000", "094035.462500", "094037.252500", "094035.660000", "094037.450000", "094035.860000", "094037.650000", "094036.057500", "094037.847500", "094035.262500", "094037.052500", "094034.467500", "094036.257500", "094034.665000", "094036.455000", "094034.865000", "094036.655000", "094035.065000", "094036.855000", "094035.462500", "094037.252500", "094035.660000", "094037.450000", "094035.860000", "094037.650000", "094036.057500", "094037.847500", "094035.262500", "094040.652500", "094038.067500", "094039.857500", "094038.265000", "094040.055000", "094038.465000", "094040.255000", "094038.665000", "094040.455000", "094039.062500", "094040.852500", "094039.260000", "094041.050000", "094039.460000", "094041.250000", "094039.657500", "094041.447500", "094038.862500", "094040.652500", "094038.067500", "094039.857500", "094038.265000", "094040.055000", "094038.465000", "094040.255000", "094038.665000", "094040.455000", "094039.062500", "094040.852500", "094039.260000", "094041.050000", "094039.460000", "094041.250000", "094039.657500", "094041.447500", "094038.862500", "094040.652500", "094038.067500", "094039.857500", "094038.265000", "094040.055000", "094038.465000", "094040.255000", "094038.665000", "094040.455000", "094039.062500", "094040.852500", "094039.260000", "094041.050000", "094039.460000", "094041.250000", "094039.657500", "094041.447500", "094038.862500", "094040.652500", "094038.067500", "094039.857500", "094038.265000", "094040.055000", "094038.465000", "094040.255000", "094038.665000", "094040.455000", "094039.062500", "094040.852500", "094039.260000", "094041.050000", "094039.460000", "094041.250000", "094039.657500", "094041.447500", "094038.862500", "094044.252500", "094041.667500", "094043.457500", "094041.865000", "094043.655000", "094042.065000", "094043.855000", "094042.265000", "094044.055000", "094042.662500", "094044.452500", "094042.860000", "094044.650000", "094043.060000", "094044.850000", "094043.257500", "094045.047500", "094042.462500", "094044.252500", "094041.667500", "094043.457500", "094041.865000", "094043.655000", "094042.065000", "094043.855000", "094042.265000", "094044.055000", "094042.662500", "094044.452500", "094042.860000", "094044.650000", "094043.060000", "094044.850000", "094043.257500", "094045.047500", "094042.462500", "094044.252500", "094041.667500", "094043.457500", "094041.865000", "094043.655000", "094042.065000", "094043.855000", "094042.265000", "094044.055000", "094042.662500", "094044.452500", "094042.860000", "094044.650000", "094043.060000", "094044.850000", "094043.257500", "094045.047500", "094042.462500", "094044.252500", "094041.667500", "094043.457500", "094041.865000", "094043.655000", "094042.065000", "094043.855000", "094042.265000", "094044.055000", "094042.662500", "094044.452500", "094042.860000", "094044.650000", "094043.060000", "094044.850000", "094043.257500", "094045.047500", "094042.462500", "094047.852500", "094045.267500", "094047.057500", "094045.465000", "094047.255000", "094045.665000", "094047.455000", "094045.865000", "094047.655000", "094046.262500", "094048.052500", "094046.460000", "094048.250000", "094046.660000", "094048.450000", "094046.857500", "094048.647500", "094046.062500", "094047.852500", "094045.267500", "094047.057500", "094045.465000", "094047.255000", "094045.665000", "094047.455000", "094045.865000", "094047.655000", "094046.262500", "094048.052500", "094046.460000", "094048.250000", "094046.660000", "094048.450000", "094046.857500", "094048.647500", "094046.062500", "094047.852500", "094045.267500", "094047.057500", "094045.465000", "094047.255000", "094045.665000", "094047.455000", "094045.865000", "094047.655000", "094046.262500", "094048.052500", "094046.460000", "094048.250000", "094046.660000", "094048.450000", "094046.857500", "094048.647500", "094046.062500", "094047.852500", "094045.267500", "094047.057500", "094045.465000", "094047.255000", "094045.665000", "094047.455000", "094045.865000", "094047.655000", "094046.262500", "094048.052500", "0940