{
  "AcquisitionMatrixPE": 80,
  "AcquisitionNumber": 1,
  "AcquisitionTime": "09:10:9.847500",
  "BandwidthPerPixelPhaseEncode": 48.077,
  "BaseResolution": 80,
  "BodyPartExamined": "BRAIN",
  "CoilCombinationMethod": "Sum of Squares",
  "ConsistencyInfo": "N4_VE11C_LATEST_20160120",
  "ConversionSoftware": "dcm2niix",
  "ConversionSoftwareVersion": "v1.0.20220720",
  "DerivedVendorReportedEchoSpacing": 0.000519999,
  "DeviceSerialNumber": "66112",
  "DwellTime": 2.7e-06,
  "EchoTime": 0.035,
  "EchoTrainLength": 39,
  "EffectiveEchoSpacing": 0.00026,
  "FlipAngle": 90,
  "HeudiconvVersion": "0.13.1",
  "ImageOrientationPatientDICOM": [0.98423, -0.176843, -0.00423842, 0.171776, 0.949756, 0.261644],
  "ImageOrientationText": "Tra>Cor(15.0)>Sag(2.4)",
  "ImageType": [
    "ORIGINAL",
    "PRIMARY",
    "M",
    "ND",
    "NORM",
    "MOSAIC"
],
  "ImagingFrequency": 123.252,
  "InPlanePhaseEncodingDirectionDICOM": "COL",
  "InstitutionAddress": "Maynard 3,Hanover,NH,US,03755",
  "InstitutionName": "Dartmouth College - PBS",
  "InstitutionalDepartmentName": "Department",
  "MRAcquisitionType": "2D",
  "MagneticFieldStrength": 3,
  "Manufacturer": "Siemens",
  "ManufacturersModelName": "Prisma",
  "MatrixCoilMode": "GRAPPA",
  "Modality": "MR",
  "NonlinearGradientCorrection": false,
  "ParallelReductionFactorInPlane": 2,
  "PartialFourier": 1,
  "PatientPosition": "HFS",
  "PercentPhaseFOV": 100,
  "PercentSampling": 100,
  "PhaseEncodingDirection": "j-",
  "PhaseEncodingSteps": 79,
  "PhaseResolution": 1,
  "PixelBandwidth": 2315,
  "ProcedureStepDescription": "dbic^QA",
  "ProtocolName": "func-bold_task-rest_acq-p2",
  "PulseSequenceDetails": "%SiemensSeq%\\ep2d_bold",
  "ReceiveCoilActiveElements": "HC1-7;NC1,2",
  "ReceiveCoilName": "HeadNeck_64",
  "ReconMatrixPE": 80,
  "RefLinesPE": 24,
  "RepetitionTime": 2,
  "SAR": 0.0360817,
  "ScanOptions": "FS",
  "ScanningSequence": "EP",
  "SequenceName": "*epfid2d1_80",
  "SequenceVariant": "SK",
  "SeriesDescription": "func-bold_task-rest_acq-p2",
  "SeriesNumber": 5,
  "ShimSetting": [4142, -7693, -7509, 215, -76, -331, -31, 123],
  "SliceThickness": 3.5,
  "SliceTiming": [0.99, 0, 1.0575, 0.0675, 1.1225, 0.1325, 1.1875, 0.1975, 1.255, 0.265, 1.32, 0.33, 1.3875, 0.3975, 1.4525, 0.4625, 1.5175, 0.5275, 1.585, 0.595, 1.65, 0.66, 1.7175, 0.7275, 1.7825, 0.7925, 1.8475, 0.8575, 1.915, 0.925],
  "SoftwareVersions": "syngo MR E11",
  "SpacingBetweenSlices": 3.99,
  "StationName": "AWP66112",
  "TaskName": "rest",
  "TotalReadoutTime": 0.02054,
  "TxRefAmp": 211.531,
  "dcmmeta_affine": [
    [-2.9526896476745605, 0.5153269171714783, 0.16855528950691223, 91.16835021972656],
    [0.5305294394493103, 2.849266767501831, 1.030400037765503, -134.4042205810547],
    [-0.012715260498225689, -0.7849310636520386, 3.8509695529937744, -34.59263229370117],
    [0.0, 0.0, 0.0, 1.0]
],
  "dcmmeta_reorient_transform": [
    [0.0, -1.0, 0.0, 79.0],
    [1.0, 0.0, 0.0, 0.0],
    [0.0, 0.0, 1.0, 0.0],
    [0.0, 0.0, 0.0, 1.0]
],
  "dcmmeta_shape": [80, 80, 30, 200],
  "dcmmeta_slice_dim": 2,
  "dcmmeta_version": 0.6,
  "global": {
    "const": {
      "AccessionNumber": "qa64",
      "AcquisitionMatrix": [80, 0, 0, 80],
      "AngioFlag": "N",
      "BitsAllocated": 16,
      "BitsStored": 12,
      "BodyPartExamined": "BRAIN",
      "Columns": 480,
      "EchoNumbers": 1,
      "EchoTime": 35.0,
      "EchoTrainLength": 39,
      "FlipAngle": 90.0,
      "HighBit": 11,
      "ImageOrientationPatient": [0.98422991989361, -0.1768431524823, -0.0042384202653, 0.17177564681842, 0.94975560459612, 0.26164368652498],
      "ImagePositionPatient": [-825.48251633344, -554.43533408083, -251.04534608927],
      "ImageType": [
        "ORIGINAL",
        "PRIMARY",
        "M",
        "ND",
        "NORM",
        "MOSAIC"
],
      "ImagedNucleus": "1H",
      "ImagingFrequency": 123.252366,
      "InPlanePhaseEncodingDirection": "COL",
      "LargestImagePixelValue": 4095,
      "MRAcquisitionType": "2D",
      "MagneticFieldStrength": 3.0,
      "Manufacturer": "SIEMENS",
      "ManufacturerModelName": "Prisma",
      "Modality": "MR",
      "NumberOfAverages": 1.0,
      "NumberOfPhaseEncodingSteps": 79,
      "PercentPhaseFieldOfView": 100.0,
      "PercentSampling": 100.0,
      "PerformedProcedureStepStartTime": "090314.348000",
      "PhotometricInterpretation": "MONOCHROME2",
      "PixelBandwidth": 2315.0,
      "PixelRepresentation": 0,
      "PixelSpacing": [3.0, 3.0],
      "ProtocolName": "func-bold_task-rest_acq-p2",
      "RepetitionTime": 2000.0,
      "Rows": 480,
      "SAR": 0.03608174698879,
      "SamplesPerPixel": 1,
      "ScanOptions": "FS",
      "ScanningSequence": "EP",
      "SequenceName": "*epfid2d1_80",
      "SequenceVariant": "SK",
      "SeriesDescription": "func-bold_task-rest_acq-p2",
      "SeriesNumber": 5,
      "SeriesTime": "091053.214000",
      "SliceLocation": -64.245202839638,
      "SliceThickness": 3.5,
      "SmallestImagePixelValue": 0,
      "SoftwareVersions": "syngo MR E11",
      "SpacingBetweenSlices": 3.9900001419034,
      "SpecificCharacterSet": "ISO_IR 100",
      "StudyID": "6",
      "StudyTime": "090314.271000",
      "TransmitCoilName": "Body",
      "VariableFlipAngleFlag": "N",
      "WindowCenterWidthExplanation": "Algo1",
      "dBdt": 0.0},
    "slices": {}
  },
  "time": {
    "samples": {
      "AcquisitionNumber": [1, 2, 3, 4, 5, 6, 7, 8, 9, 10, 11, 12, 13, 14, 15, 16, 17, 18, 19, 20, 21, 22, 23, 24, 25, 26, 27, 28, 29, 30, 31, 32, 33, 34, 35, 36, 37, 38, 39, 40, 41, 42, 43, 44, 45, 46, 47, 48, 49, 50, 51, 52, 53, 54, 55, 56, 57, 58, 59, 60, 61, 62, 63, 64, 65, 66, 67, 68, 69, 70, 71, 72, 73, 74, 75, 76, 77, 78, 79, 80, 81, 82, 83, 84, 85, 86, 87, 88, 89, 90, 91, 92, 93, 94, 95, 96, 97, 98, 99, 100, 101, 102, 103, 104, 105, 106, 107, 108, 109, 110, 111, 112, 113, 114, 115, 116, 117, 118, 119, 120, 121, 122, 123, 124, 125, 126, 127, 128, 129, 130, 131, 132, 133, 134, 135, 136, 137, 138, 139, 140, 141, 142, 143, 144, 145, 146, 147, 148, 149, 150, 151, 152, 153, 154, 155, 156, 157, 158, 159, 160, 161, 162, 163, 164, 165, 166, 167, 168, 169, 170, 171, 172, 173, 174, 175, 176, 177, 178, 179, 180, 181, 182, 183, 184, 185, 186, 187, 188, 189, 190, 191, 192, 193, 194, 195, 196, 197, 198, 199, 200],
      "AcquisitionTime": ["091009.847500", "091011.847500", "091013.847500", "091015.847500", "091017.847500", "091019.847500", "091021.847500", "091023.847500", "091025.847500", "091027.847500", "091029.847500", "091031.847500", "091033.847500", "091035.847500", "091037.847500", "091039.847500", "091041.847500", "091043.847500", "091045.847500", "091047.847500", "091049.847500", "091051.847500", "091053.847500", "091055.847500", "091057.847500", "091059.847500", "091101.847500", "091103.847500", "091105.847500", "091107.847500", "091109.847500", "091111.847500", "091113.847500", "091115.847500", "091117.847500", "091119.847500", "091121.847500", "091123.847500", "091125.847500", "091127.847500", "091129.847500", "091131.847500", "091133.847500", "091135.847500", "091137.847500", "091139.847500", "091141.847500", "091143.847500", "091145.847500", "091147.847500", "091149.847500", "091151.847500", "091153.847500", "091155.847500", "091157.847500", "091159.847500", "091201.847500", "091203.847500", "091205.847500", "091207.847500", "091209.847500", "091211.847500", "091213.847500", "091215.847500", "091217.847500", "091219.847500", "091221.847500", "091223.847500", "091225.847500", "091227.847500", "091229.847500", "091231.847500", "091233.847500", "091235.847500", "091237.847500", "091239.847500", "091241.847500", "091243.847500", "091245.847500", "091247.847500", "091249.847500", "091251.847500", "091253.847500", "091255.847500", "091257.847500", "091259.847500", "091301.847500", "091303.847500", "091305.847500", "091307.847500", "091309.847500", "091311.847500", "091313.847500", "091315.847500", "091317.847500", "091319.847500", "091321.847500", "091323.847500", "091325.847500", "091327.847500", "091329.847500", "091331.847500", "091333.847500", "091335.847500", "091337.847500", "091339.847500", "091341.847500", "091343.847500", "091345.847500", "091347.847500", "091349.847500", "091351.847500", "091353.847500", "091355.847500", "091357.847500", "091359.847500", "091401.847500", "091403.847500", "091405.847500", "091407.847500", "091409.847500", "091411.847500", "091413.847500", "091415.847500", "091417.847500", "091419.847500", "091421.847500", "091423.847500", "091425.847500", "091427.847500", "091429.847500", "091431.847500", "091433.847500", "091435.847500", "091437.847500", "091439.847500", "091441.847500", "091443.847500", "091445.847500", "091447.847500", "091449.847500", "091451.847500", "091453.847500", "091455.847500", "091457.847500", "091459.847500", "091501.847500", "091503.847500", "091505.847500", "091507.847500", "091509.847500", "091511.847500", "091513.847500", "091515.847500", "091517.847500", "091519.847500", "091521.847500", "091523.847500", "091525.847500", "091527.847500", "091529.847500", "091531.847500", "091533.847500", "091535.847500", "091537.847500", "091539.847500", "091541.847500", "091543.847500", "091545.847500", "091547.847500", "091549.847500", "091551.847500", "091553.847500", "091555.847500", "091557.847500", "091559.847500", "091601.847500", "091603.847500", "091605.847500", "091607.847500", "091609.847500", "091611.847500", "091613.847500", "091615.847500", "091617.847500", "091619.847500", "091621.847500", "091623.847500", "091625.847500", "091627.847500", "091629.847500", "091631.847500", "091633.847500", "091635.847500", "091637.847500", "091639.847500", "091641.847500", "091643.847500", "091645.847500", "091647.847500"],
      "ContentTime": ["091053.218000", "091053.225000", "091053.228000", "091053.230000", "091053.233000", "091053.235000", "091053.238000", "091053.240000", "091053.243000", "091053.246000", "091053.248000", "091053.251000", "091053.253000", "091053.256000", "091053.258000", "091053.261000", "091053.264000", "091053.266000", "091053.269000", "091053.271000", "091053.274000", "091133.212000", "091133.215000", "091133.217000", "091133.220000", "091133.222000", "091133.225000", "091133.227000", "091133.230000", "091133.232000", "091133.235000", "091133.237000", "091133.240000", "091133.243000", "091133.245000", "091133.248000", "091133.251000", "091133.253000", "091133.256000", "091133.258000", "091133.261000", "091213.213000", "091213.215000", "091213.218000", "091213.221000", "091213.223000", "091213.226000", "091213.228000", "091213.231000", "091213.233000", "091213.236000", "091213.238000", "091213.241000", "091213.244000", "091213.246000", "091213.249000", "091213.251000", "091213.254000", "091213.257000", "091213.259000", "091213.262000", "091253.213000", "091253.215000", "091253.218000", "091253.220000", "091253.223000", "091253.226000", "091253.228000", "091253.231000", "091253.233000", "091253.236000", "091253.238000", "091253.241000", "091253.244000", "091253.246000", "091253.249000", "091253.251000", "091253.254000", "091253.256000", "091253.259000", "091253.262000", "091333.212000", "091333.214000", "091333.217000", "091333.220000", "091333.222000", "091333.225000", "091333.227000", "091333.230000", "091333.232000", "091333.235000", "091333.238000", "091333.240000", "091333.243000", "091333.245000", "091333.248000", "091333.251000", "091333.253000", "091333.256000", "091333.258000", "091333.261000", "091413.212000", "091413.214000", "091413.217000", "091413.220000", "091413.222000", "091413.225000", "091413.227000", "091413.230000", "091413.232000", "091413.235000", "091413.238000", "091413.240000", "091413.243000", "091413.245000", "091413.248000", "091413.251000", "091413.253000", "091413.256000", "091413.258000", "091413.261000", "091453.213000", "091453.215000", "091453.218000", "091453.221000", "091453.223000", "091453.226000", "091453.228000", "091453.231000", "091453.233000", "091453.236000", "091453.239000", "091453.241000", "091453.257000", "091453.260000", "091453.262000", "091453.265000", "091453.267000", "091453.270000", "091453.272000", "091453.275000", "091533.213000", "091533.216000", "091533.218000", "091533.221000", "091533.223000", "091533.226000", "091533.228000", "091533.231000", "091533.234000", "091533.236000", "091533.239000", "091533.241000", "091533.244000", "091533.246000", "091533.249000", "091533.252000", "091533.254000", "091533.257000", "091533.260000", "091533.262000", "091613.211000", "091613.214000", "091613.217000", "091613.220000", "091613.222000", "091613.225000", "091613.227000", "091613.230000", "091613.232000", "091613.235000", "091613.238000", "091613.240000", "091613.243000", "091613.245000", "091613.248000", "091613.250000", "091613.253000", "091613.256000", "091613.258000", "091613.261000", "091649.716000", "091649.719000", "091649.721000", "091649.724000", "091649.727000", "091649.730000", "091649.732000", "091649.735000", "091649.737000", "091649.740000", "091649.743000", "091649.750000", "091649.755000", "091649.758000", "091649.764000", "091649.768000", "091649.771000", "091649.774000", "091649.777000"],
      "InstanceCreationTime": ["091053.218000", "091053.225000", "091053.228000", "091053.230000", "091053.233000", "091053.235000", "091053.238000", "091053.240000", "091053.243000", "091053.246000", "091053.248000", "091053.251000", "091053.253000", "091053.256000", "091053.258000", "091053.261000", "091053.264000", "091053.266000", "091053.269000", "091053.271000", "091053.274000", "091133.212000", "091133.215000", "091133.217000", "091133.220000", "091133.222000", "091133.225000", "091133.227000", "091133.230000", "091133.232000", "091133.235000", "091133.237000", "091133.240000", "091133.243000", "091133.245000", "091133.248000", "091133.251000", "091133.253000", "091133.256000", "091133.258000", "091133.261000", "091213.213000", "091213.215000", "091213.218000", "091213.221000", "091213.223000", "091213.226000", "091213.228000", "091213.231000", "091213.233000", "091213.236000", "091213.238000", "091213.241000", "091213.244000", "091213.246000", "091213.249000", "091213.251000", "091213.254000", "091213.257000", "091213.259000", "091213.262000", "091253.213000", "091253.215000", "091253.218000", "091253.220000", "091253.223000", "091253.226000", "091253.228000", "091253.231000", "091253.233000", "091253.236000", "091253.238000", "091253.241000", "091253.244000", "091253.246000", "091253.249000", "091253.251000", "091253.254000", "091253.256000", "091253.259000", "091253.262000", "091333.212000", "091333.214000", "091333.217000", "091333.220000", "091333.222000", "091333.225000", "091333.227000", "091333.230000", "091333.232000", "091333.235000", "091333.238000", "091333.240000", "091333.243000", "091333.245000", "091333.248000", "091333.251000", "091333.253000", "091333.256000", "091333.258000", "091333.261000", "091413.212000", "091413.214000", "091413.217000", "091413.220000", "091413.222000", "091413.225000", "091413.227000", "091413.230000", "091413.232000", "091413.235000", "091413.238000", "091413.240000", "091413.243000", "091413.245000", "091413.248000", "091413.251000", "091413.253000", "091413.256000", "091413.258000", "091413.261000", "091453.213000", "091453.215000", "091453.218000", "091453.221000", "091453.223000", "091453.226000", "091453.228000", "091453.231000", "091453.233000", "091453.236000", "091453.239000", "091453.241000", "091453.257000", "091453.260000", "091453.262000", "091453.265000", "091453.267000", "091453.270000", "091453.272000", "091453.275000", "091533.213000", "091533.216000", "091533.218000", "091533.221000", "091533.223000", "091533.226000", "091533.228000", "091533.231000", "091533.234000", "091533.236000", "091533.239000", "091533.241000", "091533.244000", "091533.246000", "091533.249000", "091533.252000", "091533.254000", "091533.257000", "091533.260000", "091533.262000", "091613.211000", "091613.214000", "091613.217000", "091613.220000", "091613.222000", "091613.225000", "091613.227000", "091613.230000", "091613.232000", "091613.235000", "091613.238000", "091613.240000", "091613.243000", "091613.245000", "091613.248000", "091613.250000", "091613.253000", "091613.256000", "091613.258000", "091613.261000", "091649.716000", "091649.719000", "091649.721000", "091649.724000", "091649.727000", "091649.730000", "091649.732000", "091649.735000", "091649.737000", "091649.740000", "091649.743000", "091649.750000", "091649.755000", "091649.758000", "091649.764000", "091649.768000", "091649.771000", "091649.774000", "091649.777000"],
      "InstanceNumber": [1, 2, 3, 4, 5, 6, 7, 8, 9, 10, 11, 12, 13, 14, 15, 16, 17, 18, 19, 20, 21, 22, 23, 24, 25, 26, 27, 28, 29, 30, 31, 32, 33, 34, 35, 36, 37, 38, 39, 40, 41, 42, 43, 44, 45, 46, 47, 48, 49, 50, 51, 52, 53, 54, 55, 56, 57, 58, 59, 60, 61, 62, 63, 64, 65, 66, 67, 68, 69, 70, 71, 72, 73, 74, 75, 76, 77, 78, 79, 80, 81, 82, 83, 84, 85, 86, 87, 88, 89, 90, 91, 92, 93, 94, 95, 96, 97, 98, 99, 100, 101, 102, 103, 104, 105, 106, 107, 108, 109, 110, 111, 112, 113, 114, 115, 116, 117, 118, 119, 120, 121, 122, 123, 124, 125, 126, 127, 128, 129, 130, 131, 132, 133, 134, 135, 136, 137, 138, 139, 140, 141, 142, 143, 144, 145, 146, 147, 148, 149, 150, 151, 152, 153, 154, 155, 156, 157, 158, 159, 160, 161, 162, 163, 164, 165, 166, 167, 168, 169, 170, 171, 172, 173, 174, 175, 176, 177, 178, 179, 180, 181, 182, 183, 184, 185, 186, 187, 188, 189, 190, 191, 192, 193, 194, 195, 196, 197, 198, 199, 200],
      "WindowCenter": [1497.0, 1496.0, 1496.0, 1495.0, 1496.0, 1496.0, 1495.0, 1495.0, 1495.0, 1495.0, 1496.0, 1495.0, 1495.0, 1495.0, 1495.0, 1495.0, 1494.0, 1494.0, 1495.0, 1495.0, 1495.0, 1495.0, 1495.0, 1494.0, 1495.0, 1494.0, 1494.0, 1494.0, 1494.0, 1495.0, 1494.0, 1495.0, 1494.0, 1494.0, 1495.0, 1495.0, 1495.0, 1494.0, 1495.0, 1494.0, 1495.0, 1494.0, 1495.0, 1495.0, 1494.0, 1494.0, 1494.0, 1494.0, 1494.0, 1494.0, 1494.0, 1494.0, 1494.0, 1494.0, 1494.0, 1493.0, 1494.0, 1494.0, 1494.0, 1494.0, 1494.0, 1494.0, 1494.0, 1494.0, 1494.0, 1493.0, 1493.0, 1494.0, 1493.0, 1493.0, 1493.0, 1493.0, 1494.0, 1494.0, 1493.0, 1494.0, 1494.0, 1494.0, 1493.0, 1494.0, 1493.0, 1495.0, 1494.0, 1494.0, 1494.0, 1494.0, 1494.0, 1494.0, 1494.0, 1494.0, 1493.0, 1493.0, 1494.0, 1493.0, 1493.0, 1495.0, 1494.0, 1493.0, 1493.0, 1494.0, 1493.0, 1493.0, 1493.0, 1494.0, 1493.0, 1493.0, 1493.0, 1493.0, 1493.0, 1493.0, 1494.0, 1494.0, 1493.0, 1493.0, 1494.0, 1493.0, 1494.0, 1493.0, 1493.0, 1494.0, 1493.0, 1494.0, 1494.0, 1493.0, 1493.0, 1494.0, 1494.0, 1493.0, 1493.0, 1492.0, 1492.0, 1493.0, 1493.0, 1493.0, 1494.0, 1493.0, 1493.0, 1493.0, 1493.0, 1493.0, 1492.0, 1493.0, 1492.0, 1493.0, 1493.0, 1492.0, 1492.0, 1492.0, 1492.0, 1492.0, 1492.0, 1493.0, 1492.0, 1492.0, 1492.0, 1492.0, 1492.0, 1492.0, 1491.0, 1492.0, 1492.0, 1492.0, 1492.0, 1493.0, 1492.0, 1492.0, 1493.0, 1492.0, 1493.0, 1492.0, 1492.0, 1492.0, 1492.0, 1492.0, 1492.0, 1491.0, 1491.0, 1492.0, 1492.0, 1491.0, 1492.0, 1492.0, 1492.0, 1492.0, 1492.0, 1492.0, 1492.0, 1492.0, 1492.0, 1492.0, 1492.0, 1492.0, 1492.0, 1491.0, 1492.0, 1492.0, 1492.0, 1492.0, 1492.0, 1492.0],
      "WindowWidth": [3381.0, 3380.0, 3380.0, 3380.0, 3380.0, 3380.0, 3380.0, 3380.0, 3380.0, 3380.0, 3379.0, 3380.0, 3379.0, 3380.0, 3379.0, 3380.0, 3380.0, 3380.0, 3380.0, 3380.0, 3380.0, 3380.0, 3380.0, 3379.0, 3379.0, 3379.0, 3379.0, 3379.0, 3379.0, 3379.0, 3379.0, 3379.0, 3379.0, 3379.0, 3380.0, 3380.0, 3379.0, 3379.0, 3380.0, 3379.0, 3380.0, 3380.0, 3380.0, 3380.0, 3379.0, 3379.0, 3379.0, 3379.0, 3379.0, 3379.0, 3379.0, 3379.0, 3379.0, 3379.0, 3379.0, 3379.0, 3379.0, 3379.0, 3379.0, 3379.0, 3379.0, 3379.0, 3379.0, 3379.0, 3379.0, 3379.0, 3379.0, 3379.0, 3379.0, 3379.0, 3379.0, 3380.0, 3379.0, 3379.0, 3380.0, 3379.0, 3379.0, 3379.0, 3380.0, 3379.0, 3380.0, 3379.0, 3379.0, 3379.0, 3379.0, 3379.0, 3379.0, 3379.0, 3379.0, 3379.0, 3379.0, 3379.0, 3379.0, 3379.0, 3379.0, 3379.0, 3379.0, 3379.0, 3379.0, 3379.0, 3379.0, 3379.0, 3379.0, 3379.0, 3379.0, 3379.0, 3379.0, 3379.0, 3379.0, 3379.0, 3379.0, 3379.0, 3379.0, 3379.0, 3379.0, 3379.0, 3379.0, 3379.0, 3379.0, 3379.0, 3379.0, 3379.0, 3379.0, 3379.0, 3379.0, 3379.0, 3379.0, 3379.0, 3379.0, 3379.0, 3379.0, 3379.0, 3379.0, 3379.0, 3379.0, 3379.0, 3379.0, 3379.0, 3379.0, 3379.0, 3379.0, 3379.0, 3379.0, 3379.0, 3379.0, 3379.0, 3379.0, 3378.0, 3378.0, 3378.0, 3379.0, 3378.0, 3378.0, 3378.0, 3379.0, 3379.0, 3378.0, 3378.0, 3379.0, 3378.0, 3378.0, 3379.0, 3379.0, 3379.0, 3378.0, 3378.0, 3378.0, 3378.0, 3378.0, 3378.0, 3378.0, 3378.0, 3378.0, 3378.0, 3378.0, 3378.0, 3378.0, 3378.0, 3378.0, 3378.0, 3378.0, 3378.0, 3378.0, 3378.0, 3378.0, 3378.0, 3378.0, 3378.0, 3378.0, 3378.0, 3378.0, 3378.0, 3378.0, 3378.0, 3378.0, 3378.0, 3378.0, 3378.0, 3378.0, 3378.0]
    },
    "slices": {}
  }
}