{
  "AcquisitionMatrixPE": 80,
  "AcquisitionNumber": 1,
  "AcquisitionTime": "09:16:58.490000",
  "BandwidthPerPixelPhaseEncode": 25,
  "BaseResolution": 80,
  "BodyPartExamined": "BRAIN",
  "CoilCombinationMethod": "Sum of Squares",
  "ConsistencyInfo": "N4_VE11C_LATEST_20160120",
  "ConversionSoftware": "dcm2niix",
  "ConversionSoftwareVersion": "v1.0.20220720",
  "DerivedVendorReportedEchoSpacing": 0.0005,
  "DeviceSerialNumber": "66112",
  "DwellTime": 2.7e-06,
  "EchoTime": 0.03,
  "EchoTrainLength": 80,
  "EffectiveEchoSpacing": 0.0005,
  "FlipAngle": 77,
  "HeudiconvVersion": "0.13.1",
  "ImageOrientationPatientDICOM": [0.98423, -0.176843, -0.00423842, 0.171776, 0.949756, 0.261644],
  "ImageOrientationText": "Tra>Cor(15.0)>Sag(2.4)",
  "ImageType": [
    "ORIGINAL",
    "PRIMARY",
    "M",
    "ND",
    "NORM",
    "MOSAIC"
],
  "ImagingFrequency": 123.252,
  "InPlanePhaseEncodingDirectionDICOM": "COL",
  "InstitutionAddress": "Maynard 3,Hanover,NH,US,03755",
  "InstitutionName": "Dartmouth College - PBS",
  "InstitutionalDepartmentName": "Department",
  "MRAcquisitionType": "2D",
  "MagneticFieldStrength": 3,
  "Manufacturer": "Siemens",
  "ManufacturersModelName": "Prisma",
  "MatrixCoilMode": "SENSE",
  "Modality": "MR",
  "NonlinearGradientCorrection": false,
  "PartialFourier": 1,
  "PatientPosition": "HFS",
  "PercentPhaseFOV": 100,
  "PercentSampling": 100,
  "PhaseEncodingDirection": "j-",
  "PhaseEncodingSteps": 80,
  "PhaseResolution": 1,
  "PixelBandwidth": 2315,
  "ProcedureStepDescription": "dbic^QA",
  "ProtocolName": "func-bold_fa-77",
  "PulseSequenceDetails": "%SiemensSeq%\\ep2d_bold",
  "ReceiveCoilActiveElements": "HC1-7;NC1,2",
  "ReceiveCoilName": "HeadNeck_64",
  "ReconMatrixPE": 80,
  "RepetitionTime": 2,
  "SAR": 0.0283548,
  "ScanOptions": "FS",
  "ScanningSequence": "EP",
  "SequenceName": "*epfid2d1_80",
  "SequenceVariant": "SK",
  "SeriesDescription": "func-bold_fa-77",
  "SeriesNumber": 7,
  "ShimSetting": [4142, -7693, -7509, 217, -77, -331, -30, 123],
  "SliceThickness": 3.5,
  "SliceTiming": [0.9875, 0, 1.055, 0.065, 1.12, 0.13, 1.1875, 0.1975, 1.2525, 0.2625, 1.3175, 0.33, 1.385, 0.395, 1.45, 0.46, 1.5175, 0.5275, 1.5825, 0.5925, 1.6475, 0.66, 1.715, 0.725, 1.78, 0.79, 1.8475, 0.8575, 1.9125, 0.9225],
  "SoftwareVersions": "syngo MR E11",
  "SpacingBetweenSlices": 3.99,
  "StationName": "AWP66112",
  "TotalReadoutTime": 0.0395,
  "TxRefAmp": 211.531,
  "dcmmeta_affine": [
    [-2.9526896476745605, 0.5153269171714783, 0.16855528950691223, 89.66239166259766],
    [0.5305294394493103, 2.849266767501831, 1.030400037765503, -131.91122436523438],
    [-0.012715260498225689, -0.7849310636520386, 3.8509695529937744, -33.869998931884766],
    [0.0, 0.0, 0.0, 1.0]
],
  "dcmmeta_reorient_transform": [
    [0.0, -1.0, 0.0, 79.0],
    [1.0, 0.0, 0.0, 0.0],
    [0.0, 0.0, 1.0, 0.0],
    [0.0, 0.0, 0.0, 1.0]
],
  "dcmmeta_shape": [80, 80, 30, 200],
  "dcmmeta_slice_dim": 2,
  "dcmmeta_version": 0.6,
  "global": {
    "const": {
      "AccessionNumber": "qa64",
      "AcquisitionMatrix": [80, 0, 0, 80],
      "AngioFlag": "N",
      "BitsAllocated": 16,
      "BitsStored": 12,
      "BodyPartExamined": "BRAIN",
      "Columns": 480,
      "EchoNumbers": 1,
      "EchoTime": 30.0,
      "EchoTrainLength": 80,
      "FlipAngle": 77.0,
      "HighBit": 11,
      "ImageOrientationPatient": [0.98422991989361, -0.1768431524823, -0.0042384202653, 0.17177564681842, 0.94975560459612, 0.26164368652498],
      "ImagePositionPatient": [-823.97656349836, -556.92832385935, -250.32271272745],
      "ImageType": [
        "ORIGINAL",
        "PRIMARY",
        "M",
        "ND",
        "NORM",
        "MOSAIC"
],
      "ImagedNucleus": "1H",
      "ImagingFrequency": 123.252366,
      "InPlanePhaseEncodingDirection": "COL",
      "LargestImagePixelValue": 4095,
      "MRAcquisitionType": "2D",
      "MagneticFieldStrength": 3.0,
      "Manufacturer": "SIEMENS",
      "ManufacturerModelName": "Prisma",
      "Modality": "MR",
      "NumberOfAverages": 1.0,
      "NumberOfPhaseEncodingSteps": 80,
      "PercentPhaseFieldOfView": 100.0,
      "PercentSampling": 100.0,
      "PerformedProcedureStepStartTime": "090314.348000",
      "PhotometricInterpretation": "MONOCHROME2",
      "PixelBandwidth": 2315.0,
      "PixelRepresentation": 0,
      "PixelSpacing": [3.0, 3.0],
      "ProtocolName": "func-bold_fa-77",
      "RepetitionTime": 2000.0,
      "Rows": 480,
      "SAR": 0.02835483493624,
      "SamplesPerPixel": 1,
      "ScanOptions": "FS",
      "ScanningSequence": "EP",
      "SequenceName": "*epfid2d1_80",
      "SequenceVariant": "SK",
      "SeriesDescription": "func-bold_fa-77",
      "SeriesNumber": 7,
      "SeriesTime": "091753.285000",
      "SliceLocation": -62.967563945839,
      "SliceThickness": 3.5,
      "SmallestImagePixelValue": 0,
      "SoftwareVersions": "syngo MR E11",
      "SpacingBetweenSlices": 3.9900001318087,
      "SpecificCharacterSet": "ISO_IR 100",
      "StudyID": "6",
      "StudyTime": "090314.271000",
      "TransmitCoilName": "Body",
      "VariableFlipAngleFlag": "N",
      "WindowCenterWidthExplanation": "Algo1",
      "dBdt": 0.0},
    "slices": {}
  },
  "time": {
    "samples": {
      "AcquisitionNumber": [1, 2, 3, 4, 5, 6, 7, 8, 9, 10, 11, 12, 13, 14, 15, 16, 17, 18, 19, 20, 21, 22, 23, 24, 25, 26, 27, 28, 29, 30, 31, 32, 33, 34, 35, 36, 37, 38, 39, 40, 41, 42, 43, 44, 45, 46, 47, 48, 49, 50, 51, 52, 53, 54, 55, 56, 57, 58, 59, 60, 61, 62, 63, 64, 65, 66, 67, 68, 69, 70, 71, 72, 73, 74, 75, 76, 77, 78, 79, 80, 81, 82, 83, 84, 85, 86, 87, 88, 89, 90, 91, 92, 93, 94, 95, 96, 97, 98, 99, 100, 101, 102, 103, 104, 105, 106, 107, 108, 109, 110, 111, 112, 113, 114, 115, 116, 117, 118, 119, 120, 121, 122, 123, 124, 125, 126, 127, 128, 129, 130, 131, 132, 133, 134, 135, 136, 137, 138, 139, 140, 141, 142, 143, 144, 145, 146, 147, 148, 149, 150, 151, 152, 153, 154, 155, 156, 157, 158, 159, 160, 161, 162, 163, 164, 165, 166, 167, 168, 169, 170, 171, 172, 173, 174, 175, 176, 177, 178, 179, 180, 181, 182, 183, 184, 185, 186, 187, 188, 189, 190, 191, 192, 193, 194, 195, 196, 197, 198, 199, 200],
      "AcquisitionTime": ["091658.490000", "091700.490000", "091702.490000", "091704.490000", "091706.490000", "091708.490000", "091710.490000", "091712.490000", "091714.490000", "091716.490000", "091718.490000", "091720.490000", "091722.490000", "091724.490000", "091726.490000", "091728.490000", "091730.490000", "091732.490000", "091734.490000", "091736.490000", "091738.490000", "091740.490000", "091742.490000", "091744.490000", "091746.490000", "091748.490000", "091750.490000", "091752.490000", "091754.490000", "091756.490000", "091758.490000", "091800.490000", "091802.490000", "091804.490000", "091806.490000", "091808.490000", "091810.490000", "091812.490000", "091814.490000", "091816.490000", "091818.490000", "091820.490000", "091822.490000", "091824.490000", "091826.490000", "091828.490000", "091830.490000", "091832.490000", "091834.490000", "091836.490000", "091838.490000", "091840.490000", "091842.490000", "091844.490000", "091846.490000", "091848.490000", "091850.490000", "091852.490000", "091854.490000", "091856.490000", "091858.490000", "091900.490000", "091902.490000", "091904.490000", "091906.490000", "091908.490000", "091910.490000", "091912.490000", "091914.490000", "091916.490000", "091918.490000", "091920.490000", "091922.490000", "091924.490000", "091926.490000", "091928.490000", "091930.490000", "091932.490000", "091934.490000", "091936.490000", "091938.490000", "091940.490000", "091942.490000", "091944.490000", "091946.490000", "091948.490000", "091950.490000", "091952.490000", "091954.490000", "091956.490000", "091958.490000", "092000.490000", "092002.490000", "092004.490000", "092006.490000", "092008.490000", "092010.490000", "092012.490000", "092014.490000", "092016.490000", "092018.490000", "092020.490000", "092022.490000", "092024.490000", "092026.490000", "092028.490000", "092030.490000", "092032.490000", "092034.490000", "092036.490000", "092038.490000", "092040.490000", "092042.490000", "092044.490000", "092046.490000", "092048.490000", "092050.490000", "092052.490000", "092054.490000", "092056.490000", "092058.490000", "092100.490000", "092102.490000", "092104.490000", "092106.490000", "092108.490000", "092110.490000", "092112.490000", "092114.490000", "092116.490000", "092118.490000", "092120.490000", "092122.490000", "092124.490000", "092126.490000", "092128.490000", "092130.490000", "092132.490000", "092134.490000", "092136.490000", "092138.490000", "092140.490000", "092142.490000", "092144.490000", "092146.490000", "092148.490000", "092150.490000", "092152.490000", "092154.490000", "092156.490000", "092158.490000", "092200.490000", "092202.490000", "092204.490000", "092206.490000", "092208.490000", "092210.490000", "092212.490000", "092214.490000", "092216.490000", "092218.490000", "092220.490000", "092222.490000", "092224.490000", "092226.490000", "092228.490000", "092230.490000", "092232.490000", "092234.490000", "092236.490000", "092238.490000", "092240.490000", "092242.490000", "092244.490000", "092246.490000", "092248.490000", "092250.490000", "092252.490000", "092254.490000", "092256.490000", "092258.490000", "092300.490000", "092302.490000", "092304.490000", "092306.490000", "092308.490000", "092310.490000", "092312.490000", "092314.490000", "092316.490000", "092318.490000", "092320.490000", "092322.490000", "092324.490000", "092326.490000", "092328.490000", "092330.490000", "092332.490000", "092334.490000", "092336.490000"],
      "ContentTime": ["091753.289000", "091753.293000", "091753.296000", "091753.299000", "091753.302000", "091753.304000", "091753.307000", "091753.310000", "091753.313000", "091753.316000", "091753.319000", "091753.322000", "091753.325000", "091753.328000", "091753.331000", "091753.334000", "091753.337000", "091753.340000", "091753.343000", "091753.346000", "091753.349000", "091753.352000", "091753.355000", "091753.358000", "091753.361000", "091753.364000", "091753.367000", "091833.282000", "091833.285000", "091833.288000", "091833.290000", "091833.293000", "091833.295000", "091833.306000", "091833.309000", "091833.311000", "091833.328000", "091833.330000", "091833.333000", "091833.335000", "091833.338000", "091833.340000", "091833.343000", "091833.345000", "091833.348000", "091833.350000", "091833.353000", "091913.284000", "091913.286000", "091913.289000", "091913.291000", "091913.294000", "091913.297000", "091913.299000", "091913.302000", "091913.304000", "091913.307000", "091913.310000", "091913.312000", "091913.315000", "091913.317000", "091913.320000", "091913.322000", "091913.325000", "091913.327000", "091913.330000", "091913.333000", "091953.283000", "091953.286000", "091953.289000", "091953.291000", "091953.294000", "091953.296000", "091953.299000", "091953.302000", "091953.304000", "091953.307000", "091953.309000", "091953.312000", "091953.314000", "091953.317000", "091953.319000", "091953.322000", "091953.324000", "091953.327000", "091953.329000", "091953.332000", "092033.282000", "092033.285000", "092033.288000", "092033.290000", "092033.293000", "092033.295000", "092033.298000", "092033.300000", "092033.303000", "092033.305000", "092033.308000", "092033.311000", "092033.313000", "092033.316000", "092033.318000", "092033.321000", "092033.323000", "092033.326000", "092033.328000", "092033.331000", "092113.282000", "092113.285000", "092113.288000", "092113.290000", "092113.293000", "092113.295000", "092113.298000", "092113.301000", "092113.303000", "092113.306000", "092113.308000", "092113.311000", "092113.313000", "092113.316000", "092113.318000", "092113.321000", "092113.323000", "092113.326000", "092113.329000", "092113.331000", "092153.283000", "092153.286000", "092153.289000", "092153.291000", "092153.294000", "092153.297000", "092153.299000", "092153.302000", "092153.304000", "092153.307000", "092153.309000", "092153.312000", "092153.314000", "092153.317000", "092153.319000", "092153.322000", "092153.324000", "092153.327000", "092153.330000", "092153.332000", "092233.282000", "092233.285000", "092233.288000", "092233.290000", "092233.293000", "092233.295000", "092233.298000", "092233.301000", "092233.303000", "092233.306000", "092233.308000", "092233.311000", "092233.313000", "092233.316000", "092233.318000", "092233.321000", "092233.324000", "092233.326000", "092233.329000", "092233.331000", "092313.282000", "092313.285000", "092313.288000", "092313.290000", "092313.293000", "092313.295000", "092313.298000", "092313.301000", "092313.303000", "092313.306000", "092313.308000", "092313.311000", "092313.313000", "092313.316000", "092313.318000", "092313.321000", "092313.324000", "092313.326000", "092313.329000", "092313.331000", "092338.504000", "092338.507000", "092338.509000", "092338.512000", "092338.515000", "092338.517000", "092338.520000", "092338.522000", "092338.525000", "092338.527000", "092338.530000", "092338.533000", "092338.536000"],
      "InstanceCreationTime": ["091753.289000", "091753.293000", "091753.296000", "091753.299000", "091753.302000", "091753.304000", "091753.307000", "091753.310000", "091753.313000", "091753.316000", "091753.319000", "091753.322000", "091753.325000", "091753.328000", "091753.331000", "091753.334000", "091753.337000", "091753.340000", "091753.343000", "091753.346000", "091753.349000", "091753.352000", "091753.355000", "091753.358000", "091753.361000", "091753.364000", "091753.367000", "091833.282000", "091833.285000", "091833.288000", "091833.290000", "091833.293000", "091833.295000", "091833.306000", "091833.309000", "091833.311000", "091833.328000", "091833.330000", "091833.333000", "091833.335000", "091833.338000", "091833.340000", "091833.343000", "091833.345000", "091833.348000", "091833.350000", "091833.353000", "091913.284000", "091913.286000", "091913.289000", "091913.291000", "091913.294000", "091913.297000", "091913.299000", "091913.302000", "091913.304000", "091913.307000", "091913.310000", "091913.312000", "091913.315000", "091913.317000", "091913.320000", "091913.322000", "091913.325000", "091913.327000", "091913.330000", "091913.333000", "091953.283000", "091953.286000", "091953.289000", "091953.291000", "091953.294000", "091953.296000", "091953.299000", "091953.302000", "091953.304000", "091953.307000", "091953.309000", "091953.312000", "091953.314000", "091953.317000", "091953.319000", "091953.322000", "091953.324000", "091953.327000", "091953.329000", "091953.332000", "092033.282000", "092033.285000", "092033.288000", "092033.290000", "092033.293000", "092033.295000", "092033.298000", "092033.300000", "092033.303000", "092033.305000", "092033.308000", "092033.311000", "092033.313000", "092033.316000", "092033.318000", "092033.321000", "092033.323000", "092033.326000", "092033.328000", "092033.331000", "092113.282000", "092113.285000", "092113.288000", "092113.290000", "092113.293000", "092113.295000", "092113.298000", "092113.301000", "092113.303000", "092113.306000", "092113.308000", "092113.311000", "092113.313000", "092113.316000", "092113.318000", "092113.321000", "092113.323000", "092113.326000", "092113.329000", "092113.331000", "092153.283000", "092153.286000", "092153.289000", "092153.291000", "092153.294000", "092153.297000", "092153.299000", "092153.302000", "092153.304000", "092153.307000", "092153.309000", "092153.312000", "092153.314000", "092153.317000", "092153.319000", "092153.322000", "092153.324000", "092153.327000", "092153.330000", "092153.332000", "092233.282000", "092233.285000", "092233.288000", "092233.290000", "092233.293000", "092233.295000", "092233.298000", "092233.301000", "092233.303000", "092233.306000", "092233.308000", "092233.311000", "092233.313000", "092233.316000", "092233.318000", "092233.321000", "092233.324000", "092233.326000", "092233.329000", "092233.331000", "092313.282000", "092313.285000", "092313.288000", "092313.290000", "092313.293000", "092313.295000", "092313.298000", "092313.301000", "092313.303000", "092313.306000", "092313.308000", "092313.311000", "092313.313000", "092313.316000", "092313.318000", "092313.321000", "092313.324000", "092313.326000", "092313.329000", "092313.331000", "092338.504000", "092338.507000", "092338.509000", "092338.512000", "092338.515000", "092338.517000", "092338.520000", "092338.522000", "092338.525000", "092338.527000", "092338.530000", "092338.533000", "092338.536000"],
      "InstanceNumber": [1, 2, 3, 4, 5, 6, 7, 8, 9, 10, 11, 12, 13, 14, 15, 16, 17, 18, 19, 20, 21, 22, 23, 24, 25, 26, 27, 28, 29, 30, 31, 32, 33, 34, 35, 36, 37, 38, 39, 40, 41, 42, 43, 44, 45, 46, 47, 48, 49, 50, 51, 52, 53, 54, 55, 56, 57, 58, 59, 60, 61, 62, 63, 64, 65, 66, 67, 68, 69, 70, 71, 72, 73, 74, 75, 76, 77, 78, 79, 80, 81, 82, 83, 84, 85, 86, 87, 88, 89, 90, 91, 92, 93, 94, 95, 96, 97, 98, 99, 100, 101, 102, 103, 104, 105, 106, 107, 108, 109, 110, 111, 112, 113, 114, 115, 116, 117, 118, 119, 120, 121, 122, 123, 124, 125, 126, 127, 128, 129, 130, 131, 132, 133, 134, 135, 136, 137, 138, 139, 140, 141, 142, 143, 144, 145, 146, 147, 148, 149, 150, 151, 152, 153, 154, 155, 156, 157, 158, 159, 160, 161, 162, 163, 164, 165, 166, 167, 168, 169, 170, 171, 172, 173, 174, 175, 176, 177, 178, 179, 180, 181, 182, 183, 184, 185, 186, 187, 188, 189, 190, 191, 192, 193, 194, 195, 196, 197, 198, 199, 200],
      "WindowCenter": [1415.0, 1414.0, 1415.0, 1414.0, 1414.0, 1414.0, 1414.0, 1414.0, 1414.0, 1414.0, 1413.0, 1414.0, 1414.0, 1414.0, 1415.0, 1414.0, 1414.0, 1414.0, 1414.0, 1414.0, 1413.0, 1414.0, 1414.0, 1414.0, 1414.0, 1414.0, 1414.0, 1414.0, 1413.0, 1414.0, 1414.0, 1414.0, 1414.0, 1414.0, 1414.0, 1414.0, 1413.0, 1413.0, 1413.0, 1413.0, 1413.0, 1413.0, 1413.0, 1413.0, 1413.0, 1413.0, 1413.0, 1414.0, 1413.0, 1413.0, 1413.0, 1413.0, 1413.0, 1413.0, 1413.0, 1413.0, 1413.0, 1412.0, 1413.0, 1413.0, 1412.0, 1412.0, 1412.0, 1413.0, 1412.0, 1412.0, 1413.0, 1413.0, 1413.0, 1413.0, 1412.0, 1413.0, 1413.0, 1413.0, 1412.0, 1413.0, 1412.0, 1412.0, 1413.0, 1412.0, 1412.0, 1413.0, 1412.0, 1413.0, 1412.0, 1412.0, 1412.0, 1412.0, 1412.0, 1412.0, 1411.0, 1412.0, 1411.0, 1412.0, 1412.0, 1411.0, 1411.0, 1411.0, 1411.0, 1412.0, 1411.0, 1412.0, 1412.0, 1412.0, 1411.0, 1411.0, 1412.0, 1412.0, 1411.0, 1411.0, 1412.0, 1411.0, 1412.0, 1411.0, 1411.0, 1411.0, 1412.0, 1412.0, 1411.0, 1411.0, 1411.0, 1412.0, 1411.0, 1412.0, 1411.0, 1411.0, 1411.0, 1411.0, 1411.0, 1411.0, 1411.0, 1411.0, 1411.0, 1411.0, 1411.0, 1411.0, 1411.0, 1411.0, 1411.0, 1411.0, 1411.0, 1411.0, 1411.0, 1410.0, 1410.0, 1411.0, 1411.0, 1411.0, 1411.0, 1411.0, 1411.0, 1411.0, 1411.0, 1410.0, 1411.0, 1410.0, 1410.0, 1410.0, 1410.0, 1411.0, 1410.0, 1410.0, 1410.0, 1409.0, 1410.0, 1410.0, 1410.0, 1410.0, 1410.0, 1410.0, 1410.0, 1410.0, 1410.0, 1410.0, 1410.0, 1410.0, 1410.0, 1410.0, 1410.0, 1409.0, 1410.0, 1409.0, 1410.0, 1410.0, 1410.0, 1409.0, 1410.0, 1409.0, 1410.0, 1410.0, 1410.0, 1410.0, 1409.0, 1409.0, 1409.0, 1409.0, 1409.0, 1410.0, 1410.0, 1410.0],
      "WindowWidth": [3350.0, 3350.0, 3350.0, 3350.0, 3350.0, 3350.0, 3350.0, 3350.0, 3350.0, 3349.0, 3350.0, 3350.0, 3350.0, 3350.0, 3349.0, 3350.0, 3350.0, 3350.0, 3350.0, 3350.0, 3350.0, 3349.0, 3349.0, 3349.0, 3349.0, 3349.0, 3349.0, 3349.0, 3350.0, 3349.0, 3349.0, 3349.0, 3349.0, 3349.0, 3349.0, 3349.0, 3349.0, 3349.0, 3349.0, 3349.0, 3349.0, 3349.0, 3349.0, 3349.0, 3349.0, 3349.0, 3349.0, 3348.0, 3349.0, 3349.0, 3349.0, 3349.0, 3349.0, 3349.0, 3349.0, 3349.0, 3349.0, 3349.0, 3349.0, 3348.0, 3349.0, 3349.0, 3349.0, 3348.0, 3349.0, 3349.0, 3348.0, 3348.0, 3348.0, 3348.0, 3349.0, 3348.0, 3348.0, 3348.0, 3348.0, 3348.0, 3348.0, 3349.0, 3348.0, 3348.0, 3348.0, 3348.0, 3349.0, 3348.0, 3348.0, 3348.0, 3348.0, 3348.0, 3348.0, 3348.0, 3348.0, 3347.0, 3348.0, 3348.0, 3347.0, 3348.0, 3348.0, 3348.0, 3348.0, 3348.0, 3348.0, 3347.0, 3347.0, 3347.0, 3348.0, 3348.0, 3347.0, 3347.0, 3348.0, 3348.0, 3347.0, 3348.0, 3347.0, 3348.0, 3348.0, 3348.0, 3347.0, 3347.0, 3348.0, 3348.0, 3348.0, 3347.0, 3348.0, 3347.0, 3347.0, 3347.0, 3347.0, 3347.0, 3347.0, 3347.0, 3347.0, 3347.0, 3347.0, 3347.0, 3347.0, 3347.0, 3347.0, 3347.0, 3346.0, 3346.0, 3346.0, 3346.0, 3346.0, 3347.0, 3347.0, 3346.0, 3346.0, 3346.0, 3346.0, 3346.0, 3346.0, 3346.0, 3346.0, 3347.0, 3346.0, 3347.0, 3347.0, 3346.0, 3347.0, 3346.0, 3346.0, 3346.0, 3346.0, 3347.0, 3346.0, 3346.0, 3346.0, 3346.0, 3346.0, 3346.0, 3346.0, 3346.0, 3346.0, 3346.0, 3346.0, 3346.0, 3346.0, 3346.0, 3346.0, 3346.0, 3346.0, 3346.0, 3346.0, 3346.0, 3346.0, 3346.0, 3346.0, 3346.0, 3346.0, 3346.0, 3346.0, 3346.0, 3346.0, 3346.0, 3346.0, 3346.0, 3346.0, 3345.0, 3345.0, 3345.0]
    },
    "slices": {}
  }
}