{
  "AcquisitionMatrixPE": 80,
  "AcquisitionNumber": 1,
  "AcquisitionTime": "09:23:45.530000",
  "BandwidthPerPixelPhaseEncode": 25,
  "BaseResolution": 80,
  "BodyPartExamined": "BRAIN",
  "CoilCombinationMethod": "Sum of Squares",
  "ConsistencyInfo": "N4_VE11C_LATEST_20160120",
  "ConversionSoftware": "dcm2niix",
  "ConversionSoftwareVersion": "v1.0.20220720",
  "DerivedVendorReportedEchoSpacing": 0.0005,
  "DeviceSerialNumber": "66112",
  "DwellTime": 2.7e-06,
  "EchoTime": 0.03,
  "EchoTrainLength": 80,
  "EffectiveEchoSpacing": 0.0005,
  "FlipAngle": 10,
  "HeudiconvVersion": "0.13.1",
  "ImageOrientationPatientDICOM": [0.98423, -0.176843, -0.00423842, 0.171776, 0.949756, 0.261644],
  "ImageOrientationText": "Tra>Cor(15.0)>Sag(2.4)",
  "ImageType": [
    "ORIGINAL",
    "PRIMARY",
    "M",
    "ND",
    "NORM",
    "MOSAIC"
],
  "ImagingFrequency": 123.252,
  "InPlanePhaseEncodingDirectionDICOM": "COL",
  "InstitutionAddress": "Maynard 3,Hanover,NH,US,03755",
  "InstitutionName": "Dartmouth College - PBS",
  "InstitutionalDepartmentName": "Department",
  "MRAcquisitionType": "2D",
  "MagneticFieldStrength": 3,
  "Manufacturer": "Siemens",
  "ManufacturersModelName": "Prisma",
  "MatrixCoilMode": "SENSE",
  "Modality": "MR",
  "NonlinearGradientCorrection": false,
  "PartialFourier": 1,
  "PatientPosition": "HFS",
  "PercentPhaseFOV": 100,
  "PercentSampling": 100,
  "PhaseEncodingDirection": "j-",
  "PhaseEncodingSteps": 80,
  "PhaseResolution": 1,
  "PixelBandwidth": 2315,
  "ProcedureStepDescription": "dbic^QA",
  "ProtocolName": "func-bold_fa-10",
  "PulseSequenceDetails": "%SiemensSeq%\\ep2d_bold",
  "ReceiveCoilActiveElements": "HC1-7;NC1,2",
  "ReceiveCoilName": "HeadNeck_64",
  "ReconMatrixPE": 80,
  "RepetitionTime": 2,
  "SAR": 0.00760616,
  "ScanOptions": "FS",
  "ScanningSequence": "EP",
  "SequenceName": "*epfid2d1_80",
  "SequenceVariant": "SK",
  "SeriesDescription": "func-bold_fa-10",
  "SeriesNumber": 9,
  "ShimSetting": [4142, -7693, -7509, 217, -77, -331, -30, 123],
  "SliceThickness": 3.5,
  "SliceTiming": [0.99, 0, 1.0575, 0.0675, 1.1225, 0.1325, 1.1875, 0.2, 1.255, 0.265, 1.32, 0.33, 1.3875, 0.3975, 1.4525, 0.4625, 1.5175, 0.53, 1.585, 0.595, 1.65, 0.66, 1.7175, 0.7275, 1.7825, 0.7925, 1.8475, 0.8575, 1.915, 0.925],
  "SoftwareVersions": "syngo MR E11",
  "SpacingBetweenSlices": 3.99,
  "StationName": "AWP66112",
  "TotalReadoutTime": 0.0395,
  "TxRefAmp": 211.531,
  "dcmmeta_affine": [
    [-2.9526896476745605, 0.5153269171714783, 0.16855528950691223, 89.66239166259766],
    [0.5305294394493103, 2.849266767501831, 1.030400037765503, -131.91122436523438],
    [-0.012715260498225689, -0.7849310636520386, 3.8509695529937744, -33.869998931884766],
    [0.0, 0.0, 0.0, 1.0]
],
  "dcmmeta_reorient_transform": [
    [0.0, -1.0, 0.0, 79.0],
    [1.0, 0.0, 0.0, 0.0],
    [0.0, 0.0, 1.0, 0.0],
    [0.0, 0.0, 0.0, 1.0]
],
  "dcmmeta_shape": [80, 80, 30, 200],
  "dcmmeta_slice_dim": 2,
  "dcmmeta_version": 0.6,
  "global": {
    "const": {
      "AccessionNumber": "qa64",
      "AcquisitionMatrix": [80, 0, 0, 80],
      "AngioFlag": "N",
      "BitsAllocated": 16,
      "BitsStored": 12,
      "BodyPartExamined": "BRAIN",
      "Columns": 480,
      "EchoNumbers": 1,
      "EchoTime": 30.0,
      "EchoTrainLength": 80,
      "FlipAngle": 10.0,
      "HighBit": 11,
      "ImageOrientationPatient": [0.98422991989361, -0.1768431524823, -0.0042384202653, 0.17177564681842, 0.94975560459612, 0.26164368652498],
      "ImagePositionPatient": [-823.97656349836, -556.92832385935, -250.32271272745],
      "ImageType": [
        "ORIGINAL",
        "PRIMARY",
        "M",
        "ND",
        "NORM",
        "MOSAIC"
],
      "ImagedNucleus": "1H",
      "ImagingFrequency": 123.252366,
      "InPlanePhaseEncodingDirection": "COL",
      "MRAcquisitionType": "2D",
      "MagneticFieldStrength": 3.0,
      "Manufacturer": "SIEMENS",
      "ManufacturerModelName": "Prisma",
      "Modality": "MR",
      "NumberOfAverages": 1.0,
      "NumberOfPhaseEncodingSteps": 80,
      "PercentPhaseFieldOfView": 100.0,
      "PercentSampling": 100.0,
      "PerformedProcedureStepStartTime": "090314.348000",
      "PhotometricInterpretation": "MONOCHROME2",
      "PixelBandwidth": 2315.0,
      "PixelRepresentation": 0,
      "PixelSpacing": [3.0, 3.0],
      "ProtocolName": "func-bold_fa-10",
      "RepetitionTime": 2000.0,
      "Rows": 480,
      "SAR": 0.00760615962199,
      "SamplesPerPixel": 1,
      "ScanOptions": "FS",
      "ScanningSequence": "EP",
      "SequenceName": "*epfid2d1_80",
      "SequenceVariant": "SK",
      "SeriesDescription": "func-bold_fa-10",
      "SeriesNumber": 9,
      "SeriesTime": "092413.355000",
      "SliceLocation": -62.967563945839,
      "SliceThickness": 3.5,
      "SmallestImagePixelValue": 0,
      "SoftwareVersions": "syngo MR E11",
      "SpacingBetweenSlices": 3.9900001318087,
      "SpecificCharacterSet": "ISO_IR 100",
      "StudyID": "6",
      "StudyTime": "090314.271000",
      "TransmitCoilName": "Body",
      "VariableFlipAngleFlag": "N",
      "WindowCenterWidthExplanation": "Algo1",
      "dBdt": 0.0},
    "slices": {}
  },
  "time": {
    "samples": {
      "AcquisitionNumber": [1, 2, 3, 4, 5, 6, 7, 8, 9, 10, 11, 12, 13, 14, 15, 16, 17, 18, 19, 20, 21, 22, 23, 24, 25, 26, 27, 28, 29, 30, 31, 32, 33, 34, 35, 36, 37, 38, 39, 40, 41, 42, 43, 44, 45, 46, 47, 48, 49, 50, 51, 52, 53, 54, 55, 56, 57, 58, 59, 60, 61, 62, 63, 64, 65, 66, 67, 68, 69, 70, 71, 72, 73, 74, 75, 76, 77, 78, 79, 80, 81, 82, 83, 84, 85, 86, 87, 88, 89, 90, 91, 92, 93, 94, 95, 96, 97, 98, 99, 100, 101, 102, 103, 104, 105, 106, 107, 108, 109, 110, 111, 112, 113, 114, 115, 116, 117, 118, 119, 120, 121, 122, 123, 124, 125, 126, 127, 128, 129, 130, 131, 132, 133, 134, 135, 136, 137, 138, 139, 140, 141, 142, 143, 144, 145, 146, 147, 148, 149, 150, 151, 152, 153, 154, 155, 156, 157, 158, 159, 160, 161, 162, 163, 164, 165, 166, 167, 168, 169, 170, 171, 172, 173, 174, 175, 176, 177, 178, 179, 180, 181, 182, 183, 184, 185, 186, 187, 188, 189, 190, 191, 192, 193, 194, 195, 196, 197, 198, 199, 200],
      "AcquisitionTime": ["092345.530000", "092347.530000", "092349.530000", "092351.530000", "092353.530000", "092355.530000", "092357.530000", "092359.530000", "092401.530000", "092403.530000", "092405.530000", "092407.530000", "092409.530000", "092411.530000", "092413.530000", "092415.530000", "092417.530000", "092419.530000", "092421.530000", "092423.530000", "092425.530000", "092427.530000", "092429.530000", "092431.530000", "092433.530000", "092435.530000", "092437.530000", "092439.530000", "092441.530000", "092443.530000", "092445.530000", "092447.530000", "092449.530000", "092451.530000", "092453.530000", "092455.530000", "092457.530000", "092459.530000", "092501.530000", "092503.530000", "092505.530000", "092507.530000", "092509.530000", "092511.530000", "092513.530000", "092515.530000", "092517.530000", "092519.530000", "092521.530000", "092523.530000", "092525.530000", "092527.530000", "092529.530000", "092531.530000", "092533.530000", "092535.530000", "092537.530000", "092539.530000", "092541.530000", "092543.530000", "092545.530000", "092547.530000", "092549.530000", "092551.530000", "092553.530000", "092555.530000", "092557.530000", "092559.530000", "092601.530000", "092603.530000", "092605.530000", "092607.530000", "092609.530000", "092611.530000", "092613.530000", "092615.530000", "092617.530000", "092619.530000", "092621.530000", "092623.530000", "092625.530000", "092627.530000", "092629.530000", "092631.530000", "092633.530000", "092635.530000", "092637.530000", "092639.530000", "092641.530000", "092643.530000", "092645.530000", "092647.530000", "092649.530000", "092651.530000", "092653.530000", "092655.530000", "092657.530000", "092659.530000", "092701.530000", "092703.530000", "092705.530000", "092707.530000", "092709.530000", "092711.530000", "092713.530000", "092715.530000", "092717.530000", "092719.530000", "092721.530000", "092723.530000", "092725.530000", "092727.530000", "092729.530000", "092731.530000", "092733.530000", "092735.530000", "092737.530000", "092739.530000", "092741.530000", "092743.530000", "092745.530000", "092747.530000", "092749.530000", "092751.530000", "092753.530000", "092755.530000", "092757.530000", "092759.530000", "092801.530000", "092803.530000", "092805.530000", "092807.530000", "092809.530000", "092811.530000", "092813.530000", "092815.530000", "092817.530000", "092819.530000", "092821.530000", "092823.530000", "092825.530000", "092827.530000", "092829.530000", "092831.530000", "092833.530000", "092835.530000", "092837.530000", "092839.530000", "092841.530000", "092843.530000", "092845.530000", "092847.530000", "092849.530000", "092851.530000", "092853.530000", "092855.530000", "092857.530000", "092859.530000", "092901.530000", "092903.530000", "092905.530000", "092907.530000", "092909.530000", "092911.530000", "092913.530000", "092915.530000", "092917.530000", "092919.530000", "092921.530000", "092923.530000", "092925.530000", "092927.530000", "092929.530000", "092931.530000", "092933.530000", "092935.530000", "092937.530000", "092939.530000", "092941.530000", "092943.530000", "092945.530000", "092947.530000", "092949.530000", "092951.530000", "092953.530000", "092955.530000", "092957.530000", "092959.530000", "093001.530000", "093003.530000", "093005.530000", "093007.530000", "093009.530000", "093011.530000", "093013.530000", "093015.530000", "093017.530000", "093019.530000", "093021.530000", "093023.530000"],
      "ContentTime": ["092413.358000", "092413.362000", "092413.364000", "092413.367000", "092413.369000", "092413.372000", "092413.378000", "092413.381000", "092413.383000", "092413.394000", "092413.397000", "092413.399000", "092413.402000", "092413.404000", "092453.352000", "092453.355000", "092453.358000", "092453.360000", "092453.363000", "092453.365000", "092453.368000", "092453.370000", "092453.373000", "092453.375000", "092453.378000", "092453.380000", "092453.383000", "092453.392000", "092453.394000", "092453.397000", "092453.399000", "092453.402000", "092453.404000", "092453.407000", "092533.352000", "092533.355000", "092533.358000", "092533.360000", "092533.363000", "092533.365000", "092533.368000", "092533.370000", "092533.373000", "092533.375000", "092533.378000", "092533.380000", "092533.383000", "092533.385000", "092533.388000", "092533.390000", "092533.393000", "092533.395000", "092533.398000", "092533.400000", "092613.353000", "092613.356000", "092613.359000", "092613.361000", "092613.364000", "092613.366000", "092613.369000", "092613.371000", "092613.374000", "092613.376000", "092613.379000", "092613.381000", "092613.384000", "092613.386000", "092613.389000", "092613.391000", "092613.394000", "092613.396000", "092613.399000", "092613.402000", "092653.353000", "092653.356000", "092653.359000", "092653.361000", "092653.364000", "092653.366000", "092653.369000", "092653.371000", "092653.374000", "092653.377000", "092653.379000", "092653.382000", "092653.384000", "092653.387000", "092653.389000", "092653.392000", "092653.394000", "092653.397000", "092653.399000", "092653.408000", "092733.352000", "092733.355000", "092733.358000", "092733.360000", "092733.363000", "092733.365000", "092733.368000", "092733.378000", "092733.381000", "092733.383000", "092733.386000", "092733.388000", "092733.391000", "092733.393000", "092733.396000", "092733.399000", "092733.401000", "092733.404000", "092733.406000", "092733.409000", "092813.352000", "092813.355000", "092813.358000", "092813.360000", "092813.363000", "092813.365000", "092813.368000", "092813.371000", "092813.373000", "092813.376000", "092813.378000", "092813.381000", "092813.383000", "092813.386000", "092813.389000", "092813.391000", "092813.394000", "092813.396000", "092813.408000", "092813.410000", "092853.354000", "092853.356000", "092853.359000", "092853.361000", "092853.364000", "092853.366000", "092853.369000", "092853.372000", "092853.374000", "092853.377000", "092853.379000", "092853.382000", "092853.384000", "092853.387000", "092853.389000", "092853.392000", "092853.395000", "092853.397000", "092853.400000", "092853.402000", "092933.352000", "092933.355000", "092933.358000", "092933.360000", "092933.363000", "092933.365000", "092933.368000", "092933.370000", "092933.373000", "092933.375000", "092933.378000", "092933.381000", "092933.383000", "092933.386000", "092933.388000", "092933.391000", "092933.393000", "092933.396000", "092933.399000", "092933.401000", "093013.352000", "093013.355000", "093013.358000", "093013.361000", "093013.363000", "093013.366000", "093013.368000", "093013.371000", "093013.373000", "093013.376000", "093013.378000", "093013.381000", "093013.383000", "093013.386000", "093013.388000", "093013.391000", "093013.393000", "093013.396000", "093013.398000", "093013.401000", "093025.224000", "093025.227000", "093025.229000", "093025.232000", "093025.235000", "093025.237000"],
      "InstanceCreationTime": ["092413.358000", "092413.362000", "092413.364000", "092413.367000", "092413.369000", "092413.372000", "092413.378000", "092413.381000", "092413.383000", "092413.394000", "092413.397000", "092413.399000", "092413.402000", "092413.404000", "092453.352000", "092453.355000", "092453.358000", "092453.360000", "092453.363000", "092453.365000", "092453.368000", "092453.370000", "092453.373000", "092453.375000", "092453.378000", "092453.380000", "092453.383000", "092453.392000", "092453.394000", "092453.397000", "092453.399000", "092453.402000", "092453.404000", "092453.407000", "092533.352000", "092533.355000", "092533.358000", "092533.360000", "092533.363000", "092533.365000", "092533.368000", "092533.370000", "092533.373000", "092533.375000", "092533.378000", "092533.380000", "092533.383000", "092533.385000", "092533.388000", "092533.390000", "092533.393000", "092533.395000", "092533.398000", "092533.400000", "092613.353000", "092613.356000", "092613.359000", "092613.361000", "092613.364000", "092613.366000", "092613.369000", "092613.371000", "092613.374000", "092613.376000", "092613.379000", "092613.381000", "092613.384000", "092613.386000", "092613.389000", "092613.391000", "092613.394000", "092613.396000", "092613.399000", "092613.402000", "092653.353000", "092653.356000", "092653.359000", "092653.361000", "092653.364000", "092653.366000", "092653.369000", "092653.371000", "092653.374000", "092653.377000", "092653.379000", "092653.382000", "092653.384000", "092653.387000", "092653.389000", "092653.392000", "092653.394000", "092653.397000", "092653.399000", "092653.408000", "092733.352000", "092733.355000", "092733.358000", "092733.360000", "092733.363000", "092733.365000", "092733.368000", "092733.378000", "092733.381000", "092733.383000", "092733.386000", "092733.388000", "092733.391000", "092733.393000", "092733.396000", "092733.399000", "092733.401000", "092733.404000", "092733.406000", "092733.409000", "092813.352000", "092813.355000", "092813.358000", "092813.360000", "092813.363000", "092813.365000", "092813.368000", "092813.371000", "092813.373000", "092813.376000", "092813.378000", "092813.381000", "092813.383000", "092813.386000", "092813.389000", "092813.391000", "092813.394000", "092813.396000", "092813.408000", "092813.410000", "092853.354000", "092853.356000", "092853.359000", "092853.361000", "092853.364000", "092853.366000", "092853.369000", "092853.372000", "092853.374000", "092853.377000", "092853.379000", "092853.382000", "092853.384000", "092853.387000", "092853.389000", "092853.392000", "092853.395000", "092853.397000", "092853.400000", "092853.402000", "092933.352000", "092933.355000", "092933.358000", "092933.360000", "092933.363000", "092933.365000", "092933.368000", "092933.370000", "092933.373000", "092933.375000", "092933.378000", "092933.381000", "092933.383000", "092933.386000", "092933.388000", "092933.391000", "092933.393000", "092933.396000", "092933.399000", "092933.401000", "093013.352000", "093013.355000", "093013.358000", "093013.361000", "093013.363000", "093013.366000", "093013.368000", "093013.371000", "093013.373000", "093013.376000", "093013.378000", "093013.381000", "093013.383000", "093013.386000", "093013.388000", "093013.391000", "093013.393000", "093013.396000", "093013.398000", "093013.401000", "093025.224000", "093025.227000", "093025.229000", "093025.232000", "093025.235000", "093025.237000"],
      "InstanceNumber": [1, 2, 3, 4, 5, 6, 7, 8, 9, 10, 11, 12, 13, 14, 15, 16, 17, 18, 19, 20, 21, 22, 23, 24, 25, 26, 27, 28, 29, 30, 31, 32, 33, 34, 35, 36, 37, 38, 39, 40, 41, 42, 43, 44, 45, 46, 47, 48, 49, 50, 51, 52, 53, 54, 55, 56, 57, 58, 59, 60, 61, 62, 63, 64, 65, 66, 67, 68, 69, 70, 71, 72, 73, 74, 75, 76, 77, 78, 79, 80, 81, 82, 83, 84, 85, 86, 87, 88, 89, 90, 91, 92, 93, 94, 95, 96, 97, 98, 99, 100, 101, 102, 103, 104, 105, 106, 107, 108, 109, 110, 111, 112, 113, 114, 115, 116, 117, 118, 119, 120, 121, 122, 123, 124, 125, 126, 127, 128, 129, 130, 131, 132, 133, 134, 135, 136, 137, 138, 139, 140, 141, 142, 143, 144, 145, 146, 147, 148, 149, 150, 151, 152, 153, 154, 155, 156, 157, 158, 159, 160, 161, 162, 163, 164, 165, 166, 167, 168, 169, 170, 171, 172, 173, 174, 175, 176, 177, 178, 179, 180, 181, 182, 183, 184, 185, 186, 187, 188, 189, 190, 191, 192, 193, 194, 195, 196, 197, 198, 199, 200],
      "LargestImagePixelValue": [748, 750, 749, 753, 749, 748, 746, 749, 747, 750, 748, 746, 748, 749, 748, 751, 747, 752, 748, 748, 751, 747, 748, 747, 750, 746, 747, 750, 752, 747, 746, 748, 750, 748, 750, 748, 748, 748, 748, 747, 749, 749, 750, 746, 751, 749, 747, 748, 748, 747, 752, 748, 747, 751, 748, 749, 750, 747, 747, 747, 746, 748, 749, 750, 746, 747, 748, 746, 751, 752, 750, 745, 747, 749, 748, 747, 747, 747, 748, 749, 749, 748, 753, 746, 749, 748, 749, 749, 747, 749, 750, 750, 748, 746, 747, 749, 748, 748, 748, 748, 747, 749, 749, 750, 747, 746, 749, 744, 744, 746, 745, 748, 747, 748, 748, 748, 749, 748, 747, 748, 751, 747, 747, 746, 747, 747, 747, 747, 748, 748, 747, 747, 748, 748, 748, 749, 748, 746, 745, 751, 744, 747, 746, 750, 750, 746, 750, 746, 747, 747, 744, 745, 748, 744, 748, 749, 746, 746, 747, 749, 747, 746, 748, 748, 747, 745, 747, 746, 748, 746, 747, 746, 747, 748, 747, 746, 747, 752, 745, 746, 747, 746, 744, 748, 745, 748, 745, 748, 748, 746, 746, 749, 743, 747, 746, 747, 746, 749, 745, 749],
      "WindowCenter": [463.0, 464.0, 463.0, 464.0, 463.0, 463.0, 463.0, 463.0, 463.0, 463.0, 463.0, 463.0, 463.0, 463.0, 463.0, 464.0, 463.0, 463.0, 463.0, 463.0, 463.0, 463.0, 463.0, 463.0, 464.0, 463.0, 463.0, 464.0, 463.0, 463.0, 463.0, 463.0, 463.0, 463.0, 463.0, 463.0, 463.0, 463.0, 463.0, 463.0, 463.0, 463.0, 463.0, 463.0, 463.0, 463.0, 462.0, 463.0, 463.0, 463.0, 463.0, 463.0, 463.0, 463.0, 463.0, 463.0, 463.0, 463.0, 463.0, 463.0, 463.0, 463.0, 463.0, 463.0, 463.0, 463.0, 463.0, 463.0, 463.0, 463.0, 463.0, 463.0, 463.0, 463.0, 463.0, 462.0, 462.0, 463.0, 463.0, 463.0, 462.0, 463.0, 463.0, 462.0, 462.0, 463.0, 463.0, 463.0, 463.0, 463.0, 463.0, 463.0, 462.0, 462.0, 462.0, 463.0, 462.0, 462.0, 462.0, 462.0, 462.0, 462.0, 462.0, 463.0, 462.0, 462.0, 462.0, 462.0, 462.0, 462.0, 462.0, 462.0, 462.0, 462.0, 462.0, 462.0, 462.0, 462.0, 462.0, 462.0, 463.0, 462.0, 462.0, 462.0, 462.0, 462.0, 462.0, 462.0, 462.0, 462.0, 462.0, 462.0, 462.0, 462.0, 462.0, 462.0, 462.0, 462.0, 462.0, 463.0, 462.0, 462.0, 462.0, 462.0, 462.0, 462.0, 463.0, 462.0, 462.0, 462.0, 462.0, 462.0, 462.0, 462.0, 462.0, 462.0, 462.0, 462.0, 462.0, 462.0, 462.0, 462.0, 462.0, 462.0, 462.0, 462.0, 462.0, 462.0, 462.0, 462.0, 462.0, 462.0, 462.0, 462.0, 462.0, 462.0, 462.0, 462.0, 462.0, 462.0, 462.0, 462.0, 462.0, 462.0, 462.0, 462.0, 462.0, 462.0, 462.0, 462.0, 462.0, 462.0, 462.0, 462.0, 462.0, 462.0, 462.0, 462.0, 462.0, 462.0],
      "WindowWidth": [959.0, 960.0, 960.0, 960.0, 960.0, 960.0, 960.0, 960.0, 960.0, 960.0, 960.0, 960.0, 960.0, 960.0, 960.0, 960.0, 959.0, 960.0, 959.0, 960.0, 960.0, 959.0, 959.0, 960.0, 960.0, 960.0, 960.0, 960.0, 960.0, 960.0, 960.0, 959.0, 960.0, 959.0, 959.0, 959.0, 959.0, 959.0, 959.0, 959.0, 959.0, 959.0, 959.0, 959.0, 959.0, 959.0, 959.0, 959.0, 959.0, 959.0, 959.0, 959.0, 959.0, 959.0, 959.0, 959.0, 959.0, 959.0, 959.0, 959.0, 959.0, 959.0, 959.0, 959.0, 959.0, 959.0, 959.0, 959.0, 959.0, 959.0, 959.0, 959.0, 959.0, 959.0, 959.0, 958.0, 958.0, 959.0, 959.0, 959.0, 958.0, 959.0, 959.0, 958.0, 958.0, 959.0, 959.0, 959.0, 959.0, 959.0, 959.0, 959.0, 958.0, 958.0, 958.0, 959.0, 958.0, 958.0, 958.0, 958.0, 958.0, 958.0, 958.0, 959.0, 958.0, 958.0, 958.0, 958.0, 958.0, 958.0, 958.0, 958.0, 958.0, 958.0, 958.0, 958.0, 958.0, 958.0, 958.0, 958.0, 959.0, 958.0, 958.0, 958.0, 958.0, 958.0, 958.0, 958.0, 958.0, 958.0, 958.0, 958.0, 958.0, 958.0, 958.0, 958.0, 958.0, 958.0, 958.0, 959.0, 958.0, 958.0, 958.0, 958.0, 958.0, 958.0, 959.0, 958.0, 958.0, 958.0, 958.0, 958.0, 958.0, 958.0, 958.0, 958.0, 958.0, 958.0, 958.0, 958.0, 958.0, 958.0, 958.0, 958.0, 958.0, 958.0, 958.0, 958.0, 958.0, 958.0, 958.0, 958.0, 958.0, 958.0, 958.0, 958.0, 958.0, 958.0, 958.0, 958.0, 958.0, 958.0, 958.0, 958.0, 958.0, 958.0, 958.0, 958.0, 958.0, 958.0, 958.0, 958.0, 958.0, 958.0, 957.0, 958.0, 958.0, 958.0, 958.0, 958.0]
    },
    "slices": {}
  }
}