{
  "AcquisitionMatrixPE": 80,
  "AcquisitionNumber": 1,
  "AcquisitionTime": "10:48:12.492500",
  "BandwidthPerPixelPhaseEncode": 48.077,
  "BaseResolution": 80,
  "BodyPartExamined": "BRAIN",
  "CoilCombinationMethod": "Sum of Squares",
  "ConsistencyInfo": "N4_VE11C_LATEST_20160120",
  "ConversionSoftware": "dcm2niix",
  "ConversionSoftwareVersion": "v1.0.20220720",
  "DerivedVendorReportedEchoSpacing": 0.000519999,
  "DeviceSerialNumber": "66112",
  "DwellTime": 2.7e-06,
  "EchoTime": 0.035,
  "EchoTrainLength": 39,
  "EffectiveEchoSpacing": 0.00026,
  "FlipAngle": 90,
  "HeudiconvVersion": "0.13.1",
  "ImageOrientationPatientDICOM": [0.999666, -0.025828, 0, 0.025828, 0.999666, 0],
  "ImageOrientationText": "Tra",
  "ImageType": [
    "ORIGINAL",
    "PRIMARY",
    "M",
    "ND",
    "NORM",
    "MOSAIC"
],
  "ImagingFrequency": 123.252,
  "InPlanePhaseEncodingDirectionDICOM": "COL",
  "InstitutionAddress": "Maynard 3,Hanover,NH,US,03755",
  "InstitutionName": "Dartmouth College - PBS",
  "InstitutionalDepartmentName": "Department",
  "MRAcquisitionType": "2D",
  "MagneticFieldStrength": 3,
  "Manufacturer": "Siemens",
  "ManufacturersModelName": "Prisma",
  "MatrixCoilMode": "GRAPPA",
  "Modality": "MR",
  "NonlinearGradientCorrection": false,
  "ParallelReductionFactorInPlane": 2,
  "PartialFourier": 1,
  "PatientPosition": "HFS",
  "PercentPhaseFOV": 100,
  "PercentSampling": 100,
  "PhaseEncodingDirection": "j-",
  "PhaseEncodingSteps": 79,
  "PhaseResolution": 1,
  "PixelBandwidth": 2315,
  "ProcedureStepDescription": "dbic^QA",
  "ProtocolName": "func-bold_task-rest_acq-p2",
  "PulseSequenceDetails": "%SiemensSeq%\\ep2d_bold",
  "ReceiveCoilActiveElements": "HEA;HEP",
  "ReceiveCoilName": "Head_32",
  "ReconMatrixPE": 80,
  "RefLinesPE": 24,
  "RepetitionTime": 2,
  "SAR": 0.163887,
  "ScanOptions": "FS",
  "ScanningSequence": "EP",
  "SequenceName": "*epfid2d1_80",
  "SequenceVariant": "SK",
  "SeriesDescription": "func-bold_task-rest_acq-p2",
  "SeriesNumber": 9,
  "ShimSetting": [4143, -7701, -7264, -757, -56, -37, -78, 73],
  "SliceThickness": 3.5,
  "SliceTiming": [0.99, 0, 1.055, 0.065, 1.1225, 0.1325, 1.1875, 0.1975, 1.255, 0.265, 1.32, 0.33, 1.385, 0.395, 1.4525, 0.4625, 1.5175, 0.5275, 1.5825, 0.595, 1.65, 0.66, 1.715, 0.725, 1.7825, 0.7925, 1.8475, 0.8575, 1.9125, 0.925],
  "SoftwareVersions": "syngo MR E11",
  "SpacingBetweenSlices": 3.99,
  "StationName": "AWP66112",
  "TaskName": "rest",
  "TotalReadoutTime": 0.02054,
  "TxRefAmp": 186.051,
  "dcmmeta_affine": [
    [-2.9989991188049316, 0.0774838849902153, 0.0, 119.02023315429688],
    [0.0774838849902153, 2.9989991188049316, 0.0, -107.35398864746094],
    [0.0, 0.0, 3.990000009536743, -82.85086059570312],
    [0.0, 0.0, 0.0, 1.0]
],
  "dcmmeta_reorient_transform": [
    [0.0, -1.0, 0.0, 79.0],
    [1.0, 0.0, 0.0, 0.0],
    [0.0, 0.0, 1.0, 0.0],
    [0.0, 0.0, 0.0, 1.0]
],
  "dcmmeta_shape": [80, 80, 30, 200],
  "dcmmeta_slice_dim": 2,
  "dcmmeta_version": 0.6,
  "global": {
    "const": {
      "AccessionNumber": "qa-emmet",
      "AcquisitionMatrix": [80, 0, 0, 80],
      "AngioFlag": "N",
      "BitsAllocated": 16,
      "BitsStored": 12,
      "BodyPartExamined": "BRAIN",
      "Columns": 480,
      "EchoNumbers": 1,
      "EchoTime": 35.0,
      "EchoTrainLength": 39,
      "FlipAngle": 90.0,
      "HighBit": 11,
      "ImageOrientationPatient": [0.9996664025258, -0.0258279627754, 0.0, 0.02582796277541, 0.9996664025258, 0.0],
      "ImagePositionPatient": [-740.43807821737, -713.87000882701, -82.850860595703],
      "ImageType": [
        "ORIGINAL",
        "PRIMARY",
        "M",
        "ND",
        "NORM",
        "MOSAIC"
],
      "ImagedNucleus": "1H",
      "ImagingFrequency": 123.252329,
      "InPlanePhaseEncodingDirection": "COL",
      "MRAcquisitionType": "2D",
      "MagneticFieldStrength": 3.0,
      "Manufacturer": "SIEMENS",
      "ManufacturerModelName": "Prisma",
      "Modality": "MR",
      "NumberOfAverages": 1.0,
      "NumberOfPhaseEncodingSteps": 79,
      "PercentPhaseFieldOfView": 100.0,
      "PercentSampling": 100.0,
      "PerformedProcedureStepStartTime": "103605.312000",
      "PhotometricInterpretation": "MONOCHROME2",
      "PixelBandwidth": 2315.0,
      "PixelRepresentation": 0,
      "PixelSpacing": [3.0, 3.0],
      "ProtocolName": "func-bold_task-rest_acq-p2",
      "RepetitionTime": 2000.0,
      "Rows": 480,
      "SAR": 0.16388742364889,
      "SamplesPerPixel": 1,
      "ScanOptions": "FS",
      "ScanningSequence": "EP",
      "SequenceName": "*epfid2d1_80",
      "SequenceVariant": "SK",
      "SeriesDescription": "func-bold_task-rest_acq-p2",
      "SeriesNumber": 9,
      "SeriesTime": "104859.990000",
      "SliceLocation": -82.850860595703,
      "SliceThickness": 3.5,
      "SmallestImagePixelValue": 0,
      "SoftwareVersions": "syngo MR E11",
      "SpacingBetweenSlices": 3.9900000999714,
      "SpecificCharacterSet": "ISO_IR 100",
      "StudyID": "2",
      "StudyTime": "103605.248000",
      "TransmitCoilName": "Body",
      "VariableFlipAngleFlag": "N",
      "WindowCenter": 744.0,
      "WindowCenterWidthExplanation": "Algo1",
      "dBdt": 0.0},
    "slices": {}
  },
  "time": {
    "samples": {
      "AcquisitionNumber": [1, 2, 3, 4, 5, 6, 7, 8, 9, 10, 11, 12, 13, 14, 15, 16, 17, 18, 19, 20, 21, 22, 23, 24, 25, 26, 27, 28, 29, 30, 31, 32, 33, 34, 35, 36, 37, 38, 39, 40, 41, 42, 43, 44, 45, 46, 47, 48, 49, 50, 51, 52, 53, 54, 55, 56, 57, 58, 59, 60, 61, 62, 63, 64, 65, 66, 67, 68, 69, 70, 71, 72, 73, 74, 75, 76, 77, 78, 79, 80, 81, 82, 83, 84, 85, 86, 87, 88, 89, 90, 91, 92, 93, 94, 95, 96, 97, 98, 99, 100, 101, 102, 103, 104, 105, 106, 107, 108, 109, 110, 111, 112, 113, 114, 115, 116, 117, 118, 119, 120, 121, 122, 123, 124, 125, 126, 127, 128, 129, 130, 131, 132, 133, 134, 135, 136, 137, 138, 139, 140, 141, 142, 143, 144, 145, 146, 147, 148, 149, 150, 151, 152, 153, 154, 155, 156, 157, 158, 159, 160, 161, 162, 163, 164, 165, 166, 167, 168, 169, 170, 171, 172, 173, 174, 175, 176, 177, 178, 179, 180, 181, 182, 183, 184, 185, 186, 187, 188, 189, 190, 191, 192, 193, 194, 195, 196, 197, 198, 199, 200],
      "AcquisitionTime": ["104812.492500", "104814.492500", "104816.492500", "104818.492500", "104820.492500", "104822.492500", "104824.492500", "104826.492500", "104828.492500", "104830.492500", "104832.492500", "104834.492500", "104836.492500", "104838.492500", "104840.492500", "104842.492500", "104844.492500", "104846.492500", "104848.492500", "104850.492500", "104852.492500", "104854.492500", "104856.492500", "104858.492500", "104900.492500", "104902.492500", "104904.492500", "104906.492500", "104908.492500", "104910.492500", "104912.492500", "104914.492500", "104916.492500", "104918.492500", "104920.492500", "104922.492500", "104924.492500", "104926.492500", "104928.492500", "104930.492500", "104932.492500", "104934.492500", "104936.492500", "104938.492500", "104940.492500", "104942.492500", "104944.492500", "104946.492500", "104948.492500", "104950.492500", "104952.492500", "104954.492500", "104956.492500", "104958.492500", "105000.492500", "105002.492500", "105004.492500", "105006.492500", "105008.492500", "105010.492500", "105012.492500", "105014.492500", "105016.492500", "105018.492500", "105020.492500", "105022.492500", "105024.492500", "105026.492500", "105028.492500", "105030.492500", "105032.492500", "105034.492500", "105036.492500", "105038.492500", "105040.492500", "105042.492500", "105044.492500", "105046.492500", "105048.492500", "105050.492500", "105052.492500", "105054.492500", "105056.492500", "105058.492500", "105100.492500", "105102.492500", "105104.492500", "105106.492500", "105108.492500", "105110.492500", "105112.492500", "105114.492500", "105116.492500", "105118.492500", "105120.492500", "105122.492500", "105124.492500", "105126.492500", "105128.492500", "105130.492500", "105132.492500", "105134.492500", "105136.492500", "105138.492500", "105140.492500", "105142.492500", "105144.492500", "105146.492500", "105148.492500", "105150.492500", "105152.492500", "105154.492500", "105156.492500", "105158.492500", "105200.492500", "105202.492500", "105204.492500", "105206.492500", "105208.492500", "105210.492500", "105212.492500", "105214.492500", "105216.492500", "105218.492500", "105220.492500", "105222.492500", "105224.492500", "105226.492500", "105228.492500", "105230.492500", "105232.492500", "105234.492500", "105236.492500", "105238.492500", "105240.492500", "105242.492500", "105244.492500", "105246.492500", "105248.492500", "105250.492500", "105252.492500", "105254.492500", "105256.492500", "105258.492500", "105300.492500", "105302.492500", "105304.492500", "105306.492500", "105308.492500", "105310.492500", "105312.492500", "105314.492500", "105316.492500", "105318.492500", "105320.492500", "105322.492500", "105324.492500", "105326.492500", "105328.492500", "105330.492500", "105332.492500", "105334.492500", "105336.492500", "105338.492500", "105340.492500", "105342.492500", "105344.492500", "105346.492500", "105348.492500", "105350.492500", "105352.492500", "105354.492500", "105356.492500", "105358.492500", "105400.492500", "105402.492500", "105404.492500", "105406.492500", "105408.492500", "105410.492500", "105412.492500", "105414.492500", "105416.492500", "105418.492500", "105420.492500", "105422.492500", "105424.492500", "105426.492500", "105428.492500", "105430.492500", "105432.492500", "105434.492500", "105436.492500", "105438.492500", "105440.492500", "105442.492500", "105444.492500", "105446.492500", "105448.492500", "105450.492500"],
      "ContentTime": ["104859.993000", "104859.997000", "104900.000000", "104900.004000", "104900.012000", "104900.016000", "104900.041000", "104900.044000", "104900.046000", "104900.049000", "104900.051000", "104900.054000", "104900.056000", "104900.059000", "104900.061000", "104900.064000", "104900.066000", "104900.069000", "104900.071000", "104900.074000", "104900.076000", "104900.079000", "104900.081000", "104939.989000", "104939.992000", "104939.995000", "104939.997000", "104940.001000", "104940.005000", "104940.007000", "104940.010000", "104940.012000", "104940.016000", "104940.019000", "104940.022000", "104940.024000", "104940.027000", "104940.029000", "104940.032000", "104940.034000", "104940.053000", "104940.056000", "104940.058000", "105019.989000", "105019.992000", "105019.995000", "105019.997000", "105020.002000", "105020.005000", "105020.007000", "105020.010000", "105020.014000", "105020.017000", "105020.020000", "105020.022000", "105020.025000", "105020.027000", "105020.031000", "105020.034000", "105020.036000", "105020.039000", "105020.041000", "105020.044000", "105059.988000", "105059.991000", "105059.994000", "105059.996000", "105100.000000", "105100.002000", "105100.005000", "105100.008000", "105100.010000", "105100.014000", "105100.016000", "105100.019000", "105100.022000", "105100.024000", "105100.026000", "105100.029000", "105100.032000", "105100.035000", "105100.038000", "105100.040000", "105139.989000", "105139.992000", "105139.995000", "105139.998000", "105140.002000", "105140.005000", "105140.007000", "105140.010000", "105140.015000", "105140.017000", "105140.020000", "105140.022000", "105140.025000", "105140.027000", "105140.030000", "105140.033000", "105140.036000", "105140.038000", "105140.041000", "105140.043000", "105219.989000", "105219.992000", "105219.995000", "105220.000000", "105220.002000", "105220.005000", "105220.007000", "105220.010000", "105220.014000", "105220.016000", "105220.019000", "105220.021000", "105220.024000", "105220.026000", "105220.029000", "105220.031000", "105220.034000", "105220.036000", "105220.039000", "105220.041000", "105259.988000", "105259.991000", "105259.994000", "105259.998000", "105300.001000", "105300.004000", "105300.006000", "105300.009000", "105300.013000", "105300.015000", "105300.018000", "105300.020000", "105300.023000", "105300.025000", "105300.028000", "105300.030000", "105300.033000", "105300.036000", "105300.038000", "105300.041000", "105339.988000", "105339.991000", "105339.994000", "105339.998000", "105340.002000", "105340.004000", "105340.007000", "105340.011000", "105340.014000", "105340.017000", "105340.019000", "105340.022000", "105340.024000", "105340.027000", "105340.029000", "105340.032000", "105340.034000", "105340.037000", "105340.040000", "105340.043000", "105419.989000", "105419.992000", "105419.995000", "105419.998000", "105420.009000", "105420.012000", "105420.015000", "105420.017000", "105420.020000", "105420.022000", "105420.025000", "105420.028000", "105420.031000", "105420.034000", "105420.037000", "105420.039000", "105420.041000", "105420.044000", "105420.047000", "105420.049000", "105452.056000", "105452.059000", "105452.061000", "105452.064000", "105452.067000", "105452.069000", "105452.072000", "105452.074000", "105452.077000", "105452.079000", "105452.082000", "105452.085000", "105452.092000", "105452.097000", "105452.100000", "105452.103000", "105452.108000"],
      "InstanceCreationTime": ["104859.993000", "104859.997000", "104900.000000", "104900.004000", "104900.012000", "104900.016000", "104900.041000", "104900.044000", "104900.046000", "104900.049000", "104900.051000", "104900.054000", "104900.056000", "104900.059000", "104900.061000", "104900.064000", "104900.066000", "104900.069000", "104900.071000", "104900.074000", "104900.076000", "104900.079000", "104900.081000", "104939.989000", "104939.992000", "104939.995000", "104939.997000", "104940.001000", "104940.005000", "104940.007000", "104940.010000", "104940.012000", "104940.016000", "104940.019000", "104940.022000", "104940.024000", "104940.027000", "104940.029000", "104940.032000", "104940.034000", "104940.053000", "104940.056000", "104940.058000", "105019.989000", "105019.992000", "105019.995000", "105019.997000", "105020.002000", "105020.005000", "105020.007000", "105020.010000", "105020.014000", "105020.017000", "105020.020000", "105020.022000", "105020.025000", "105020.027000", "105020.031000", "105020.034000", "105020.036000", "105020.039000", "105020.041000", "105020.044000", "105059.988000", "105059.991000", "105059.994000", "105059.996000", "105100.000000", "105100.002000", "105100.005000", "105100.008000", "105100.010000", "105100.014000", "105100.016000", "105100.019000", "105100.022000", "105100.024000", "105100.026000", "105100.029000", "105100.032000", "105100.035000", "105100.038000", "105100.040000", "105139.989000", "105139.992000", "105139.995000", "105139.998000", "105140.002000", "105140.005000", "105140.007000", "105140.010000", "105140.015000", "105140.017000", "105140.020000", "105140.022000", "105140.025000", "105140.027000", "105140.030000", "105140.033000", "105140.036000", "105140.038000", "105140.041000", "105140.043000", "105219.989000", "105219.992000", "105219.995000", "105220.000000", "105220.002000", "105220.005000", "105220.007000", "105220.010000", "105220.014000", "105220.016000", "105220.019000", "105220.021000", "105220.024000", "105220.026000", "105220.029000", "105220.031000", "105220.034000", "105220.036000", "105220.039000", "105220.041000", "105259.988000", "105259.991000", "105259.994000", "105259.998000", "105300.001000", "105300.004000", "105300.006000", "105300.009000", "105300.013000", "105300.015000", "105300.018000", "105300.020000", "105300.023000", "105300.025000", "105300.028000", "105300.030000", "105300.033000", "105300.036000", "105300.038000", "105300.041000", "105339.988000", "105339.991000", "105339.994000", "105339.998000", "105340.002000", "105340.004000", "105340.007000", "105340.011000", "105340.014000", "105340.017000", "105340.019000", "105340.022000", "105340.024000", "105340.027000", "105340.029000", "105340.032000", "105340.034000", "105340.037000", "105340.040000", "105340.043000", "105419.989000", "105419.992000", "105419.995000", "105419.998000", "105420.009000", "105420.012000", "105420.015000", "105420.017000", "105420.020000", "105420.022000", "105420.025000", "105420.028000", "105420.031000", "105420.034000", "105420.037000", "105420.039000", "105420.041000", "105420.044000", "105420.047000", "105420.049000", "105452.056000", "105452.059000", "105452.061000", "105452.064000", "105452.067000", "105452.069000", "105452.072000", "105452.074000", "105452.077000", "105452.079000", "105452.082000", "105452.085000", "105452.092000", "105452.097000", "105452.100000", "105452.103000", "105452.108000"],
      "InstanceNumber": [1, 2, 3, 4, 5, 6, 7, 8, 9, 10, 11, 12, 13, 14, 15, 16, 17, 18, 19, 20, 21, 22, 23, 24, 25, 26, 27, 28, 29, 30, 31, 32, 33, 34, 35, 36, 37, 38, 39, 40, 41, 42, 43, 44, 45, 46, 47, 48, 49, 50, 51, 52, 53, 54, 55, 56, 57, 58, 59, 60, 61, 62, 63, 64, 65, 66, 67, 68, 69, 70, 71, 72, 73, 74, 75, 76, 77, 78, 79, 80, 81, 82, 83, 84, 85, 86, 87, 88, 89, 90, 91, 92, 93, 94, 95, 96, 97, 98, 99, 100, 101, 102, 103, 104, 105, 106, 107, 108, 109, 110, 111, 112, 113, 114, 115, 116, 117, 118, 119, 120, 121, 122, 123, 124, 125, 126, 127, 128, 129, 130, 131, 132, 133, 134, 135, 136, 137, 138, 139, 140, 141, 142, 143, 144, 145, 146, 147, 148, 149, 150, 151, 152, 153, 154, 155, 156, 157, 158, 159, 160, 161, 162, 163, 164, 165, 166, 167, 168, 169, 170, 171, 172, 173, 174, 175, 176, 177, 178, 179, 180, 181, 182, 183, 184, 185, 186, 187, 188, 189, 190, 191, 192, 193, 194, 195, 196, 197, 198, 199, 200],
      "LargestImagePixelValue": [1284, 1276, 1281, 1289, 1304, 1276, 1277, 1285, 1277, 1282, 1286, 1288, 1282, 1276, 1304, 1279, 1291, 1292, 1287, 1290, 1284, 1281, 1283, 1284, 1281, 1283, 1290, 1289, 1288, 1283, 1285, 1285, 1296, 1291, 1301, 1297, 1280, 1293, 1281, 1281, 1282, 1282, 1288, 1290, 1287, 1285, 1288, 1283, 1280, 1279, 1288, 1286, 1285, 1277, 1279, 1277, 1284, 1288, 1285, 1284, 1286, 1289, 1285, 1284, 1283, 1289, 1276, 1280, 1292, 1282, 1287, 1287, 1287, 1303, 1289, 1282, 1282, 1284, 1287, 1286, 1286, 1281, 1288, 1283, 1278, 1281, 1284, 1285, 1279, 1285, 1277, 1281, 1290, 1282, 1282, 1285, 1279, 1286, 1294, 1279, 1281, 1280, 1282, 1282, 1294, 1285, 1279, 1277, 1297, 1279, 1293, 1279, 1282, 1288, 1276, 1291, 1285, 1275, 1282, 1285, 1293, 1281, 1281, 1285, 1278, 1284, 1282, 1297, 1280, 1285, 1289, 1282, 1280, 1285, 1286, 1287, 1287, 1283, 1276, 1281, 1291, 1282, 1299, 1290, 1287, 1292, 1281, 1294, 1283, 1280, 1285, 1294, 1288, 1280, 1285, 1289, 1288, 1282, 1280, 1280, 1280, 1292, 1278, 1293, 1280, 1283, 1284, 1285, 1280, 1292, 1281, 1282, 1277, 1282, 1280, 1283, 1281, 1286, 1288, 1284, 1300, 1291, 1292, 1288, 1277, 1290, 1288, 1301, 1277, 1279, 1281, 1290, 1286, 1297, 1282, 1285, 1298, 1282, 1283, 1285],
      "WindowWidth": [1577.0, 1577.0, 1577.0, 1576.0, 1577.0, 1576.0, 1576.0, 1577.0, 1576.0, 1576.0, 1577.0, 1576.0, 1576.0, 1576.0, 1576.0, 1577.0, 1577.0, 1577.0, 1576.0, 1576.0, 1576.0, 1576.0, 1576.0, 1576.0, 1577.0, 1577.0, 1577.0, 1577.0, 1576.0, 1576.0, 1577.0, 1576.0, 1577.0, 1577.0, 1577.0, 1577.0, 1576.0, 1577.0, 1576.0, 1576.0, 1576.0, 1576.0, 1576.0, 1576.0, 1576.0, 1576.0, 1576.0, 1576.0, 1576.0, 1576.0, 1576.0, 1576.0, 1576.0, 1577.0, 1576.0, 1576.0, 1577.0, 1577.0, 1576.0, 1576.0, 1577.0, 1576.0, 1576.0, 1577.0, 1577.0, 1576.0, 1576.0, 1577.0, 1577.0, 1576.0, 1576.0, 1576.0, 1576.0, 1577.0, 1576.0, 1577.0, 1576.0, 1577.0, 1576.0, 1577.0, 1577.0, 1576.0, 1577.0, 1577.0, 1577.0, 1576.0, 1577.0, 1577.0, 1577.0, 1577.0, 1577.0, 1577.0, 1577.0, 1576.0, 1577.0, 1576.0, 1577.0, 1576.0, 1576.0, 1577.0, 1576.0, 1576.0, 1576.0, 1577.0, 1577.0, 1577.0, 1577.0, 1577.0, 1577.0, 1576.0, 1577.0, 1577.0, 1577.0, 1577.0, 1577.0, 1577.0, 1576.0, 1576.0, 1576.0, 1576.0, 1576.0, 1576.0, 1576.0, 1576.0, 1576.0, 1576.0, 1576.0, 1577.0, 1577.0, 1576.0, 1576.0, 1576.0, 1577.0, 1576.0, 1576.0, 1576.0, 1577.0, 1576.0, 1576.0, 1576.0, 1577.0, 1577.0, 1577.0, 1577.0, 1577.0, 1577.0, 1576.0, 1577.0, 1576.0, 1576.0, 1577.0, 1576.0, 1576.0, 1576.0, 1577.0, 1576.0, 1577.0, 1576.0, 1576.0, 1577.0, 1576.0, 1577.0, 1576.0, 1577.0, 1576.0, 1576.0, 1576.0, 1576.0, 1576.0, 1577.0, 1576.0, 1576.0, 1576.0, 1576.0, 1576.0, 1576.0, 1576.0, 1577.0, 1576.0, 1576.0, 1577.0, 1577.0, 1577.0, 1577.0, 1577.0, 1577.0, 1577.0, 1577.0, 1576.0, 1576.0, 1576.0, 1577.0, 1576.0, 1576.0, 1576.0, 1577.0, 1577.0, 1576.0, 1576.0, 1576.0]
    },
    "slices": {}
  }
}