{
  "AcquisitionMatrixPE": 122,
  "AcquisitionNumber": 1,
  "AcquisitionTime": "10:29:52.055000",
  "BandwidthPerPixelPhaseEncode": 28.76,
  "BaseResolution": 122,
  "BodyPartExamined": "BRAIN",
  "CoilCombinationMethod": "Adaptive Combine",
  "ConsistencyInfo": "N4_VE11C_LATEST_20160120",
  "ConversionSoftware": "dcm2niix",
  "ConversionSoftwareVersion": "v1.0.20220720",
  "DerivedVendorReportedEchoSpacing": 0.000570008,
  "DeviceSerialNumber": "66112",
  "DiffusionScheme": "Monopolar",
  "DwellTime": 2e-06,
  "EchoTime": 0.075,
  "EchoTrainLength": 61,
  "EffectiveEchoSpacing": 0.000285004,
  "FlipAngle": 90,
  "HeudiconvVersion": "0.13.1",
  "ImageOrientationPatientDICOM": [0.992512, 0.122057, 0.00471027, -0.117472, 0.943238, 0.310647],
  "ImageOrientationText": "Tra>Cor(18.0)>Sag(-1.9)",
  "ImageType": [
    "ORIGINAL",
    "PRIMARY",
    "DIFFUSION",
    "NONE",
    "ND",
    "NORM"
],
  "ImagingFrequency": 123.252,
  "InPlanePhaseEncodingDirectionDICOM": "COL",
  "InstitutionAddress": "Maynard 3,Hanover,NH,US,03755",
  "InstitutionName": "Dartmouth College - PBS",
  "InstitutionalDepartmentName": "Department",
  "MRAcquisitionType": "2D",
  "MagneticFieldStrength": 3,
  "Manufacturer": "Siemens",
  "ManufacturersModelName": "Prisma",
  "MatrixCoilMode": "GRAPPA",
  "Modality": "MR",
  "NonlinearGradientCorrection": false,
  "ParallelReductionFactorInPlane": 2,
  "PartialFourier": 1,
  "PatientPosition": "HFS",
  "PercentPhaseFOV": 100,
  "PercentSampling": 100,
  "PhaseEncodingDirection": "j-",
  "PhaseEncodingSteps": 122,
  "PhaseResolution": 1,
  "PixelBandwidth": 2050,
  "ProcedureStepDescription": "dbic^QA",
  "ProtocolName": "dwi_acq-DTI-30-p2",
  "PulseSequenceDetails": "%SiemensSeq%\\ep2d_diff",
  "ReceiveCoilActiveElements": "HEA;HEP",
  "ReceiveCoilName": "Head_32",
  "ReconMatrixPE": 122,
  "RefLinesPE": 38,
  "RepetitionTime": 7.7,
  "SAR": 0.086721,
  "ScanOptions": "FS",
  "ScanningSequence": "EP",
  "SequenceName": "*ep_b0",
  "SequenceVariant": "SK\\SP",
  "SeriesDescription": "dwi_acq-DTI-30-p2",
  "SeriesNumber": 12,
  "ShimSetting": [4145, -7704, -7533, 304, -37, -172, 7, 123],
  "SliceThickness": 2,
  "SliceTiming": [3.83594, 0, 3.94531, 0.10938, 4.05469, 0.21875, 4.16406, 0.32812, 4.27344, 0.4375, 4.38281, 0.54688, 4.49219, 0.65625, 4.60156, 0.76562, 4.71094, 0.875, 4.82031, 0.98438, 4.9375, 1.09375, 5.04688, 1.20312, 5.15625, 1.3125, 5.26562, 1.42188, 5.375, 1.53125, 5.48438, 1.64062, 5.59375, 1.75, 5.70312, 1.85938, 5.8125, 1.96875, 5.92188, 2.07812, 6.03125, 2.1875, 6.14062, 2.30469, 6.25, 2.41406, 6.35938, 2.52344, 6.46875, 2.625, 6.57812, 2.74219, 6.6875, 2.85156, 6.79688, 2.96094, 6.90625, 3.07031, 7.01562, 3.17969, 7.125, 3.28906, 7.24219, 3.39844, 7.34375, 3.50781, 7.45312, 3.61719, 7.5625, 3.72656],
  "SoftwareVersions": "syngo MR E11",
  "SpacingBetweenSlices": 2,
  "SpoilingState": true,
  "StationName": "AWP66112",
  "TotalReadoutTime": 0.0344855,
  "TxRefAmp": 220.53,
  "dcmmeta_affine": [
    [-1.9524825811386108, -0.23109157383441925, -0.06694740056991577, 138.55523681640625],
    [-0.24011176824569702, 1.8555511236190796, 0.6177482604980469, -120.9147720336914],
    [0.009266101755201817, -0.6111090183258057, 1.9010276794433594, -36.651947021484375],
    [0.0, 0.0, 0.0, 1.0]
],
  "dcmmeta_reorient_transform": [
    [0.0, -1.0, 0.0, 121.0],
    [1.0, 0.0, 0.0, 0.0],
    [0.0, 0.0, -1.0, 69.0],
    [0.0, 0.0, 0.0, 1.0]
],
  "dcmmeta_shape": [122, 122, 70, 31],
  "dcmmeta_slice_dim": 2,
  "dcmmeta_version": 0.6,
  "global": {
    "const": {
      "AccessionNumber": "qa",
      "AcquisitionMatrix": [122, 0, 0, 122],
      "AngioFlag": "N",
      "BitsAllocated": 16,
      "BitsStored": 12,
      "BodyPartExamined": "BRAIN",
      "Columns": 122,
      "EchoNumbers": 1,
      "EchoTime": 75.0,
      "EchoTrainLength": 61,
      "FlipAngle": 90.0,
      "HighBit": 11,
      "ImageOrientationPatient": [0.99251193878449, 0.12205680948316, 0.00471026846868, -0.1174715448316, 0.94323848124323, 0.31064707250648],
      "ImageType": [
        "ORIGINAL",
        "PRIMARY",
        "DIFFUSION",
        "NONE",
        "ND",
        "NORM"
],
      "ImagedNucleus": "1H",
      "ImagingFrequency": 123.252361,
      "InPlanePhaseEncodingDirection": "COL",
      "MRAcquisitionType": "2D",
      "MagneticFieldStrength": 3.0,
      "Manufacturer": "SIEMENS",
      "ManufacturerModelName": "Prisma",
      "Modality": "MR",
      "NumberOfAverages": 1.0,
      "NumberOfPhaseEncodingSteps": 122,
      "PercentPhaseFieldOfView": 100.0,
      "PercentSampling": 100.0,
      "PerformedProcedureStepStartTime": "100017.693000",
      "PhotometricInterpretation": "MONOCHROME2",
      "PixelBandwidth": 2050.0,
      "PixelRepresentation": 0,
      "PixelSpacing": [1.9672131538391, 1.9672131538391],
      "ProtocolName": "dwi_acq-DTI-30-p2",
      "RepetitionTime": 7700.0,
      "Rows": 122,
      "SAR": 0.08672095386753,
      "SamplesPerPixel": 1,
      "ScanOptions": "FS",
      "ScanningSequence": "EP",
      "SequenceVariant": [
        "SK",
        "SP"
],
      "SeriesDescription": "dwi_acq-DTI-30-p2",
      "SeriesNumber": 12,
      "SeriesTime": "103000.366000",
      "SliceThickness": 2.0,
      "SmallestImagePixelValue": 0,
      "SoftwareVersions": "syngo MR E11",
      "SpacingBetweenSlices": 2.0,
      "SpecificCharacterSet": "ISO_IR 100",
      "StudyID": "38",
      "StudyTime": "100017.590000",
      "TransmitCoilName": "Body",
      "VariableFlipAngleFlag": "N",
      "WindowCenterWidthExplanation": "Algo1",
      "dBdt": 0.0},
    "slices": {
      "AcquisitionTime": ["102952.055000", "102948.215000", "102952.165000", "102948.325000", "102952.275000", "102948.435000", "102952.385000", "102948.545000", "102952.495000", "102948.655000", "102952.605000", "102948.765000", "102952.712500", "102948.875000", "102952.822500", "102948.982500", "102952.932500", "102949.092500", "102953.042500", "102949.202500", "102953.152500", "102949.312500", "102953.262500", "102949.422500", "102953.372500", "102949.532500", "102953.482500", "102949.642500", "102953.592500", "102949.752500", "102953.700000", "102949.860000", "102953.810000", "102949.970000", "102953.920000", "102950.080000", "102954.030000", "102950.190000", "102954.140000", "102950.300000", "102954.250000", "102950.410000", "102954.360000", "102950.520000", "102954.470000", "102950.630000", "102954.577500", "102950.740000", "102954.687500", "102950.847500", "102954.797500", "102950.957500", "102954.907500", "102951.067500", "102955.017500", "102951.177500", "102955.127500", "102951.287500", "102955.237500", "102951.397500", "102955.347500", "102951.507500", "102955.457500", "102951.617500", "102955.565000", "102951.725000", "102955.675000", "102951.835000", "102955.785000", "102951.945000", "102959.755000", "102955.915000", "102959.865000", "102956.025000", "102959.975000", "102956.135000", "103000.085000", "102956.245000", "103000.195000", "102956.355000", "103000.305000", "102956.465000", "103000.412500", "102956.575000", "103000.522500", "102956.682500", "103000.632500", "102956.792500", "103000.742500", "102956.902500", "103000.852500", "102957.012500", "103000.962500", "102957.122500", "103001.072500", "102957.232500", "103001.182500", "102957.342500", "103001.292500", "102957.452500", "103001.400000", "102957.560000", "103001.510000", "102957.670000", "103001.620000", "102957.780000", "103001.730000", "102957.890000", "103001.840000", "102958.000000", "103001.950000", "102958.110000", "103002.060000", "102958.220000", "103002.170000", "102958.330000", "103002.277500", "102958.440000", "103002.387500", "102958.547500", "103002.497500", "102958.657500", "103002.607500", "102958.767500", "103002.717500", "102958.877500", "103002.827500", "102958.987500", "103002.937500", "102959.097500", "103003.047500", "102959.207500", "103003.157500", "102959.317500", "103003.265000", "102959.425000", "103003.375000", "102959.535000", "103003.485000", "102959.645000", "103007.455000", "103003.615000", "103007.565000", "103003.725000", "103007.675000", "103003.835000", "103007.785000", "103003.945000", "103007.895000", "103004.055000", "103008.005000", "103004.165000", "103008.112500", "103004.275000", "103008.222500", "103004.382500", "103008.332500", "103004.492500", "103008.442500", "103004.602500", "103008.552500", "103004.712500", "103008.662500", "103004.822500", "103008.772500", "103004.932500", "103008.882500", "103005.042500", "103008.992500", "103005.152500", "103009.100000", "103005.260000", "103009.210000", "103005.370000", "103009.320000", "103005.480000", "103009.430000", "103005.590000", "103009.540000", "103005.700000", "103009.650000", "103005.810000", "103009.760000", "103005.920000", "103009.870000", "103006.030000", "103009.977500", "103006.140000", "103010.087500", "103006.247500", "103010.197500", "103006.357500", "103010.307500", "103006.467500", "103010.417500", "103006.577500", "103010.527500", "103006.687500", "103010.637500", "103006.797500", "103010.747500", "103006.907500", "103010.857500", "103007.017500", "103010.965000", "103007.125000", "103011.075000", "103007.235000", "103011.185000", "103007.345000", "103015.155000", "103011.315000", "103015.265000", "103011.425000", "103015.375000", "103011.535000", "103015.485000", "103011.645000", "103015.595000", "103011.755000", "103015.705000", "103011.865000", "103015.812500", "103011.975000", "103015.922500", "103012.082500", "103016.032500", "103012.192500", "103016.142500", "103012.302500", "103016.252500", "103012.412500", "103016.362500", "103012.522500", "103016.472500", "103012.632500", "103016.582500", "103012.742500", "103016.692500", "103012.852500", "103016.800000", "103012.960000", "103016.910000", "103013.070000", "103017.020000", "103013.180000", "103017.130000", "103013.290000", "103017.240000", "103013.400000", "103017.350000", "103013.510000", "103017.460000", "103013.620000", "103017.570000", "103013.730000", "103017.677500", "103013.840000", "103017.787500", "103013.947500", "103017.897500", "103014.057500", "103018.007500", "103014.167500", "103018.117500", "103014.277500", "103018.227500", "103014.387500", "103018.337500", "103014.497500", "103018.447500", "103014.607500", "103018.557500", "103014.717500", "103018.665000", "103014.825000", "103018.775000", "103014.935000", "103018.885000", "103015.045000", "103022.855000", "103019.015000", "103022.965000", "103019.125000", "103023.075000", "103019.235000", "103023.185000", "103019.345000", "103023.295000", "103019.455000", "103023.405000", "103019.565000", "103023.512500", "103019.675000", "103023.622500", "103019.782500", "103023.732500", "103019.892500", "103023.842500", "103020.002500", "103023.952500", "103020.112500", "103024.062500", "103020.222500", "103024.172500", "103020.332500", "103024.282500", "103020.442500", "103024.392500", "103020.552500", "103024.500000", "103020.660000", "103024.610000", "103020.770000", "103024.720000", "103020.880000", "103024.830000", "103020.990000", "103024.940000", "103021.100000", "103025.050000", "103021.210000", "103025.160000", "103021.320000", "103025.270000", "103021.430000", "103025.377500", "103021.540000", "103025.487500", "103021.647500", "103025.597500", "103021.757500", "103025.707500", "103021.867500", "103025.817500", "103021.977500", "103025.927500", "103022.087500", "103026.037500", "103022.197500", "103026.147500", "103022.307500", "103026.257500", "103022.417500", "103026.365000", "103022.525000", "103026.475000", "103022.635000", "103026.585000", "103022.745000", "103030.555000", "103026.715000", "103030.665000", "103026.825000", "103030.775000", "103026.935000", "103030.885000", "103027.045000", "103030.995000", "103027.155000", "103031.105000", "103027.265000", "103031.212500", "103027.375000", "103031.322500", "103027.482500", "103031.432500", "103027.592500", "103031.542500", "103027.702500", "103031.652500", "103027.812500", "103031.762500", "103027.922500", "103031.872500", "103028.032500", "103031.982500", "103028.142500", "103032.092500", "103028.252500", "103032.200000", "103028.360000", "103032.310000", "103028.470000", "103032.420000", "103028.580000", "103032.530000", "103028.690000", "103032.640000", "103028.800000", "103032.750000", "103028.910000", "103032.860000", "103029.020000", "103032.970000", "103029.130000", "103033.077500", "103029.240000", "103033.187500", "103029.347500", "103033.297500", "103029.457500", "103033.407500", "103029.567500", "103033.517500", "103029.677500", "103033.627500", "103029.787500", "103033.737500", "103029.897500", "103033.847500", "103030.007500", "103033.957500", "103030.117500", "103034.065000", "103030.225000", "103034.175000", "103030.335000", "103034.285000", "103030.445000", "103038.255000", "103034.415000", "103038.365000", "103034.525000", "103038.475000", "103034.635000", "103038.585000", "103034.745000", "103038.695000", "103034.855000", "103038.805000", "103034.965000", "103038.912500", "103035.075000", "103039.022500", "103035.182500", "103039.132500", "103035.292500", "103039.242500", "103035.402500", "103039.352500", "103035.512500", "103039.462500", "103035.622500", "103039.572500", "103035.732500", "103039.682500", "103035.842500", "103039.792500", "103035.952500", "103039.900000", "103036.060000", "103040.010000", "103036.170000", "103040.120000", "103036.280000", "103040.230000", "103036.390000", "103040.340000", "103036.500000", "103040.450000", "103036.610000", "103040.560000", "103036.720000", "103040.670000", "103036.830000", "103040.777500", "103036.940000", "103040.887500", "103037.047500", "103040.997500", "103037.157500", "103041.107500", "103037.267500", "103041.217500", "103037.377500", "103041.327500", "103037.487500", "103041.437500", "103037.597500", "103041.547500", "103037.707500", "103041.657500", "103037.817500", "103041.765000", "103037.925000", "103041.875000", "103038.035000", "103041.985000", "103038.145000", "103045.955000", "103042.115000", "103046.065000", "103042.225000", "103046.175000", "103042.335000", "103046.285000", "103042.445000", "103046.395000", "103042.555000", "103046.505000", "103042.665000", "103046.612500", "103042.775000", "103046.722500", "103042.882500", "103046.832500", "103042.992500", "103046.942500", "103043.102500", "103047.052500", "103043.212500", "103047.162500", "103043.322500", "103047.272500", "103043.432500", "103047.382500", "103043.542500", "103047.492500", "103043.652500", "103047.600000", "103043.760000", "103047.710000", "103043.870000", "103047.820000", "103043.980000", "103047.930000", "103044.090000", "103048.040000", "103044.200000", "103048.150000", "103044.310000", "103048.260000", "103044.420000", "103048.370000", "103044.530000", "103048.477500", "103044.640000", "103048.587500", "103044.747500", "103048.697500", "103044.857500", "103048.807500", "103044.967500", "103048.917500", "103045.077500", "103049.027500", "103045.187500", "103049.137500", "103045.297500", "103049.247500", "103045.407500", "103049.357500", "103045.517500", "103049.465000", "103045.625000", "103049.575000", "103045.735000", "103049.685000", "103045.845000", "103053.655000", "103049.815000", "103053.765000", "103049.925000", "103053.875000", "103050.035000", "103053.985000", "103050.145000", "103054.095000", "103050.255000", "103054.205000", "103050.365000", "103054.312500", "103050.475000", "103054.422500", "103050.582500", "103054.532500", "103050.692500", "103054.642500", "103050.802500", "103054.752500", "103050.912500", "103054.862500", "103051.022500", "103054.972500", "103051.132500", "103055.082500", "103051.242500", "103055.192500", "103051.352500", "103055.300000", "103051.460000", "103055.410000", "103051.570000", "103055.520000", "103051.680000", "103055.630000", "103051.790000", "103055.740000", "103051.900000", "103055.850000", "103052.010000", "103055.960000", "103052.120000", "103056.070000", "103052.230000", "103056.177500", "103052.340000", "103056.287500", "103052.447500", "103056.397500", "103052.557500", "103056.507500", "103052.667500", "103056.617500", "103052.777500", "103056.727500", "103052.887500", "103056.837500", "103052.997500", "103056.947500", "103053.107500", "103057.057500", "103053.217500", "103057.165000", "103053.325000", "103057.275000", "103053.435000", "103057.385000", "103053.545000", "103101.355000", "103057.515000", "103101.465000", "103057.625000", "103101.575000", "103057.735000", "103101.685000", "103057.845000", "103101.795000", "103057.955000", "103101.905000", "103058.065000", "103102.012500", "103058.175000", "103102.122500", "103058.282500", "103102.232500", "103058.392500", "103102.342500", "103058.502500", "103102.452500", "103058.612500", "103102.562500", "103058.722500", "103102.672500", "103058.832500", "103102.782500", "103058.942500", "103102.892500", "103059.052500", "103103.000000", "103059.160000", "103103.110000", "103059.270000", "103103.220000", "103059.380000", "103103.330000", "103059.490000", "103103.440000", "103059.600000", "103103.550000", "103059.710000", "103103.660000", "103059.820000", "103103.770000", "103059.930000", "103103.877500", "103100.040000", "103103.987500", "103100.147500", "103104.097500", "103100.257500", "103104.207500", "103100.367500", "103104.317500", "103100.477500", "103104.427500", "103100.587500", "103104.537500", "103100.697500", "103104.647500", "103100.807500", "103104.757500", "103100.917500", "103104.865000", "103101.025000", "103104.975000", "103101.135000", "103105.085000", "103101.245000", "103109.055000", "103105.215000", "103109.165000", "103105.325000", "103109.275000", "103105.435000", "103109.385000", "103105.545000", "103109.495000", "103105.655000", "103109.605000", "103105.765000", "103109.712500", "103105.875000", "103109.822500", "103105.982500", "103109.932500", "103106.092500", "103110.042500", "103106.202500", "103110.152500", "103106.312500", "103110.262500", "103106.422500", "103110.372500", "103106.532500", "103110.482500", "103106.642500", "103110.592500", "103106.752500", "103110.700000", "103106.860000", "103110.810000", "103106.970000", "103110.920000", "103107.080000", "103111.030000", "103107.190000", "103111.140000", "103107.300000", "103111.250000", "103107.410000", "103111.360000", "103107.520000", "103111.470000", "103107.630000", "103111.577500", "103107.740000", "103111.687500", "103107.847500", "103111.797500", "103107.957500", "103111.907500", "103108.067500", "103112.017500", "103108.177500", "103112.127500", "103108.287500", "103112.237500", "103108.397500", "103112.347500", "103108.507500", "103112.457500", "103108.617500", "103112.565000", "103108.725000", "103112.675000", "103108.835000", "103112.785000", "103108.945000", "103116.755000", "103112.915000", "103116.865000", "103113.025000", "103116.975000", "103113.135000", "103117.085000", "103113.245000", "103117.195000", "103113.355000", "103117.305000", "103113.465000", "103117.412500", "103113.575000", "103117.522500", "103113.682500", "103117.632500", "103113.792500", "103117.742500", "103113.902500", "103117.852500", "103114.012500", "103117.962500", "103114.122500", "103118.072500", "103114.232500", "103118.182500", "103114.342500", "103118.292500", "103114.452500", "103118.400000", "103114.560000", "103118.510000", "103114.670000", "103118.620000", "103114.780000", "103118.730000", "103114.890000", "103118.840000", "103115.000000", "103118.950000", "103115.110000", "103119.060000", "103115.220000", "103119.170000", "103115.330000", "103119.277500", "103115.440000", "103119.387500", "103115.547500", "103119.497500", "103115.657500", "103119.607500", "103115.767500", "103119.717500", "103115.877500", "103119.827500", "103115.987500", "103119.937500", "103116.097500", "103120.047500", "103116.207500", "103120.157500", "103116.317500", "103120.265000", "103116.425000", "103120.375000", "103116.535000", "103120.485000", "103116.645000", "103124.455000", "103120.615000", "103124.565000", "103120.725000", "103124.675000", "103120.835000", "103124.785000", "103120.945000", "103124.895000", "103121.055000", "103125.005000", "103121.165000", "103125.112500", "103121.275000", "103125.222500", "103121.382500", "103125.332500", "103121.492500", "103125.442500", "103121.602500", "103125.552500", "103121.712500", "103125.662500", "103121.822500", "103125.772500", "103121.932500", "103125.882500", "103122.042500", "103125.992500", "103122.152500", "103126.100000", "103122.260000", "103126.210000", "103122.370000", "103126.320000", "103122.480000", "103126.430000", "103122.590000", "103126.540000", "103122.700000", "103126.650000", "103122.810000", "103126.760000", "103122.920000", "103126.870000", "103123.030000", "103126.977500", "103123.140000", "103127.087500", "103123.247500", "103127.197500", "103123.357500", "103127.307500", "103123.467500", "103127.417500", "103123.577500", "103127.527500", "103123.687500", "103127.637500", "103123.797500", "103127.747500", "103123.907500", "103127.857500", "103124.017500", "103127.965000", "103124.125000", "103128.075000", "103124.235000", "103128.185000", "103124.345000", "103132.155000", "103128.315000", "103132.265000", "103128.425000", "103132.375000", "103128.535000", "103132.485000", "103128.645000", "103132.595000", "103128.755000", "103132.705000", "103128.865000", "103132.812500", "103128.975000", "103132.922500", "103129.082500", "103133.032500", "103129.192500", "103133.142500", "103129.302500", "103133.252500", "103129.412500", "103133.362500", "103129.522500", "103133.472500", "103129.632500", "103133.582500", "103129.742500", "103133.692500", "103129.852500", "103133.800000", "103129.960000", "103133.910000", "103130.070000", "103134.020000", "103130.180000", "103134.130000", "103130.290000", "103134.240000", "103130.400000", "103134.350000", "103130.510000", "103134.460000", "103130.620000", "103134.570000", "103130.730000", "103134.677500", "103130.840000", "103134.787500", "103130.947500", "103134.897500", "103131.057500", "103135.007500", "103131.167500", "103135.117500", "103131.277500", "103135.227500", "103131.387500", "103135.337500", "103131.497500", "103135.447500", "103131.607500", "103135.557500", "103131.717500", "103135.665000", "103131.825000", "103135.775000", "103131.935000", "103135.885000", "103132.045000", "103139.855000", "103136.015000", "103139.965000", "103136.125000", "103140.075000", "103136.235000", "103140.185000", "103136.345000", "103140.295000", "103136.455000", "103140.405000", "103136.565000", "103140.512500", "103136.675000", "103140.622500", "103136.782500", "103140.732500", "103136.892500", "103140.842500", "103137.002500", "103140.952500", "103137.112500", "103141.062500", "103137.222500", "103141.172500", "103137.332500", "103141.282500", "103137.442500", "103141.392500", "103137.552500", "103141.500000", "103137.660000", "103141.610000", "103137.770000", "103141.720000", "103137.880000", "103141.830000", "103137.990000", "103141.940000", "103138.100000", "103142.050000", "103138.210000", "103142.160000", "103138.320000", "103142.270000", "103138.430000", "103142.377500", "103138.540000", "103142.487500", "103138.647500", "103142.597500", "103138.757500", "103142.707500", "103138.867500", "103142.817500", "103138.977500", "103142.927500", "103139.087500", "103143.037500", "103139.197500", "103143.147500", "103139.307500", "103143.257500", "103139.417500", "103143.365000", "103139.525000", "103143.475000", "103139.635000", "103143.585000", "103139.745000", "103147.555000", "103143.715000", "103147.665000", "103143.825000", "103147.775000", "103143.935000", "103147.885000", "103144.045000", "103147.995000", "103144.155000", "103148.105000", "103144.265000", "103148.212500", "103144.375000", "103148.322500", "103144.482500", "103148.432500", "103144.592500", "103148.542500", "103144.702500", "103148.652500", "103144.812500", "103148.762500", "103144.922500", "103148.872500", "103145.032500", "103148.982500", "103145.142500", "103149.092500", "103145.252500", "103149.200000", "103145.360000", "103149.310000", "103145.470000", "103149.420000", "103145.580000", "103149.530000", "103145.690000", "103149.640000", "103145.800000", "103149.750000", "103145.910000", "103149.860000", "103146.020000", "103149.970000", "103146.130000", "103150.077500", "103146.240000", "103150.187500", "103146.347500", "103150.297500", "103146.457500", "103150.407500", "103146.567500", "103150.517500", "103146.677500", "103150.627500", "103146.787500", "103150.737500", "103146.897500", "103150.847500", "103147.007500", "103150.957500", "103147.117500", "103151.065000", "103147.225000", "103151.175000", "103147.335000", "103151.285000", "103147.445000", "103155.255000", "103151.415000", "103155.365000", "103151.525000", "103155.475000", "103151.635000", "103155.585000", "103151.745000", "103155.695000", "103151.855000", "103155.805000", "103151.965000", "103155.912500", "103152.075000", "103156.022500", "103152.182500", "103156.132500", "103152.292500", "103156.242500", "103152.402500", "103156.352500", "103152.512500", "103156.462500", "103152.622500", "103156.572500", "103152.732500", "103156.682500", "103152.842500", "103156.792500", "103152.952500", "103156.900000", "103153.060000", "103157.010000", "103153.170000", "103157.120000", "103153.280000", "103157.230000", "103153.390000", "103157.340000", "103153.500000", "103157.450000", "103153.610000", "103157.560000", "103153.720000", "103157.670000", "103153.830000", "103157.777500", "103153.940000", "103157.887500", "103154.047500", "103157.997500", "103154.157500", "103158.107500", "103154.267500", "103158.217500", "103154.377500", "103158.327500", "103154.487500", "103158.437500", "103154.597500", "103158.547500", "103154.707500", "103158.657500", "103154.817500", "103158.765000", "103154.925000", "103158.875000", "103155.035000", "103158.985000", "103155.145000", "103202.955000", "103159.115000", "103203.065000", "103159.225000", "103203.175000", "103159.335000", "103203.285000", "103159.445000", "103203.395000", "103159.555000", "103203.505000", "103159.665000", "103203.612500", "103159.775000", "103203.722500", "103159.882500", "103203.832500", "103159.992500", "103203.942500", "103200.102500", "103204.052500", "103200.212500", "103204.162500", "103200.322500", "103204.272500", "103200.432500", "103204.382500", "103200.542500", "103204.492500", "103200.652500", "103204.600000", "103200.760000", "103204.710000", "103200.870000", "103204.820000", "103200.980000", "103204.930000", "103201.090000", "103205.040000", "103201.200000", "103205.150000", "103201.310000", "103205.260000", "103201.420000", "103205.370000", "103201.530000", "103205.477500", "103201.640000", "103205.587500", "103201.747500", "103205.697500", "103201.857500", "103205.807500", "103201.967500", "103205.917500", "103202.077500", "103206.027500", "103202.187500", "103206.137500", "103202.297500", "103206.247500", "103202.407500", "103206.357500", "103202.517500", "103206.465000", "103202.625000", "103206.575000", "103202.735000", "103206.685000", "103202.845000", "103210.655000", "103206.815000", "103210.765000", "103206.925000", "103210.875000", "103207.035000", "103210.985000", "103207.145000", "103211.095000", "103207.255000", "103211.205000", "103207.365000", "103211.312500", "103207.475000", "103211.422500", "103207.582500", "103211.532500", "103207.692500", "103211.642500", "103207.802500", "103211.752500", "103207.912500", "103211.862500", "103208.022500", "103211.972500", "103208.132500", "103212.082500", "103208.242500", "103212.192500", "103208.352500", "103212.300000", "103208.460000", "103212.410000", "103208.570000", "103212.520000", "103208.680000", "103212.630000", "103208.790000", "103212.740000", "103208.900000", "103212.850000", "103209.010000", "103212.960000", "103209.120000", "103213.070000", "103209.230000", "103213.177500", "103209.340000", "103213.287500", "103209.447500", "103213.397500", "103209.557500", "103213.507500", "103209.667500", "103213.617500", "103209.777500", "103213.727500", "103209.887500", "103213.837500", "103209.997500", "103213.947500", "103210.107500", "103214.057500", "103210.217500", "103214.165000", "103210.325000", "103214.275000", "103210.435000", "103214.385000", "103210.545000", "103218.355000", "103214.515000", "103218.465000", "103214.625000", "103218.575000", "103214.735000", "103218.685000", "103214.845000", "103218.795000", "103214.955000", "103218.905000", "103215.065000", "103219.012500", "103215.175000", "103219.122500", "103215.282500", "103219.232500", "103215.392500", "103219.342500", "103215.502500", "103219.452500", "103215.612500", "103219.562500", "103215.722500", "103219.672500", "103215.832500", "103219.782500", "103215.942500", "103219.892500", "103216.052500", "103220.000000", "103216.160000", "103220.110000", "103216.270000", "103220.220000", "103216.380000", "103220.330000", "103216.490000", "103220.440000", "103216.600000", "103220.550000", "103216.710000", "103220.660000", "103216.820000", "103220.770000", "103216.930000", "103220.877500", "103217.040000", "103220.987500", "103217.147500", "103221.097500", "103217.257500", "103221.207500", "103217.367500", "103221.317500", "103217.477500", "103221.427500", "103217.587500", "103221.537500", "103217.697500", "103221.647500", "103217.807500", "103221.757500", "103217.917500", "103221.865000", "103218.025000", "103221.975000", "103218.135000", "103222.085000", "103218.245000", "103226.055000", "103222.215000", "103226.165000", "103222.325000", "103226.275000", "103222.435000", "103226.385000", "103222.545000", "103226.495000", "103222.655000", "103226.605000", "103222.765000", "103226.712500", "103222.875000", "103226.822500", "103222.982500", "103226.932500", "103223.092500", "103227.042500", "103223.202500", "103227.152500", "103223.312500", "103227.262500", "103223.422500", "103227.372500", "103223.532500", "103227.482500", "103223.642500", "103227.592500", "103223.752500", "103227.700000", "103223.860000", "103227.810000", "103223.970000", "103227.920000", 