{
  "AcquisitionMatrixPE": 80,
  "AcquisitionNumber": 1,
  "AcquisitionTime": "09:14:35.165000",
  "BandwidthPerPixelPhaseEncode": 44.643,
  "BaseResolution": 80,
  "BodyPartExamined": "BRAIN",
  "CoilCombinationMethod": "Sum of Squares",
  "ConsistencyInfo": "N4_VE11C_LATEST_20160120",
  "ConversionSoftware": "dcm2niix",
  "ConversionSoftwareVersion": "v1.0.20220720",
  "DerivedVendorReportedEchoSpacing": 0.000559998,
  "DeviceSerialNumber": "66112",
  "DwellTime": 2.7e-06,
  "EchoTime": 0.035,
  "EchoTrainLength": 39,
  "EffectiveEchoSpacing": 0.000279999,
  "FlipAngle": 90,
  "HeudiconvVersion": "0.13.1",
  "ImageOrientationPatientDICOM": [0.98652, 0.163112, 0.0131827, -0.159075, 0.936955, 0.311143],
  "ImageOrientationText": "Tra>Cor(18.0)>Sag(-2.2)",
  "ImageType": [
    "ORIGINAL",
    "PRIMARY",
    "M",
    "ND",
    "NORM",
    "MOSAIC"
],
  "ImagingFrequency": 123.252,
  "InPlanePhaseEncodingDirectionDICOM": "COL",
  "InstitutionAddress": "Maynard 3,Hanover,NH,US,03755",
  "InstitutionName": "Dartmouth College - PBS",
  "InstitutionalDepartmentName": "Department",
  "MRAcquisitionType": "2D",
  "MagneticFieldStrength": 3,
  "Manufacturer": "Siemens",
  "ManufacturersModelName": "Prisma",
  "Modality": "MR",
  "MultibandAccelerationFactor": 4,
  "NonlinearGradientCorrection": false,
  "ParallelReductionFactorInPlane": 2,
  "PartialFourier": 1,
  "PatientPosition": "HFS",
  "PercentPhaseFOV": 100,
  "PercentSampling": 100,
  "PhaseEncodingDirection": "j-",
  "PhaseEncodingSteps": 79,
  "PhaseResolution": 1,
  "PixelBandwidth": 2315,
  "ProcedureStepDescription": "dbic^QA",
  "ProtocolName": "func-bold_task-rest_acq-p2-s4-3.5mm",
  "PulseSequenceDetails": "%SiemensSeq%\\ep2d_bold",
  "ReceiveCoilActiveElements": "HEA;HEP",
  "ReceiveCoilName": "Head_32",
  "ReconMatrixPE": 80,
  "RefLinesPE": 24,
  "RepetitionTime": 2,
  "SAR": 0.0209484,
  "ScanOptions": "FS",
  "ScanningSequence": "EP",
  "SequenceName": "*epfid2d1_80",
  "SequenceVariant": "SK",
  "SeriesDescription": "func-bold_task-rest_acq-p2-s4-3.5mm",
  "SeriesNumber": 7,
  "ShimSetting": [4146, -7697, -7517, 230, -64, -61, -9, 57],
  "SliceThickness": 3.5,
  "SliceTiming": [1.485, 0, 0.99, 0.2475, 1.2375, 0.7425, 1.7325, 0.495, 1.485, 0, 0.99, 0.2475, 1.2375, 0.7425, 1.7325, 0.495, 1.485, 0, 0.99, 0.2475, 1.2375, 0.7425, 1.7325, 0.495, 1.485, 0, 0.99, 0.2475, 1.2375, 0.7425, 1.7325, 0.495],
  "SoftwareVersions": "syngo MR E11",
  "SpacingBetweenSlices": 3.99,
  "StationName": "AWP66112",
  "TaskName": "rest",
  "TotalReadoutTime": 0.0221199,
  "TxRefAmp": 222.733,
  "dcmmeta_affine": [
    [-2.9595584869384766, -0.47722381353378296, -0.15321409702301025, 141.7817840576172],
    [-0.4893355071544647, 2.810865879058838, 1.2330926656723022, -99.39247131347656],
    [0.03954809904098511, -0.9334293603897095, 3.791583776473999, -19.754112243652344],
    [0.0, 0.0, 0.0, 1.0]
],
  "dcmmeta_reorient_transform": [
    [0.0, -1.0, 0.0, 79.0],
    [1.0, 0.0, 0.0, 0.0],
    [0.0, 0.0, 1.0, 0.0],
    [0.0, 0.0, 0.0, 1.0]
],
  "dcmmeta_shape": [80, 80, 32, 200],
  "dcmmeta_slice_dim": 2,
  "dcmmeta_version": 0.6,
  "global": {
    "const": {
      "AccessionNumber": "qa",
      "AcquisitionMatrix": [80, 0, 0, 80],
      "AngioFlag": "N",
      "BitsAllocated": 16,
      "BitsStored": 12,
      "BodyPartExamined": "BRAIN",
      "Columns": 480,
      "EchoNumbers": 1,
      "EchoTime": 35.0,
      "EchoTrainLength": 39,
      "FlipAngle": 90.0,
      "HighBit": 11,
      "ImageOrientationPatient": [0.98651951163838, 0.1631118315442, 0.01318269953623, -0.1590746045946, 0.93695530021113, 0.31114311109092],
      "ImagePositionPatient": [-600.54804183081, -782.70621469324, -288.09051520062],
      "ImageType": [
        "ORIGINAL",
        "PRIMARY",
        "M",
        "ND",
        "NORM",
        "MOSAIC"
],
      "ImagedNucleus": "1H",
      "ImagingFrequency": 123.252364,
      "InPlanePhaseEncodingDirection": "COL",
      "MRAcquisitionType": "2D",
      "MagneticFieldStrength": 3.0,
      "Manufacturer": "SIEMENS",
      "ManufacturerModelName": "Prisma",
      "Modality": "MR",
      "NumberOfAverages": 1.0,
      "NumberOfPhaseEncodingSteps": 79,
      "PercentPhaseFieldOfView": 100.0,
      "PercentSampling": 100.0,
      "PerformedProcedureStepStartTime": "085834.745000",
      "PhotometricInterpretation": "MONOCHROME2",
      "PixelBandwidth": 2315.0,
      "PixelRepresentation": 0,
      "PixelSpacing": [3.0, 3.0],
      "ProtocolName": "func-bold_task-rest_acq-p2-s4-3.5mm",
      "RepetitionTime": 2000.0,
      "Rows": 480,
      "SAR": 0.02094834971243,
      "SamplesPerPixel": 1,
      "ScanOptions": "FS",
      "ScanningSequence": "EP",
      "SequenceName": "*epfid2d1_80",
      "SequenceVariant": "SK",
      "SeriesDescription": "func-bold_task-rest_acq-p2-s4-3.5mm",
      "SeriesNumber": 7,
      "SeriesTime": "091518.395000",
      "SliceLocation": -54.932948291801,
      "SliceThickness": 3.5,
      "SmallestImagePixelValue": 0,
      "SoftwareVersions": "syngo MR E11",
      "SpacingBetweenSlices": 3.9899999283943,
      "SpecificCharacterSet": "ISO_IR 100",
      "StudyID": "7",
      "StudyTime": "085834.694000",
      "TransmitCoilName": "Body",
      "VariableFlipAngleFlag": "N",
      "WindowCenterWidthExplanation": "Algo1",
      "dBdt": 0.0},
    "slices": {}
  },
  "time": {
    "samples": {
      "AcquisitionNumber": [1, 2, 3, 4, 5, 6, 7, 8, 9, 10, 11, 12, 13, 14, 15, 16, 17, 18, 19, 20, 21, 22, 23, 24, 25, 26, 27, 28, 29, 30, 31, 32, 33, 34, 35, 36, 37, 38, 39, 40, 41, 42, 43, 44, 45, 46, 47, 48, 49, 50, 51, 52, 53, 54, 55, 56, 57, 58, 59, 60, 61, 62, 63, 64, 65, 66, 67, 68, 69, 70, 71, 72, 73, 74, 75, 76, 77, 78, 79, 80, 81, 82, 83, 84, 85, 86, 87, 88, 89, 90, 91, 92, 93, 94, 95, 96, 97, 98, 99, 100, 101, 102, 103, 104, 105, 106, 107, 108, 109, 110, 111, 112, 113, 114, 115, 116, 117, 118, 119, 120, 121, 122, 123, 124, 125, 126, 127, 128, 129, 130, 131, 132, 133, 134, 135, 136, 137, 138, 139, 140, 141, 142, 143, 144, 145, 146, 147, 148, 149, 150, 151, 152, 153, 154, 155, 156, 157, 158, 159, 160, 161, 162, 163, 164, 165, 166, 167, 168, 169, 170, 171, 172, 173, 174, 175, 176, 177, 178, 179, 180, 181, 182, 183, 184, 185, 186, 187, 188, 189, 190, 191, 192, 193, 194, 195, 196, 197, 198, 199, 200],
      "AcquisitionTime": ["091435.165000", "091437.165000", "091439.165000", "091441.165000", "091443.165000", "091445.165000", "091447.165000", "091449.165000", "091451.165000", "091453.165000", "091455.165000", "091457.165000", "091459.165000", "091501.165000", "091503.165000", "091505.165000", "091507.165000", "091509.165000", "091511.165000", "091513.165000", "091515.165000", "091517.165000", "091519.165000", "091521.165000", "091523.165000", "091525.165000", "091527.165000", "091529.165000", "091531.165000", "091533.165000", "091535.165000", "091537.165000", "091539.165000", "091541.165000", "091543.165000", "091545.165000", "091547.165000", "091549.165000", "091551.165000", "091553.165000", "091555.165000", "091557.165000", "091559.165000", "091601.165000", "091603.165000", "091605.165000", "091607.165000", "091609.165000", "091611.165000", "091613.165000", "091615.165000", "091617.165000", "091619.165000", "091621.165000", "091623.165000", "091625.165000", "091627.165000", "091629.165000", "091631.165000", "091633.165000", "091635.165000", "091637.165000", "091639.165000", "091641.165000", "091643.165000", "091645.165000", "091647.165000", "091649.165000", "091651.165000", "091653.165000", "091655.165000", "091657.165000", "091659.165000", "091701.165000", "091703.165000", "091705.165000", "091707.165000", "091709.165000", "091711.165000", "091713.165000", "091715.165000", "091717.165000", "091719.165000", "091721.165000", "091723.165000", "091725.165000", "091727.165000", "091729.165000", "091731.165000", "091733.165000", "091735.165000", "091737.165000", "091739.165000", "091741.165000", "091743.165000", "091745.165000", "091747.165000", "091749.165000", "091751.165000", "091753.165000", "091755.165000", "091757.165000", "091759.165000", "091801.165000", "091803.165000", "091805.165000", "091807.165000", "091809.165000", "091811.165000", "091813.165000", "091815.165000", "091817.165000", "091819.165000", "091821.165000", "091823.165000", "091825.165000", "091827.165000", "091829.165000", "091831.165000", "091833.165000", "091835.165000", "091837.165000", "091839.165000", "091841.165000", "091843.165000", "091845.165000", "091847.165000", "091849.165000", "091851.165000", "091853.165000", "091855.165000", "091857.165000", "091859.165000", "091901.165000", "091903.165000", "091905.165000", "091907.165000", "091909.165000", "091911.165000", "091913.165000", "091915.165000", "091917.165000", "091919.165000", "091921.165000", "091923.165000", "091925.165000", "091927.165000", "091929.165000", "091931.165000", "091933.165000", "091935.165000", "091937.165000", "091939.165000", "091941.165000", "091943.165000", "091945.165000", "091947.165000", "091949.165000", "091951.165000", "091953.165000", "091955.165000", "091957.165000", "091959.165000", "092001.165000", "092003.165000", "092005.165000", "092007.165000", "092009.165000", "092011.165000", "092013.165000", "092015.165000", "092017.165000", "092019.165000", "092021.165000", "092023.165000", "092025.165000", "092027.165000", "092029.165000", "092031.165000", "092033.165000", "092035.165000", "092037.165000", "092039.165000", "092041.165000", "092043.165000", "092045.165000", "092047.165000", "092049.165000", "092051.165000", "092053.165000", "092055.165000", "092057.165000", "092059.165000", "092101.165000", "092103.165000", "092105.165000", "092107.165000", "092109.165000", "092111.165000", "092113.165000"],
      "ContentTime": ["091518.402000", "091518.406000", "091518.409000", "091518.411000", "091518.414000", "091518.417000", "091518.419000", "091518.422000", "091518.424000", "091518.427000", "091518.430000", "091518.432000", "091518.442000", "091518.451000", "091518.463000", "091518.465000", "091518.468000", "091518.470000", "091518.473000", "091518.476000", "091518.478000", "091518.481000", "091558.392000", "091558.395000", "091558.398000", "091558.401000", "091558.403000", "091558.406000", "091558.409000", "091558.412000", "091558.414000", "091558.417000", "091558.419000", "091558.422000", "091558.425000", "091558.427000", "091558.430000", "091558.433000", "091558.435000", "091558.438000", "091558.440000", "091558.443000", "091638.394000", "091638.397000", "091638.399000", "091638.402000", "091638.405000", "091638.407000", "091638.410000", "091638.415000", "091638.418000", "091638.420000", "091638.423000", "091638.426000", "091638.428000", "091638.431000", "091638.434000", "091638.436000", "091638.439000", "091638.441000", "091638.444000", "091638.447000", "091718.393000", "091718.396000", "091718.399000", "091718.402000", "091718.405000", "091718.407000", "091718.410000", "091718.413000", "091718.415000", "091718.418000", "091718.420000", "091718.423000", "091718.426000", "091718.428000", "091718.431000", "091718.434000", "091718.436000", "091718.439000", "091718.441000", "091718.444000", "091758.392000", "091758.395000", "091758.398000", "091758.401000", "091758.403000", "091758.406000", "091758.409000", "091758.412000", "091758.414000", "091758.417000", "091758.420000", "091758.422000", "091758.425000", "091758.427000", "091758.430000", "091758.433000", "091758.435000", "091758.438000", "091758.440000", "091758.443000", "091838.393000", "091838.396000", "091838.399000", "091838.402000", "091838.405000", "091838.407000", "091838.410000", "091838.413000", "091838.415000", "091838.418000", "091838.421000", "091838.423000", "091838.426000", "091838.428000", "091838.431000", "091838.434000", "091838.436000", "091838.439000", "091838.442000", "091838.444000", "091918.394000", "091918.396000", "091918.399000", "091918.402000", "091918.405000", "091918.407000", "091918.410000", "091918.413000", "091918.415000", "091918.418000", "091918.420000", "091918.423000", "091918.426000", "091918.428000", "091918.431000", "091918.434000", "091918.436000", "091918.439000", "091918.441000", "091918.444000", "091958.393000", "091958.396000", "091958.399000", "091958.402000", "091958.404000", "091958.407000", "091958.410000", "091958.413000", "091958.415000", "091958.418000", "091958.420000", "091958.423000", "091958.426000", "091958.428000", "091958.431000", "091958.433000", "091958.436000", "091958.439000", "091958.441000", "091958.444000", "092038.393000", "092038.395000", "092038.398000", "092038.401000", "092038.404000", "092038.406000", "092038.409000", "092038.412000", "092038.431000", "092038.433000", "092038.436000", "092038.439000", "092038.441000", "092038.444000", "092038.447000", "092038.449000", "092038.452000", "092038.454000", "092038.457000", "092038.460000", "092114.386000", "092114.389000", "092114.392000", "092114.394000", "092114.397000", "092114.400000", "092114.403000", "092114.405000", "092114.408000", "092114.411000", "092114.414000", "092114.417000", "092114.420000", "092114.424000", "092114.428000", "092114.431000", "092114.433000", "092114.437000"],
      "InstanceCreationTime": ["091518.402000", "091518.406000", "091518.409000", "091518.411000", "091518.414000", "091518.417000", "091518.419000", "091518.422000", "091518.424000", "091518.427000", "091518.430000", "091518.432000", "091518.442000", "091518.451000", "091518.463000", "091518.465000", "091518.468000", "091518.470000", "091518.473000", "091518.476000", "091518.478000", "091518.481000", "091558.392000", "091558.395000", "091558.398000", "091558.401000", "091558.403000", "091558.406000", "091558.409000", "091558.412000", "091558.414000", "091558.417000", "091558.419000", "091558.422000", "091558.425000", "091558.427000", "091558.430000", "091558.433000", "091558.435000", "091558.438000", "091558.440000", "091558.443000", "091638.394000", "091638.397000", "091638.399000", "091638.402000", "091638.405000", "091638.407000", "091638.410000", "091638.415000", "091638.418000", "091638.420000", "091638.423000", "091638.426000", "091638.428000", "091638.431000", "091638.434000", "091638.436000", "091638.439000", "091638.441000", "091638.444000", "091638.447000", "091718.393000", "091718.396000", "091718.399000", "091718.402000", "091718.405000", "091718.407000", "091718.410000", "091718.413000", "091718.415000", "091718.418000", "091718.420000", "091718.423000", "091718.426000", "091718.428000", "091718.431000", "091718.434000", "091718.436000", "091718.439000", "091718.441000", "091718.444000", "091758.392000", "091758.395000", "091758.398000", "091758.401000", "091758.403000", "091758.406000", "091758.409000", "091758.412000", "091758.414000", "091758.417000", "091758.420000", "091758.422000", "091758.425000", "091758.427000", "091758.430000", "091758.433000", "091758.435000", "091758.438000", "091758.440000", "091758.443000", "091838.393000", "091838.396000", "091838.399000", "091838.402000", "091838.405000", "091838.407000", "091838.410000", "091838.413000", "091838.415000", "091838.418000", "091838.421000", "091838.423000", "091838.426000", "091838.428000", "091838.431000", "091838.434000", "091838.436000", "091838.439000", "091838.442000", "091838.444000", "091918.394000", "091918.396000", "091918.399000", "091918.402000", "091918.405000", "091918.407000", "091918.410000", "091918.413000", "091918.415000", "091918.418000", "091918.420000", "091918.423000", "091918.426000", "091918.428000", "091918.431000", "091918.434000", "091918.436000", "091918.439000", "091918.441000", "091918.444000", "091958.393000", "091958.396000", "091958.399000", "091958.402000", "091958.404000", "091958.407000", "091958.410000", "091958.413000", "091958.415000", "091958.418000", "091958.420000", "091958.423000", "091958.426000", "091958.428000", "091958.431000", "091958.433000", "091958.436000", "091958.439000", "091958.441000", "091958.444000", "092038.393000", "092038.395000", "092038.398000", "092038.401000", "092038.404000", "092038.406000", "092038.409000", "092038.412000", "092038.431000", "092038.433000", "092038.436000", "092038.439000", "092038.441000", "092038.444000", "092038.447000", "092038.449000", "092038.452000", "092038.454000", "092038.457000", "092038.460000", "092114.386000", "092114.389000", "092114.392000", "092114.394000", "092114.397000", "092114.400000", "092114.403000", "092114.405000", "092114.408000", "092114.411000", "092114.414000", "092114.417000", "092114.420000", "092114.424000", "092114.428000", "092114.431000", "092114.433000", "092114.437000"],
      "InstanceNumber": [1, 2, 3, 4, 5, 6, 7, 8, 9, 10, 11, 12, 13, 14, 15, 16, 17, 18, 19, 20, 21, 22, 23, 24, 25, 26, 27, 28, 29, 30, 31, 32, 33, 34, 35, 36, 37, 38, 39, 40, 41, 42, 43, 44, 45, 46, 47, 48, 49, 50, 51, 52, 53, 54, 55, 56, 57, 58, 59, 60, 61, 62, 63, 64, 65, 66, 67, 68, 69, 70, 71, 72, 73, 74, 75, 76, 77, 78, 79, 80, 81, 82, 83, 84, 85, 86, 87, 88, 89, 90, 91, 92, 93, 94, 95, 96, 97, 98, 99, 100, 101, 102, 103, 104, 105, 106, 107, 108, 109, 110, 111, 112, 113, 114, 115, 116, 117, 118, 119, 120, 121, 122, 123, 124, 125, 126, 127, 128, 129, 130, 131, 132, 133, 134, 135, 136, 137, 138, 139, 140, 141, 142, 143, 144, 145, 146, 147, 148, 149, 150, 151, 152, 153, 154, 155, 156, 157, 158, 159, 160, 161, 162, 163, 164, 165, 166, 167, 168, 169, 170, 171, 172, 173, 174, 175, 176, 177, 178, 179, 180, 181, 182, 183, 184, 185, 186, 187, 188, 189, 190, 191, 192, 193, 194, 195, 196, 197, 198, 199, 200],
      "LargestImagePixelValue": [1970, 1972, 1966, 1968, 1970, 1965, 1973, 1971, 1973, 1970, 1970, 1973, 1974, 1974, 1968, 1968, 1969, 1969, 1973, 1968, 1968, 1972, 1969, 1974, 1973, 1974, 1975, 1976, 1970, 1970, 1971, 1973, 1971, 1977, 1971, 1971, 1976, 1971, 1974, 1977, 1975, 1973, 1969, 1980, 1973, 1971, 1970, 1973, 1969, 1972, 1974, 1975, 1972, 1974, 1972, 1977, 1974, 1979, 1975, 1969, 1975, 1970, 1969, 1976, 1973, 1971, 1973, 1977, 1975, 1977, 1979, 1976, 1974, 1979, 1980, 1976, 1973, 1975, 1971, 1972, 1976, 1975, 1977, 1973, 1974, 1980, 1973, 1978, 1974, 1981, 1972, 1980, 1975, 1976, 1978, 1978, 1976, 1976, 1975, 1976, 1975, 1973, 1974, 1977, 1976, 1974, 1980, 1977, 1975, 1975, 1981, 1979, 1978, 1976, 1976, 1980, 1979, 1976, 1976, 1980, 1971, 1971, 1978, 1971, 1979, 1982, 1978, 1975, 1977, 1979, 1978, 1974, 1974, 1981, 1981, 1972, 1975, 1976, 1976, 1979, 1979, 1978, 1978, 1979, 1975, 1974, 1979, 1977, 1972, 1980, 1980, 1976, 1974, 1981, 1979, 1976, 1985, 1978, 1980, 1978, 1977, 1978, 1977, 1978, 1975, 1977, 1978, 1976, 1975, 1976, 1972, 1980, 1984, 1978, 1977, 1971, 1978, 1977, 1976, 1976, 1983, 1977, 1972, 1973, 1979, 1979, 1980, 1980, 1977, 1978, 1977, 1983, 1978, 1981, 1979, 1982, 1978, 1980, 1977, 1980],
      "WindowCenter": [919.0, 919.0, 920.0, 919.0, 919.0, 919.0, 919.0, 919.0, 919.0, 919.0, 919.0, 919.0, 919.0, 919.0, 919.0, 919.0, 919.0, 919.0, 919.0, 920.0, 919.0, 919.0, 919.0, 919.0, 919.0, 920.0, 919.0, 919.0, 919.0, 919.0, 920.0, 919.0, 919.0, 920.0, 919.0, 920.0, 919.0, 919.0, 919.0, 919.0, 919.0, 920.0, 919.0, 919.0, 920.0, 920.0, 919.0, 919.0, 920.0, 920.0, 919.0, 919.0, 919.0, 919.0, 919.0, 920.0, 920.0, 919.0, 919.0, 919.0, 919.0, 919.0, 919.0, 920.0, 919.0, 919.0, 919.0, 919.0, 919.0, 919.0, 920.0, 919.0, 919.0, 920.0, 919.0, 920.0, 919.0, 920.0, 920.0, 919.0, 919.0, 919.0, 919.0, 919.0, 920.0, 919.0, 920.0, 919.0, 919.0, 919.0, 919.0, 919.0, 920.0, 919.0, 919.0, 919.0, 919.0, 919.0, 919.0, 919.0, 919.0, 919.0, 919.0, 919.0, 919.0, 920.0, 919.0, 920.0, 919.0, 919.0, 919.0, 919.0, 919.0, 919.0, 920.0, 919.0, 919.0, 919.0, 919.0, 919.0, 919.0, 919.0, 920.0, 919.0, 919.0, 919.0, 919.0, 920.0, 919.0, 920.0, 919.0, 919.0, 919.0, 919.0, 919.0, 919.0, 920.0, 919.0, 919.0, 920.0, 919.0, 920.0, 919.0, 920.0, 919.0, 919.0, 919.0, 919.0, 919.0, 919.0, 920.0, 920.0, 920.0, 919.0, 920.0, 919.0, 919.0, 920.0, 919.0, 919.0, 919.0, 919.0, 919.0, 919.0, 919.0, 919.0, 919.0, 919.0, 919.0, 919.0, 919.0, 919.0, 919.0, 919.0, 919.0, 919.0, 919.0, 919.0, 919.0, 919.0, 919.0, 919.0, 920.0, 919.0, 919.0, 919.0, 919.0, 919.0, 919.0, 919.0, 920.0, 919.0, 920.0, 919.0, 919.0, 919.0, 919.0, 919.0, 919.0, 919.0],
      "WindowWidth": [2092.0, 2092.0, 2093.0, 2092.0, 2092.0, 2093.0, 2094.0, 2094.0, 2094.0, 2094.0, 2094.0, 2093.0, 2094.0, 2093.0, 2093.0, 2093.0, 2093.0, 2093.0, 2093.0, 2094.0, 2093.0, 2094.0, 2093.0, 2094.0, 2094.0, 2095.0, 2094.0, 2094.0, 2094.0, 2094.0, 2095.0, 2094.0, 2094.0, 2095.0, 2094.0, 2095.0, 2094.0, 2094.0, 2094.0, 2094.0, 2094.0, 2095.0, 2094.0, 2094.0, 2095.0, 2093.0, 2094.0, 2094.0, 2095.0, 2095.0, 2094.0, 2094.0, 2094.0, 2094.0, 2094.0, 2095.0, 2095.0, 2094.0, 2094.0, 2094.0, 2094.0, 2094.0, 2094.0, 2095.0, 2094.0, 2094.0, 2094.0, 2094.0, 2094.0, 2094.0, 2095.0, 2094.0, 2094.0, 2095.0, 2095.0, 2095.0, 2094.0, 2095.0, 2095.0, 2094.0, 2094.0, 2094.0, 2094.0, 2094.0, 2095.0, 2094.0, 2095.0, 2094.0, 2094.0, 2094.0, 2094.0, 2094.0, 2095.0, 2094.0, 2094.0, 2094.0, 2094.0, 2094.0, 2094.0, 2094.0, 2094.0, 2094.0, 2094.0, 2094.0, 2094.0, 2095.0, 2094.0, 2095.0, 2094.0, 2094.0, 2094.0, 2094.0, 2094.0, 2094.0, 2095.0, 2094.0, 2094.0, 2095.0, 2094.0, 2094.0, 2092.0, 2092.0, 2093.0, 2093.0, 2094.0, 2094.0, 2094.0, 2095.0, 2094.0, 2095.0, 2094.0, 2094.0, 2094.0, 2094.0, 2094.0, 2094.0, 2095.0, 2094.0, 2094.0, 2095.0, 2094.0, 2095.0, 2094.0, 2095.0, 2095.0, 2094.0, 2094.0, 2094.0, 2094.0, 2094.0, 2095.0, 2095.0, 2095.0, 2094.0, 2095.0, 2094.0, 2094.0, 2095.0, 2094.0, 2094.0, 2094.0, 2094.0, 2094.0, 2094.0, 2094.0, 2094.0, 2094.0, 2094.0, 2094.0, 2094.0, 2094.0, 2094.0, 2094.0, 2093.0, 2094.0, 2094.0, 2094.0, 2094.0, 2094.0, 2094.0, 2094.0, 2094.0, 2094.0, 2094.0, 2094.0, 2094.0, 2094.0, 2094.0, 2094.0, 2094.0, 2095.0, 2094.0, 2095.0, 2094.0, 2094.0, 2094.0, 2094.0, 2094.0, 2094.0, 2094.0]
    },
    "slices": {}
  }
}