{
  "AcquisitionMatrixPE": 80,
  "AcquisitionNumber": 1,
  "AcquisitionTime": "09:28:11.517500",
  "BandwidthPerPixelPhaseEncode": 25,
  "BaseResolution": 80,
  "BodyPartExamined": "BRAIN",
  "CoilCombinationMethod": "Sum of Squares",
  "ConsistencyInfo": "N4_VE11C_LATEST_20160120",
  "ConversionSoftware": "dcm2niix",
  "ConversionSoftwareVersion": "v1.0.20220720",
  "DerivedVendorReportedEchoSpacing": 0.0005,
  "DeviceSerialNumber": "66112",
  "DwellTime": 2.7e-06,
  "EchoTime": 0.03,
  "EchoTrainLength": 80,
  "EffectiveEchoSpacing": 0.0005,
  "FlipAngle": 10,
  "HeudiconvVersion": "0.13.1",
  "ImageOrientationPatientDICOM": [0.98652, 0.163112, 0.0131827, -0.159075, 0.936955, 0.311143],
  "ImageOrientationText": "Tra>Cor(18.0)>Sag(-2.2)",
  "ImageType": [
    "ORIGINAL",
    "PRIMARY",
    "M",
    "ND",
    "NORM",
    "MOSAIC"
],
  "ImagingFrequency": 123.252,
  "InPlanePhaseEncodingDirectionDICOM": "COL",
  "InstitutionAddress": "Maynard 3,Hanover,NH,US,03755",
  "InstitutionName": "Dartmouth College - PBS",
  "InstitutionalDepartmentName": "Department",
  "MRAcquisitionType": "2D",
  "MagneticFieldStrength": 3,
  "Manufacturer": "Siemens",
  "ManufacturersModelName": "Prisma",
  "MatrixCoilMode": "SENSE",
  "Modality": "MR",
  "NonlinearGradientCorrection": false,
  "PartialFourier": 1,
  "PatientPosition": "HFS",
  "PercentPhaseFOV": 100,
  "PercentSampling": 100,
  "PhaseEncodingDirection": "j-",
  "PhaseEncodingSteps": 80,
  "PhaseResolution": 1,
  "PixelBandwidth": 2315,
  "ProcedureStepDescription": "dbic^QA",
  "ProtocolName": "func-bold_fa-10",
  "PulseSequenceDetails": "%SiemensSeq%\\ep2d_bold",
  "ReceiveCoilActiveElements": "HEA;HEP",
  "ReceiveCoilName": "Head_32",
  "ReconMatrixPE": 80,
  "RepetitionTime": 2,
  "SAR": 0.0117437,
  "ScanOptions": "FS",
  "ScanningSequence": "EP",
  "SequenceName": "*epfid2d1_80",
  "SequenceVariant": "SK",
  "SeriesDescription": "func-bold_fa-10",
  "SeriesNumber": 10,
  "ShimSetting": [4146, -7696, -7518, 226, -65, -57, -8, 57],
  "SliceThickness": 3.5,
  "SliceTiming": [0.99, 0, 1.0575, 0.0675, 1.1225, 0.1325, 1.1875, 0.1975, 1.255, 0.265, 1.32, 0.33, 1.3875, 0.3975, 1.4525, 0.4625, 1.5175, 0.5275, 1.585, 0.595, 1.65, 0.66, 1.7175, 0.7275, 1.7825, 0.7925, 1.8475, 0.8575, 1.915, 0.925],
  "SoftwareVersions": "syngo MR E11",
  "SpacingBetweenSlices": 3.99,
  "StationName": "AWP66112",
  "TotalReadoutTime": 0.0395,
  "TxRefAmp": 222.733,
  "dcmmeta_affine": [
    [-2.9595584869384766, -0.47722381353378296, -0.15321409702301025, 141.35110473632812],
    [-0.4893355071544647, 2.810865879058838, 1.2330926656723022, -96.36653900146484],
    [0.03954809904098511, -0.9334293603897095, 3.791583776473999, -14.538054466247559],
    [0.0, 0.0, 0.0, 1.0]
],
  "dcmmeta_reorient_transform": [
    [0.0, -1.0, 0.0, 79.0],
    [1.0, 0.0, 0.0, 0.0],
    [0.0, 0.0, 1.0, 0.0],
    [0.0, 0.0, 0.0, 1.0]
],
  "dcmmeta_shape": [80, 80, 30, 200],
  "dcmmeta_slice_dim": 2,
  "dcmmeta_version": 0.6,
  "global": {
    "const": {
      "AccessionNumber": "qa",
      "AcquisitionMatrix": [80, 0, 0, 80],
      "AngioFlag": "N",
      "BitsAllocated": 16,
      "BitsStored": 12,
      "BodyPartExamined": "BRAIN",
      "Columns": 480,
      "EchoNumbers": 1,
      "EchoTime": 30.0,
      "EchoTrainLength": 80,
      "FlipAngle": 10.0,
      "HighBit": 11,
      "ImageOrientationPatient": [0.98651951163838, 0.1631118315442, 0.01318269953623, -0.1590746045946, 0.93695530021113, 0.31114311109092],
      "ImagePositionPatient": [-600.11736060217, -785.73214271372, -282.87445837689],
      "ImageType": [
        "ORIGINAL",
        "PRIMARY",
        "M",
        "ND",
        "NORM",
        "MOSAIC"
],
      "ImagedNucleus": "1H",
      "ImagingFrequency": 123.252365,
      "InPlanePhaseEncodingDirection": "COL",
      "MRAcquisitionType": "2D",
      "MagneticFieldStrength": 3.0,
      "Manufacturer": "SIEMENS",
      "ManufacturerModelName": "Prisma",
      "Modality": "MR",
      "NumberOfAverages": 1.0,
      "NumberOfPhaseEncodingSteps": 80,
      "PercentPhaseFieldOfView": 100.0,
      "PercentSampling": 100.0,
      "PerformedProcedureStepStartTime": "085834.745000",
      "PhotometricInterpretation": "MONOCHROME2",
      "PixelBandwidth": 2315.0,
      "PixelRepresentation": 0,
      "PixelSpacing": [3.0, 3.0],
      "ProtocolName": "func-bold_fa-10",
      "RepetitionTime": 2000.0,
      "Rows": 480,
      "SAR": 0.01174373387907,
      "SamplesPerPixel": 1,
      "ScanOptions": "FS",
      "ScanningSequence": "EP",
      "SequenceName": "*epfid2d1_80",
      "SequenceVariant": "SK",
      "SeriesDescription": "func-bold_fa-10",
      "SeriesNumber": 10,
      "SeriesTime": "092858.325000",
      "SliceLocation": -49.024589197024,
      "SliceThickness": 3.5,
      "SmallestImagePixelValue": 0,
      "SoftwareVersions": "syngo MR E11",
      "SpacingBetweenSlices": 3.9900000283278,
      "SpecificCharacterSet": "ISO_IR 100",
      "StudyID": "7",
      "StudyTime": "085834.694000",
      "TransmitCoilName": "Body",
      "VariableFlipAngleFlag": "N",
      "WindowCenterWidthExplanation": "Algo1",
      "dBdt": 0.0},
    "slices": {}
  },
  "time": {
    "samples": {
      "AcquisitionNumber": [1, 2, 3, 4, 5, 6, 7, 8, 9, 10, 11, 12, 13, 14, 15, 16, 17, 18, 19, 20, 21, 22, 23, 24, 25, 26, 27, 28, 29, 30, 31, 32, 33, 34, 35, 36, 37, 38, 39, 40, 41, 42, 43, 44, 45, 46, 47, 48, 49, 50, 51, 52, 53, 54, 55, 56, 57, 58, 59, 60, 61, 62, 63, 64, 65, 66, 67, 68, 69, 70, 71, 72, 73, 74, 75, 76, 77, 78, 79, 80, 81, 82, 83, 84, 85, 86, 87, 88, 89, 90, 91, 92, 93, 94, 95, 96, 97, 98, 99, 100, 101, 102, 103, 104, 105, 106, 107, 108, 109, 110, 111, 112, 113, 114, 115, 116, 117, 118, 119, 120, 121, 122, 123, 124, 125, 126, 127, 128, 129, 130, 131, 132, 133, 134, 135, 136, 137, 138, 139, 140, 141, 142, 143, 144, 145, 146, 147, 148, 149, 150, 151, 152, 153, 154, 155, 156, 157, 158, 159, 160, 161, 162, 163, 164, 165, 166, 167, 168, 169, 170, 171, 172, 173, 174, 175, 176, 177, 178, 179, 180, 181, 182, 183, 184, 185, 186, 187, 188, 189, 190, 191, 192, 193, 194, 195, 196, 197, 198, 199, 200],
      "AcquisitionTime": ["092811.517500", "092813.517500", "092815.517500", "092817.517500", "092819.517500", "092821.517500", "092823.517500", "092825.517500", "092827.517500", "092829.517500", "092831.517500", "092833.517500", "092835.517500", "092837.517500", "092839.517500", "092841.517500", "092843.517500", "092845.517500", "092847.517500", "092849.517500", "092851.517500", "092853.517500", "092855.517500", "092857.517500", "092859.517500", "092901.517500", "092903.517500", "092905.517500", "092907.517500", "092909.517500", "092911.517500", "092913.517500", "092915.517500", "092917.517500", "092919.517500", "092921.517500", "092923.517500", "092925.517500", "092927.517500", "092929.517500", "092931.517500", "092933.517500", "092935.517500", "092937.517500", "092939.517500", "092941.517500", "092943.517500", "092945.517500", "092947.517500", "092949.517500", "092951.517500", "092953.517500", "092955.517500", "092957.517500", "092959.517500", "093001.517500", "093003.517500", "093005.517500", "093007.517500", "093009.517500", "093011.517500", "093013.517500", "093015.517500", "093017.517500", "093019.517500", "093021.517500", "093023.517500", "093025.517500", "093027.517500", "093029.517500", "093031.517500", "093033.517500", "093035.517500", "093037.517500", "093039.517500", "093041.517500", "093043.517500", "093045.517500", "093047.517500", "093049.517500", "093051.517500", "093053.517500", "093055.517500", "093057.517500", "093059.517500", "093101.517500", "093103.517500", "093105.517500", "093107.517500", "093109.517500", "093111.517500", "093113.517500", "093115.517500", "093117.517500", "093119.517500", "093121.517500", "093123.517500", "093125.517500", "093127.517500", "093129.517500", "093131.517500", "093133.517500", "093135.517500", "093137.517500", "093139.517500", "093141.517500", "093143.517500", "093145.517500", "093147.517500", "093149.517500", "093151.517500", "093153.517500", "093155.517500", "093157.517500", "093159.517500", "093201.517500", "093203.517500", "093205.517500", "093207.517500", "093209.517500", "093211.517500", "093213.517500", "093215.517500", "093217.517500", "093219.517500", "093221.517500", "093223.517500", "093225.517500", "093227.517500", "093229.517500", "093231.517500", "093233.517500", "093235.517500", "093237.517500", "093239.517500", "093241.517500", "093243.517500", "093245.517500", "093247.517500", "093249.517500", "093251.517500", "093253.517500", "093255.517500", "093257.517500", "093259.517500", "093301.517500", "093303.517500", "093305.517500", "093307.517500", "093309.517500", "093311.517500", "093313.517500", "093315.517500", "093317.517500", "093319.517500", "093321.517500", "093323.517500", "093325.517500", "093327.517500", "093329.517500", "093331.517500", "093333.517500", "093335.517500", "093337.517500", "093339.517500", "093341.517500", "093343.517500", "093345.517500", "093347.517500", "093349.517500", "093351.517500", "093353.517500", "093355.517500", "093357.517500", "093359.517500", "093401.517500", "093403.517500", "093405.517500", "093407.517500", "093409.517500", "093411.517500", "093413.517500", "093415.517500", "093417.517500", "093419.517500", "093421.517500", "093423.517500", "093425.517500", "093427.517500", "093429.517500", "093431.517500", "093433.517500", "093435.517500", "093437.517500", "093439.517500", "093441.517500", "093443.517500", "093445.517500", "093447.517500", "093449.517500"],
      "ContentTime": ["092858.328000", "092858.331000", "092858.334000", "092858.337000", "092858.339000", "092858.342000", "092858.344000", "092858.347000", "092858.349000", "092858.352000", "092858.355000", "092858.357000", "092858.360000", "092858.362000", "092858.365000", "092858.368000", "092858.370000", "092858.373000", "092858.375000", "092858.378000", "092858.380000", "092858.383000", "092858.386000", "092938.322000", "092938.325000", "092938.328000", "092938.330000", "092938.333000", "092938.336000", "092938.338000", "092938.341000", "092938.343000", "092938.346000", "092938.348000", "092938.351000", "092938.354000", "092938.356000", "092938.359000", "092938.361000", "092938.364000", "092938.366000", "092938.369000", "092938.372000", "093018.323000", "093018.326000", "093018.329000", "093018.331000", "093018.334000", "093018.337000", "093018.339000", "093018.342000", "093018.344000", "093018.347000", "093018.349000", "093018.352000", "093018.354000", "093018.357000", "093018.360000", "093018.362000", "093018.365000", "093018.367000", "093018.370000", "093018.372000", "093058.323000", "093058.326000", "093058.329000", "093058.331000", "093058.334000", "093058.336000", "093058.339000", "093058.342000", "093058.344000", "093058.347000", "093058.349000", "093058.352000", "093058.355000", "093058.357000", "093058.360000", "093058.362000", "093058.365000", "093058.368000", "093058.370000", "093058.373000", "093118.324000", "093118.326000", "093118.329000", "093118.331000", "093118.334000", "093118.337000", "093118.339000", "093118.342000", "093118.344000", "093118.347000", "093158.322000", "093158.325000", "093158.328000", "093158.330000", "093158.333000", "093158.336000", "093158.338000", "093158.341000", "093158.343000", "093158.346000", "093158.349000", "093158.351000", "093158.354000", "093158.356000", "093158.359000", "093158.361000", "093158.364000", "093158.367000", "093158.369000", "093158.372000", "093238.323000", "093238.326000", "093238.329000", "093238.331000", "093238.334000", "093238.336000", "093238.339000", "093238.341000", "093238.344000", "093238.347000", "093238.349000", "093238.359000", "093238.362000", "093238.365000", "093238.367000", "093238.370000", "093238.373000", "093238.375000", "093238.378000", "093238.380000", "093318.323000", "093318.326000", "093318.329000", "093318.331000", "093318.334000", "093318.337000", "093318.339000", "093318.342000", "093318.345000", "093318.347000", "093318.350000", "093318.352000", "093318.355000", "093318.357000", "093318.360000", "093318.363000", "093318.365000", "093318.368000", "093318.370000", "093318.373000", "093358.322000", "093358.325000", "093358.328000", "093358.330000", "093358.333000", "093358.336000", "093358.338000", "093358.341000", "093358.344000", "093358.346000", "093358.349000", "093358.351000", "093358.354000", "093358.356000", "093358.359000", "093358.362000", "093358.364000", "093358.367000", "093358.369000", "093358.372000", "093438.322000", "093438.325000", "093438.328000", "093438.330000", "093438.333000", "093438.336000", "093438.338000", "093438.341000", "093438.344000", "093438.346000", "093438.349000", "093438.351000", "093438.354000", "093438.357000", "093438.359000", "093438.362000", "093438.364000", "093438.367000", "093438.369000", "093438.372000", "093451.180000", "093451.183000", "093451.186000", "093451.188000", "093451.191000", "093451.194000", "093451.196000"],
      "InstanceCreationTime": ["092858.328000", "092858.331000", "092858.334000", "092858.337000", "092858.339000", "092858.342000", "092858.344000", "092858.347000", "092858.349000", "092858.352000", "092858.355000", "092858.357000", "092858.360000", "092858.362000", "092858.365000", "092858.368000", "092858.370000", "092858.373000", "092858.375000", "092858.378000", "092858.380000", "092858.383000", "092858.386000", "092938.322000", "092938.325000", "092938.328000", "092938.330000", "092938.333000", "092938.336000", "092938.338000", "092938.341000", "092938.343000", "092938.346000", "092938.348000", "092938.351000", "092938.354000", "092938.356000", "092938.359000", "092938.361000", "092938.364000", "092938.366000", "092938.369000", "092938.372000", "093018.323000", "093018.326000", "093018.329000", "093018.331000", "093018.334000", "093018.337000", "093018.339000", "093018.342000", "093018.344000", "093018.347000", "093018.349000", "093018.352000", "093018.354000", "093018.357000", "093018.360000", "093018.362000", "093018.365000", "093018.367000", "093018.370000", "093018.372000", "093058.323000", "093058.326000", "093058.329000", "093058.331000", "093058.334000", "093058.336000", "093058.339000", "093058.342000", "093058.344000", "093058.347000", "093058.349000", "093058.352000", "093058.355000", "093058.357000", "093058.360000", "093058.362000", "093058.365000", "093058.368000", "093058.370000", "093058.373000", "093118.324000", "093118.326000", "093118.329000", "093118.331000", "093118.334000", "093118.337000", "093118.339000", "093118.342000", "093118.344000", "093118.347000", "093158.322000", "093158.325000", "093158.328000", "093158.330000", "093158.333000", "093158.336000", "093158.338000", "093158.341000", "093158.343000", "093158.346000", "093158.349000", "093158.351000", "093158.354000", "093158.356000", "093158.359000", "093158.361000", "093158.364000", "093158.367000", "093158.369000", "093158.372000", "093238.323000", "093238.326000", "093238.329000", "093238.331000", "093238.334000", "093238.336000", "093238.339000", "093238.341000", "093238.344000", "093238.347000", "093238.349000", "093238.359000", "093238.362000", "093238.365000", "093238.367000", "093238.370000", "093238.373000", "093238.375000", "093238.378000", "093238.380000", "093318.323000", "093318.326000", "093318.329000", "093318.331000", "093318.334000", "093318.337000", "093318.339000", "093318.342000", "093318.345000", "093318.347000", "093318.350000", "093318.352000", "093318.355000", "093318.357000", "093318.360000", "093318.363000", "093318.365000", "093318.368000", "093318.370000", "093318.373000", "093358.322000", "093358.325000", "093358.328000", "093358.330000", "093358.333000", "093358.336000", "093358.338000", "093358.341000", "093358.344000", "093358.346000", "093358.349000", "093358.351000", "093358.354000", "093358.356000", "093358.359000", "093358.362000", "093358.364000", "093358.367000", "093358.369000", "093358.372000", "093438.322000", "093438.325000", "093438.328000", "093438.330000", "093438.333000", "093438.336000", "093438.338000", "093438.341000", "093438.344000", "093438.346000", "093438.349000", "093438.351000", "093438.354000", "093438.357000", "093438.359000", "093438.362000", "093438.364000", "093438.367000", "093438.369000", "093438.372000", "093451.180000", "093451.183000", "093451.186000", "093451.188000", "093451.191000", "093451.194000", "093451.196000"],
      "InstanceNumber": [1, 2, 3, 4, 5, 6, 7, 8, 9, 10, 11, 12, 13, 14, 15, 16, 17, 18, 19, 20, 21, 22, 23, 24, 25, 26, 27, 28, 29, 30, 31, 32, 33, 34, 35, 36, 37, 38, 39, 40, 41, 42, 43, 44, 45, 46, 47, 48, 49, 50, 51, 52, 53, 54, 55, 56, 57, 58, 59, 60, 61, 62, 63, 64, 65, 66, 67, 68, 69, 70, 71, 72, 73, 74, 75, 76, 77, 78, 79, 80, 81, 82, 83, 84, 85, 86, 87, 88, 89, 90, 91, 92, 93, 94, 95, 96, 97, 98, 99, 100, 101, 102, 103, 104, 105, 106, 107, 108, 109, 110, 111, 112, 113, 114, 115, 116, 117, 118, 119, 120, 121, 122, 123, 124, 125, 126, 127, 128, 129, 130, 131, 132, 133, 134, 135, 136, 137, 138, 139, 140, 141, 142, 143, 144, 145, 146, 147, 148, 149, 150, 151, 152, 153, 154, 155, 156, 157, 158, 159, 160, 161, 162, 163, 164, 165, 166, 167, 168, 169, 170, 171, 172, 173, 174, 175, 176, 177, 178, 179, 180, 181, 182, 183, 184, 185, 186, 187, 188, 189, 190, 191, 192, 193, 194, 195, 196, 197, 198, 199, 200],
      "LargestImagePixelValue": [327, 324, 325, 326, 326, 325, 327, 327, 324, 326, 322, 328, 326, 327, 327, 328, 325, 326, 329, 326, 326, 329, 326, 324, 327, 323, 325, 328, 327, 326, 326, 327, 325, 326, 326, 326, 325, 328, 324, 325, 328, 325, 324, 326, 328, 330, 326, 327, 326, 325, 326, 326, 328, 326, 326, 323, 324, 324, 325, 325, 329, 325, 325, 323, 326, 326, 326, 328, 325, 326, 327, 328, 327, 331, 327, 323, 326, 324, 324, 326, 325, 322, 330, 328, 324, 324, 327, 325, 326, 322, 326, 324, 327, 324, 324, 326, 327, 322, 326, 324, 324, 328, 326, 324, 325, 325, 324, 326, 323, 325, 325, 327, 324, 329, 323, 325, 327, 326, 326, 325, 329, 323, 325, 325, 327, 328, 330, 325, 327, 331, 325, 324, 326, 328, 327, 324, 323, 327, 324, 330, 324, 325, 324, 328, 325, 325, 323, 324, 326, 322, 324, 324, 326, 325, 326, 325, 324, 326, 327, 326, 326, 328, 326, 324, 326, 325, 325, 326, 330, 325, 324, 325, 328, 324, 325, 324, 324, 326, 325, 325, 324, 322, 325, 324, 324, 324, 326, 327, 324, 323, 326, 331, 324, 325, 325, 328, 328, 324, 324, 325],
      "WindowCenter": [274.0, 274.0, 274.0, 274.0, 274.0, 274.0, 274.0, 274.0, 274.0, 273.0, 274.0, 274.0, 274.0, 274.0, 276.0, 274.0, 274.0, 274.0, 274.0, 273.0, 274.0, 274.0, 274.0, 274.0, 273.0, 274.0, 274.0, 273.0, 273.0, 273.0, 274.0, 274.0, 273.0, 273.0, 274.0, 275.0, 274.0, 274.0, 273.0, 274.0, 274.0, 274.0, 274.0, 273.0, 273.0, 273.0, 273.0, 274.0, 273.0, 274.0, 274.0, 273.0, 273.0, 273.0, 274.0, 273.0, 273.0, 273.0, 273.0, 274.0, 274.0, 273.0, 274.0, 273.0, 274.0, 272.0, 273.0, 275.0, 273.0, 273.0, 273.0, 272.0, 273.0, 273.0, 273.0, 273.0, 273.0, 273.0, 273.0, 273.0, 273.0, 273.0, 273.0, 274.0, 273.0, 273.0, 273.0, 273.0, 273.0, 273.0, 273.0, 273.0, 273.0, 273.0, 273.0, 273.0, 273.0, 273.0, 273.0, 273.0, 273.0, 273.0, 273.0, 273.0, 273.0, 273.0, 273.0, 273.0, 273.0, 273.0, 273.0, 272.0, 273.0, 273.0, 273.0, 273.0, 273.0, 273.0, 273.0, 273.0, 274.0, 273.0, 273.0, 273.0, 273.0, 273.0, 273.0, 273.0, 273.0, 273.0, 273.0, 273.0, 273.0, 272.0, 273.0, 273.0, 273.0, 273.0, 273.0, 273.0, 273.0, 273.0, 273.0, 273.0, 273.0, 273.0, 273.0, 273.0, 273.0, 273.0, 273.0, 273.0, 273.0, 273.0, 273.0, 273.0, 273.0, 274.0, 273.0, 273.0, 273.0, 273.0, 272.0, 273.0, 273.0, 273.0, 273.0, 273.0, 273.0, 273.0, 273.0, 273.0, 273.0, 273.0, 273.0, 273.0, 273.0, 273.0, 273.0, 272.0, 273.0, 273.0, 273.0, 273.0, 273.0, 273.0, 273.0, 273.0, 273.0, 273.0, 274.0, 274.0, 273.0, 272.0, 273.0, 273.0, 273.0, 273.0, 273.0, 273.0],
      "WindowWidth": [600.0, 600.0, 600.0, 600.0, 600.0, 600.0, 600.0, 600.0, 600.0, 600.0, 600.0, 600.0, 600.0, 600.0, 604.0, 600.0, 600.0, 600.0, 600.0, 600.0, 600.0, 600.0, 600.0, 601.0, 600.0, 600.0, 600.0, 600.0, 600.0, 600.0, 600.0, 600.0, 600.0, 600.0, 600.0, 602.0, 600.0, 600.0, 599.0, 600.0, 600.0, 600.0, 600.0, 600.0, 599.0, 600.0, 600.0, 600.0, 599.0, 600.0, 600.0, 600.0, 600.0, 599.0, 600.0, 599.0, 600.0, 600.0, 600.0, 600.0, 600.0, 600.0, 600.0, 600.0, 600.0, 598.0, 600.0, 602.0, 599.0, 599.0, 599.0, 598.0, 599.0, 600.0, 600.0, 599.0, 600.0, 599.0, 599.0, 599.0, 599.0, 599.0, 600.0, 600.0, 600.0, 599.0, 599.0, 600.0, 599.0, 599.0, 599.0, 599.0, 599.0, 599.0, 599.0, 599.0, 599.0, 599.0, 599.0, 599.0, 598.0, 599.0, 599.0, 599.0, 599.0, 599.0, 599.0, 599.0, 599.0, 599.0, 599.0, 598.0, 600.0, 599.0, 599.0, 599.0, 599.0, 599.0, 599.0, 599.0, 600.0, 598.0, 599.0, 599.0, 598.0, 599.0, 600.0, 599.0, 599.0, 599.0, 599.0, 600.0, 599.0, 598.0, 599.0, 599.0, 599.0, 599.0, 599.0, 600.0, 599.0, 599.0, 599.0, 599.0, 599.0, 599.0, 599.0, 599.0, 598.0, 599.0, 599.0, 599.0, 599.0, 599.0, 599.0, 599.0, 599.0, 600.0, 599.0, 599.0, 599.0, 599.0, 598.0, 599.0, 598.0, 598.0, 599.0, 599.0, 599.0, 599.0, 599.0, 599.0, 599.0, 598.0, 598.0, 599.0, 598.0, 599.0, 599.0, 598.0, 599.0, 599.0, 599.0, 599.0, 599.0, 599.0, 599.0, 599.0, 599.0, 598.0, 600.0, 602.0, 599.0, 598.0, 599.0, 599.0, 599.0, 599.0, 598.0, 598.0]
    },
    "slices": {}
  }
}