{
  "AcquisitionMatrixPE": 80,
  "AcquisitionNumber": 1,
  "AcquisitionTime": "09:21:25.512500",
  "BandwidthPerPixelPhaseEncode": 25,
  "BaseResolution": 80,
  "BodyPartExamined": "BRAIN",
  "CoilCombinationMethod": "Sum of Squares",
  "ConsistencyInfo": "N4_VE11C_LATEST_20160120",
  "ConversionSoftware": "dcm2niix",
  "ConversionSoftwareVersion": "v1.0.20220720",
  "DerivedVendorReportedEchoSpacing": 0.0005,
  "DeviceSerialNumber": "66112",
  "DwellTime": 2.7e-06,
  "EchoTime": 0.03,
  "EchoTrainLength": 80,
  "EffectiveEchoSpacing": 0.0005,
  "FlipAngle": 77,
  "HeudiconvVersion": "0.13.1",
  "ImageOrientationPatientDICOM": [0.98652, 0.163112, 0.0131827, -0.159075, 0.936955, 0.311143],
  "ImageOrientationText": "Tra>Cor(18.0)>Sag(-2.2)",
  "ImageType": [
    "ORIGINAL",
    "PRIMARY",
    "M",
    "ND",
    "NORM",
    "MOSAIC"
],
  "ImagingFrequency": 123.252,
  "InPlanePhaseEncodingDirectionDICOM": "COL",
  "InstitutionAddress": "Maynard 3,Hanover,NH,US,03755",
  "InstitutionName": "Dartmouth College - PBS",
  "InstitutionalDepartmentName": "Department",
  "MRAcquisitionType": "2D",
  "MagneticFieldStrength": 3,
  "Manufacturer": "Siemens",
  "ManufacturersModelName": "Prisma",
  "MatrixCoilMode": "SENSE",
  "Modality": "MR",
  "NonlinearGradientCorrection": false,
  "PartialFourier": 1,
  "PatientPosition": "HFS",
  "PercentPhaseFOV": 100,
  "PercentSampling": 100,
  "PhaseEncodingDirection": "j-",
  "PhaseEncodingSteps": 80,
  "PhaseResolution": 1,
  "PixelBandwidth": 2315,
  "ProcedureStepDescription": "dbic^QA",
  "ProtocolName": "func-bold_fa-77",
  "PulseSequenceDetails": "%SiemensSeq%\\ep2d_bold",
  "ReceiveCoilActiveElements": "HEA;HEP",
  "ReceiveCoilName": "Head_32",
  "ReconMatrixPE": 80,
  "RepetitionTime": 2,
  "SAR": 0.0437792,
  "ScanOptions": "FS",
  "ScanningSequence": "EP",
  "SequenceName": "*epfid2d1_80",
  "SequenceVariant": "SK",
  "SeriesDescription": "func-bold_fa-77",
  "SeriesNumber": 8,
  "ShimSetting": [4146, -7696, -7518, 226, -65, -57, -8, 57],
  "SliceThickness": 3.5,
  "SliceTiming": [0.99, 0, 1.0575, 0.0675, 1.1225, 0.1325, 1.1875, 0.2, 1.255, 0.265, 1.32, 0.33, 1.3875, 0.3975, 1.4525, 0.4625, 1.5175, 0.53, 1.585, 0.595, 1.65, 0.66, 1.7175, 0.7275, 1.7825, 0.7925, 1.8475, 0.8575, 1.915, 0.925],
  "SoftwareVersions": "syngo MR E11",
  "SpacingBetweenSlices": 3.99,
  "StationName": "AWP66112",
  "TotalReadoutTime": 0.0395,
  "TxRefAmp": 222.733,
  "dcmmeta_affine": [
    [-2.9595584869384766, -0.47722381353378296, -0.15321409702301025, 141.35110473632812],
    [-0.4893355071544647, 2.810865879058838, 1.2330926656723022, -96.36653900146484],
    [0.03954809904098511, -0.9334293603897095, 3.791583776473999, -14.538054466247559],
    [0.0, 0.0, 0.0, 1.0]
],
  "dcmmeta_reorient_transform": [
    [0.0, -1.0, 0.0, 79.0],
    [1.0, 0.0, 0.0, 0.0],
    [0.0, 0.0, 1.0, 0.0],
    [0.0, 0.0, 0.0, 1.0]
],
  "dcmmeta_shape": [80, 80, 30, 200],
  "dcmmeta_slice_dim": 2,
  "dcmmeta_version": 0.6,
  "global": {
    "const": {
      "AccessionNumber": "qa",
      "AcquisitionMatrix": [80, 0, 0, 80],
      "AngioFlag": "N",
      "BitsAllocated": 16,
      "BitsStored": 12,
      "BodyPartExamined": "BRAIN",
      "Columns": 480,
      "EchoNumbers": 1,
      "EchoTime": 30.0,
      "EchoTrainLength": 80,
      "FlipAngle": 77.0,
      "HighBit": 11,
      "ImageOrientationPatient": [0.98651951163838, 0.1631118315442, 0.01318269953623, -0.1590746045946, 0.93695530021113, 0.31114311109092],
      "ImagePositionPatient": [-600.11736060217, -785.73214271372, -282.87445837689],
      "ImageType": [
        "ORIGINAL",
        "PRIMARY",
        "M",
        "ND",
        "NORM",
        "MOSAIC"
],
      "ImagedNucleus": "1H",
      "ImagingFrequency": 123.252364,
      "InPlanePhaseEncodingDirection": "COL",
      "MRAcquisitionType": "2D",
      "MagneticFieldStrength": 3.0,
      "Manufacturer": "SIEMENS",
      "ManufacturerModelName": "Prisma",
      "Modality": "MR",
      "NumberOfAverages": 1.0,
      "NumberOfPhaseEncodingSteps": 80,
      "PercentPhaseFieldOfView": 100.0,
      "PercentSampling": 100.0,
      "PerformedProcedureStepStartTime": "085834.745000",
      "PhotometricInterpretation": "MONOCHROME2",
      "PixelBandwidth": 2315.0,
      "PixelRepresentation": 0,
      "PixelSpacing": [3.0, 3.0],
      "ProtocolName": "func-bold_fa-77",
      "RepetitionTime": 2000.0,
      "Rows": 480,
      "SAR": 0.04377920841849,
      "SamplesPerPixel": 1,
      "ScanOptions": "FS",
      "ScanningSequence": "EP",
      "SequenceName": "*epfid2d1_80",
      "SequenceVariant": "SK",
      "SeriesDescription": "func-bold_fa-77",
      "SeriesNumber": 8,
      "SeriesTime": "092218.255000",
      "SliceLocation": -49.024589197024,
      "SliceThickness": 3.5,
      "SmallestImagePixelValue": 0,
      "SoftwareVersions": "syngo MR E11",
      "SpacingBetweenSlices": 3.9900000283278,
      "SpecificCharacterSet": "ISO_IR 100",
      "StudyID": "7",
      "StudyTime": "085834.694000",
      "TransmitCoilName": "Body",
      "VariableFlipAngleFlag": "N",
      "WindowCenterWidthExplanation": "Algo1",
      "dBdt": 0.0},
    "slices": {}
  },
  "time": {
    "samples": {
      "AcquisitionNumber": [1, 2, 3, 4, 5, 6, 7, 8, 9, 10, 11, 12, 13, 14, 15, 16, 17, 18, 19, 20, 21, 22, 23, 24, 25, 26, 27, 28, 29, 30, 31, 32, 33, 34, 35, 36, 37, 38, 39, 40, 41, 42, 43, 44, 45, 46, 47, 48, 49, 50, 51, 52, 53, 54, 55, 56, 57, 58, 59, 60, 61, 62, 63, 64, 65, 66, 67, 68, 69, 70, 71, 72, 73, 74, 75, 76, 77, 78, 79, 80, 81, 82, 83, 84, 85, 86, 87, 88, 89, 90, 91, 92, 93, 94, 95, 96, 97, 98, 99, 100, 101, 102, 103, 104, 105, 106, 107, 108, 109, 110, 111, 112, 113, 114, 115, 116, 117, 118, 119, 120, 121, 122, 123, 124, 125, 126, 127, 128, 129, 130, 131, 132, 133, 134, 135, 136, 137, 138, 139, 140, 141, 142, 143, 144, 145, 146, 147, 148, 149, 150, 151, 152, 153, 154, 155, 156, 157, 158, 159, 160, 161, 162, 163, 164, 165, 166, 167, 168, 169, 170, 171, 172, 173, 174, 175, 176, 177, 178, 179, 180, 181, 182, 183, 184, 185, 186, 187, 188, 189, 190, 191, 192, 193, 194, 195, 196, 197, 198, 199, 200],
      "AcquisitionTime": ["092125.512500", "092127.512500", "092129.512500", "092131.512500", "092133.512500", "092135.512500", "092137.512500", "092139.512500", "092141.512500", "092143.512500", "092145.512500", "092147.512500", "092149.512500", "092151.512500", "092153.512500", "092155.512500", "092157.512500", "092159.512500", "092201.512500", "092203.512500", "092205.512500", "092207.512500", "092209.512500", "092211.512500", "092213.512500", "092215.512500", "092217.512500", "092219.512500", "092221.512500", "092223.512500", "092225.512500", "092227.512500", "092229.512500", "092231.512500", "092233.512500", "092235.512500", "092237.512500", "092239.512500", "092241.512500", "092243.512500", "092245.512500", "092247.512500", "092249.512500", "092251.512500", "092253.512500", "092255.512500", "092257.512500", "092259.512500", "092301.512500", "092303.512500", "092305.512500", "092307.512500", "092309.512500", "092311.512500", "092313.512500", "092315.512500", "092317.512500", "092319.512500", "092321.512500", "092323.512500", "092325.512500", "092327.512500", "092329.512500", "092331.512500", "092333.512500", "092335.512500", "092337.512500", "092339.512500", "092341.512500", "092343.512500", "092345.512500", "092347.512500", "092349.512500", "092351.512500", "092353.512500", "092355.512500", "092357.512500", "092359.512500", "092401.512500", "092403.512500", "092405.512500", "092407.512500", "092409.512500", "092411.512500", "092413.512500", "092415.512500", "092417.512500", "092419.512500", "092421.512500", "092423.512500", "092425.512500", "092427.512500", "092429.512500", "092431.512500", "092433.512500", "092435.512500", "092437.512500", "092439.512500", "092441.512500", "092443.512500", "092445.512500", "092447.512500", "092449.512500", "092451.512500", "092453.512500", "092455.512500", "092457.512500", "092459.512500", "092501.512500", "092503.512500", "092505.512500", "092507.512500", "092509.512500", "092511.512500", "092513.512500", "092515.512500", "092517.512500", "092519.512500", "092521.512500", "092523.512500", "092525.512500", "092527.512500", "092529.512500", "092531.512500", "092533.512500", "092535.512500", "092537.512500", "092539.512500", "092541.512500", "092543.512500", "092545.512500", "092547.512500", "092549.512500", "092551.512500", "092553.512500", "092555.512500", "092557.512500", "092559.512500", "092601.512500", "092603.512500", "092605.512500", "092607.512500", "092609.512500", "092611.512500", "092613.512500", "092615.512500", "092617.512500", "092619.512500", "092621.512500", "092623.512500", "092625.512500", "092627.512500", "092629.512500", "092631.512500", "092633.512500", "092635.512500", "092637.512500", "092639.512500", "092641.512500", "092643.512500", "092645.512500", "092647.512500", "092649.512500", "092651.512500", "092653.512500", "092655.512500", "092657.512500", "092659.512500", "092701.512500", "092703.512500", "092705.512500", "092707.512500", "092709.512500", "092711.512500", "092713.512500", "092715.512500", "092717.512500", "092719.512500", "092721.512500", "092723.512500", "092725.512500", "092727.512500", "092729.512500", "092731.512500", "092733.512500", "092735.512500", "092737.512500", "092739.512500", "092741.512500", "092743.512500", "092745.512500", "092747.512500", "092749.512500", "092751.512500", "092753.512500", "092755.512500", "092757.512500", "092759.512500", "092801.512500", "092803.512500"],
      "ContentTime": ["092218.258000", "092218.262000", "092218.264000", "092218.270000", "092218.273000", "092218.275000", "092218.278000", "092218.280000", "092218.283000", "092218.286000", "092218.288000", "092218.291000", "092218.293000", "092218.296000", "092218.298000", "092218.301000", "092218.304000", "092218.306000", "092218.309000", "092218.311000", "092218.314000", "092218.317000", "092218.319000", "092218.322000", "092218.324000", "092218.327000", "092258.253000", "092258.256000", "092258.258000", "092258.261000", "092258.263000", "092258.266000", "092258.268000", "092258.271000", "092258.274000", "092258.276000", "092258.279000", "092258.281000", "092258.284000", "092258.287000", "092258.289000", "092258.292000", "092258.294000", "092258.297000", "092258.299000", "092258.302000", "092338.253000", "092338.257000", "092338.259000", "092338.262000", "092338.264000", "092338.267000", "092338.269000", "092338.272000", "092338.274000", "092338.277000", "092338.280000", "092338.282000", "092338.285000", "092338.287000", "092338.290000", "092338.292000", "092338.295000", "092338.298000", "092338.300000", "092338.303000", "092418.253000", "092418.257000", "092418.259000", "092418.262000", "092418.264000", "092418.267000", "092418.269000", "092418.272000", "092418.275000", "092418.277000", "092418.280000", "092418.282000", "092418.285000", "092418.295000", "092418.298000", "092418.300000", "092418.303000", "092418.306000", "092418.308000", "092418.311000", "092458.253000", "092458.256000", "092458.258000", "092458.261000", "092458.263000", "092458.266000", "092458.269000", "092458.271000", "092458.274000", "092458.276000", "092458.279000", "092458.281000", "092458.284000", "092458.287000", "092458.289000", "092458.292000", "092458.294000", "092458.297000", "092458.299000", "092458.310000", "092538.254000", "092538.257000", "092538.259000", "092538.262000", "092538.264000", "092538.267000", "092538.270000", "092538.272000", "092538.275000", "092538.277000", "092538.280000", "092538.282000", "092538.285000", "092538.288000", "092538.290000", "092538.293000", "092538.295000", "092538.298000", "092538.300000", "092538.303000", "092618.254000", "092618.257000", "092618.259000", "092618.262000", "092618.264000", "092618.267000", "092618.269000", "092618.272000", "092618.275000", "092618.277000", "092618.280000", "092618.282000", "092618.285000", "092618.288000", "092618.290000", "092618.293000", "092618.295000", "092618.298000", "092618.300000", "092618.303000", "092658.254000", "092658.257000", "092658.259000", "092658.262000", "092658.264000", "092658.267000", "092658.270000", "092658.272000", "092658.275000", "092658.277000", "092658.280000", "092658.283000", "092658.285000", "092658.288000", "092658.290000", "092658.293000", "092658.295000", "092658.298000", "092658.301000", "092658.303000", "092738.252000", "092738.256000", "092738.258000", "092738.261000", "092738.263000", "092738.266000", "092738.269000", "092738.271000", "092738.274000", "092738.276000", "092738.279000", "092738.282000", "092738.284000", "092738.287000", "092738.289000", "092738.292000", "092738.294000", "092738.297000", "092738.300000", "092738.302000", "092804.901000", "092804.904000", "092804.907000", "092804.910000", "092804.912000", "092804.915000", "092804.918000", "092804.920000", "092804.923000", "092804.926000", "092804.928000", "092804.931000", "092804.933000", "092804.936000"],
      "InstanceCreationTime": ["092218.258000", "092218.262000", "092218.264000", "092218.270000", "092218.273000", "092218.275000", "092218.278000", "092218.280000", "092218.283000", "092218.286000", "092218.288000", "092218.291000", "092218.293000", "092218.296000", "092218.298000", "092218.301000", "092218.304000", "092218.306000", "092218.309000", "092218.311000", "092218.314000", "092218.317000", "092218.319000", "092218.322000", "092218.324000", "092218.327000", "092258.253000", "092258.256000", "092258.258000", "092258.261000", "092258.263000", "092258.266000", "092258.268000", "092258.271000", "092258.274000", "092258.276000", "092258.279000", "092258.281000", "092258.284000", "092258.287000", "092258.289000", "092258.292000", "092258.294000", "092258.297000", "092258.299000", "092258.302000", "092338.253000", "092338.257000", "092338.259000", "092338.262000", "092338.264000", "092338.267000", "092338.269000", "092338.272000", "092338.274000", "092338.277000", "092338.280000", "092338.282000", "092338.285000", "092338.287000", "092338.290000", "092338.292000", "092338.295000", "092338.298000", "092338.300000", "092338.303000", "092418.253000", "092418.257000", "092418.259000", "092418.262000", "092418.264000", "092418.267000", "092418.269000", "092418.272000", "092418.275000", "092418.277000", "092418.280000", "092418.282000", "092418.285000", "092418.295000", "092418.298000", "092418.300000", "092418.303000", "092418.306000", "092418.308000", "092418.311000", "092458.253000", "092458.256000", "092458.258000", "092458.261000", "092458.263000", "092458.266000", "092458.269000", "092458.271000", "092458.274000", "092458.276000", "092458.279000", "092458.281000", "092458.284000", "092458.287000", "092458.289000", "092458.292000", "092458.294000", "092458.297000", "092458.299000", "092458.310000", "092538.254000", "092538.257000", "092538.259000", "092538.262000", "092538.264000", "092538.267000", "092538.270000", "092538.272000", "092538.275000", "092538.277000", "092538.280000", "092538.282000", "092538.285000", "092538.288000", "092538.290000", "092538.293000", "092538.295000", "092538.298000", "092538.300000", "092538.303000", "092618.254000", "092618.257000", "092618.259000", "092618.262000", "092618.264000", "092618.267000", "092618.269000", "092618.272000", "092618.275000", "092618.277000", "092618.280000", "092618.282000", "092618.285000", "092618.288000", "092618.290000", "092618.293000", "092618.295000", "092618.298000", "092618.300000", "092618.303000", "092658.254000", "092658.257000", "092658.259000", "092658.262000", "092658.264000", "092658.267000", "092658.270000", "092658.272000", "092658.275000", "092658.277000", "092658.280000", "092658.283000", "092658.285000", "092658.288000", "092658.290000", "092658.293000", "092658.295000", "092658.298000", "092658.301000", "092658.303000", "092738.252000", "092738.256000", "092738.258000", "092738.261000", "092738.263000", "092738.266000", "092738.269000", "092738.271000", "092738.274000", "092738.276000", "092738.279000", "092738.282000", "092738.284000", "092738.287000", "092738.289000", "092738.292000", "092738.294000", "092738.297000", "092738.300000", "092738.302000", "092804.901000", "092804.904000", "092804.907000", "092804.910000", "092804.912000", "092804.915000", "092804.918000", "092804.920000", "092804.923000", "092804.926000", "092804.928000", "092804.931000", "092804.933000", "092804.936000"],
      "InstanceNumber": [1, 2, 3, 4, 5, 6, 7, 8, 9, 10, 11, 12, 13, 14, 15, 16, 17, 18, 19, 20, 21, 22, 23, 24, 25, 26, 27, 28, 29, 30, 31, 32, 33, 34, 35, 36, 37, 38, 39, 40, 41, 42, 43, 44, 45, 46, 47, 48, 49, 50, 51, 52, 53, 54, 55, 56, 57, 58, 59, 60, 61, 62, 63, 64, 65, 66, 67, 68, 69, 70, 71, 72, 73, 74, 75, 76, 77, 78, 79, 80, 81, 82, 83, 84, 85, 86, 87, 88, 89, 90, 91, 92, 93, 94, 95, 96, 97, 98, 99, 100, 101, 102, 103, 104, 105, 106, 107, 108, 109, 110, 111, 112, 113, 114, 115, 116, 117, 118, 119, 120, 121, 122, 123, 124, 125, 126, 127, 128, 129, 130, 131, 132, 133, 134, 135, 136, 137, 138, 139, 140, 141, 142, 143, 144, 145, 146, 147, 148, 149, 150, 151, 152, 153, 154, 155, 156, 157, 158, 159, 160, 161, 162, 163, 164, 165, 166, 167, 168, 169, 170, 171, 172, 173, 174, 175, 176, 177, 178, 179, 180, 181, 182, 183, 184, 185, 186, 187, 188, 189, 190, 191, 192, 193, 194, 195, 196, 197, 198, 199, 200],
      "LargestImagePixelValue": [1915, 1915, 1914, 1914, 1916, 1916, 1915, 1915, 1915, 1914, 1916, 1913, 1915, 1916, 1914, 1915, 1914, 1912, 1914, 1912, 1911, 1914, 1913, 1912, 1913, 1912, 1912, 1914, 1912, 1915, 1914, 1913, 1913, 1914, 1914, 1913, 1914, 1914, 1914, 1914, 1913, 1913, 1914, 1915, 1913, 1915, 1911, 1915, 1914, 1913, 1914, 1913, 1913, 1914, 1914, 1914, 1913, 1914, 1915, 1914, 1914, 1916, 1915, 1913, 1912, 1914, 1913, 1915, 1913, 1915, 1915, 1914, 1913, 1914, 1914, 1914, 1912, 1913, 1913, 1912, 1914, 1912, 1912, 1913, 1912, 1913, 1913, 1912, 1912, 1913, 1911, 1913, 1911, 1912, 1913, 1910, 1913, 1914, 1914, 1912, 1913, 1913, 1912, 1913, 1911, 1911, 1913, 1911, 1914, 1913, 1911, 1913, 1913, 1913, 1913, 1913, 1914, 1913, 1911, 1911, 1911, 1912, 1912, 1913, 1912, 1912, 1912, 1910, 1912, 1911, 1914, 1911, 1912, 1912, 1913, 1911, 1911, 1911, 1914, 1911, 1911, 1912, 1910, 1912, 1914, 1912, 1913, 1912, 1913, 1913, 1912, 1912, 1912, 1909, 1914, 1915, 1914, 1914, 1912, 1914, 1912, 1911, 1914, 1913, 1911, 1911, 1912, 1911, 1913, 1911, 1912, 1912, 1912, 1910, 1911, 1912, 1912, 1911, 1911, 1912, 1912, 1912, 1910, 1911, 1911, 1910, 1911, 1912, 1911, 1914, 1914, 1910, 1912, 1912, 1911, 1911, 1913, 1910, 1913, 1912],
      "WindowCenter": [972.0, 972.0, 972.0, 972.0, 972.0, 972.0, 972.0, 972.0, 972.0, 972.0, 972.0, 972.0, 972.0, 971.0, 972.0, 971.0, 971.0, 971.0, 971.0, 971.0, 972.0, 971.0, 972.0, 971.0, 972.0, 972.0, 970.0, 971.0, 972.0, 971.0, 972.0, 971.0, 972.0, 972.0, 971.0, 972.0, 972.0, 971.0, 972.0, 972.0, 972.0, 972.0, 971.0, 972.0, 971.0, 971.0, 971.0, 972.0, 970.0, 972.0, 972.0, 972.0, 972.0, 972.0, 971.0, 971.0, 972.0, 971.0, 971.0, 971.0, 971.0, 971.0, 971.0, 971.0, 971.0, 971.0, 971.0, 971.0, 971.0, 971.0, 971.0, 971.0, 971.0, 971.0, 971.0, 970.0, 970.0, 969.0, 970.0, 971.0, 970.0, 970.0, 970.0, 970.0, 971.0, 971.0, 971.0, 971.0, 969.0, 971.0, 971.0, 971.0, 970.0, 971.0, 971.0, 970.0, 970.0, 971.0, 970.0, 970.0, 971.0, 970.0, 970.0, 971.0, 971.0, 970.0, 971.0, 970.0, 970.0, 971.0, 970.0, 971.0, 971.0, 970.0, 971.0, 970.0, 970.0, 970.0, 971.0, 970.0, 971.0, 971.0, 970.0, 971.0, 970.0, 970.0, 971.0, 970.0, 971.0, 970.0, 970.0, 970.0, 971.0, 971.0, 971.0, 971.0, 971.0, 971.0, 971.0, 971.0, 971.0, 970.0, 970.0, 970.0, 970.0, 970.0, 970.0, 970.0, 970.0, 970.0, 970.0, 970.0, 970.0, 970.0, 970.0, 970.0, 970.0, 971.0, 970.0, 970.0, 970.0, 970.0, 970.0, 970.0, 970.0, 970.0, 970.0, 970.0, 970.0, 969.0, 969.0, 970.0, 969.0, 970.0, 970.0, 970.0, 969.0, 969.0, 970.0, 969.0, 969.0, 970.0, 970.0, 969.0, 970.0, 970.0, 970.0, 970.0, 970.0, 970.0, 971.0, 970.0, 969.0, 970.0, 970.0, 970.0, 970.0, 970.0, 970.0, 970.0],
      "WindowWidth": [2124.0, 2125.0, 2126.0, 2125.0, 2126.0, 2126.0, 2125.0, 2125.0, 2125.0, 2126.0, 2125.0, 2125.0, 2126.0, 2124.0, 2125.0, 2124.0, 2124.0, 2124.0, 2124.0, 2123.0, 2124.0, 2123.0, 2124.0, 2123.0, 2124.0, 2124.0, 2122.0, 2123.0, 2123.0, 2122.0, 2123.0, 2123.0, 2124.0, 2124.0, 2124.0, 2124.0, 2125.0, 2123.0, 2125.0, 2124.0, 2125.0, 2125.0, 2123.0, 2125.0, 2124.0, 2123.0, 2124.0, 2124.0, 2123.0, 2124.0, 2124.0, 2124.0, 2124.0, 2124.0, 2123.0, 2123.0, 2124.0, 2123.0, 2124.0, 2124.0, 2123.0, 2123.0, 2124.0, 2123.0, 2123.0, 2123.0, 2123.0, 2124.0, 2123.0, 2123.0, 2123.0, 2123.0, 2123.0, 2123.0, 2123.0, 2123.0, 2122.0, 2121.0, 2122.0, 2123.0, 2122.0, 2122.0, 2122.0, 2122.0, 2122.0, 2122.0, 2122.0, 2122.0, 2121.0, 2122.0, 2122.0, 2122.0, 2122.0, 2122.0, 2122.0, 2121.0, 2122.0, 2123.0, 2122.0, 2122.0, 2122.0, 2122.0, 2122.0, 2122.0, 2123.0, 2122.0, 2122.0, 2122.0, 2121.0, 2122.0, 2121.0, 2122.0, 2122.0, 2122.0, 2122.0, 2121.0, 2121.0, 2121.0, 2122.0, 2121.0, 2122.0, 2122.0, 2121.0, 2122.0, 2121.0, 2121.0, 2122.0, 2121.0, 2121.0, 2121.0, 2121.0, 2121.0, 2121.0, 2121.0, 2121.0, 2121.0, 2121.0, 2121.0, 2121.0, 2121.0, 2121.0, 2121.0, 2121.0, 2121.0, 2121.0, 2121.0, 2121.0, 2120.0, 2121.0, 2121.0, 2121.0, 2120.0, 2121.0, 2121.0, 2123.0, 2123.0, 2123.0, 2123.0, 2121.0, 2120.0, 2121.0, 2121.0, 2120.0, 2121.0, 2121.0, 2121.0, 2121.0, 2121.0, 2120.0, 2120.0, 2120.0, 2120.0, 2120.0, 2121.0, 2121.0, 2121.0, 2120.0, 2120.0, 2120.0, 2120.0, 2120.0, 2121.0, 2121.0, 2120.0, 2121.0, 2121.0, 2121.0, 2120.0, 2121.0, 2121.0, 2122.0, 2121.0, 2120.0, 2120.0, 2121.0, 2120.0, 2121.0, 2120.0, 2120.0, 2120.0]
    },
    "slices": {}
  }
}