{
  "AcquisitionMatrixPE": 80,
  "AcquisitionNumber": 1,
  "AcquisitionTime": "09:07:40.580000",
  "BandwidthPerPixelPhaseEncode": 48.077,
  "BaseResolution": 80,
  "BodyPartExamined": "BRAIN",
  "CoilCombinationMethod": "Sum of Squares",
  "ConsistencyInfo": "N4_VE11C_LATEST_20160120",
  "ConversionSoftware": "dcm2niix",
  "ConversionSoftwareVersion": "v1.0.20220720",
  "DerivedVendorReportedEchoSpacing": 0.000519999,
  "DeviceSerialNumber": "66112",
  "DwellTime": 2.7e-06,
  "EchoTime": 0.035,
  "EchoTrainLength": 39,
  "EffectiveEchoSpacing": 0.00026,
  "FlipAngle": 90,
  "HeudiconvVersion": "0.13.1",
  "ImageOrientationPatientDICOM": [0.98652, 0.163112, 0.0131827, -0.159075, 0.936955, 0.311143],
  "ImageOrientationText": "Tra>Cor(18.0)>Sag(-2.2)",
  "ImageType": [
    "ORIGINAL",
    "PRIMARY",
    "M",
    "ND",
    "NORM",
    "MOSAIC"
],
  "ImagingFrequency": 123.252,
  "InPlanePhaseEncodingDirectionDICOM": "COL",
  "InstitutionAddress": "Maynard 3,Hanover,NH,US,03755",
  "InstitutionName": "Dartmouth College - PBS",
  "InstitutionalDepartmentName": "Department",
  "MRAcquisitionType": "2D",
  "MagneticFieldStrength": 3,
  "Manufacturer": "Siemens",
  "ManufacturersModelName": "Prisma",
  "MatrixCoilMode": "GRAPPA",
  "Modality": "MR",
  "NonlinearGradientCorrection": false,
  "ParallelReductionFactorInPlane": 2,
  "PartialFourier": 1,
  "PatientPosition": "HFS",
  "PercentPhaseFOV": 100,
  "PercentSampling": 100,
  "PhaseEncodingDirection": "j-",
  "PhaseEncodingSteps": 79,
  "PhaseResolution": 1,
  "PixelBandwidth": 2315,
  "ProcedureStepDescription": "dbic^QA",
  "ProtocolName": "func-bold_task-rest_acq-p2",
  "PulseSequenceDetails": "%SiemensSeq%\\ep2d_bold",
  "ReceiveCoilActiveElements": "HEA;HEP",
  "ReceiveCoilName": "Head_32",
  "ReconMatrixPE": 80,
  "RefLinesPE": 24,
  "RepetitionTime": 2,
  "SAR": 0.0557094,
  "ScanOptions": "FS",
  "ScanningSequence": "EP",
  "SequenceName": "*epfid2d1_80",
  "SequenceVariant": "SK",
  "SeriesDescription": "func-bold_task-rest_acq-p2",
  "SeriesNumber": 5,
  "ShimSetting": [4147, -7696, -7518, 226, -66, -58, -9, 57],
  "SliceThickness": 3.5,
  "SliceTiming": [0.99, 0, 1.0575, 0.0675, 1.1225, 0.1325, 1.1875, 0.1975, 1.255, 0.265, 1.32, 0.33, 1.3875, 0.3975, 1.4525, 0.4625, 1.5175, 0.5275, 1.585, 0.595, 1.65, 0.66, 1.7175, 0.7275, 1.7825, 0.7925, 1.8475, 0.8575, 1.915, 0.925],
  "SoftwareVersions": "syngo MR E11",
  "SpacingBetweenSlices": 3.99,
  "StationName": "AWP66112",
  "TaskName": "rest",
  "TotalReadoutTime": 0.02054,
  "TxRefAmp": 222.733,
  "dcmmeta_affine": [
    [-2.9595584869384766, -0.47722381353378296, -0.15321409702301025, 141.62857055664062],
    [-0.4893355071544647, 2.810865879058838, 1.2330926656723022, -98.15937805175781],
    [0.03954809904098511, -0.9334293603897095, 3.791583776473999, -15.96252727508545],
    [0.0, 0.0, 0.0, 1.0]
],
  "dcmmeta_reorient_transform": [
    [0.0, -1.0, 0.0, 79.0],
    [1.0, 0.0, 0.0, 0.0],
    [0.0, 0.0, 1.0, 0.0],
    [0.0, 0.0, 0.0, 1.0]
],
  "dcmmeta_shape": [80, 80, 30, 200],
  "dcmmeta_slice_dim": 2,
  "dcmmeta_version": 0.6,
  "global": {
    "const": {
      "AccessionNumber": "qa",
      "AcquisitionMatrix": [80, 0, 0, 80],
      "AngioFlag": "N",
      "BitsAllocated": 16,
      "BitsStored": 12,
      "BodyPartExamined": "BRAIN",
      "Columns": 480,
      "EchoNumbers": 1,
      "EchoTime": 35.0,
      "EchoTrainLength": 39,
      "FlipAngle": 90.0,
      "HighBit": 11,
      "ImageOrientationPatient": [0.98651951163838, 0.1631118315442, 0.01318269953623, -0.1590746045946, 0.93695530021113, 0.31114311109092],
      "ImagePositionPatient": [-600.39482785299, -783.93930795496, -284.29893118573],
      "ImageType": [
        "ORIGINAL",
        "PRIMARY",
        "M",
        "ND",
        "NORM",
        "MOSAIC"
],
      "ImagedNucleus": "1H",
      "ImagingFrequency": 123.252364,
      "InPlanePhaseEncodingDirection": "COL",
      "MRAcquisitionType": "2D",
      "MagneticFieldStrength": 3.0,
      "Manufacturer": "SIEMENS",
      "ManufacturerModelName": "Prisma",
      "Modality": "MR",
      "NumberOfAverages": 1.0,
      "NumberOfPhaseEncodingSteps": 79,
      "PercentPhaseFieldOfView": 100.0,
      "PercentSampling": 100.0,
      "PerformedProcedureStepStartTime": "085834.745000",
      "PhotometricInterpretation": "MONOCHROME2",
      "PixelBandwidth": 2315.0,
      "PixelRepresentation": 0,
      "PixelSpacing": [3.0, 3.0],
      "ProtocolName": "func-bold_task-rest_acq-p2",
      "RepetitionTime": 2000.0,
      "Rows": 480,
      "SAR": 0.05570937668329,
      "SamplesPerPixel": 1,
      "ScanOptions": "FS",
      "ScanningSequence": "EP",
      "SequenceName": "*epfid2d1_80",
      "SequenceVariant": "SK",
      "SeriesDescription": "func-bold_task-rest_acq-p2",
      "SeriesNumber": 5,
      "SeriesTime": "090838.324000",
      "SliceLocation": -50.942947933771,
      "SliceThickness": 3.5,
      "SmallestImagePixelValue": 0,
      "SoftwareVersions": "syngo MR E11",
      "SpacingBetweenSlices": 3.9899999189572,
      "SpecificCharacterSet": "ISO_IR 100",
      "StudyID": "7",
      "StudyTime": "085834.694000",
      "TransmitCoilName": "Body",
      "VariableFlipAngleFlag": "N",
      "WindowCenterWidthExplanation": "Algo1",
      "dBdt": 0.0},
    "slices": {}
  },
  "time": {
    "samples": {
      "AcquisitionNumber": [1, 2, 3, 4, 5, 6, 7, 8, 9, 10, 11, 12, 13, 14, 15, 16, 17, 18, 19, 20, 21, 22, 23, 24, 25, 26, 27, 28, 29, 30, 31, 32, 33, 34, 35, 36, 37, 38, 39, 40, 41, 42, 43, 44, 45, 46, 47, 48, 49, 50, 51, 52, 53, 54, 55, 56, 57, 58, 59, 60, 61, 62, 63, 64, 65, 66, 67, 68, 69, 70, 71, 72, 73, 74, 75, 76, 77, 78, 79, 80, 81, 82, 83, 84, 85, 86, 87, 88, 89, 90, 91, 92, 93, 94, 95, 96, 97, 98, 99, 100, 101, 102, 103, 104, 105, 106, 107, 108, 109, 110, 111, 112, 113, 114, 115, 116, 117, 118, 119, 120, 121, 122, 123, 124, 125, 126, 127, 128, 129, 130, 131, 132, 133, 134, 135, 136, 137, 138, 139, 140, 141, 142, 143, 144, 145, 146, 147, 148, 149, 150, 151, 152, 153, 154, 155, 156, 157, 158, 159, 160, 161, 162, 163, 164, 165, 166, 167, 168, 169, 170, 171, 172, 173, 174, 175, 176, 177, 178, 179, 180, 181, 182, 183, 184, 185, 186, 187, 188, 189, 190, 191, 192, 193, 194, 195, 196, 197, 198, 199, 200],
      "AcquisitionTime": ["090740.580000", "090742.580000", "090744.580000", "090746.580000", "090748.580000", "090750.580000", "090752.580000", "090754.580000", "090756.580000", "090758.580000", "090800.580000", "090802.580000", "090804.580000", "090806.580000", "090808.580000", "090810.580000", "090812.580000", "090814.580000", "090816.580000", "090818.580000", "090820.580000", "090822.580000", "090824.580000", "090826.580000", "090828.580000", "090830.580000", "090832.580000", "090834.580000", "090836.580000", "090838.580000", "090840.580000", "090842.580000", "090844.580000", "090846.580000", "090848.580000", "090850.580000", "090852.580000", "090854.580000", "090856.580000", "090858.580000", "090900.580000", "090902.580000", "090904.580000", "090906.580000", "090908.580000", "090910.580000", "090912.580000", "090914.580000", "090916.580000", "090918.580000", "090920.580000", "090922.580000", "090924.580000", "090926.580000", "090928.580000", "090930.580000", "090932.580000", "090934.580000", "090936.580000", "090938.580000", "090940.580000", "090942.580000", "090944.580000", "090946.580000", "090948.580000", "090950.580000", "090952.580000", "090954.580000", "090956.580000", "090958.580000", "091000.580000", "091002.580000", "091004.580000", "091006.580000", "091008.580000", "091010.580000", "091012.580000", "091014.580000", "091016.580000", "091018.580000", "091020.580000", "091022.580000", "091024.580000", "091026.580000", "091028.580000", "091030.580000", "091032.580000", "091034.580000", "091036.580000", "091038.580000", "091040.580000", "091042.580000", "091044.580000", "091046.580000", "091048.580000", "091050.580000", "091052.580000", "091054.580000", "091056.580000", "091058.580000", "091100.580000", "091102.580000", "091104.580000", "091106.580000", "091108.580000", "091110.580000", "091112.580000", "091114.580000", "091116.580000", "091118.580000", "091120.580000", "091122.580000", "091124.580000", "091126.580000", "091128.580000", "091130.580000", "091132.580000", "091134.580000", "091136.580000", "091138.580000", "091140.580000", "091142.580000", "091144.580000", "091146.580000", "091148.580000", "091150.580000", "091152.580000", "091154.580000", "091156.580000", "091158.580000", "091200.580000", "091202.580000", "091204.580000", "091206.580000", "091208.580000", "091210.580000", "091212.580000", "091214.580000", "091216.580000", "091218.580000", "091220.580000", "091222.580000", "091224.580000", "091226.580000", "091228.580000", "091230.580000", "091232.580000", "091234.580000", "091236.580000", "091238.580000", "091240.580000", "091242.580000", "091244.580000", "091246.580000", "091248.580000", "091250.580000", "091252.580000", "091254.580000", "091256.580000", "091258.580000", "091300.580000", "091302.580000", "091304.580000", "091306.580000", "091308.580000", "091310.580000", "091312.580000", "091314.580000", "091316.580000", "091318.580000", "091320.580000", "091322.580000", "091324.580000", "091326.580000", "091328.580000", "091330.580000", "091332.580000", "091334.580000", "091336.580000", "091338.580000", "091340.580000", "091342.580000", "091344.580000", "091346.580000", "091348.580000", "091350.580000", "091352.580000", "091354.580000", "091356.580000", "091358.580000", "091400.580000", "091402.580000", "091404.580000", "091406.580000", "091408.580000", "091410.580000", "091412.580000", "091414.580000", "091416.580000", "091418.580000"],
      "ContentTime": ["090838.327000", "090838.331000", "090838.333000", "090838.336000", "090838.339000", "090838.341000", "090838.344000", "090838.346000", "090838.349000", "090838.352000", "090838.354000", "090838.357000", "090838.360000", "090838.362000", "090838.365000", "090838.367000", "090838.370000", "090838.373000", "090838.375000", "090838.378000", "090838.381000", "090838.383000", "090838.386000", "090838.388000", "090838.391000", "090838.394000", "090838.396000", "090838.399000", "090838.401000", "090918.323000", "090918.326000", "090918.329000", "090918.332000", "090918.335000", "090918.345000", "090918.348000", "090918.350000", "090918.353000", "090918.356000", "090918.358000", "090918.361000", "090918.364000", "090918.366000", "090918.369000", "090918.371000", "090918.374000", "090918.376000", "090918.379000", "090918.382000", "090958.323000", "090958.326000", "090958.329000", "090958.332000", "090958.334000", "090958.337000", "090958.340000", "090958.342000", "090958.345000", "090958.352000", "090958.355000", "090958.357000", "090958.360000", "090958.363000", "090958.365000", "090958.368000", "090958.370000", "090958.373000", "090958.376000", "090958.378000", "091038.323000", "091038.326000", "091038.329000", "091038.331000", "091038.334000", "091038.337000", "091038.339000", "091038.342000", "091038.345000", "091038.347000", "091038.350000", "091038.353000", "091038.355000", "091038.358000", "091038.361000", "091038.363000", "091038.366000", "091038.368000", "091038.371000", "091038.373000", "091118.323000", "091118.325000", "091118.328000", "091118.331000", "091118.333000", "091118.336000", "091118.338000", "091118.341000", "091118.344000", "091118.346000", "091118.349000", "091118.352000", "091118.354000", "091118.357000", "091118.360000", "091118.362000", "091118.365000", "091118.368000", "091118.370000", "091118.373000", "091158.323000", "091158.326000", "091158.329000", "091158.332000", "091158.338000", "091158.340000", "091158.343000", "091158.345000", "091158.348000", "091158.351000", "091158.353000", "091158.356000", "091158.359000", "091158.361000", "091158.364000", "091158.367000", "091158.369000", "091158.372000", "091158.375000", "091158.377000", "091238.324000", "091238.326000", "091238.329000", "091238.332000", "091238.334000", "091238.337000", "091238.340000", "091238.342000", "091238.345000", "091238.347000", "091238.350000", "091238.353000", "091238.355000", "091238.358000", "091238.361000", "091238.363000", "091238.366000", "091238.369000", "091238.371000", "091238.374000", "091318.323000", "091318.325000", "091318.328000", "091318.331000", "091318.333000", "091318.336000", "091318.338000", "091318.341000", "091318.344000", "091318.346000", "091318.349000", "091318.351000", "091318.354000", "091318.357000", "091318.359000", "091318.362000", "091318.365000", "091318.367000", "091318.370000", "091318.373000", "091358.323000", "091358.326000", "091358.329000", "091358.332000", "091358.335000", "091358.337000", "091358.340000", "091358.342000", "091358.345000", "091358.348000", "091358.350000", "091358.353000", "091358.356000", "091358.358000", "091358.361000", "091358.363000", "091358.366000", "091358.369000", "091358.371000", "091358.374000", "091420.297000", "091420.300000", "091420.302000", "091420.305000", "091420.308000", "091420.311000", "091420.313000", "091420.316000", "091420.319000", "091420.321000", "091420.324000"],
      "InstanceCreationTime": ["090838.327000", "090838.331000", "090838.333000", "090838.336000", "090838.339000", "090838.341000", "090838.344000", "090838.346000", "090838.349000", "090838.352000", "090838.354000", "090838.357000", "090838.360000", "090838.362000", "090838.365000", "090838.367000", "090838.370000", "090838.373000", "090838.375000", "090838.378000", "090838.381000", "090838.383000", "090838.386000", "090838.388000", "090838.391000", "090838.394000", "090838.396000", "090838.399000", "090838.401000", "090918.323000", "090918.326000", "090918.329000", "090918.332000", "090918.335000", "090918.345000", "090918.348000", "090918.350000", "090918.353000", "090918.356000", "090918.358000", "090918.361000", "090918.364000", "090918.366000", "090918.369000", "090918.371000", "090918.374000", "090918.376000", "090918.379000", "090918.382000", "090958.323000", "090958.326000", "090958.329000", "090958.332000", "090958.334000", "090958.337000", "090958.340000", "090958.342000", "090958.345000", "090958.352000", "090958.355000", "090958.357000", "090958.360000", "090958.363000", "090958.365000", "090958.368000", "090958.370000", "090958.373000", "090958.376000", "090958.378000", "091038.323000", "091038.326000", "091038.329000", "091038.331000", "091038.334000", "091038.337000", "091038.339000", "091038.342000", "091038.345000", "091038.347000", "091038.350000", "091038.353000", "091038.355000", "091038.358000", "091038.361000", "091038.363000", "091038.366000", "091038.368000", "091038.371000", "091038.373000", "091118.323000", "091118.325000", "091118.328000", "091118.331000", "091118.333000", "091118.336000", "091118.338000", "091118.341000", "091118.344000", "091118.346000", "091118.349000", "091118.352000", "091118.354000", "091118.357000", "091118.360000", "091118.362000", "091118.365000", "091118.368000", "091118.370000", "091118.373000", "091158.323000", "091158.326000", "091158.329000", "091158.332000", "091158.338000", "091158.340000", "091158.343000", "091158.345000", "091158.348000", "091158.351000", "091158.353000", "091158.356000", "091158.359000", "091158.361000", "091158.364000", "091158.367000", "091158.369000", "091158.372000", "091158.375000", "091158.377000", "091238.324000", "091238.326000", "091238.329000", "091238.332000", "091238.334000", "091238.337000", "091238.340000", "091238.342000", "091238.345000", "091238.347000", "091238.350000", "091238.353000", "091238.355000", "091238.358000", "091238.361000", "091238.363000", "091238.366000", "091238.369000", "091238.371000", "091238.374000", "091318.323000", "091318.325000", "091318.328000", "091318.331000", "091318.333000", "091318.336000", "091318.338000", "091318.341000", "091318.344000", "091318.346000", "091318.349000", "091318.351000", "091318.354000", "091318.357000", "091318.359000", "091318.362000", "091318.365000", "091318.367000", "091318.370000", "091318.373000", "091358.323000", "091358.326000", "091358.329000", "091358.332000", "091358.335000", "091358.337000", "091358.340000", "091358.342000", "091358.345000", "091358.348000", "091358.350000", "091358.353000", "091358.356000", "091358.358000", "091358.361000", "091358.363000", "091358.366000", "091358.369000", "091358.371000", "091358.374000", "091420.297000", "091420.300000", "091420.302000", "091420.305000", "091420.308000", "091420.311000", "091420.313000", "091420.316000", "091420.319000", "091420.321000", "091420.324000"],
      "InstanceNumber": [1, 2, 3, 4, 5, 6, 7, 8, 9, 10, 11, 12, 13, 14, 15, 16, 17, 18, 19, 20, 21, 22, 23, 24, 25, 26, 27, 28, 29, 30, 31, 32, 33, 34, 35, 36, 37, 38, 39, 40, 41, 42, 43, 44, 45, 46, 47, 48, 49, 50, 51, 52, 53, 54, 55, 56, 57, 58, 59, 60, 61, 62, 63, 64, 65, 66, 67, 68, 69, 70, 71, 72, 73, 74, 75, 76, 77, 78, 79, 80, 81, 82, 83, 84, 85, 86, 87, 88, 89, 90, 91, 92, 93, 94, 95, 96, 97, 98, 99, 100, 101, 102, 103, 104, 105, 106, 107, 108, 109, 110, 111, 112, 113, 114, 115, 116, 117, 118, 119, 120, 121, 122, 123, 124, 125, 126, 127, 128, 129, 130, 131, 132, 133, 134, 135, 136, 137, 138, 139, 140, 141, 142, 143, 144, 145, 146, 147, 148, 149, 150, 151, 152, 153, 154, 155, 156, 157, 158, 159, 160, 161, 162, 163, 164, 165, 166, 167, 168, 169, 170, 171, 172, 173, 174, 175, 176, 177, 178, 179, 180, 181, 182, 183, 184, 185, 186, 187, 188, 189, 190, 191, 192, 193, 194, 195, 196, 197, 198, 199, 200],
      "LargestImagePixelValue": [1977, 1990, 1983, 1973, 1978, 1974, 1981, 1980, 1977, 1977, 1976, 1967, 1978, 1974, 1977, 1981, 1982, 1973, 1974, 1976, 1980, 1980, 1972, 1977, 1978, 1974, 1975, 1973, 1977, 1973, 1967, 1972, 1976, 1983, 1982, 1974, 1983, 1971, 1968, 1967, 1976, 1978, 1981, 1975, 1978, 1971, 1970, 1980, 1983, 1973, 1979, 1976, 1982, 1981, 1980, 1973, 1976, 1979, 1980, 1972, 1983, 1974, 1972, 1983, 1973, 1982, 1975, 1979, 1977, 1971, 1976, 1978, 1975, 1980, 1969, 1968, 1979, 1974, 1976, 1972, 1978, 1982, 1965, 1972, 1976, 1970, 1968, 1972, 1969, 1972, 1972, 1976, 1966, 1973, 1974, 1975, 1976, 1971, 1973, 1980, 1982, 1980, 1973, 1970, 1972, 1976, 1974, 1968, 1971, 1972, 1971, 1964, 1972, 1976, 1971, 1971, 1976, 1971, 1978, 1977, 1978, 1978, 1976, 1971, 1981, 1977, 1970, 1969, 1977, 1979, 1969, 1970, 1973, 1967, 1975, 1971, 1977, 1978, 1973, 1976, 1969, 1977, 1973, 1970, 1973, 1980, 1968, 1972, 1976, 1978, 1973, 1977, 1970, 1980, 1973, 1978, 1974, 1973, 1970, 1977, 1975, 1975, 1976, 1978, 1970, 1976, 1976, 1965, 1981, 1969, 1978, 1967, 1970, 1969, 1976, 1970, 1969, 1973, 1974, 1973, 1978, 1973, 1971, 1971, 1979, 1976, 1976, 1981, 1967, 1979, 1975, 1966, 1976, 1968, 1971, 1969, 1975, 1977, 1973, 1974],
      "WindowCenter": [986.0, 986.0, 985.0, 985.0, 985.0, 984.0, 985.0, 985.0, 984.0, 985.0, 985.0, 985.0, 984.0, 985.0, 986.0, 984.0, 984.0, 985.0, 985.0, 985.0, 984.0, 984.0, 986.0, 985.0, 984.0, 985.0, 984.0, 985.0, 986.0, 984.0, 985.0, 984.0, 985.0, 984.0, 984.0, 984.0, 984.0, 984.0, 985.0, 984.0, 985.0, 984.0, 984.0, 985.0, 984.0, 984.0, 984.0, 984.0, 986.0, 986.0, 984.0, 984.0, 984.0, 984.0, 984.0, 984.0, 984.0, 985.0, 985.0, 984.0, 984.0, 984.0, 985.0, 984.0, 984.0, 985.0, 985.0, 984.0, 984.0, 985.0, 984.0, 985.0, 984.0, 984.0, 984.0, 984.0, 983.0, 984.0, 983.0, 984.0, 984.0, 984.0, 983.0, 983.0, 983.0, 983.0, 985.0, 983.0, 983.0, 984.0, 983.0, 983.0, 983.0, 983.0, 985.0, 984.0, 986.0, 984.0, 984.0, 984.0, 985.0, 984.0, 984.0, 984.0, 984.0, 984.0, 984.0, 984.0, 984.0, 984.0, 984.0, 984.0, 985.0, 984.0, 984.0, 984.0, 984.0, 985.0, 984.0, 984.0, 984.0, 984.0, 983.0, 984.0, 984.0, 984.0, 984.0, 984.0, 984.0, 984.0, 984.0, 984.0, 984.0, 984.0, 984.0, 984.0, 984.0, 985.0, 984.0, 985.0, 984.0, 984.0, 983.0, 984.0, 984.0, 984.0, 983.0, 983.0, 984.0, 984.0, 984.0, 984.0, 983.0, 983.0, 983.0, 984.0, 983.0, 984.0, 983.0, 983.0, 984.0, 984.0, 984.0, 983.0, 984.0, 985.0, 983.0, 983.0, 983.0, 983.0, 985.0, 983.0, 984.0, 983.0, 983.0, 983.0, 984.0, 984.0, 983.0, 984.0, 984.0, 984.0, 984.0, 983.0, 984.0, 983.0, 984.0, 983.0, 984.0, 983.0, 984.0, 984.0, 983.0, 983.0, 983.0, 985.0, 983.0, 984.0, 983.0, 983.0],
      "WindowWidth": [2159.0, 2159.0, 2158.0, 2157.0, 2158.0, 2157.0, 2157.0, 2157.0, 2157.0, 2158.0, 2157.0, 2158.0, 2157.0, 2158.0, 2159.0, 2157.0, 2157.0, 2158.0, 2157.0, 2158.0, 2157.0, 2158.0, 2158.0, 2158.0, 2157.0, 2158.0, 2157.0, 2158.0, 2158.0, 2156.0, 2158.0, 2157.0, 2157.0, 2157.0, 2157.0, 2156.0, 2156.0, 2156.0, 2157.0, 2156.0, 2158.0, 2157.0, 2156.0, 2157.0, 2156.0, 2156.0, 2156.0, 2156.0, 2158.0, 2158.0, 2157.0, 2157.0, 2156.0, 2155.0, 2155.0, 2156.0, 2156.0, 2157.0, 2156.0, 2156.0, 2156.0, 2156.0, 2157.0, 2156.0, 2156.0, 2156.0, 2157.0, 2156.0, 2156.0, 2157.0, 2156.0, 2156.0, 2156.0, 2155.0, 2156.0, 2156.0, 2155.0, 2155.0, 2155.0, 2155.0, 2155.0, 2155.0, 2154.0, 2155.0, 2154.0, 2155.0, 2155.0, 2155.0, 2154.0, 2155.0, 2155.0, 2154.0, 2155.0, 2154.0, 2157.0, 2156.0, 2158.0, 2156.0, 2156.0, 2156.0, 2157.0, 2156.0, 2156.0, 2156.0, 2156.0, 2156.0, 2156.0, 2156.0, 2156.0, 2156.0, 2156.0, 2155.0, 2157.0, 2155.0, 2155.0, 2156.0, 2155.0, 2157.0, 2156.0, 2156.0, 2156.0, 2156.0, 2156.0, 2156.0, 2156.0, 2156.0, 2156.0, 2155.0, 2155.0, 2156.0, 2155.0, 2156.0, 2156.0, 2156.0, 2156.0, 2156.0, 2156.0, 2157.0, 2156.0, 2156.0, 2156.0, 2155.0, 2155.0, 2156.0, 2156.0, 2155.0, 2155.0, 2155.0, 2155.0, 2155.0, 2156.0, 2155.0, 2154.0, 2155.0, 2155.0, 2155.0, 2155.0, 2155.0, 2154.0, 2154.0, 2155.0, 2155.0, 2156.0, 2155.0, 2156.0, 2156.0, 2155.0, 2155.0, 2155.0, 2155.0, 2156.0, 2155.0, 2156.0, 2155.0, 2155.0, 2155.0, 2155.0, 2155.0, 2155.0, 2155.0, 2156.0, 2155.0, 2156.0, 2155.0, 2155.0, 2155.0, 2155.0, 2155.0, 2155.0, 2155.0, 2156.0, 2155.0, 2155.0, 2155.0, 2154.0, 2156.0, 2154.0, 2155.0, 2154.0, 2154.0]
    },
    "slices": {}
  }
}