{
  "AcquisitionMatrixPE": 80,
  "AcquisitionNumber": 1,
  "AcquisitionTime": "10:23:2.490000",
  "BandwidthPerPixelPhaseEncode": 25,
  "BaseResolution": 80,
  "BodyPartExamined": "BRAIN",
  "CoilCombinationMethod": "Sum of Squares",
  "ConsistencyInfo": "N4_VE11C_LATEST_20160120",
  "ConversionSoftware": "dcm2niix",
  "ConversionSoftwareVersion": "v1.0.20220720",
  "DerivedVendorReportedEchoSpacing": 0.0005,
  "DeviceSerialNumber": "66112",
  "DwellTime": 2.7e-06,
  "EchoTime": 0.03,
  "EchoTrainLength": 80,
  "EffectiveEchoSpacing": 0.0005,
  "FlipAngle": 10,
  "HeudiconvVersion": "0.13.1",
  "ImageOrientationPatientDICOM": [0.984933, 0.172582, 0.0110622, -0.167827, 0.938441, 0.301933],
  "ImageOrientationText": "Tra>Cor(17.4)>Sag(-2.4)",
  "ImageType": [
    "ORIGINAL",
    "PRIMARY",
    "M",
    "ND",
    "NORM",
    "MOSAIC"
],
  "ImagingFrequency": 123.252,
  "InPlanePhaseEncodingDirectionDICOM": "COL",
  "InstitutionAddress": "Maynard 3,Hanover,NH,US,03755",
  "InstitutionName": "Dartmouth College - PBS",
  "InstitutionalDepartmentName": "Department",
  "MRAcquisitionType": "2D",
  "MagneticFieldStrength": 3,
  "Manufacturer": "Siemens",
  "ManufacturersModelName": "Prisma",
  "MatrixCoilMode": "SENSE",
  "Modality": "MR",
  "NonlinearGradientCorrection": false,
  "PartialFourier": 1,
  "PatientPosition": "HFS",
  "PercentPhaseFOV": 100,
  "PercentSampling": 100,
  "PhaseEncodingDirection": "j-",
  "PhaseEncodingSteps": 80,
  "PhaseResolution": 1,
  "PixelBandwidth": 2315,
  "ProcedureStepDescription": "dbic^QA",
  "ProtocolName": "func-bold_fa-10",
  "PulseSequenceDetails": "%SiemensSeq%\\ep2d_bold",
  "ReceiveCoilActiveElements": "HEA;HEP",
  "ReceiveCoilName": "Head_32",
  "ReconMatrixPE": 80,
  "RepetitionTime": 2,
  "SAR": 0.011756,
  "ScanOptions": "FS",
  "ScanningSequence": "EP",
  "SequenceName": "*epfid2d1_80",
  "SequenceVariant": "SK",
  "SeriesDescription": "func-bold_fa-10",
  "SeriesNumber": 10,
  "ShimSetting": [4144, -7687, -7519, 237, -57, -84, -30, 61],
  "SliceThickness": 3.5,
  "SliceTiming": [0.99, 0, 1.055, 0.065, 1.12, 0.13, 1.1875, 0.1975, 1.2525, 0.2625, 1.3175, 0.33, 1.385, 0.395, 1.45, 0.46, 1.5175, 0.5275, 1.5825, 0.5925, 1.6475, 0.66, 1.715, 0.725, 1.78, 0.79, 1.8475, 0.8575, 1.9125, 0.9225],
  "SoftwareVersions": "syngo MR E11",
  "SpacingBetweenSlices": 3.99,
  "StationName": "AWP66112",
  "TotalReadoutTime": 0.0395,
  "TxRefAmp": 227.709,
  "dcmmeta_affine": [
    [-2.954798936843872, -0.5034807920455933, -0.16649101674556732, 142.80514526367188],
    [-0.5177469253540039, 2.815321445465088, 1.1939688920974731, -94.34156799316406],
    [0.03318662941455841, -0.9057990312576294, 3.8035271167755127, -15.45687198638916],
    [0.0, 0.0, 0.0, 1.0]
],
  "dcmmeta_reorient_transform": [
    [0.0, -1.0, 0.0, 79.0],
    [1.0, 0.0, 0.0, 0.0],
    [0.0, 0.0, 1.0, 0.0],
    [0.0, 0.0, 0.0, 1.0]
],
  "dcmmeta_shape": [80, 80, 30, 200],
  "dcmmeta_slice_dim": 2,
  "dcmmeta_version": 0.6,
  "global": {
    "const": {
      "AccessionNumber": "qa",
      "AcquisitionMatrix": [80, 0, 0, 80],
      "AngioFlag": "N",
      "BitsAllocated": 16,
      "BitsStored": 12,
      "BodyPartExamined": "BRAIN",
      "Columns": 480,
      "EchoNumbers": 1,
      "EchoTime": 30.0,
      "EchoTrainLength": 80,
      "FlipAngle": 10.0,
      "HighBit": 11,
      "ImageOrientationPatient": [0.98493298015622, 0.17258230530207, 0.01106221032253, -0.1678269233599, 0.93844050193595, 0.30193301926378],
      "ImagePositionPatient": [-593.29379886635, -794.68251162351, -274.81213552309],
      "ImageType": [
        "ORIGINAL",
        "PRIMARY",
        "M",
        "ND",
        "NORM",
        "MOSAIC"
],
      "ImagedNucleus": "1H",
      "ImagingFrequency": 123.25237,
      "InPlanePhaseEncodingDirection": "COL",
      "MRAcquisitionType": "2D",
      "MagneticFieldStrength": 3.0,
      "Manufacturer": "SIEMENS",
      "ManufacturerModelName": "Prisma",
      "Modality": "MR",
      "NumberOfAverages": 1.0,
      "NumberOfPhaseEncodingSteps": 80,
      "PercentPhaseFieldOfView": 100.0,
      "PercentSampling": 100.0,
      "PerformedProcedureStepStartTime": "100018.260000",
      "PhotometricInterpretation": "MONOCHROME2",
      "PixelBandwidth": 2315.0,
      "PixelRepresentation": 0,
      "PixelSpacing": [3.0, 3.0],
      "ProtocolName": "func-bold_fa-10",
      "RepetitionTime": 2000.0,
      "Rows": 480,
      "SAR": 0.01175601694318,
      "SamplesPerPixel": 1,
      "ScanOptions": "FS",
      "ScanningSequence": "EP",
      "SequenceName": "*epfid2d1_80",
      "SequenceVariant": "SK",
      "SeriesDescription": "func-bold_fa-10",
      "SeriesNumber": 10,
      "SeriesTime": "102400.356000",
      "SliceLocation": -48.924137567421,
      "SliceThickness": 3.5,
      "SmallestImagePixelValue": 0,
      "SoftwareVersions": "syngo MR E11",
      "SpacingBetweenSlices": 3.9900000013859,
      "SpecificCharacterSet": "ISO_IR 100",
      "StudyID": "2",
      "StudyTime": "100018.218000",
      "TransmitCoilName": "Body",
      "VariableFlipAngleFlag": "N",
      "WindowCenterWidthExplanation": "Algo1",
      "dBdt": 0.0},
    "slices": {}
  },
  "time": {
    "samples": {
      "AcquisitionNumber": [1, 2, 3, 4, 5, 6, 7, 8, 9, 10, 11, 12, 13, 14, 15, 16, 17, 18, 19, 20, 21, 22, 23, 24, 25, 26, 27, 28, 29, 30, 31, 32, 33, 34, 35, 36, 37, 38, 39, 40, 41, 42, 43, 44, 45, 46, 47, 48, 49, 50, 51, 52, 53, 54, 55, 56, 57, 58, 59, 60, 61, 62, 63, 64, 65, 66, 67, 68, 69, 70, 71, 72, 73, 74, 75, 76, 77, 78, 79, 80, 81, 82, 83, 84, 85, 86, 87, 88, 89, 90, 91, 92, 93, 94, 95, 96, 97, 98, 99, 100, 101, 102, 103, 104, 105, 106, 107, 108, 109, 110, 111, 112, 113, 114, 115, 116, 117, 118, 119, 120, 121, 122, 123, 124, 125, 126, 127, 128, 129, 130, 131, 132, 133, 134, 135, 136, 137, 138, 139, 140, 141, 142, 143, 144, 145, 146, 147, 148, 149, 150, 151, 152, 153, 154, 155, 156, 157, 158, 159, 160, 161, 162, 163, 164, 165, 166, 167, 168, 169, 170, 171, 172, 173, 174, 175, 176, 177, 178, 179, 180, 181, 182, 183, 184, 185, 186, 187, 188, 189, 190, 191, 192, 193, 194, 195, 196, 197, 198, 199, 200],
      "AcquisitionTime": ["102302.490000", "102304.490000", "102306.490000", "102308.490000", "102310.490000", "102312.490000", "102314.490000", "102316.490000", "102318.490000", "102320.490000", "102322.490000", "102324.490000", "102326.490000", "102328.490000", "102330.490000", "102332.490000", "102334.490000", "102336.490000", "102338.490000", "102340.490000", "102342.490000", "102344.490000", "102346.490000", "102348.490000", "102350.490000", "102352.490000", "102354.490000", "102356.490000", "102358.490000", "102400.490000", "102402.490000", "102404.490000", "102406.490000", "102408.490000", "102410.490000", "102412.490000", "102414.490000", "102416.490000", "102418.490000", "102420.490000", "102422.490000", "102424.490000", "102426.490000", "102428.490000", "102430.490000", "102432.490000", "102434.490000", "102436.490000", "102438.490000", "102440.490000", "102442.490000", "102444.490000", "102446.490000", "102448.490000", "102450.490000", "102452.490000", "102454.490000", "102456.490000", "102458.490000", "102500.490000", "102502.490000", "102504.490000", "102506.490000", "102508.490000", "102510.490000", "102512.490000", "102514.490000", "102516.490000", "102518.490000", "102520.490000", "102522.490000", "102524.490000", "102526.490000", "102528.490000", "102530.490000", "102532.490000", "102534.490000", "102536.490000", "102538.490000", "102540.490000", "102542.490000", "102544.490000", "102546.490000", "102548.490000", "102550.490000", "102552.490000", "102554.490000", "102556.490000", "102558.490000", "102600.490000", "102602.490000", "102604.490000", "102606.490000", "102608.490000", "102610.490000", "102612.490000", "102614.490000", "102616.490000", "102618.490000", "102620.490000", "102622.490000", "102624.490000", "102626.490000", "102628.490000", "102630.490000", "102632.490000", "102634.490000", "102636.490000", "102638.490000", "102640.490000", "102642.490000", "102644.490000", "102646.490000", "102648.490000", "102650.490000", "102652.490000", "102654.490000", "102656.490000", "102658.490000", "102700.490000", "102702.490000", "102704.490000", "102706.490000", "102708.490000", "102710.490000", "102712.490000", "102714.490000", "102716.490000", "102718.490000", "102720.490000", "102722.490000", "102724.490000", "102726.490000", "102728.490000", "102730.490000", "102732.490000", "102734.490000", "102736.490000", "102738.490000", "102740.490000", "102742.490000", "102744.490000", "102746.490000", "102748.490000", "102750.490000", "102752.490000", "102754.490000", "102756.490000", "102758.490000", "102800.490000", "102802.490000", "102804.490000", "102806.490000", "102808.490000", "102810.490000", "102812.490000", "102814.490000", "102816.490000", "102818.490000", "102820.490000", "102822.490000", "102824.490000", "102826.490000", "102828.490000", "102830.490000", "102832.490000", "102834.490000", "102836.490000", "102838.490000", "102840.490000", "102842.490000", "102844.490000", "102846.490000", "102848.490000", "102850.490000", "102852.490000", "102854.490000", "102856.490000", "102858.490000", "102900.490000", "102902.490000", "102904.490000", "102906.490000", "102908.490000", "102910.490000", "102912.490000", "102914.490000", "102916.490000", "102918.490000", "102920.490000", "102922.490000", "102924.490000", "102926.490000", "102928.490000", "102930.490000", "102932.490000", "102934.490000", "102936.490000", "102938.490000", "102940.490000"],
      "ContentTime": ["102400.359000", "102400.363000", "102400.365000", "102400.368000", "102400.370000", "102400.373000", "102400.375000", "102400.378000", "102400.380000", "102400.383000", "102400.386000", "102400.388000", "102400.391000", "102400.393000", "102400.396000", "102400.398000", "102400.401000", "102400.403000", "102400.406000", "102400.408000", "102400.411000", "102400.413000", "102400.416000", "102400.418000", "102400.421000", "102400.423000", "102400.426000", "102400.428000", "102400.436000", "102440.353000", "102440.356000", "102440.359000", "102440.361000", "102440.364000", "102440.366000", "102440.369000", "102440.372000", "102440.375000", "102440.377000", "102440.380000", "102440.382000", "102440.385000", "102440.387000", "102440.390000", "102440.392000", "102440.394000", "102440.397000", "102440.399000", "102440.402000", "102520.353000", "102520.356000", "102520.359000", "102520.361000", "102520.364000", "102520.366000", "102520.369000", "102520.371000", "102520.373000", "102520.376000", "102520.378000", "102520.381000", "102520.384000", "102520.386000", "102520.388000", "102520.391000", "102520.393000", "102520.396000", "102520.398000", "102520.401000", "102600.353000", "102600.356000", "102600.359000", "102600.361000", "102600.364000", "102600.366000", "102600.369000", "102600.371000", "102600.374000", "102600.376000", "102600.378000", "102600.381000", "102600.383000", "102600.386000", "102600.388000", "102600.391000", "102600.393000", "102600.396000", "102600.398000", "102600.401000", "102640.354000", "102640.357000", "102640.360000", "102640.362000", "102640.365000", "102640.367000", "102640.370000", "102640.372000", "102640.375000", "102640.377000", "102640.380000", "102640.382000", "102640.385000", "102640.387000", "102640.390000", "102640.392000", "102640.395000", "102640.397000", "102640.399000", "102640.402000", "102720.353000", "102720.356000", "102720.359000", "102720.361000", "102720.364000", "102720.366000", "102720.369000", "102720.371000", "102720.374000", "102720.376000", "102720.379000", "102720.381000", "102720.384000", "102720.386000", "102720.389000", "102720.391000", "102720.394000", "102720.396000", "102720.399000", "102720.401000", "102800.353000", "102800.356000", "102800.359000", "102800.361000", "102800.363000", "102800.366000", "102800.369000", "102800.371000", "102800.374000", "102800.376000", "102800.379000", "102800.381000", "102800.383000", "102800.386000", "102800.388000", "102800.391000", "102800.393000", "102800.396000", "102800.398000", "102800.401000", "102840.354000", "102840.357000", "102840.360000", "102840.362000", "102840.365000", "102840.367000", "102840.370000", "102840.372000", "102840.375000", "102840.377000", "102840.380000", "102840.382000", "102840.395000", "102840.397000", "102840.400000", "102840.402000", "102840.405000", "102840.407000", "102840.410000", "102840.412000", "102920.353000", "102920.356000", "102920.359000", "102920.361000", "102920.364000", "102920.366000", "102920.369000", "102920.371000", "102920.374000", "102920.376000", "102920.379000", "102920.381000", "102920.384000", "102920.386000", "102920.389000", "102920.391000", "102920.394000", "102920.396000", "102920.399000", "102920.401000", "102942.180000", "102942.183000", "102942.185000", "102942.188000", "102942.190000", "102942.193000", "102942.195000", "102942.198000", "102942.200000", "102942.203000", "102942.205000"],
      "InstanceCreationTime": ["102400.359000", "102400.363000", "102400.365000", "102400.368000", "102400.370000", "102400.373000", "102400.375000", "102400.378000", "102400.380000", "102400.383000", "102400.386000", "102400.388000", "102400.391000", "102400.393000", "102400.396000", "102400.398000", "102400.401000", "102400.403000", "102400.406000", "102400.408000", "102400.411000", "102400.413000", "102400.416000", "102400.418000", "102400.421000", "102400.423000", "102400.426000", "102400.428000", "102400.436000", "102440.353000", "102440.356000", "102440.359000", "102440.361000", "102440.364000", "102440.366000", "102440.369000", "102440.372000", "102440.375000", "102440.377000", "102440.380000", "102440.382000", "102440.385000", "102440.387000", "102440.390000", "102440.392000", "102440.394000", "102440.397000", "102440.399000", "102440.402000", "102520.353000", "102520.356000", "102520.359000", "102520.361000", "102520.364000", "102520.366000", "102520.369000", "102520.371000", "102520.373000", "102520.376000", "102520.378000", "102520.381000", "102520.384000", "102520.386000", "102520.388000", "102520.391000", "102520.393000", "102520.396000", "102520.398000", "102520.401000", "102600.353000", "102600.356000", "102600.359000", "102600.361000", "102600.364000", "102600.366000", "102600.369000", "102600.371000", "102600.374000", "102600.376000", "102600.378000", "102600.381000", "102600.383000", "102600.386000", "102600.388000", "102600.391000", "102600.393000", "102600.396000", "102600.398000", "102600.401000", "102640.354000", "102640.357000", "102640.360000", "102640.362000", "102640.365000", "102640.367000", "102640.370000", "102640.372000", "102640.375000", "102640.377000", "102640.380000", "102640.382000", "102640.385000", "102640.387000", "102640.390000", "102640.392000", "102640.395000", "102640.397000", "102640.399000", "102640.402000", "102720.353000", "102720.356000", "102720.359000", "102720.361000", "102720.364000", "102720.366000", "102720.369000", "102720.371000", "102720.374000", "102720.376000", "102720.379000", "102720.381000", "102720.384000", "102720.386000", "102720.389000", "102720.391000", "102720.394000", "102720.396000", "102720.399000", "102720.401000", "102800.353000", "102800.356000", "102800.359000", "102800.361000", "102800.363000", "102800.366000", "102800.369000", "102800.371000", "102800.374000", "102800.376000", "102800.379000", "102800.381000", "102800.383000", "102800.386000", "102800.388000", "102800.391000", "102800.393000", "102800.396000", "102800.398000", "102800.401000", "102840.354000", "102840.357000", "102840.360000", "102840.362000", "102840.365000", "102840.367000", "102840.370000", "102840.372000", "102840.375000", "102840.377000", "102840.380000", "102840.382000", "102840.395000", "102840.397000", "102840.400000", "102840.402000", "102840.405000", "102840.407000", "102840.410000", "102840.412000", "102920.353000", "102920.356000", "102920.359000", "102920.361000", "102920.364000", "102920.366000", "102920.369000", "102920.371000", "102920.374000", "102920.376000", "102920.379000", "102920.381000", "102920.384000", "102920.386000", "102920.389000", "102920.391000", "102920.394000", "102920.396000", "102920.399000", "102920.401000", "102942.180000", "102942.183000", "102942.185000", "102942.188000", "102942.190000", "102942.193000", "102942.195000", "102942.198000", "102942.200000", "102942.203000", "102942.205000"],
      "InstanceNumber": [1, 2, 3, 4, 5, 6, 7, 8, 9, 10, 11, 12, 13, 14, 15, 16, 17, 18, 19, 20, 21, 22, 23, 24, 25, 26, 27, 28, 29, 30, 31, 32, 33, 34, 35, 36, 37, 38, 39, 40, 41, 42, 43, 44, 45, 46, 47, 48, 49, 50, 51, 52, 53, 54, 55, 56, 57, 58, 59, 60, 61, 62, 63, 64, 65, 66, 67, 68, 69, 70, 71, 72, 73, 74, 75, 76, 77, 78, 79, 80, 81, 82, 83, 84, 85, 86, 87, 88, 89, 90, 91, 92, 93, 94, 95, 96, 97, 98, 99, 100, 101, 102, 103, 104, 105, 106, 107, 108, 109, 110, 111, 112, 113, 114, 115, 116, 117, 118, 119, 120, 121, 122, 123, 124, 125, 126, 127, 128, 129, 130, 131, 132, 133, 134, 135, 136, 137, 138, 139, 140, 141, 142, 143, 144, 145, 146, 147, 148, 149, 150, 151, 152, 153, 154, 155, 156, 157, 158, 159, 160, 161, 162, 163, 164, 165, 166, 167, 168, 169, 170, 171, 172, 173, 174, 175, 176, 177, 178, 179, 180, 181, 182, 183, 184, 185, 186, 187, 188, 189, 190, 191, 192, 193, 194, 195, 196, 197, 198, 199, 200],
      "LargestImagePixelValue": [332, 334, 333, 331, 336, 335, 336, 334, 330, 331, 334, 335, 331, 333, 334, 330, 335, 334, 335, 334, 331, 334, 333, 333, 330, 334, 334, 336, 332, 332, 332, 333, 336, 333, 333, 335, 336, 331, 333, 332, 333, 331, 336, 334, 335, 334, 335, 333, 335, 336, 336, 337, 335, 334, 335, 332, 335, 334, 339, 332, 332, 333, 332, 333, 331, 333, 332, 331, 336, 334, 334, 335, 335, 332, 332, 332, 333, 332, 333, 332, 333, 336, 333, 331, 332, 332, 334, 335, 333, 333, 332, 337, 330, 335, 332, 333, 338, 336, 336, 336, 338, 333, 332, 333, 333, 336, 335, 337, 333, 333, 335, 335, 333, 333, 332, 335, 335, 336, 334, 337, 335, 335, 332, 337, 332, 332, 337, 334, 335, 335, 332, 332, 331, 335, 334, 333, 332, 334, 332, 335, 337, 331, 334, 332, 332, 335, 332, 331, 333, 332, 333, 335, 332, 332, 334, 333, 334, 332, 333, 333, 330, 331, 334, 336, 335, 334, 336, 333, 334, 335, 333, 337, 335, 332, 336, 333, 333, 333, 336, 333, 331, 333, 334, 335, 332, 334, 334, 334, 334, 335, 336, 336, 336, 332, 331, 332, 332, 334, 332, 333],
      "WindowCenter": [281.0, 282.0, 282.0, 282.0, 281.0, 281.0, 282.0, 282.0, 281.0, 282.0, 282.0, 281.0, 282.0, 282.0, 281.0, 281.0, 282.0, 281.0, 281.0, 281.0, 281.0, 281.0, 282.0, 281.0, 282.0, 281.0, 282.0, 281.0, 281.0, 281.0, 282.0, 281.0, 282.0, 281.0, 282.0, 282.0, 282.0, 282.0, 282.0, 281.0, 282.0, 282.0, 281.0, 282.0, 282.0, 282.0, 282.0, 281.0, 281.0, 281.0, 281.0, 282.0, 283.0, 282.0, 281.0, 282.0, 282.0, 282.0, 282.0, 281.0, 281.0, 282.0, 282.0, 282.0, 282.0, 282.0, 282.0, 281.0, 282.0, 282.0, 282.0, 282.0, 281.0, 281.0, 282.0, 282.0, 282.0, 282.0, 282.0, 282.0, 282.0, 282.0, 282.0, 282.0, 282.0, 281.0, 282.0, 284.0, 282.0, 282.0, 282.0, 282.0, 282.0, 282.0, 282.0, 282.0, 284.0, 283.0, 282.0, 284.0, 283.0, 282.0, 282.0, 282.0, 282.0, 282.0, 282.0, 283.0, 283.0, 281.0, 281.0, 283.0, 282.0, 281.0, 282.0, 283.0, 283.0, 283.0, 283.0, 283.0, 283.0, 283.0, 282.0, 282.0, 281.0, 282.0, 283.0, 282.0, 281.0, 282.0, 282.0, 282.0, 282.0, 281.0, 282.0, 282.0, 282.0, 282.0, 282.0, 284.0, 282.0, 282.0, 282.0, 283.0, 282.0, 282.0, 282.0, 282.0, 282.0, 281.0, 282.0, 281.0, 281.0, 281.0, 281.0, 282.0, 281.0, 281.0, 281.0, 282.0, 282.0, 282.0, 282.0, 281.0, 283.0, 282.0, 284.0, 283.0, 284.0, 283.0, 283.0, 283.0, 283.0, 282.0, 283.0, 282.0, 282.0, 281.0, 281.0, 282.0, 281.0, 281.0, 282.0, 282.0, 281.0, 282.0, 281.0, 282.0, 282.0, 282.0, 284.0, 284.0, 283.0, 281.0, 282.0, 281.0, 281.0, 281.0, 282.0, 281.0],
      "WindowWidth": [615.0, 615.0, 615.0, 615.0, 615.0, 615.0, 615.0, 615.0, 615.0, 615.0, 615.0, 615.0, 615.0, 615.0, 615.0, 615.0, 615.0, 614.0, 615.0, 615.0, 615.0, 615.0, 617.0, 615.0, 615.0, 615.0, 615.0, 615.0, 615.0, 615.0, 615.0, 615.0, 616.0, 615.0, 615.0, 615.0, 616.0, 615.0, 615.0, 615.0, 615.0, 615.0, 615.0, 615.0, 615.0, 615.0, 615.0, 615.0, 615.0, 615.0, 615.0, 616.0, 617.0, 615.0, 615.0, 616.0, 616.0, 616.0, 616.0, 615.0, 615.0, 616.0, 616.0, 616.0, 616.0, 616.0, 616.0, 615.0, 616.0, 615.0, 616.0, 616.0, 615.0, 615.0, 617.0, 615.0, 615.0, 615.0, 615.0, 616.0, 615.0, 616.0, 616.0, 616.0, 616.0, 615.0, 616.0, 620.0, 616.0, 616.0, 615.0, 616.0, 617.0, 616.0, 616.0, 617.0, 620.0, 618.0, 616.0, 619.0, 618.0, 615.0, 615.0, 617.0, 616.0, 616.0, 616.0, 618.0, 617.0, 615.0, 615.0, 617.0, 615.0, 615.0, 615.0, 619.0, 618.0, 617.0, 618.0, 617.0, 618.0, 618.0, 615.0, 616.0, 615.0, 616.0, 617.0, 615.0, 615.0, 617.0, 616.0, 615.0, 615.0, 615.0, 615.0, 615.0, 616.0, 615.0, 616.0, 620.0, 616.0, 615.0, 617.0, 617.0, 615.0, 615.0, 615.0, 615.0, 615.0, 615.0, 615.0, 615.0, 615.0, 615.0, 614.0, 615.0, 615.0, 615.0, 615.0, 615.0, 616.0, 615.0, 616.0, 615.0, 618.0, 616.0, 619.0, 618.0, 619.0, 619.0, 618.0, 618.0, 618.0, 616.0, 617.0, 617.0, 615.0, 615.0, 615.0, 615.0, 615.0, 615.0, 615.0, 615.0, 615.0, 616.0, 615.0, 616.0, 615.0, 615.0, 620.0, 620.0, 617.0, 615.0, 615.0, 615.0, 615.0, 615.0, 615.0, 615.0]
    },
    "slices": {}
  }
}