{
  "AcquisitionMatrixPE": 122,
  "AcquisitionNumber": 1,
  "AcquisitionTime": "09:15:55.062500",
  "BandwidthPerPixelPhaseEncode": 28.76,
  "BaseResolution": 122,
  "BodyPartExamined": "BRAIN",
  "CoilCombinationMethod": "Adaptive Combine",
  "ConsistencyInfo": "N4_VE11C_LATEST_20160120",
  "ConversionSoftware": "dcm2niix",
  "ConversionSoftwareVersion": "v1.0.20220720",
  "DerivedVendorReportedEchoSpacing": 0.000570008,
  "DeviceSerialNumber": "66112",
  "DiffusionScheme": "Monopolar",
  "DwellTime": 2e-06,
  "EchoTime": 0.075,
  "EchoTrainLength": 61,
  "EffectiveEchoSpacing": 0.000285004,
  "FlipAngle": 90,
  "HeudiconvVersion": "0.13.1",
  "ImageOrientationPatientDICOM": [0.983041, 0.183228, 0.00754887, -0.176523, 0.934308, 0.309689],
  "ImageOrientationText": "Tra>Cor(17.8)>Sag(-2.8)",
  "ImageType": [
    "ORIGINAL",
    "PRIMARY",
    "DIFFUSION",
    "NONE",
    "ND",
    "NORM"
],
  "ImagingFrequency": 123.252,
  "InPlanePhaseEncodingDirectionDICOM": "COL",
  "InstitutionAddress": "Maynard 3,Hanover,NH,US,03755",
  "InstitutionName": "Dartmouth College - PBS",
  "InstitutionalDepartmentName": "Department",
  "MRAcquisitionType": "2D",
  "MagneticFieldStrength": 3,
  "Manufacturer": "Siemens",
  "ManufacturersModelName": "Prisma",
  "MatrixCoilMode": "GRAPPA",
  "Modality": "MR",
  "NonlinearGradientCorrection": false,
  "ParallelReductionFactorInPlane": 2,
  "PartialFourier": 1,
  "PatientPosition": "HFS",
  "PercentPhaseFOV": 100,
  "PercentSampling": 100,
  "PhaseEncodingDirection": "j-",
  "PhaseEncodingSteps": 122,
  "PhaseResolution": 1,
  "PixelBandwidth": 2050,
  "ProcedureStepDescription": "dbic^QA",
  "ProtocolName": "dwi_acq-DTI-30-p2",
  "PulseSequenceDetails": "%SiemensSeq%\\ep2d_diff",
  "ReceiveCoilActiveElements": "HEA;HEP",
  "ReceiveCoilName": "Head_32",
  "ReconMatrixPE": 122,
  "RefLinesPE": 38,
  "RepetitionTime": 7.7,
  "SAR": 0.101796,
  "ScanOptions": "FS",
  "ScanningSequence": "EP",
  "SequenceName": "*ep_b0",
  "SequenceVariant": "SK\\SP",
  "SeriesDescription": "dwi_acq-DTI-30-p2",
  "SeriesNumber": 8,
  "ShimSetting": [4144, -7699, -7512, 300, -81, -118, -47, 69],
  "SliceThickness": 2,
  "SliceTiming": [3.84375, 0, 3.95312, 0.11719, 4.0625, 0.22656, 4.17188, 0.33594, 4.28125, 0.44531, 4.39062, 0.55469, 4.5, 0.66406, 4.60938, 0.77344, 4.71875, 0.88281, 4.82812, 0.99219, 4.9375, 1.10156, 5.05469, 1.21094, 5.16406, 1.32031, 5.27344, 1.42969, 5.375, 1.53906, 5.49219, 1.64844, 5.60156, 1.75781, 5.71094, 1.86719, 5.82031, 1.97656, 5.92969, 2.08594, 6.03906, 2.19531, 6.14844, 2.3125, 6.25781, 2.42188, 6.36719, 2.52344, 6.47656, 2.63281, 6.58594, 2.75, 6.69531, 2.85938, 6.80469, 2.96875, 6.91406, 3.07812, 7.02344, 3.1875, 7.13281, 3.29688, 7.24219, 3.40625, 7.35156, 3.51562, 7.46094, 3.625, 7.57031, 3.73438],
  "SoftwareVersions": "syngo MR E11",
  "SpacingBetweenSlices": 2,
  "SpoilingState": true,
  "StationName": "AWP66112",
  "TotalReadoutTime": 0.0344855,
  "TxRefAmp": 234.672,
  "dcmmeta_affine": [
    [-1.9338520765304565, -0.34725797176361084, -0.09938156604766846, 144.00819396972656],
    [-0.3604484498500824, 1.8379838466644287, 0.6115398406982422, -102.50431823730469],
    [0.014850245788693428, -0.6092248558998108, 1.9016189575195312, -31.87983512878418],
    [0.0, 0.0, 0.0, 1.0]
],
  "dcmmeta_reorient_transform": [
    [0.0, -1.0, 0.0, 121.0],
    [1.0, 0.0, 0.0, 0.0],
    [0.0, 0.0, -1.0, 69.0],
    [0.0, 0.0, 0.0, 1.0]
],
  "dcmmeta_shape": [122, 122, 70, 31],
  "dcmmeta_slice_dim": 2,
  "dcmmeta_version": 0.6,
  "global": {
    "const": {
      "AccessionNumber": "qa",
      "AcquisitionMatrix": [122, 0, 0, 122],
      "AngioFlag": "N",
      "BitsAllocated": 16,
      "BitsStored": 12,
      "BodyPartExamined": "BRAIN",
      "Columns": 122,
      "EchoNumbers": 1,
      "EchoTime": 75.0,
      "EchoTrainLength": 61,
      "FlipAngle": 90.0,
      "HighBit": 11,
      "ImageOrientationPatient": [0.98304146932204, 0.18322795660194, 0.00754887492513, -0.176522796916, 0.93430842642421, 0.3096893063728],
      "ImageType": [
        "ORIGINAL",
        "PRIMARY",
        "DIFFUSION",
        "NONE",
        "ND",
        "NORM"
],
      "ImagedNucleus": "1H",
      "ImagingFrequency": 123.252468,
      "InPlanePhaseEncodingDirection": "COL",
      "MRAcquisitionType": "2D",
      "MagneticFieldStrength": 3.0,
      "Manufacturer": "SIEMENS",
      "ManufacturerModelName": "Prisma",
      "Modality": "MR",
      "NumberOfAverages": 1.0,
      "NumberOfPhaseEncodingSteps": 122,
      "PercentPhaseFieldOfView": 100.0,
      "PercentSampling": 100.0,
      "PerformedProcedureStepStartTime": "085001.004000",
      "PhotometricInterpretation": "MONOCHROME2",
      "PixelBandwidth": 2050.0,
      "PixelRepresentation": 0,
      "PixelSpacing": [1.9672131538391, 1.9672131538391],
      "ProtocolName": "dwi_acq-DTI-30-p2",
      "RepetitionTime": 7700.0,
      "Rows": 122,
      "SAR": 0.10179555464068,
      "SamplesPerPixel": 1,
      "ScanOptions": "FS",
      "ScanningSequence": "EP",
      "SequenceVariant": [
        "SK",
        "SP"
],
      "SeriesDescription": "dwi_acq-DTI-30-p2",
      "SeriesNumber": 8,
      "SeriesTime": "091554.752000",
      "SliceThickness": 2.0,
      "SmallestImagePixelValue": 0,
      "SoftwareVersions": "syngo MR E11",
      "SpacingBetweenSlices": 2.0,
      "SpecificCharacterSet": "ISO_IR 100",
      "StudyID": "58",
      "StudyTime": "085000.903000",
      "TransmitCoilName": "Body",
      "VariableFlipAngleFlag": "N",
      "WindowCenterWidthExplanation": "Algo1",
      "dBdt": 0.0},
    "slices": {
      "AcquisitionTime": ["091555.062500", "091551.222500", "091555.172500", "091551.332500", "091555.282500", "091551.442500", "091555.392500", "091551.552500", "091555.502500", "091551.662500", "091555.610000", "091551.772500", "091555.720000", "091551.880000", "091555.830000", "091551.990000", "091555.940000", "091552.100000", "091556.050000", "091552.210000", "091556.160000", "091552.320000", "091556.270000", "091552.430000", "091556.380000", "091552.540000", "091556.490000", "091552.650000", "091556.597500", "091552.760000", "091556.707500", "091552.867500", "091556.817500", "091552.977500", "091556.927500", "091553.087500", "091557.037500", "091553.197500", "091557.147500", "091553.307500", "091557.257500", "091553.417500", "091557.367500", "091553.527500", "091557.477500", "091553.637500", "091557.585000", "091553.745000", "091557.695000", "091553.855000", "091557.805000", "091553.965000", "091557.915000", "091554.075000", "091558.025000", "091554.185000", "091558.135000", "091554.295000", "091558.245000", "091554.405000", "091558.355000", "091554.515000", "091558.462500", "091554.625000", "091558.572500", "091554.732500", "091558.682500", "091554.842500", "091558.792500", "091554.952500", "091602.762500", "091558.922500", "091602.872500", "091559.032500", "091602.982500", "091559.142500", "091603.092500", "091559.252500", "091603.202500", "091559.362500", "091603.310000", "091559.472500", "091603.420000", "091559.580000", "091603.530000", "091559.690000", "091603.640000", "091559.800000", "091603.750000", "091559.910000", "091603.860000", "091600.020000", "091603.970000", "091600.130000", "091604.080000", "091600.240000", "091604.190000", "091600.350000", "091604.297500", "091600.460000", "091604.407500", "091600.567500", "091604.517500", "091600.677500", "091604.627500", "091600.787500", "091604.737500", "091600.897500", "091604.847500", "091601.007500", "091604.957500", "091601.117500", "091605.067500", "091601.227500", "091605.177500", "091601.337500", "091605.285000", "091601.445000", "091605.395000", "091601.555000", "091605.505000", "091601.665000", "091605.615000", "091601.775000", "091605.725000", "091601.885000", "091605.835000", "091601.995000", "091605.945000", "091602.105000", "091606.055000", "091602.215000", "091606.162500", "091602.325000", "091606.272500", "091602.432500", "091606.382500", "091602.542500", "091606.492500", "091602.652500", "091610.462500", "091606.622500", "091610.572500", "091606.732500", "091610.682500", "091606.842500", "091610.792500", "091606.952500", "091610.902500", "091607.062500", "091611.010000", "091607.172500", "091611.120000", "091607.280000", "091611.230000", "091607.390000", "091611.340000", "091607.500000", "091611.450000", "091607.610000", "091611.560000", "091607.720000", "091611.670000", "091607.830000", "091611.780000", "091607.940000", "091611.890000", "091608.050000", "091611.997500", "091608.160000", "091612.107500", "091608.267500", "091612.217500", "091608.377500", "091612.327500", "091608.487500", "091612.437500", "091608.597500", "091612.547500", "091608.707500", "091612.657500", "091608.817500", "091612.767500", "091608.927500", "091612.877500", "091609.037500", "091612.985000", "091609.145000", "091613.095000", "091609.255000", "091613.205000", "091609.365000", "091613.315000", "091609.475000", "091613.425000", "091609.585000", "091613.535000", "091609.695000", "091613.645000", "091609.805000", "091613.755000", "091609.915000", "091613.862500", "091610.025000", "091613.972500", "091610.132500", "091614.082500", "091610.242500", "091614.192500", "091610.352500", "091618.162500", "091614.322500", "091618.272500", "091614.432500", "091618.382500", "091614.542500", "091618.492500", "091614.652500", "091618.602500", "091614.762500", "091618.710000", "091614.872500", "091618.820000", "091614.980000", "091618.930000", "091615.090000", "091619.040000", "091615.200000", "091619.150000", "091615.310000", "091619.260000", "091615.420000", "091619.370000", "091615.530000", "091619.480000", "091615.640000", "091619.590000", "091615.750000", "091619.697500", "091615.860000", "091619.807500", "091615.967500", "091619.917500", "091616.077500", "091620.027500", "091616.187500", "091620.137500", "091616.297500", "091620.247500", "091616.407500", "091620.357500", "091616.517500", "091620.467500", "091616.627500", "091620.577500", "091616.737500", "091620.685000", "091616.845000", "091620.795000", "091616.955000", "091620.905000", "091617.065000", "091621.015000", "091617.175000", "091621.125000", "091617.285000", "091621.235000", "091617.395000", "091621.345000", "091617.505000", "091621.455000", "091617.615000", "091621.562500", "091617.725000", "091621.672500", "091617.832500", "091621.782500", "091617.942500", "091621.892500", "091618.052500", "091625.862500", "091622.022500", "091625.972500", "091622.132500", "091626.082500", "091622.242500", "091626.192500", "091622.352500", "091626.302500", "091622.462500", "091626.410000", "091622.572500", "091626.520000", "091622.680000", "091626.630000", "091622.790000", "091626.740000", "091622.900000", "091626.850000", "091623.010000", "091626.960000", "091623.120000", "091627.070000", "091623.230000", "091627.180000", "091623.340000", "091627.290000", "091623.450000", "091627.397500", "091623.560000", "091627.507500", "091623.667500", "091627.617500", "091623.777500", "091627.727500", "091623.887500", "091627.837500", "091623.997500", "091627.947500", "091624.107500", "091628.057500", "091624.217500", "091628.167500", "091624.327500", "091628.277500", "091624.437500", "091628.385000", "091624.545000", "091628.495000", "091624.655000", "091628.605000", "091624.765000", "091628.715000", "091624.875000", "091628.825000", "091624.985000", "091628.935000", "091625.095000", "091629.045000", "091625.205000", "091629.155000", "091625.315000", "091629.262500", "091625.425000", "091629.372500", "091625.532500", "091629.482500", "091625.642500", "091629.592500", "091625.752500", "091633.562500", "091629.722500", "091633.672500", "091629.832500", "091633.782500", "091629.942500", "091633.892500", "091630.052500", "091634.002500", "091630.162500", "091634.110000", "091630.272500", "091634.220000", "091630.380000", "091634.330000", "091630.490000", "091634.440000", "091630.600000", "091634.550000", "091630.710000", "091634.660000", "091630.820000", "091634.770000", "091630.930000", "091634.880000", "091631.040000", "091634.990000", "091631.150000", "091635.097500", "091631.260000", "091635.207500", "091631.367500", "091635.317500", "091631.477500", "091635.427500", "091631.587500", "091635.537500", "091631.697500", "091635.647500", "091631.807500", "091635.757500", "091631.917500", "091635.867500", "091632.027500", "091635.977500", "091632.137500", "091636.085000", "091632.245000", "091636.195000", "091632.355000", "091636.305000", "091632.465000", "091636.415000", "091632.575000", "091636.525000", "091632.685000", "091636.635000", "091632.795000", "091636.745000", "091632.905000", "091636.855000", "091633.015000", "091636.962500", "091633.125000", "091637.072500", "091633.232500", "091637.182500", "091633.342500", "091637.292500", "091633.452500", "091641.262500", "091637.422500", "091641.372500", "091637.532500", "091641.482500", "091637.642500", "091641.592500", "091637.752500", "091641.702500", "091637.862500", "091641.810000", "091637.972500", "091641.920000", "091638.080000", "091642.030000", "091638.190000", "091642.140000", "091638.300000", "091642.250000", "091638.410000", "091642.360000", "091638.520000", "091642.470000", "091638.630000", "091642.580000", "091638.740000", "091642.690000", "091638.850000", "091642.797500", "091638.960000", "091642.907500", "091639.067500", "091643.017500", "091639.177500", "091643.127500", "091639.287500", "091643.237500", "091639.397500", "091643.347500", "091639.507500", "091643.457500", "091639.617500", "091643.567500", "091639.727500", "091643.677500", "091639.837500", "091643.785000", "091639.945000", "091643.895000", "091640.055000", "091644.005000", "091640.165000", "091644.115000", "091640.275000", "091644.225000", "091640.385000", "091644.335000", "091640.495000", "091644.445000", "091640.605000", "091644.555000", "091640.715000", "091644.662500", "091640.825000", "091644.772500", "091640.932500", "091644.882500", "091641.042500", "091644.992500", "091641.152500", "091648.962500", "091645.122500", "091649.072500", "091645.232500", "091649.182500", "091645.342500", "091649.292500", "091645.452500", "091649.402500", "091645.562500", "091649.510000", "091645.672500", "091649.620000", "091645.780000", "091649.730000", "091645.890000", "091649.840000", "091646.000000", "091649.950000", "091646.110000", "091650.060000", "091646.220000", "091650.170000", "091646.330000", "091650.280000", "091646.440000", "091650.390000", "091646.550000", "091650.497500", "091646.660000", "091650.607500", "091646.767500", "091650.717500", "091646.877500", "091650.827500", "091646.987500", "091650.937500", "091647.097500", "091651.047500", "091647.207500", "091651.157500", "091647.317500", "091651.267500", "091647.427500", "091651.377500", "091647.537500", "091651.485000", "091647.645000", "091651.595000", "091647.755000", "091651.705000", "091647.865000", "091651.815000", "091647.975000", "091651.925000", "091648.085000", "091652.035000", "091648.195000", "091652.145000", "091648.305000", "091652.255000", "091648.415000", "091652.362500", "091648.525000", "091652.472500", "091648.632500", "091652.582500", "091648.742500", "091652.692500", "091648.852500", "091656.662500", "091652.822500", "091656.772500", "091652.932500", "091656.882500", "091653.042500", "091656.992500", "091653.152500", "091657.102500", "091653.262500", "091657.210000", "091653.372500", "091657.320000", "091653.480000", "091657.430000", "091653.590000", "091657.540000", "091653.700000", "091657.650000", "091653.810000", "091657.760000", "091653.920000", "091657.870000", "091654.030000", "091657.980000", "091654.140000", "091658.090000", "091654.250000", "091658.197500", "091654.360000", "091658.307500", "091654.467500", "091658.417500", "091654.577500", "091658.527500", "091654.687500", "091658.637500", "091654.797500", "091658.747500", "091654.907500", "091658.857500", "091655.017500", "091658.967500", "091655.127500", "091659.077500", "091655.237500", "091659.185000", "091655.345000", "091659.295000", "091655.455000", "091659.405000", "091655.565000", "091659.515000", "091655.675000", "091659.625000", "091655.785000", "091659.735000", "091655.895000", "091659.845000", "091656.005000", "091659.955000", "091656.115000", "091700.062500", "091656.225000", "091700.172500", "091656.332500", "091700.282500", "091656.442500", "091700.392500", "091656.552500", "091704.362500", "091700.522500", "091704.472500", "091700.632500", "091704.582500", "091700.742500", "091704.692500", "091700.852500", "091704.802500", "091700.962500", "091704.910000", "091701.072500", "091705.020000", "091701.180000", "091705.130000", "091701.290000", "091705.240000", "091701.400000", "091705.350000", "091701.510000", "091705.460000", "091701.620000", "091705.570000", "091701.730000", "091705.680000", "091701.840000", "091705.790000", "091701.950000", "091705.897500", "091702.060000", "091706.007500", "091702.167500", "091706.117500", "091702.277500", "091706.227500", "091702.387500", "091706.337500", "091702.497500", "091706.447500", "091702.607500", "091706.557500", "091702.717500", "091706.667500", "091702.827500", "091706.777500", "091702.937500", "091706.885000", "091703.045000", "091706.995000", "091703.155000", "091707.105000", "091703.265000", "091707.215000", "091703.375000", "091707.325000", "091703.485000", "091707.435000", "091703.595000", "091707.545000", "091703.705000", "091707.655000", "091703.815000", "091707.762500", "091703.925000", "091707.872500", "091704.032500", "091707.982500", "091704.142500", "091708.092500", "091704.252500", "091712.062500", "091708.222500", "091712.172500", "091708.332500", "091712.282500", "091708.442500", "091712.392500", "091708.552500", "091712.502500", "091708.662500", "091712.610000", "091708.772500", "091712.720000", "091708.880000", "091712.830000", "091708.990000", "091712.940000", "091709.100000", "091713.050000", "091709.210000", "091713.160000", "091709.320000", "091713.270000", "091709.430000", "091713.380000", "091709.540000", "091713.490000", "091709.650000", "091713.597500", "091709.760000", "091713.707500", "091709.867500", "091713.817500", "091709.977500", "091713.927500", "091710.087500", "091714.037500", "091710.197500", "091714.147500", "091710.307500", "091714.257500", "091710.417500", "091714.367500", "091710.527500", "091714.477500", "091710.637500", "091714.585000", "091710.745000", "091714.695000", "091710.855000", "091714.805000", "091710.965000", "091714.915000", "091711.075000", "091715.025000", "091711.185000", "091715.135000", "091711.295000", "091715.245000", "091711.405000", "091715.355000", "091711.515000", "091715.462500", "091711.625000", "091715.572500", "091711.732500", "091715.682500", "091711.842500", "091715.792500", "091711.952500", "091719.762500", "091715.922500", "091719.872500", "091716.032500", "091719.982500", "091716.142500", "091720.092500", "091716.252500", "091720.202500", "091716.362500", "091720.310000", "091716.472500", "091720.420000", "091716.580000", "091720.530000", "091716.690000", "091720.640000", "091716.800000", "091720.750000", "091716.910000", "091720.860000", "091717.020000", "091720.970000", "091717.130000", "091721.080000", "091717.240000", "091721.190000", "091717.350000", "091721.297500", "091717.460000", "091721.407500", "091717.567500", "091721.517500", "091717.677500", "091721.627500", "091717.787500", "091721.737500", "091717.897500", "091721.847500", "091718.007500", "091721.957500", "091718.117500", "091722.067500", "091718.227500", "091722.177500", "091718.337500", "091722.285000", "091718.445000", "091722.395000", "091718.555000", "091722.505000", "091718.665000", "091722.615000", "091718.775000", "091722.725000", "091718.885000", "091722.835000", "091718.995000", "091722.945000", "091719.105000", "091723.055000", "091719.215000", "091723.162500", "091719.325000", "091723.272500", "091719.432500", "091723.382500", "091719.542500", "091723.492500", "091719.652500", "091727.462500", "091723.622500", "091727.572500", "091723.732500", "091727.682500", "091723.842500", "091727.792500", "091723.952500", "091727.902500", "091724.062500", "091728.010000", "091724.172500", "091728.120000", "091724.280000", "091728.230000", "091724.390000", "091728.340000", "091724.500000", "091728.450000", "091724.610000", "091728.560000", "091724.720000", "091728.670000", "091724.830000", "091728.780000", "091724.940000", "091728.890000", "091725.050000", "091728.997500", "091725.160000", "091729.107500", "091725.267500", "091729.217500", "091725.377500", "091729.327500", "091725.487500", "091729.437500", "091725.597500", "091729.547500", "091725.707500", "091729.657500", "091725.817500", "091729.767500", "091725.927500", "091729.877500", "091726.037500", "091729.985000", "091726.145000", "091730.095000", "091726.255000", "091730.205000", "091726.365000", "091730.315000", "091726.475000", "091730.425000", "091726.585000", "091730.535000", "091726.695000", "091730.645000", "091726.805000", "091730.755000", "091726.915000", "091730.862500", "091727.025000", "091730.972500", "091727.132500", "091731.082500", "091727.242500", "091731.192500", "091727.352500", "091735.162500", "091731.322500", "091735.272500", "091731.432500", "091735.382500", "091731.542500", "091735.492500", "091731.652500", "091735.602500", "091731.762500", "091735.710000", "091731.872500", "091735.820000", "091731.980000", "091735.930000", "091732.090000", "091736.040000", "091732.200000", "091736.150000", "091732.310000", "091736.260000", "091732.420000", "091736.370000", "091732.530000", "091736.480000", "091732.640000", "091736.590000", "091732.750000", "091736.697500", "091732.860000", "091736.807500", "091732.967500", "091736.917500", "091733.077500", "091737.027500", "091733.187500", "091737.137500", "091733.297500", "091737.247500", "091733.407500", "091737.357500", "091733.517500", "091737.467500", "091733.627500", "091737.577500", "091733.737500", "091737.685000", "091733.845000", "091737.795000", "091733.955000", "091737.905000", "091734.065000", "091738.015000", "091734.175000", "091738.125000", "091734.285000", "091738.235000", "091734.395000", "091738.345000", "091734.505000", "091738.455000", "091734.615000", "091738.562500", "091734.725000", "091738.672500", "091734.832500", "091738.782500", "091734.942500", "091738.892500", "091735.052500", "091742.862500", "091739.022500", "091742.972500", "091739.132500", "091743.082500", "091739.242500", "091743.192500", "091739.352500", "091743.302500", "091739.462500", "091743.410000", "091739.572500", "091743.520000", "091739.680000", "091743.630000", "091739.790000", "091743.740000", "091739.900000", "091743.850000", "091740.010000", "091743.960000", "091740.120000", "091744.070000", "091740.230000", "091744.180000", "091740.340000", "091744.290000", "091740.450000", "091744.397500", "091740.560000", "091744.507500", "091740.667500", "091744.617500", "091740.777500", "091744.727500", "091740.887500", "091744.837500", "091740.997500", "091744.947500", "091741.107500", "091745.057500", "091741.217500", "091745.167500", "091741.327500", "091745.277500", "091741.437500", "091745.385000", "091741.545000", "091745.495000", "091741.655000", "091745.605000", "091741.765000", "091745.715000", "091741.875000", "091745.825000", "091741.985000", "091745.935000", "091742.095000", "091746.045000", "091742.205000", "091746.155000", "091742.315000", "091746.262500", "091742.425000", "091746.372500", "091742.532500", "091746.482500", "091742.642500", "091746.592500", "091742.752500", "091750.562500", "091746.722500", "091750.672500", "091746.832500", "091750.782500", "091746.942500", "091750.892500", "091747.052500", "091751.002500", "091747.162500", "091751.110000", "091747.272500", "091751.220000", "091747.380000", "091751.330000", "091747.490000", "091751.440000", "091747.600000", "091751.550000", "091747.710000", "091751.660000", "091747.820000", "091751.770000", "091747.930000", "091751.880000", "091748.040000", "091751.990000", "091748.150000", "091752.097500", "091748.260000", "091752.207500", "091748.367500", "091752.317500", "091748.477500", "091752.427500", "091748.587500", "091752.537500", "091748.697500", "091752.647500", "091748.807500", "091752.757500", "091748.917500", "091752.867500", "091749.027500", "091752.977500", "091749.137500", "091753.085000", "091749.245000", "091753.195000", "091749.355000", "091753.305000", "091749.465000", "091753.415000", "091749.575000", "091753.525000", "091749.685000", "091753.635000", "091749.795000", "091753.745000", "091749.905000", "091753.855000", "091750.015000", "091753.962500", "091750.125000", "091754.072500", "091750.232500", "091754.182500", "091750.342500", "091754.292500", "091750.452500", "091758.262500", "091754.422500", "091758.372500", "091754.532500", "091758.482500", "091754.642500", "091758.592500", "091754.752500", "091758.702500", "091754.862500", "091758.810000", "091754.972500", "091758.920000", "091755.080000", "091759.030000", "091755.190000", "091759.140000", "091755.300000", "091759.250000", "091755.410000", "091759.360000", "091755.520000", "091759.470000", "091755.630000", "091759.580000", "091755.740000", "091759.690000", "091755.850000", "091759.797500", "091755.960000", "091759.907500", "091756.067500", "091800.017500", "091756.177500", "091800.127500", "091756.287500", "091800.237500", "091756.397500", "091800.347500", "091756.507500", "091800.457500", "091756.617500", "091800.567500", "091756.727500", "091800.677500", "091756.837500", "091800.785000", "091756.945000", "091800.895000", "091757.055000", "091801.005000", "091757.165000", "091801.115000", "091757.275000", "091801.225000", "091757.385000", "091801.335000", "091757.495000", "091801.445000", "091757.605000", "091801.555000", "091757.715000", "091801.662500", "091757.825000", "091801.772500", "091757.932500", "091801.882500", "091758.042500", "091801.992500", "091758.152500", "091805.962500", "091802.122500", "091806.072500", "091802.232500", "091806.182500", "091802.342500", "091806.292500", "091802.452500", "091806.402500", "091802.562500", "091806.510000", "091802.672500", "091806.620000", "091802.780000", "091806.730000", "091802.890000", "091806.840000", "091803.000000", "091806.950000", "091803.110000", "091807.060000", "091803.220000", "091807.170000", "091803.330000", "091807.280000", "091803.440000", "091807.390000", "091803.550000", "091807.497500", "091803.660000", "091807.607500", "091803.767500", "091807.717500", "091803.877500", "091807.827500", "091803.987500", "091807.937500", "091804.097500", "091808.047500", "091804.207500", "091808.157500", "091804.317500", "091808.267500", "091804.427500", "091808.377500", "091804.537500", "091808.485000", "091804.645000", "091808.595000", "091804.755000", "091808.705000", "091804.865000", "091808.815000", "091804.975000", "091808.925000", "091805.085000", "091809.035000", "091805.195000", "091809.145000", "091805.305000", "091809.255000", "091805.415000", "091809.362500", "091805.525000", "091809.472500", "091805.632500", "091809.582500", "091805.742500", "091809.692500", "091805.852500", "091813.662500", "091809.822500", "091813.772500", "091809.932500", "091813.882500", "091810.042500", "091813.992500", "091810.152500", "091814.102500", "091810.262500", "091814.210000", "091810.372500", "091814.320000", "091810.480000", "091814.430000", "091810.590000", "091814.540000", "091810.700000", "091814.650000", "091810.810000", "091814.760000", "091810.920000", "091814.870000", "091811.030000", "091814.980000", "091811.140000", "091815.090000", "091811.250000", "091815.197500", "091811.360000", "091815.307500", "091811.467500", "091815.417500", "091811.577500", "091815.527500", "091811.687500", "091815.637500", "091811.797500", "091815.747500", "091811.907500", "091815.857500", "091812.017500", "091815.967500", "091812.127500", "091816.077500", "091812.237500", "091816.185000", "091812.345000", "091816.295000", "091812.455000", "091816.405000", "091812.565000", "091816.515000", "091812.675000", "091816.625000", "091812.785000", "091816.735000", "091812.895000", "091816.845000", "091813.005000", "091816.955000", "091813.115000", "091817.062500", "091813.225000", "091817.172500", "091813.332500", "091817.282500", "091813.442500", "091817.392500", "091813.552500", "091821.362500", "091817.522500", "091821.472500", "091817.632500", "091821.582500", "091817.742500", "091821.692500", "091817.852500", "091821.802500", "091817.962500", "091821.910000", "091818.072500", "091822.020000", "091818.180000", "091822.130000", "091818.290000", "091822.240000", "091818.400000", "091822.350000", "091818.510000", "091822.460000", "091818.620000", "091822.570000", "091818.730000", "091822.680000", "091818.840000", "091822.790000", "091818.950000", "091822.897500", "091819.060000", "091823.007500", "091819.167500", "091823.117500", "091819.277500", "091823.227500", "091819.387500", "091823.337500", "091819.497500", "091823.447500", "091819.607500", "091823.557500", "091819.717500", "091823.667500", "091819.827500", "091823.777500", "091819.937500", "091823.885000", "091820.045000", "091823.995000", "091820.155000", "091824.105000", "091820.265000", "091824.215000", "091820.375000", "091824.325000", "091820.485000", "091824.435000", "091820.595000", "091824.545000", "091820.705000", "091824.655000", "091820.815000", "091824.762500", "091820.925000", "091824.872500", "091821.032500", "091824.982500", "091821.142500", "091825.092500", "091821.252500", "091829.062500", "091825.222500", "091829.172500", "091825.332500", "091829.282500", "091825.442500", "091829.392500", "091825.552500", "091829.502500", "091825.662500", "091829.610000", "091825.772500", "091829.720000", "091825.880000", "091829.830000", "091825.990000", "091829.940000", "091826.100000", "091830.050000", "091826.210000", "091830.160000", "091826.320000", "091830.270000", "091826.430000", "091830.380000", "091826.540000", "091830.490000", "091826.650000", "091830.597500", "091826.760000", "091830.707500", "091826.867500", "091830.817500", "091826.977500", "091830.927500