{
  "AcquisitionMatrixPE": 80,
  "AcquisitionNumber": 1,
  "AcquisitionTime": "08:26:29.510000",
  "BandwidthPerPixelPhaseEncode": 25,
  "BaseResolution": 80,
  "BodyPartExamined": "BRAIN",
  "CoilCombinationMethod": "Sum of Squares",
  "ConsistencyInfo": "N4_VE11E_LATEST_20181129",
  "ConversionSoftware": "dcm2niix",
  "ConversionSoftwareVersion": "v1.0.20220720",
  "DerivedVendorReportedEchoSpacing": 0.0005,
  "DeviceSerialNumber": "66112",
  "DwellTime": 2.7e-06,
  "EchoTime": 0.03,
  "EchoTrainLength": 80,
  "EffectiveEchoSpacing": 0.0005,
  "FlipAngle": 10,
  "HeudiconvVersion": "0.13.1",
  "ImageOrientationPatientDICOM": [0.999747, 0.0115474, -0.0193095, -0.00558368, 0.958735, 0.284246],
  "ImageOrientationText": "Tra>Cor(16.5)>Sag(-1.2)",
  "ImageType": [
    "ORIGINAL",
    "PRIMARY",
    "M",
    "ND",
    "NORM",
    "MOSAIC"
],
  "ImagingFrequency": 123.261,
  "InPlanePhaseEncodingDirectionDICOM": "COL",
  "InstitutionAddress": "Maynard 3,Hanover,NH,US,03755",
  "InstitutionName": "Dartmouth College - PBS",
  "InstitutionalDepartmentName": "Department",
  "MRAcquisitionType": "2D",
  "MagneticFieldStrength": 3,
  "Manufacturer": "Siemens",
  "ManufacturersModelName": "Prisma",
  "MatrixCoilMode": "SENSE",
  "Modality": "MR",
  "NonlinearGradientCorrection": false,
  "PartialFourier": 1,
  "PatientPosition": "HFS",
  "PercentPhaseFOV": 100,
  "PercentSampling": 100,
  "PhaseEncodingDirection": "j-",
  "PhaseEncodingSteps": 80,
  "PhaseResolution": 1,
  "PixelBandwidth": 2315,
  "ProcedureStepDescription": "dbic^QA",
  "ProtocolName": "func-bold_fa-10",
  "PulseSequenceDetails": "%SiemensSeq%\\ep2d_bold",
  "ReceiveCoilActiveElements": "HC1-7;NC1,2",
  "ReceiveCoilName": "HeadNeck_64",
  "ReconMatrixPE": 80,
  "RepetitionTime": 2,
  "SAR": 0.00752594,
  "ScanOptions": "FS",
  "ScanningSequence": "EP",
  "SequenceName": "*epfid2d1_80",
  "SequenceVariant": "SK",
  "SeriesDescription": "func-bold_fa-10",
  "SeriesNumber": 7,
  "ShimSetting": [4244, -7726, -7484, -134, -191, -222, -59, 109],
  "SliceThickness": 3.5,
  "SliceTiming": [0.99, 0, 1.055, 0.065, 1.1225, 0.1325, 1.1875, 0.1975, 1.2525, 0.2625, 1.32, 0.33, 1.385, 0.395, 1.4525, 0.4625, 1.5175, 0.5275, 1.5825, 0.5925, 1.65, 0.66, 1.715, 0.725, 1.7825, 0.7925, 1.8475, 0.8575, 1.9125, 0.9225],
  "SoftwareVersions": "syngo MR E11",
  "SpacingBetweenSlices": 3.99,
  "StationName": "AWP66112",
  "TotalReadoutTime": 0.0395,
  "TxRefAmp": 211.34,
  "dcmmeta_affine": [
    [-2.9992406368255615, -0.016751054674386978, -0.0869620218873024, 121.35206604003906],
    [-0.03464224934577942, 2.8762054443359375, 1.1334236860275269, -122.02716064453125],
    [-0.05792847275733948, -0.852737545967102, 3.8246424198150635, -34.48720169067383],
    [0.0, 0.0, 0.0, 1.0]
],
  "dcmmeta_reorient_transform": [
    [0.0, -1.0, 0.0, 79.0],
    [1.0, 0.0, 0.0, 0.0],
    [0.0, 0.0, 1.0, 0.0],
    [0.0, 0.0, 0.0, 1.0]
],
  "dcmmeta_shape": [80, 80, 30, 200],
  "dcmmeta_slice_dim": 2,
  "dcmmeta_version": 0.6,
  "global": {
    "const": {
      "AccessionNumber": "qa64",
      "AcquisitionMatrix": [80, 0, 0, 80],
      "AngioFlag": "N",
      "BitsAllocated": 16,
      "BitsStored": 12,
      "BodyPartExamined": "BRAIN",
      "Columns": 480,
      "EchoNumbers": 1,
      "EchoTime": 30.0,
      "EchoTrainLength": 80,
      "FlipAngle": 10.0,
      "HighBit": 11,
      "ImageOrientationPatient": [0.99974686834152, 0.01154741626696, -0.0193094903838, -0.0055836849638, 0.95873516646503, 0.28424584965395],
      "ImagePositionPatient": [-716.52664417493, -687.36262342354, -260.8152824953],
      "ImageType": [
        "ORIGINAL",
        "PRIMARY",
        "M",
        "ND",
        "NORM",
        "MOSAIC"
],
      "ImagedNucleus": "1H",
      "ImagingFrequency": 123.26127,
      "InPlanePhaseEncodingDirection": "COL",
      "MRAcquisitionType": "2D",
      "MagneticFieldStrength": 3.0,
      "Manufacturer": "SIEMENS",
      "ManufacturerModelName": "Prisma",
      "Modality": "MR",
      "NumberOfAverages": 1.0,
      "NumberOfPhaseEncodingSteps": 80,
      "PercentPhaseFieldOfView": 100.0,
      "PercentSampling": 100.0,
      "PerformedProcedureStepStartTime": "080354.830000",
      "PhotometricInterpretation": "MONOCHROME2",
      "PixelBandwidth": 2315.0,
      "PixelRepresentation": 0,
      "PixelSpacing": [3.0, 3.0],
      "ProtocolName": "func-bold_fa-10",
      "RepetitionTime": 2000.0,
      "Rows": 480,
      "SAR": 0.00752594435542,
      "SamplesPerPixel": 1,
      "ScanOptions": "FS",
      "ScanningSequence": "EP",
      "SequenceName": "*epfid2d1_80",
      "SequenceVariant": "SK",
      "SeriesDescription": "func-bold_fa-10",
      "SeriesNumber": 7,
      "SeriesTime": "082717.894000",
      "SliceLocation": -70.366590632812,
      "SliceThickness": 3.5,
      "SmallestImagePixelValue": 0,
      "SoftwareVersions": "syngo MR E11",
      "SpacingBetweenSlices": 3.9900000546361,
      "SpecificCharacterSet": "ISO_IR 100",
      "StudyID": "21",
      "StudyTime": "080354.586000",
      "TransmitCoilName": "Body",
      "VariableFlipAngleFlag": "N",
      "WindowCenterWidthExplanation": "Algo1"
    },
    "slices": {}
  },
  "time": {
    "samples": {
      "AcquisitionNumber": [1, 2, 3, 4, 5, 6, 7, 8, 9, 10, 11, 12, 13, 14, 15, 16, 17, 18, 19, 20, 21, 22, 23, 24, 25, 26, 27, 28, 29, 30, 31, 32, 33, 34, 35, 36, 37, 38, 39, 40, 41, 42, 43, 44, 45, 46, 47, 48, 49, 50, 51, 52, 53, 54, 55, 56, 57, 58, 59, 60, 61, 62, 63, 64, 65, 66, 67, 68, 69, 70, 71, 72, 73, 74, 75, 76, 77, 78, 79, 80, 81, 82, 83, 84, 85, 86, 87, 88, 89, 90, 91, 92, 93, 94, 95, 96, 97, 98, 99, 100, 101, 102, 103, 104, 105, 106, 107, 108, 109, 110, 111, 112, 113, 114, 115, 116, 117, 118, 119, 120, 121, 122, 123, 124, 125, 126, 127, 128, 129, 130, 131, 132, 133, 134, 135, 136, 137, 138, 139, 140, 141, 142, 143, 144, 145, 146, 147, 148, 149, 150, 151, 152, 153, 154, 155, 156, 157, 158, 159, 160, 161, 162, 163, 164, 165, 166, 167, 168, 169, 170, 171, 172, 173, 174, 175, 176, 177, 178, 179, 180, 181, 182, 183, 184, 185, 186, 187, 188, 189, 190, 191, 192, 193, 194, 195, 196, 197, 198, 199, 200],
      "AcquisitionTime": ["082629.510000", "082631.510000", "082633.510000", "082635.510000", "082637.510000", "082639.510000", "082641.510000", "082643.510000", "082645.510000", "082647.510000", "082649.510000", "082651.510000", "082653.510000", "082655.510000", "082657.510000", "082659.510000", "082701.510000", "082703.510000", "082705.510000", "082707.510000", "082709.510000", "082711.510000", "082713.510000", "082715.510000", "082717.510000", "082719.510000", "082721.510000", "082723.510000", "082725.510000", "082727.510000", "082729.510000", "082731.510000", "082733.510000", "082735.510000", "082737.510000", "082739.510000", "082741.510000", "082743.510000", "082745.510000", "082747.510000", "082749.510000", "082751.510000", "082753.510000", "082755.510000", "082757.510000", "082759.510000", "082801.510000", "082803.510000", "082805.510000", "082807.510000", "082809.510000", "082811.510000", "082813.510000", "082815.510000", "082817.510000", "082819.510000", "082821.510000", "082823.510000", "082825.510000", "082827.510000", "082829.510000", "082831.510000", "082833.510000", "082835.510000", "082837.510000", "082839.510000", "082841.510000", "082843.510000", "082845.510000", "082847.510000", "082849.510000", "082851.510000", "082853.510000", "082855.510000", "082857.510000", "082859.510000", "082901.510000", "082903.510000", "082905.510000", "082907.510000", "082909.510000", "082911.510000", "082913.510000", "082915.510000", "082917.510000", "082919.510000", "082921.510000", "082923.510000", "082925.510000", "082927.510000", "082929.510000", "082931.510000", "082933.510000", "082935.510000", "082937.510000", "082939.510000", "082941.510000", "082943.510000", "082945.510000", "082947.510000", "082949.510000", "082951.510000", "082953.510000", "082955.510000", "082957.510000", "082959.510000", "083001.510000", "083003.510000", "083005.510000", "083007.510000", "083009.510000", "083011.510000", "083013.510000", "083015.510000", "083017.510000", "083019.510000", "083021.510000", "083023.510000", "083025.510000", "083027.510000", "083029.510000", "083031.510000", "083033.510000", "083035.510000", "083037.510000", "083039.510000", "083041.510000", "083043.510000", "083045.510000", "083047.510000", "083049.510000", "083051.510000", "083053.510000", "083055.510000", "083057.510000", "083059.510000", "083101.510000", "083103.510000", "083105.510000", "083107.510000", "083109.510000", "083111.510000", "083113.510000", "083115.510000", "083117.510000", "083119.510000", "083121.510000", "083123.510000", "083125.510000", "083127.510000", "083129.510000", "083131.510000", "083133.510000", "083135.510000", "083137.510000", "083139.510000", "083141.510000", "083143.510000", "083145.510000", "083147.510000", "083149.510000", "083151.510000", "083153.510000", "083155.510000", "083157.510000", "083159.510000", "083201.510000", "083203.510000", "083205.510000", "083207.510000", "083209.510000", "083211.510000", "083213.510000", "083215.510000", "083217.510000", "083219.510000", "083221.510000", "083223.510000", "083225.510000", "083227.510000", "083229.510000", "083231.510000", "083233.510000", "083235.510000", "083237.510000", "083239.510000", "083241.510000", "083243.510000", "083245.510000", "083247.510000", "083249.510000", "083251.510000", "083253.510000", "083255.510000", "083257.510000", "083259.510000", "083301.510000", "083303.510000", "083305.510000", "083307.510000"],
      "ContentTime": ["082717.898000", "082717.901000", "082717.903000", "082717.905000", "082717.908000", "082717.910000", "082717.912000", "082717.914000", "082717.917000", "082717.919000", "082717.921000", "082717.924000", "082717.926000", "082717.928000", "082717.931000", "082717.933000", "082717.935000", "082717.938000", "082717.940000", "082717.942000", "082717.945000", "082717.947000", "082717.949000", "082717.952000", "082757.893000", "082757.896000", "082757.898000", "082757.900000", "082757.903000", "082757.905000", "082757.907000", "082757.909000", "082757.912000", "082757.914000", "082757.916000", "082757.918000", "082757.921000", "082757.923000", "082757.925000", "082757.928000", "082757.930000", "082757.932000", "082757.934000", "082757.937000", "082837.893000", "082837.896000", "082837.898000", "082837.900000", "082837.903000", "082837.905000", "082837.907000", "082837.910000", "082837.912000", "082837.914000", "082837.917000", "082837.919000", "082837.921000", "082837.923000", "082837.926000", "082837.928000", "082837.930000", "082837.933000", "082837.935000", "082837.937000", "082857.893000", "082857.896000", "082857.898000", "082857.901000", "082857.903000", "082857.905000", "082857.907000", "082857.910000", "082857.912000", "082857.914000", "082937.893000", "082937.896000", "082937.898000", "082937.900000", "082937.903000", "082937.905000", "082937.908000", "082937.910000", "082937.912000", "082937.914000", "082937.917000", "082937.919000", "082937.921000", "082937.924000", "082937.926000", "082937.928000", "082937.931000", "082937.933000", "082937.935000", "082937.938000", "083017.893000", "083017.896000", "083017.898000", "083017.900000", "083017.902000", "083017.905000", "083017.907000", "083017.909000", "083017.912000", "083017.914000", "083017.916000", "083017.918000", "083017.921000", "083017.923000", "083017.925000", "083017.928000", "083017.930000", "083017.932000", "083017.934000", "083017.937000", "083057.893000", "083057.896000", "083057.898000", "083057.900000", "083057.903000", "083057.905000", "083057.907000", "083057.909000", "083057.912000", "083057.914000", "083057.916000", "083057.919000", "083057.921000", "083057.923000", "083057.926000", "083057.928000", "083057.930000", "083057.932000", "083057.935000", "083057.947000", "083137.893000", "083137.896000", "083137.898000", "083137.900000", "083137.902000", "083137.905000", "083137.907000", "083137.909000", "083137.912000", "083137.914000", "083137.916000", "083137.918000", "083137.921000", "083137.926000", "083137.943000", "083137.945000", "083137.947000", "083137.950000", "083137.952000", "083137.954000", "083217.892000", "083217.895000", "083217.897000", "083217.899000", "083217.902000", "083217.904000", "083217.906000", "083217.909000", "083217.911000", "083217.913000", "083217.915000", "083217.918000", "083217.920000", "083217.922000", "083217.925000", "083217.927000", "083217.929000", "083217.931000", "083217.934000", "083217.936000", "083257.893000", "083257.896000", "083257.898000", "083257.900000", "083257.902000", "083257.905000", "083257.907000", "083257.909000", "083257.912000", "083257.914000", "083257.916000", "083257.918000", "083257.921000", "083257.923000", "083257.925000", "083257.928000", "083257.930000", "083257.932000", "083257.935000", "083257.937000", "083309.435000", "083309.438000", "083309.440000", "083309.443000", "083309.445000", "083309.447000"],
      "InstanceCreationTime": ["082717.898000", "082717.901000", "082717.903000", "082717.905000", "082717.908000", "082717.910000", "082717.912000", "082717.914000", "082717.917000", "082717.919000", "082717.921000", "082717.924000", "082717.926000", "082717.928000", "082717.931000", "082717.933000", "082717.935000", "082717.938000", "082717.940000", "082717.942000", "082717.945000", "082717.947000", "082717.949000", "082717.952000", "082757.893000", "082757.896000", "082757.898000", "082757.900000", "082757.903000", "082757.905000", "082757.907000", "082757.909000", "082757.912000", "082757.914000", "082757.916000", "082757.918000", "082757.921000", "082757.923000", "082757.925000", "082757.928000", "082757.930000", "082757.932000", "082757.934000", "082757.937000", "082837.893000", "082837.896000", "082837.898000", "082837.900000", "082837.903000", "082837.905000", "082837.907000", "082837.910000", "082837.912000", "082837.914000", "082837.917000", "082837.919000", "082837.921000", "082837.923000", "082837.926000", "082837.928000", "082837.930000", "082837.933000", "082837.935000", "082837.937000", "082857.893000", "082857.896000", "082857.898000", "082857.901000", "082857.903000", "082857.905000", "082857.907000", "082857.910000", "082857.912000", "082857.914000", "082937.893000", "082937.896000", "082937.898000", "082937.900000", "082937.903000", "082937.905000", "082937.908000", "082937.910000", "082937.912000", "082937.914000", "082937.917000", "082937.919000", "082937.921000", "082937.924000", "082937.926000", "082937.928000", "082937.931000", "082937.933000", "082937.935000", "082937.938000", "083017.893000", "083017.896000", "083017.898000", "083017.900000", "083017.902000", "083017.905000", "083017.907000", "083017.909000", "083017.912000", "083017.914000", "083017.916000", "083017.918000", "083017.921000", "083017.923000", "083017.925000", "083017.928000", "083017.930000", "083017.932000", "083017.934000", "083017.937000", "083057.893000", "083057.896000", "083057.898000", "083057.900000", "083057.903000", "083057.905000", "083057.907000", "083057.909000", "083057.912000", "083057.914000", "083057.916000", "083057.919000", "083057.921000", "083057.923000", "083057.926000", "083057.928000", "083057.930000", "083057.932000", "083057.935000", "083057.947000", "083137.893000", "083137.896000", "083137.898000", "083137.900000", "083137.902000", "083137.905000", "083137.907000", "083137.909000", "083137.912000", "083137.914000", "083137.916000", "083137.918000", "083137.921000", "083137.926000", "083137.943000", "083137.945000", "083137.947000", "083137.950000", "083137.952000", "083137.954000", "083217.892000", "083217.895000", "083217.897000", "083217.899000", "083217.902000", "083217.904000", "083217.906000", "083217.909000", "083217.911000", "083217.913000", "083217.915000", "083217.918000", "083217.920000", "083217.922000", "083217.925000", "083217.927000", "083217.929000", "083217.931000", "083217.934000", "083217.936000", "083257.893000", "083257.896000", "083257.898000", "083257.900000", "083257.902000", "083257.905000", "083257.907000", "083257.909000", "083257.912000", "083257.914000", "083257.916000", "083257.918000", "083257.921000", "083257.923000", "083257.925000", "083257.928000", "083257.930000", "083257.932000", "083257.935000", "083257.937000", "083309.435000", "083309.438000", "083309.440000", "083309.443000", "083309.445000", "083309.447000"],
      "InstanceNumber": [1, 2, 3, 4, 5, 6, 7, 8, 9, 10, 11, 12, 13, 14, 15, 16, 17, 18, 19, 20, 21, 22, 23, 24, 25, 26, 27, 28, 29, 30, 31, 32, 33, 34, 35, 36, 37, 38, 39, 40, 41, 42, 43, 44, 45, 46, 47, 48, 49, 50, 51, 52, 53, 54, 55, 56, 57, 58, 59, 60, 61, 62, 63, 64, 65, 66, 67, 68, 69, 70, 71, 72, 73, 74, 75, 76, 77, 78, 79, 80, 81, 82, 83, 84, 85, 86, 87, 88, 89, 90, 91, 92, 93, 94, 95, 96, 97, 98, 99, 100, 101, 102, 103, 104, 105, 106, 107, 108, 109, 110, 111, 112, 113, 114, 115, 116, 117, 118, 119, 120, 121, 122, 123, 124, 125, 126, 127, 128, 129, 130, 131, 132, 133, 134, 135, 136, 137, 138, 139, 140, 141, 142, 143, 144, 145, 146, 147, 148, 149, 150, 151, 152, 153, 154, 155, 156, 157, 158, 159, 160, 161, 162, 163, 164, 165, 166, 167, 168, 169, 170, 171, 172, 173, 174, 175, 176, 177, 178, 179, 180, 181, 182, 183, 184, 185, 186, 187, 188, 189, 190, 191, 192, 193, 194, 195, 196, 197, 198, 199, 200],
      "LargestImagePixelValue": [676, 678, 683, 677, 678, 681, 674, 680, 678, 683, 679, 681, 681, 682, 682, 676, 677, 677, 683, 677, 676, 679, 683, 679, 676, 679, 675, 676, 676, 682, 677, 680, 682, 677, 680, 680, 674, 680, 679, 679, 676, 682, 680, 681, 682, 683, 678, 683, 682, 684, 686, 679, 685, 679, 683, 680, 683, 681, 677, 685, 683, 683, 679, 678, 679, 680, 682, 679, 684, 677, 676, 679, 680, 680, 678, 681, 676, 679, 677, 682, 676, 679, 680, 673, 682, 680, 677, 677, 679, 681, 678, 678, 680, 683, 674, 678, 678, 679, 684, 675, 683, 677, 677, 681, 679, 679, 675, 678, 680, 684, 679, 681, 683, 680, 677, 679, 677, 681, 683, 679, 684, 679, 682, 682, 678, 683, 681, 681, 678, 677, 680, 681, 681, 675, 683, 679, 680, 682, 683, 679, 678, 686, 679, 680, 676, 682, 681, 678, 679, 677, 681, 681, 681, 676, 680, 677, 678, 681, 678, 676, 683, 681, 681, 677, 680, 679, 676, 679, 683, 679, 679, 679, 682, 680, 682, 682, 676, 682, 677, 685, 682, 685, 680, 682, 679, 683, 679, 679, 686, 684, 679, 682, 684, 683, 681, 684, 681, 687, 679, 687],
      "WindowCenter": [463.0, 463.0, 463.0, 463.0, 463.0, 463.0, 462.0, 463.0, 462.0, 463.0, 463.0, 463.0, 463.0, 463.0, 463.0, 462.0, 463.0, 462.0, 463.0, 463.0, 463.0, 463.0, 462.0, 463.0, 463.0, 463.0, 462.0, 463.0, 463.0, 463.0, 463.0, 463.0, 463.0, 462.0, 463.0, 462.0, 463.0, 463.0, 462.0, 463.0, 462.0, 463.0, 462.0, 463.0, 462.0, 463.0, 463.0, 463.0, 462.0, 462.0, 463.0, 462.0, 463.0, 463.0, 463.0, 462.0, 462.0, 463.0, 462.0, 463.0, 462.0, 462.0, 462.0, 462.0, 462.0, 462.0, 462.0, 462.0, 463.0, 462.0, 463.0, 462.0, 462.0, 462.0, 462.0, 462.0, 462.0, 462.0, 462.0, 462.0, 462.0, 462.0, 462.0, 462.0, 462.0, 462.0, 462.0, 462.0, 462.0, 462.0, 462.0, 462.0, 462.0, 462.0, 462.0, 462.0, 462.0, 462.0, 462.0, 462.0, 462.0, 462.0, 462.0, 462.0, 462.0, 462.0, 462.0, 462.0, 462.0, 462.0, 462.0, 462.0, 462.0, 462.0, 462.0, 462.0, 462.0, 462.0, 462.0, 462.0, 462.0, 462.0, 462.0, 462.0, 462.0, 462.0, 461.0, 462.0, 462.0, 462.0, 462.0, 462.0, 462.0, 461.0, 462.0, 461.0, 462.0, 461.0, 462.0, 461.0, 462.0, 462.0, 461.0, 462.0, 461.0, 462.0, 461.0, 462.0, 461.0, 462.0, 462.0, 462.0, 462.0, 461.0, 462.0, 461.0, 462.0, 461.0, 461.0, 462.0, 461.0, 462.0, 461.0, 461.0, 462.0, 462.0, 462.0, 461.0, 462.0, 461.0, 461.0, 461.0, 461.0, 461.0, 462.0, 461.0, 461.0, 461.0, 461.0, 461.0, 461.0, 462.0, 461.0, 462.0, 461.0, 461.0, 461.0, 461.0, 461.0, 461.0, 462.0, 461.0, 461.0, 462.0, 461.0, 462.0, 461.0, 461.0, 461.0, 461.0],
      "WindowWidth": [961.0, 961.0, 961.0, 961.0, 961.0, 961.0, 960.0, 961.0, 960.0, 961.0, 961.0, 961.0, 961.0, 961.0, 961.0, 960.0, 961.0, 960.0, 961.0, 960.0, 960.0, 961.0, 960.0, 961.0, 960.0, 961.0, 960.0, 960.0, 960.0, 960.0, 960.0, 960.0, 960.0, 960.0, 961.0, 960.0, 960.0, 960.0, 960.0, 960.0, 960.0, 961.0, 960.0, 960.0, 960.0, 960.0, 960.0, 960.0, 960.0, 960.0, 961.0, 960.0, 961.0, 960.0, 960.0, 960.0, 960.0, 961.0, 960.0, 961.0, 960.0, 960.0, 960.0, 960.0, 960.0, 959.0, 960.0, 959.0, 960.0, 959.0, 960.0, 959.0, 959.0, 959.0, 959.0, 959.0, 959.0, 959.0, 959.0, 959.0, 959.0, 959.0, 959.0, 959.0, 959.0, 959.0, 959.0, 959.0, 959.0, 959.0, 959.0, 959.0, 959.0, 959.0, 959.0, 959.0, 959.0, 959.0, 959.0, 959.0, 959.0, 959.0, 959.0, 959.0, 959.0, 959.0, 959.0, 959.0, 958.0, 959.0, 959.0, 959.0, 959.0, 959.0, 959.0, 959.0, 959.0, 959.0, 959.0, 959.0, 959.0, 958.0, 959.0, 959.0, 958.0, 959.0, 958.0, 959.0, 959.0, 959.0, 959.0, 959.0, 959.0, 958.0, 959.0, 958.0, 959.0, 958.0, 959.0, 958.0, 959.0, 959.0, 958.0, 959.0, 958.0, 959.0, 958.0, 959.0, 958.0, 959.0, 959.0, 959.0, 959.0, 958.0, 959.0, 958.0, 959.0, 958.0, 958.0, 959.0, 958.0, 959.0, 958.0, 958.0, 959.0, 959.0, 959.0, 958.0, 959.0, 958.0, 958.0, 958.0, 958.0, 958.0, 959.0, 958.0, 958.0, 958.0, 958.0, 958.0, 958.0, 959.0, 958.0, 959.0, 958.0, 958.0, 958.0, 958.0, 958.0, 958.0, 959.0, 958.0, 958.0, 959.0, 958.0, 959.0, 958.0, 958.0, 958.0, 958.0]
    },
    "slices": {}
  }
}