{
  "AcquisitionMatrixPE": 80,
  "AcquisitionNumber": 1,
  "AcquisitionTime": "08:19:43.465000",
  "BandwidthPerPixelPhaseEncode": 25,
  "BaseResolution": 80,
  "BodyPartExamined": "BRAIN",
  "CoilCombinationMethod": "Sum of Squares",
  "ConsistencyInfo": "N4_VE11E_LATEST_20181129",
  "ConversionSoftware": "dcm2niix",
  "ConversionSoftwareVersion": "v1.0.20220720",
  "DerivedVendorReportedEchoSpacing": 0.0005,
  "DeviceSerialNumber": "66112",
  "DwellTime": 2.7e-06,
  "EchoTime": 0.03,
  "EchoTrainLength": 80,
  "EffectiveEchoSpacing": 0.0005,
  "FlipAngle": 77,
  "HeudiconvVersion": "0.13.1",
  "ImageOrientationPatientDICOM": [0.999747, 0.0115474, -0.0193095, -0.00558368, 0.958735, 0.284246],
  "ImageOrientationText": "Tra>Cor(16.5)>Sag(-1.2)",
  "ImageType": [
    "ORIGINAL",
    "PRIMARY",
    "M",
    "ND",
    "NORM",
    "MOSAIC"
],
  "ImagingFrequency": 123.261,
  "InPlanePhaseEncodingDirectionDICOM": "COL",
  "InstitutionAddress": "Maynard 3,Hanover,NH,US,03755",
  "InstitutionName": "Dartmouth College - PBS",
  "InstitutionalDepartmentName": "Department",
  "MRAcquisitionType": "2D",
  "MagneticFieldStrength": 3,
  "Manufacturer": "Siemens",
  "ManufacturersModelName": "Prisma",
  "MatrixCoilMode": "SENSE",
  "Modality": "MR",
  "NonlinearGradientCorrection": false,
  "PartialFourier": 1,
  "PatientPosition": "HFS",
  "PercentPhaseFOV": 100,
  "PercentSampling": 100,
  "PhaseEncodingDirection": "j-",
  "PhaseEncodingSteps": 80,
  "PhaseResolution": 1,
  "PixelBandwidth": 2315,
  "ProcedureStepDescription": "dbic^QA",
  "ProtocolName": "func-bold_fa-77",
  "PulseSequenceDetails": "%SiemensSeq%\\ep2d_bold",
  "ReceiveCoilActiveElements": "HC1-7;NC1,2",
  "ReceiveCoilName": "HeadNeck_64",
  "ReconMatrixPE": 80,
  "RepetitionTime": 2,
  "SAR": 0.0280558,
  "ScanOptions": "FS",
  "ScanningSequence": "EP",
  "SequenceName": "*epfid2d1_80",
  "SequenceVariant": "SK",
  "SeriesDescription": "func-bold_fa-77",
  "SeriesNumber": 6,
  "ShimSetting": [4244, -7726, -7484, -134, -191, -222, -59, 109],
  "SliceThickness": 3.5,
  "SliceTiming": [0.99, 0, 1.0575, 0.0675, 1.1225, 0.1325, 1.19, 0.2, 1.255, 0.265, 1.32, 0.33, 1.3875, 0.3975, 1.4525, 0.4625, 1.52, 0.53, 1.585, 0.595, 1.65, 0.66, 1.7175, 0.7275, 1.7825, 0.7925, 1.85, 0.86, 1.915, 0.925],
  "SoftwareVersions": "syngo MR E11",
  "SpacingBetweenSlices": 3.99,
  "StationName": "AWP66112",
  "TotalReadoutTime": 0.0395,
  "TxRefAmp": 211.34,
  "dcmmeta_affine": [
    [-2.9992406368255615, -0.016751054674386978, -0.0869620218873024, 121.35206604003906],
    [-0.03464224934577942, 2.8762054443359375, 1.1334236860275269, -122.02716064453125],
    [-0.05792847275733948, -0.852737545967102, 3.8246424198150635, -34.48720169067383],
    [0.0, 0.0, 0.0, 1.0]
],
  "dcmmeta_reorient_transform": [
    [0.0, -1.0, 0.0, 79.0],
    [1.0, 0.0, 0.0, 0.0],
    [0.0, 0.0, 1.0, 0.0],
    [0.0, 0.0, 0.0, 1.0]
],
  "dcmmeta_shape": [80, 80, 30, 200],
  "dcmmeta_slice_dim": 2,
  "dcmmeta_version": 0.6,
  "global": {
    "const": {
      "AccessionNumber": "qa64",
      "AcquisitionMatrix": [80, 0, 0, 80],
      "AngioFlag": "N",
      "BitsAllocated": 16,
      "BitsStored": 12,
      "BodyPartExamined": "BRAIN",
      "Columns": 480,
      "EchoNumbers": 1,
      "EchoTime": 30.0,
      "EchoTrainLength": 80,
      "FlipAngle": 77.0,
      "HighBit": 11,
      "ImageOrientationPatient": [0.99974686834152, 0.01154741626696, -0.0193094903838, -0.0055836849638, 0.95873516646503, 0.28424584965395],
      "ImagePositionPatient": [-716.52664417493, -687.36262342354, -260.8152824953],
      "ImageType": [
        "ORIGINAL",
        "PRIMARY",
        "M",
        "ND",
        "NORM",
        "MOSAIC"
],
      "ImagedNucleus": "1H",
      "ImagingFrequency": 123.26127,
      "InPlanePhaseEncodingDirection": "COL",
      "LargestImagePixelValue": 4095,
      "MRAcquisitionType": "2D",
      "MagneticFieldStrength": 3.0,
      "Manufacturer": "SIEMENS",
      "ManufacturerModelName": "Prisma",
      "Modality": "MR",
      "NumberOfAverages": 1.0,
      "NumberOfPhaseEncodingSteps": 80,
      "PercentPhaseFieldOfView": 100.0,
      "PercentSampling": 100.0,
      "PerformedProcedureStepStartTime": "080354.830000",
      "PhotometricInterpretation": "MONOCHROME2",
      "PixelBandwidth": 2315.0,
      "PixelRepresentation": 0,
      "PixelSpacing": [3.0, 3.0],
      "ProtocolName": "func-bold_fa-77",
      "RepetitionTime": 2000.0,
      "Rows": 480,
      "SAR": 0.02805580671764,
      "SamplesPerPixel": 1,
      "ScanOptions": "FS",
      "ScanningSequence": "EP",
      "SequenceName": "*epfid2d1_80",
      "SequenceVariant": "SK",
      "SeriesDescription": "func-bold_fa-77",
      "SeriesNumber": 6,
      "SeriesTime": "082037.808000",
      "SliceLocation": -70.366590632812,
      "SliceThickness": 3.5,
      "SmallestImagePixelValue": 0,
      "SoftwareVersions": "syngo MR E11",
      "SpacingBetweenSlices": 3.9900000546361,
      "SpecificCharacterSet": "ISO_IR 100",
      "StudyID": "21",
      "StudyTime": "080354.586000",
      "TransmitCoilName": "Body",
      "VariableFlipAngleFlag": "N",
      "WindowCenterWidthExplanation": "Algo1"
    },
    "slices": {}
  },
  "time": {
    "samples": {
      "AcquisitionNumber": [1, 2, 3, 4, 5, 6, 7, 8, 9, 10, 11, 12, 13, 14, 15, 16, 17, 18, 19, 20, 21, 22, 23, 24, 25, 26, 27, 28, 29, 30, 31, 32, 33, 34, 35, 36, 37, 38, 39, 40, 41, 42, 43, 44, 45, 46, 47, 48, 49, 50, 51, 52, 53, 54, 55, 56, 57, 58, 59, 60, 61, 62, 63, 64, 65, 66, 67, 68, 69, 70, 71, 72, 73, 74, 75, 76, 77, 78, 79, 80, 81, 82, 83, 84, 85, 86, 87, 88, 89, 90, 91, 92, 93, 94, 95, 96, 97, 98, 99, 100, 101, 102, 103, 104, 105, 106, 107, 108, 109, 110, 111, 112, 113, 114, 115, 116, 117, 118, 119, 120, 121, 122, 123, 124, 125, 126, 127, 128, 129, 130, 131, 132, 133, 134, 135, 136, 137, 138, 139, 140, 141, 142, 143, 144, 145, 146, 147, 148, 149, 150, 151, 152, 153, 154, 155, 156, 157, 158, 159, 160, 161, 162, 163, 164, 165, 166, 167, 168, 169, 170, 171, 172, 173, 174, 175, 176, 177, 178, 179, 180, 181, 182, 183, 184, 185, 186, 187, 188, 189, 190, 191, 192, 193, 194, 195, 196, 197, 198, 199, 200],
      "AcquisitionTime": ["081943.465000", "081945.465000", "081947.465000", "081949.465000", "081951.465000", "081953.465000", "081955.465000", "081957.465000", "081959.465000", "082001.465000", "082003.465000", "082005.465000", "082007.465000", "082009.465000", "082011.465000", "082013.465000", "082015.465000", "082017.465000", "082019.465000", "082021.465000", "082023.465000", "082025.465000", "082027.465000", "082029.465000", "082031.465000", "082033.465000", "082035.465000", "082037.465000", "082039.465000", "082041.465000", "082043.465000", "082045.465000", "082047.465000", "082049.465000", "082051.465000", "082053.465000", "082055.465000", "082057.465000", "082059.465000", "082101.465000", "082103.465000", "082105.465000", "082107.465000", "082109.465000", "082111.465000", "082113.465000", "082115.465000", "082117.465000", "082119.465000", "082121.465000", "082123.465000", "082125.465000", "082127.465000", "082129.465000", "082131.465000", "082133.465000", "082135.465000", "082137.465000", "082139.465000", "082141.465000", "082143.465000", "082145.465000", "082147.465000", "082149.465000", "082151.465000", "082153.465000", "082155.465000", "082157.465000", "082159.465000", "082201.465000", "082203.465000", "082205.465000", "082207.465000", "082209.465000", "082211.465000", "082213.465000", "082215.465000", "082217.465000", "082219.465000", "082221.465000", "082223.465000", "082225.465000", "082227.465000", "082229.465000", "082231.465000", "082233.465000", "082235.465000", "082237.465000", "082239.465000", "082241.465000", "082243.465000", "082245.465000", "082247.465000", "082249.465000", "082251.465000", "082253.465000", "082255.465000", "082257.465000", "082259.465000", "082301.465000", "082303.465000", "082305.465000", "082307.465000", "082309.465000", "082311.465000", "082313.465000", "082315.465000", "082317.465000", "082319.465000", "082321.465000", "082323.465000", "082325.465000", "082327.465000", "082329.465000", "082331.465000", "082333.465000", "082335.465000", "082337.465000", "082339.465000", "082341.465000", "082343.465000", "082345.465000", "082347.465000", "082349.465000", "082351.465000", "082353.465000", "082355.465000", "082357.465000", "082359.465000", "082401.465000", "082403.465000", "082405.465000", "082407.465000", "082409.465000", "082411.465000", "082413.465000", "082415.465000", "082417.465000", "082419.465000", "082421.465000", "082423.465000", "082425.465000", "082427.465000", "082429.465000", "082431.465000", "082433.465000", "082435.465000", "082437.465000", "082439.465000", "082441.465000", "082443.465000", "082445.465000", "082447.465000", "082449.465000", "082451.465000", "082453.465000", "082455.465000", "082457.465000", "082459.465000", "082501.465000", "082503.465000", "082505.465000", "082507.465000", "082509.465000", "082511.465000", "082513.465000", "082515.465000", "082517.465000", "082519.465000", "082521.465000", "082523.465000", "082525.465000", "082527.465000", "082529.465000", "082531.465000", "082533.465000", "082535.465000", "082537.465000", "082539.465000", "082541.465000", "082543.465000", "082545.465000", "082547.465000", "082549.465000", "082551.465000", "082553.465000", "082555.465000", "082557.465000", "082559.465000", "082601.465000", "082603.465000", "082605.465000", "082607.465000", "082609.465000", "082611.465000", "082613.465000", "082615.465000", "082617.465000", "082619.465000", "082621.465000"],
      "ContentTime": ["082037.811000", "082037.819000", "082037.821000", "082037.824000", "082037.826000", "082037.828000", "082037.830000", "082037.833000", "082037.836000", "082037.838000", "082037.841000", "082037.843000", "082037.845000", "082037.848000", "082037.850000", "082037.852000", "082037.855000", "082037.857000", "082037.859000", "082037.862000", "082037.864000", "082037.866000", "082037.869000", "082037.880000", "082037.882000", "082037.885000", "082037.887000", "082117.807000", "082117.810000", "082117.812000", "082117.814000", "082117.817000", "082117.819000", "082117.821000", "082117.824000", "082117.826000", "082117.828000", "082117.830000", "082117.833000", "082117.835000", "082117.838000", "082117.840000", "082117.843000", "082117.845000", "082117.847000", "082117.850000", "082117.852000", "082157.807000", "082157.810000", "082157.812000", "082157.814000", "082157.817000", "082157.819000", "082157.821000", "082157.824000", "082157.826000", "082157.828000", "082157.830000", "082157.833000", "082157.835000", "082157.838000", "082157.841000", "082157.843000", "082157.846000", "082157.848000", "082157.850000", "082157.853000", "082237.807000", "082237.810000", "082237.812000", "082237.815000", "082237.817000", "082237.819000", "082237.822000", "082237.824000", "082237.826000", "082237.829000", "082237.831000", "082237.833000", "082237.836000", "082237.838000", "082237.840000", "082237.843000", "082237.845000", "082237.847000", "082237.850000", "082237.852000", "082317.807000", "082317.810000", "082317.812000", "082317.814000", "082317.817000", "082317.819000", "082317.821000", "082317.824000", "082317.826000", "082317.828000", "082317.831000", "082317.833000", "082317.835000", "082317.838000", "082317.841000", "082317.843000", "082317.845000", "082317.848000", "082317.850000", "082317.866000", "082357.807000", "082357.810000", "082357.812000", "082357.815000", "082357.817000", "082357.819000", "082357.822000", "082357.824000", "082357.826000", "082357.828000", "082357.831000", "082357.833000", "082357.836000", "082357.838000", "082357.840000", "082357.843000", "082357.845000", "082357.847000", "082357.849000", "082357.852000", "082437.807000", "082437.810000", "082437.812000", "082437.815000", "082437.817000", "082437.819000", "082437.821000", "082437.824000", "082437.826000", "082437.828000", "082437.830000", "082437.839000", "082437.841000", "082437.843000", "082437.845000", "082437.848000", "082437.850000", "082437.852000", "082437.854000", "082437.857000", "082517.806000", "082517.809000", "082517.811000", "082517.814000", "082517.816000", "082517.818000", "082517.821000", "082517.823000", "082517.825000", "082517.827000", "082517.830000", "082517.832000", "082517.836000", "082517.838000", "082517.840000", "082517.843000", "082517.845000", "082517.847000", "082517.849000", "082517.852000", "082557.807000", "082557.810000", "082557.812000", "082557.814000", "082557.817000", "082557.819000", "082557.821000", "082557.824000", "082557.826000", "082557.828000", "082557.831000", "082557.833000", "082557.836000", "082557.838000", "082557.840000", "082557.843000", "082557.845000", "082557.847000", "082557.850000", "082557.852000", "082622.985000", "082622.987000", "082622.990000", "082622.992000", "082622.994000", "082622.997000", "082623.000000", "082623.002000", "082623.005000", "082623.007000", "082623.009000", "082623.012000", "082623.014000"],
      "InstanceCreationTime": ["082037.811000", "082037.819000", "082037.821000", "082037.824000", "082037.826000", "082037.828000", "082037.830000", "082037.833000", "082037.836000", "082037.838000", "082037.841000", "082037.843000", "082037.845000", "082037.848000", "082037.850000", "082037.852000", "082037.855000", "082037.857000", "082037.859000", "082037.862000", "082037.864000", "082037.866000", "082037.869000", "082037.880000", "082037.882000", "082037.885000", "082037.887000", "082117.807000", "082117.810000", "082117.812000", "082117.814000", "082117.817000", "082117.819000", "082117.821000", "082117.824000", "082117.826000", "082117.828000", "082117.830000", "082117.833000", "082117.835000", "082117.838000", "082117.840000", "082117.843000", "082117.845000", "082117.847000", "082117.850000", "082117.852000", "082157.807000", "082157.810000", "082157.812000", "082157.814000", "082157.817000", "082157.819000", "082157.821000", "082157.824000", "082157.826000", "082157.828000", "082157.830000", "082157.833000", "082157.835000", "082157.838000", "082157.841000", "082157.843000", "082157.846000", "082157.848000", "082157.850000", "082157.853000", "082237.807000", "082237.810000", "082237.812000", "082237.815000", "082237.817000", "082237.819000", "082237.822000", "082237.824000", "082237.826000", "082237.829000", "082237.831000", "082237.833000", "082237.836000", "082237.838000", "082237.840000", "082237.843000", "082237.845000", "082237.847000", "082237.850000", "082237.852000", "082317.807000", "082317.810000", "082317.812000", "082317.814000", "082317.817000", "082317.819000", "082317.821000", "082317.824000", "082317.826000", "082317.828000", "082317.831000", "082317.833000", "082317.835000", "082317.838000", "082317.841000", "082317.843000", "082317.845000", "082317.848000", "082317.850000", "082317.866000", "082357.807000", "082357.810000", "082357.812000", "082357.815000", "082357.817000", "082357.819000", "082357.822000", "082357.824000", "082357.826000", "082357.828000", "082357.831000", "082357.833000", "082357.836000", "082357.838000", "082357.840000", "082357.843000", "082357.845000", "082357.847000", "082357.849000", "082357.852000", "082437.807000", "082437.810000", "082437.812000", "082437.815000", "082437.817000", "082437.819000", "082437.821000", "082437.824000", "082437.826000", "082437.828000", "082437.830000", "082437.839000", "082437.841000", "082437.843000", "082437.845000", "082437.848000", "082437.850000", "082437.852000", "082437.854000", "082437.857000", "082517.806000", "082517.809000", "082517.811000", "082517.814000", "082517.816000", "082517.818000", "082517.821000", "082517.823000", "082517.825000", "082517.827000", "082517.830000", "082517.832000", "082517.836000", "082517.838000", "082517.840000", "082517.843000", "082517.845000", "082517.847000", "082517.849000", "082517.852000", "082557.807000", "082557.810000", "082557.812000", "082557.814000", "082557.817000", "082557.819000", "082557.821000", "082557.824000", "082557.826000", "082557.828000", "082557.831000", "082557.833000", "082557.836000", "082557.838000", "082557.840000", "082557.843000", "082557.845000", "082557.847000", "082557.850000", "082557.852000", "082622.985000", "082622.987000", "082622.990000", "082622.992000", "082622.994000", "082622.997000", "082623.000000", "082623.002000", "082623.005000", "082623.007000", "082623.009000", "082623.012000", "082623.014000"],
      "InstanceNumber": [1, 2, 3, 4, 5, 6, 7, 8, 9, 10, 11, 12, 13, 14, 15, 16, 17, 18, 19, 20, 21, 22, 23, 24, 25, 26, 27, 28, 29, 30, 31, 32, 33, 34, 35, 36, 37, 38, 39, 40, 41, 42, 43, 44, 45, 46, 47, 48, 49, 50, 51, 52, 53, 54, 55, 56, 57, 58, 59, 60, 61, 62, 63, 64, 65, 66, 67, 68, 69, 70, 71, 72, 73, 74, 75, 76, 77, 78, 79, 80, 81, 82, 83, 84, 85, 86, 87, 88, 89, 90, 91, 92, 93, 94, 95, 96, 97, 98, 99, 100, 101, 102, 103, 104, 105, 106, 107, 108, 109, 110, 111, 112, 113, 114, 115, 116, 117, 118, 119, 120, 121, 122, 123, 124, 125, 126, 127, 128, 129, 130, 131, 132, 133, 134, 135, 136, 137, 138, 139, 140, 141, 142, 143, 144, 145, 146, 147, 148, 149, 150, 151, 152, 153, 154, 155, 156, 157, 158, 159, 160, 161, 162, 163, 164, 165, 166, 167, 168, 169, 170, 171, 172, 173, 174, 175, 176, 177, 178, 179, 180, 181, 182, 183, 184, 185, 186, 187, 188, 189, 190, 191, 192, 193, 194, 195, 196, 197, 198, 199, 200],
      "WindowCenter": [1405.0, 1406.0, 1405.0, 1406.0, 1406.0, 1406.0, 1405.0, 1406.0, 1406.0, 1405.0, 1405.0, 1405.0, 1405.0, 1405.0, 1405.0, 1405.0, 1405.0, 1405.0, 1404.0, 1404.0, 1405.0, 1404.0, 1405.0, 1405.0, 1404.0, 1404.0, 1404.0, 1404.0, 1404.0, 1404.0, 1403.0, 1404.0, 1404.0, 1403.0, 1403.0, 1404.0, 1403.0, 1404.0, 1404.0, 1404.0, 1404.0, 1404.0, 1404.0, 1404.0, 1404.0, 1403.0, 1403.0, 1403.0, 1403.0, 1404.0, 1403.0, 1404.0, 1403.0, 1403.0, 1403.0, 1404.0, 1404.0, 1403.0, 1403.0, 1404.0, 1403.0, 1403.0, 1403.0, 1403.0, 1403.0, 1403.0, 1403.0, 1403.0, 1403.0, 1403.0, 1403.0, 1402.0, 1402.0, 1403.0, 1403.0, 1403.0, 1403.0, 1402.0, 1402.0, 1403.0, 1403.0, 1403.0, 1403.0, 1403.0, 1403.0, 1402.0, 1402.0, 1401.0, 1402.0, 1401.0, 1401.0, 1402.0, 1401.0, 1402.0, 1401.0, 1401.0, 1401.0, 1402.0, 1402.0, 1401.0, 1402.0, 1401.0, 1401.0, 1401.0, 1401.0, 1401.0, 1400.0, 1401.0, 1401.0, 1401.0, 1401.0, 1401.0, 1401.0, 1401.0, 1401.0, 1401.0, 1401.0, 1400.0, 1401.0, 1401.0, 1401.0, 1401.0, 1401.0, 1400.0, 1400.0, 1400.0, 1400.0, 1400.0, 1401.0, 1401.0, 1401.0, 1400.0, 1401.0, 1400.0, 1400.0, 1400.0, 1400.0, 1401.0, 1400.0, 1400.0, 1400.0, 1400.0, 1401.0, 1400.0, 1400.0, 1400.0, 1400.0, 1400.0, 1401.0, 1400.0, 1399.0, 1400.0, 1399.0, 1400.0, 1399.0, 1399.0, 1400.0, 1399.0, 1400.0, 1399.0, 1400.0, 1399.0, 1399.0, 1400.0, 1400.0, 1400.0, 1399.0, 1399.0, 1399.0, 1399.0, 1399.0, 1399.0, 1399.0, 1399.0, 1399.0, 1399.0, 1399.0, 1399.0, 1399.0, 1399.0, 1399.0, 1399.0, 1399.0, 1399.0, 1399.0, 1398.0, 1399.0, 1398.0, 1399.0, 1398.0, 1398.0, 1399.0, 1398.0, 1398.0, 1398.0, 1398.0, 1398.0, 1399.0, 1398.0, 1398.0],
      "WindowWidth": [3349.0, 3348.0, 3349.0, 3348.0, 3348.0, 3348.0, 3348.0, 3348.0, 3348.0, 3348.0, 3348.0, 3348.0, 3348.0, 3348.0, 3348.0, 3348.0, 3348.0, 3347.0, 3348.0, 3348.0, 3347.0, 3348.0, 3347.0, 3347.0, 3347.0, 3347.0, 3347.0, 3347.0, 3346.0, 3347.0, 3347.0, 3347.0, 3347.0, 3347.0, 3347.0, 3347.0, 3347.0, 3347.0, 3347.0, 3347.0, 3347.0, 3347.0, 3347.0, 3347.0, 3347.0, 3347.0, 3347.0, 3347.0, 3347.0, 3346.0, 3347.0, 3346.0, 3347.0, 3347.0, 3347.0, 3346.0, 3346.0, 3347.0, 3347.0, 3346.0, 3347.0, 3347.0, 3346.0, 3347.0, 3347.0, 3347.0, 3347.0, 3347.0, 3347.0, 3347.0, 3347.0, 3347.0, 3346.0, 3346.0, 3346.0, 3346.0, 3346.0, 3346.0, 3346.0, 3346.0, 3346.0, 3346.0, 3346.0, 3346.0, 3346.0, 3346.0, 3346.0, 3346.0, 3346.0, 3346.0, 3346.0, 3346.0, 3346.0, 3346.0, 3346.0, 3346.0, 3345.0, 3345.0, 3345.0, 3345.0, 3345.0, 3345.0, 3345.0, 3345.0, 3345.0, 3344.0, 3345.0, 3345.0, 3345.0, 3345.0, 3345.0, 3345.0, 3345.0, 3345.0, 3345.0, 3345.0, 3345.0, 3345.0, 3345.0, 3345.0, 3345.0, 3345.0, 3345.0, 3345.0, 3345.0, 3345.0, 3345.0, 3345.0, 3345.0, 3345.0, 3345.0, 3345.0, 3345.0, 3345.0, 3345.0, 3345.0, 3345.0, 3344.0, 3345.0, 3345.0, 3345.0, 3345.0, 3345.0, 3345.0, 3345.0, 3345.0, 3345.0, 3345.0, 3344.0, 3344.0, 3344.0, 3344.0, 3344.0, 3345.0, 3344.0, 3344.0, 3344.0, 3344.0, 3344.0, 3344.0, 3344.0, 3344.0, 3344.0, 3344.0, 3344.0, 3344.0, 3344.0, 3344.0, 3344.0, 3344.0, 3344.0, 3344.0, 3344.0, 3344.0, 3344.0, 3344.0, 3344.0, 3344.0, 3344.0, 3344.0, 3344.0, 3344.0, 3344.0, 3344.0, 3344.0, 3344.0, 3344.0, 3344.0, 3343.0, 3343.0, 3344.0, 3344.0, 3344.0, 3343.0, 3344.0, 3343.0, 3343.0, 3343.0, 3343.0, 3343.0]
    },
    "slices": {}
  }
}