{
  "AcquisitionMatrixPE": 80,
  "AcquisitionNumber": 1,
  "AcquisitionTime": "09:36:9.795000",
  "BandwidthPerPixelPhaseEncode": 48.077,
  "BaseResolution": 80,
  "BodyPartExamined": "BRAIN",
  "CoilCombinationMethod": "Sum of Squares",
  "ConsistencyInfo": "N4_VE11C_LATEST_20160120",
  "ConversionSoftware": "dcm2niix",
  "ConversionSoftwareVersion": "v1.0.20220720",
  "DerivedVendorReportedEchoSpacing": 0.000519999,
  "DeviceSerialNumber": "66112",
  "DwellTime": 2.7e-06,
  "EchoTime": 0.035,
  "EchoTrainLength": 39,
  "EffectiveEchoSpacing": 0.00026,
  "FlipAngle": 90,
  "HeudiconvVersion": "0.13.1",
  "ImageOrientationPatientDICOM": [0.991369, -0.127409, -0.0308878, 0.126997, 0.874841, 0.467466],
  "ImageOrientationText": "Tra>Cor(27.9)>Sag(1.9)",
  "ImageType": [
    "ORIGINAL",
    "PRIMARY",
    "M",
    "ND",
    "NORM",
    "MOSAIC"
],
  "ImagingFrequency": 123.253,
  "InPlanePhaseEncodingDirectionDICOM": "COL",
  "InstitutionAddress": "Maynard 3,Hanover,NH,US,03755",
  "InstitutionName": "Dartmouth College - PBS",
  "InstitutionalDepartmentName": "Department",
  "MRAcquisitionType": "2D",
  "MagneticFieldStrength": 3,
  "Manufacturer": "Siemens",
  "ManufacturersModelName": "Prisma",
  "MatrixCoilMode": "GRAPPA",
  "Modality": "MR",
  "NonlinearGradientCorrection": false,
  "ParallelReductionFactorInPlane": 2,
  "PartialFourier": 1,
  "PatientPosition": "HFS",
  "PercentPhaseFOV": 100,
  "PercentSampling": 100,
  "PhaseEncodingDirection": "j-",
  "PhaseEncodingSteps": 79,
  "PhaseResolution": 1,
  "PixelBandwidth": 2315,
  "ProcedureStepDescription": "dbic^QA",
  "ProtocolName": "func-bold_task-rest_acq-p2",
  "PulseSequenceDetails": "%SiemensSeq%\\ep2d_bold",
  "ReceiveCoilActiveElements": "HEA;HEP",
  "ReceiveCoilName": "Head_32",
  "ReconMatrixPE": 80,
  "RefLinesPE": 24,
  "RepetitionTime": 2,
  "SAR": 0.0556641,
  "ScanOptions": "FS",
  "ScanningSequence": "EP",
  "SequenceName": "*epfid2d1_80",
  "SequenceVariant": "SK",
  "SeriesDescription": "func-bold_task-rest_acq-p2",
  "SeriesNumber": 5,
  "ShimSetting": [4151, -7699, -7516, 251, -67, -151, 9, 82],
  "SliceThickness": 3.5,
  "SliceTiming": [0.99, 0, 1.0575, 0.0675, 1.1225, 0.1325, 1.19, 0.2, 1.255, 0.265, 1.32, 0.33, 1.3875, 0.3975, 1.4525, 0.4625, 1.52, 0.53, 1.585, 0.595, 1.65, 0.66, 1.7175, 0.7275, 1.7825, 0.7925, 1.85, 0.86, 1.915, 0.925],
  "SoftwareVersions": "syngo MR E11",
  "SpacingBetweenSlices": 3.99,
  "StationName": "AWP66112",
  "TaskName": "rest",
  "TotalReadoutTime": 0.02054,
  "TxRefAmp": 234.317,
  "dcmmeta_affine": [
    [-2.9741077423095703, 0.3809921145439148, 0.12982356548309326, 98.7898941040039],
    [0.38222578167915344, 2.6245243549346924, 1.864741563796997, -134.287353515625],
    [-0.09266334027051926, -1.4023970365524292, 3.5250511169433594, 24.037521362304688],
    [0.0, 0.0, 0.0, 1.0]
],
  "dcmmeta_reorient_transform": [
    [0.0, -1.0, 0.0, 79.0],
    [1.0, 0.0, 0.0, 0.0],
    [0.0, 0.0, 1.0, 0.0],
    [0.0, 0.0, 0.0, 1.0]
],
  "dcmmeta_shape": [80, 80, 30, 200],
  "dcmmeta_slice_dim": 2,
  "dcmmeta_version": 0.6,
  "global": {
    "const": {
      "AccessionNumber": "qa",
      "AcquisitionMatrix": [80, 0, 0, 80],
      "AngioFlag": "N",
      "BitsAllocated": 16,
      "BitsStored": 12,
      "BodyPartExamined": "BRAIN",
      "Columns": 480,
      "EchoNumbers": 1,
      "EchoTime": 35.0,
      "EchoTrainLength": 39,
      "FlipAngle": 90.0,
      "HighBit": 11,
      "ImageOrientationPatient": [0.99136925309425, -0.1274085908113, -0.0308877808658, 0.12699737228321, 0.87484142385971, 0.46746566775784],
      "ImagePositionPatient": [-799.90824303788, -521.50975975944, -348.69857398461],
      "ImageType": [
        "ORIGINAL",
        "PRIMARY",
        "M",
        "ND",
        "NORM",
        "MOSAIC"
],
      "ImagedNucleus": "1H",
      "ImagingFrequency": 123.252519,
      "InPlanePhaseEncodingDirection": "COL",
      "MRAcquisitionType": "2D",
      "MagneticFieldStrength": 3.0,
      "Manufacturer": "SIEMENS",
      "ManufacturerModelName": "Prisma",
      "Modality": "MR",
      "NumberOfAverages": 1.0,
      "NumberOfPhaseEncodingSteps": 79,
      "PercentPhaseFieldOfView": 100.0,
      "PercentSampling": 100.0,
      "PerformedProcedureStepStartTime": "093423.698000",
      "PhotometricInterpretation": "MONOCHROME2",
      "PixelBandwidth": 2315.0,
      "PixelRepresentation": 0,
      "PixelSpacing": [3.0, 3.0],
      "ProtocolName": "func-bold_task-rest_acq-p2",
      "RepetitionTime": 2000.0,
      "Rows": 480,
      "SAR": 0.05566413646241,
      "SamplesPerPixel": 1,
      "ScanOptions": "FS",
      "ScanningSequence": "EP",
      "SequenceName": "*epfid2d1_80",
      "SequenceVariant": "SK",
      "SeriesDescription": "func-bold_task-rest_acq-p2",
      "SeriesNumber": 5,
      "SeriesTime": "093652.194000",
      "SliceLocation": -38.308887696555,
      "SliceThickness": 3.5,
      "SmallestImagePixelValue": 0,
      "SoftwareVersions": "syngo MR E11",
      "SpacingBetweenSlices": 3.9900001591965,
      "SpecificCharacterSet": "ISO_IR 100",
      "StudyID": "62",
      "StudyTime": "093423.531000",
      "TransmitCoilName": "Body",
      "VariableFlipAngleFlag": "N",
      "WindowCenterWidthExplanation": "Algo1",
      "dBdt": 0.0},
    "slices": {}
  },
  "time": {
    "samples": {
      "AcquisitionNumber": [1, 2, 3, 4, 5, 6, 7, 8, 9, 10, 11, 12, 13, 14, 15, 16, 17, 18, 19, 20, 21, 22, 23, 24, 25, 26, 27, 28, 29, 30, 31, 32, 33, 34, 35, 36, 37, 38, 39, 40, 41, 42, 43, 44, 45, 46, 47, 48, 49, 50, 51, 52, 53, 54, 55, 56, 57, 58, 59, 60, 61, 62, 63, 64, 65, 66, 67, 68, 69, 70, 71, 72, 73, 74, 75, 76, 77, 78, 79, 80, 81, 82, 83, 84, 85, 86, 87, 88, 89, 90, 91, 92, 93, 94, 95, 96, 97, 98, 99, 100, 101, 102, 103, 104, 105, 106, 107, 108, 109, 110, 111, 112, 113, 114, 115, 116, 117, 118, 119, 120, 121, 122, 123, 124, 125, 126, 127, 128, 129, 130, 131, 132, 133, 134, 135, 136, 137, 138, 139, 140, 141, 142, 143, 144, 145, 146, 147, 148, 149, 150, 151, 152, 153, 154, 155, 156, 157, 158, 159, 160, 161, 162, 163, 164, 165, 166, 167, 168, 169, 170, 171, 172, 173, 174, 175, 176, 177, 178, 179, 180, 181, 182, 183, 184, 185, 186, 187, 188, 189, 190, 191, 192, 193, 194, 195, 196, 197, 198, 199, 200],
      "AcquisitionTime": ["093609.795000", "093611.795000", "093613.795000", "093615.795000", "093617.795000", "093619.795000", "093621.795000", "093623.795000", "093625.795000", "093627.795000", "093629.795000", "093631.795000", "093633.795000", "093635.795000", "093637.795000", "093639.795000", "093641.795000", "093643.795000", "093645.795000", "093647.795000", "093649.795000", "093651.795000", "093653.795000", "093655.795000", "093657.795000", "093659.795000", "093701.795000", "093703.795000", "093705.795000", "093707.795000", "093709.795000", "093711.795000", "093713.795000", "093715.795000", "093717.795000", "093719.795000", "093721.795000", "093723.795000", "093725.795000", "093727.795000", "093729.795000", "093731.795000", "093733.795000", "093735.795000", "093737.795000", "093739.795000", "093741.795000", "093743.795000", "093745.795000", "093747.795000", "093749.795000", "093751.795000", "093753.795000", "093755.795000", "093757.795000", "093759.795000", "093801.795000", "093803.795000", "093805.795000", "093807.795000", "093809.795000", "093811.795000", "093813.795000", "093815.795000", "093817.795000", "093819.795000", "093821.795000", "093823.795000", "093825.795000", "093827.795000", "093829.795000", "093831.795000", "093833.795000", "093835.795000", "093837.795000", "093839.795000", "093841.795000", "093843.795000", "093845.795000", "093847.795000", "093849.795000", "093851.795000", "093853.795000", "093855.795000", "093857.795000", "093859.795000", "093901.795000", "093903.795000", "093905.795000", "093907.795000", "093909.795000", "093911.795000", "093913.795000", "093915.795000", "093917.795000", "093919.795000", "093921.795000", "093923.795000", "093925.795000", "093927.795000", "093929.795000", "093931.795000", "093933.795000", "093935.795000", "093937.795000", "093939.795000", "093941.795000", "093943.795000", "093945.795000", "093947.795000", "093949.795000", "093951.795000", "093953.795000", "093955.795000", "093957.795000", "093959.795000", "094001.795000", "094003.795000", "094005.795000", "094007.795000", "094009.795000", "094011.795000", "094013.795000", "094015.795000", "094017.795000", "094019.795000", "094021.795000", "094023.795000", "094025.795000", "094027.795000", "094029.795000", "094031.795000", "094033.795000", "094035.795000", "094037.795000", "094039.795000", "094041.795000", "094043.795000", "094045.795000", "094047.795000", "094049.795000", "094051.795000", "094053.795000", "094055.795000", "094057.795000", "094059.795000", "094101.795000", "094103.795000", "094105.795000", "094107.795000", "094109.795000", "094111.795000", "094113.795000", "094115.795000", "094117.795000", "094119.795000", "094121.795000", "094123.795000", "094125.795000", "094127.795000", "094129.795000", "094131.795000", "094133.795000", "094135.795000", "094137.795000", "094139.795000", "094141.795000", "094143.795000", "094145.795000", "094147.795000", "094149.795000", "094151.795000", "094153.795000", "094155.795000", "094157.795000", "094159.795000", "094201.795000", "094203.795000", "094205.795000", "094207.795000", "094209.795000", "094211.795000", "094213.795000", "094215.795000", "094217.795000", "094219.795000", "094221.795000", "094223.795000", "094225.795000", "094227.795000", "094229.795000", "094231.795000", "094233.795000", "094235.795000", "094237.795000", "094239.795000", "094241.795000", "094243.795000", "094245.795000", "094247.795000"],
      "ContentTime": ["093652.197000", "093652.201000", "093652.212000", "093652.215000", "093652.217000", "093652.220000", "093652.222000", "093652.225000", "093652.227000", "093652.230000", "093652.232000", "093652.235000", "093652.237000", "093652.240000", "093652.242000", "093652.245000", "093652.247000", "093652.250000", "093652.259000", "093652.261000", "093652.264000", "093732.193000", "093732.195000", "093732.198000", "093732.201000", "093732.203000", "093732.206000", "093732.208000", "093732.211000", "093732.213000", "093732.216000", "093732.218000", "093732.221000", "093732.223000", "093732.226000", "093732.229000", "093732.231000", "093732.234000", "093732.236000", "093732.239000", "093732.241000", "093812.191000", "093812.194000", "093812.214000", "093812.216000", "093812.219000", "093812.221000", "093812.224000", "093812.226000", "093812.229000", "093812.231000", "093812.234000", "093812.237000", "093812.239000", "093812.241000", "093812.244000", "093812.247000", "093812.249000", "093812.252000", "093812.254000", "093812.257000", "093852.192000", "093852.195000", "093852.198000", "093852.200000", "093852.203000", "093852.206000", "093852.208000", "093852.211000", "093852.213000", "093852.216000", "093852.218000", "093852.221000", "093852.223000", "093852.226000", "093852.228000", "093852.231000", "093852.233000", "093852.236000", "093852.239000", "093852.241000", "093932.192000", "093932.195000", "093932.198000", "093932.201000", "093932.203000", "093932.206000", "093932.208000", "093932.211000", "093932.213000", "093932.216000", "093932.218000", "093932.221000", "093932.223000", "093932.226000", "093932.228000", "093932.231000", "093932.233000", "093932.236000", "093932.239000", "093932.241000", "094012.191000", "094012.194000", "094012.197000", "094012.200000", "094012.202000", "094012.205000", "094012.207000", "094012.216000", "094012.219000", "094012.221000", "094012.224000", "094012.227000", "094012.229000", "094012.232000", "094012.234000", "094012.237000", "094012.239000", "094012.242000", "094012.244000", "094012.247000", "094052.192000", "094052.195000", "094052.198000", "094052.200000", "094052.203000", "094052.205000", "094052.208000", "094052.211000", "094052.213000", "094052.216000", "094052.218000", "094052.221000", "094052.223000", "094052.226000", "094052.229000", "094052.231000", "094052.234000", "094052.236000", "094052.246000", "094052.249000", "094132.192000", "094132.195000", "094132.198000", "094132.200000", "094132.203000", "094132.205000", "094132.208000", "094132.211000", "094132.213000", "094132.216000", "094132.218000", "094132.221000", "094132.223000", "094132.226000", "094132.228000", "094132.231000", "094132.234000", "094132.236000", "094132.239000", "094132.241000", "094212.193000", "094212.195000", "094212.198000", "094212.201000", "094212.203000", "094212.206000", "094212.208000", "094212.211000", "094212.213000", "094212.216000", "094212.218000", "094212.221000", "094212.223000", "094212.226000", "094212.229000", "094212.231000", "094212.234000", "094212.236000", "094212.239000", "094212.241000", "094232.192000", "094232.194000", "094232.197000", "094232.200000", "094232.202000", "094232.205000", "094232.207000", "094232.210000", "094232.212000", "094232.215000", "094249.254000", "094249.257000", "094249.266000", "094249.268000", "094249.271000", "094249.275000", "094249.279000", "094249.282000", "094249.284000"],
      "InstanceCreationTime": ["093652.197000", "093652.201000", "093652.212000", "093652.215000", "093652.217000", "093652.220000", "093652.222000", "093652.225000", "093652.227000", "093652.230000", "093652.232000", "093652.235000", "093652.237000", "093652.240000", "093652.242000", "093652.245000", "093652.247000", "093652.250000", "093652.259000", "093652.261000", "093652.264000", "093732.193000", "093732.195000", "093732.198000", "093732.201000", "093732.203000", "093732.206000", "093732.208000", "093732.211000", "093732.213000", "093732.216000", "093732.218000", "093732.221000", "093732.223000", "093732.226000", "093732.229000", "093732.231000", "093732.234000", "093732.236000", "093732.239000", "093732.241000", "093812.191000", "093812.194000", "093812.214000", "093812.216000", "093812.219000", "093812.221000", "093812.224000", "093812.226000", "093812.229000", "093812.231000", "093812.234000", "093812.237000", "093812.239000", "093812.241000", "093812.244000", "093812.247000", "093812.249000", "093812.252000", "093812.254000", "093812.257000", "093852.192000", "093852.195000", "093852.198000", "093852.200000", "093852.203000", "093852.206000", "093852.208000", "093852.211000", "093852.213000", "093852.216000", "093852.218000", "093852.221000", "093852.223000", "093852.226000", "093852.228000", "093852.231000", "093852.233000", "093852.236000", "093852.239000", "093852.241000", "093932.192000", "093932.195000", "093932.198000", "093932.201000", "093932.203000", "093932.206000", "093932.208000", "093932.211000", "093932.213000", "093932.216000", "093932.218000", "093932.221000", "093932.223000", "093932.226000", "093932.228000", "093932.231000", "093932.233000", "093932.236000", "093932.239000", "093932.241000", "094012.191000", "094012.194000", "094012.197000", "094012.200000", "094012.202000", "094012.205000", "094012.207000", "094012.216000", "094012.219000", "094012.221000", "094012.224000", "094012.227000", "094012.229000", "094012.232000", "094012.234000", "094012.237000", "094012.239000", "094012.242000", "094012.244000", "094012.247000", "094052.192000", "094052.195000", "094052.198000", "094052.200000", "094052.203000", "094052.205000", "094052.208000", "094052.211000", "094052.213000", "094052.216000", "094052.218000", "094052.221000", "094052.223000", "094052.226000", "094052.229000", "094052.231000", "094052.234000", "094052.236000", "094052.246000", "094052.249000", "094132.192000", "094132.195000", "094132.198000", "094132.200000", "094132.203000", "094132.205000", "094132.208000", "094132.211000", "094132.213000", "094132.216000", "094132.218000", "094132.221000", "094132.223000", "094132.226000", "094132.228000", "094132.231000", "094132.234000", "094132.236000", "094132.239000", "094132.241000", "094212.193000", "094212.195000", "094212.198000", "094212.201000", "094212.203000", "094212.206000", "094212.208000", "094212.211000", "094212.213000", "094212.216000", "094212.218000", "094212.221000", "094212.223000", "094212.226000", "094212.229000", "094212.231000", "094212.234000", "094212.236000", "094212.239000", "094212.241000", "094232.192000", "094232.194000", "094232.197000", "094232.200000", "094232.202000", "094232.205000", "094232.207000", "094232.210000", "094232.212000", "094232.215000", "094249.254000", "094249.257000", "094249.266000", "094249.268000", "094249.271000", "094249.275000", "094249.279000", "094249.282000", "094249.284000"],
      "InstanceNumber": [1, 2, 3, 4, 5, 6, 7, 8, 9, 10, 11, 12, 13, 14, 15, 16, 17, 18, 19, 20, 21, 22, 23, 24, 25, 26, 27, 28, 29, 30, 31, 32, 33, 34, 35, 36, 37, 38, 39, 40, 41, 42, 43, 44, 45, 46, 47, 48, 49, 50, 51, 52, 53, 54, 55, 56, 57, 58, 59, 60, 61, 62, 63, 64, 65, 66, 67, 68, 69, 70, 71, 72, 73, 74, 75, 76, 77, 78, 79, 80, 81, 82, 83, 84, 85, 86, 87, 88, 89, 90, 91, 92, 93, 94, 95, 96, 97, 98, 99, 100, 101, 102, 103, 104, 105, 106, 107, 108, 109, 110, 111, 112, 113, 114, 115, 116, 117, 118, 119, 120, 121, 122, 123, 124, 125, 126, 127, 128, 129, 130, 131, 132, 133, 134, 135, 136, 137, 138, 139, 140, 141, 142, 143, 144, 145, 146, 147, 148, 149, 150, 151, 152, 153, 154, 155, 156, 157, 158, 159, 160, 161, 162, 163, 164, 165, 166, 167, 168, 169, 170, 171, 172, 173, 174, 175, 176, 177, 178, 179, 180, 181, 182, 183, 184, 185, 186, 187, 188, 189, 190, 191, 192, 193, 194, 195, 196, 197, 198, 199, 200],
      "LargestImagePixelValue": [2429, 2424, 2426, 2422, 2429, 2428, 2420, 2424, 2431, 2427, 2422, 2427, 2423, 2426, 2429, 2423, 2425, 2419, 2424, 2428, 2426, 2429, 2424, 2426, 2422, 2422, 2425, 2423, 2426, 2431, 2426, 2434, 2428, 2425, 2421, 2424, 2430, 2428, 2429, 2431, 2428, 2430, 2426, 2423, 2423, 2427, 2428, 2426, 2425, 2426, 2423, 2424, 2426, 2421, 2435, 2426, 2429, 2424, 2423, 2426, 2425, 2431, 2424, 2422, 2420, 2428, 2424, 2422, 2415, 2427, 2429, 2421, 2419, 2418, 2420, 2417, 2427, 2421, 2426, 2424, 2421, 2419, 2420, 2425, 2419, 2420, 2422, 2419, 2426, 2429, 2429, 2429, 2420, 2428, 2421, 2416, 2421, 2421, 2421, 2422, 2427, 2419, 2424, 2424, 2421, 2419, 2424, 2427, 2424, 2427, 2418, 2428, 2422, 2418, 2431, 2426, 2425, 2430, 2423, 2420, 2422, 2432, 2421, 2420, 2423, 2415, 2423, 2433, 2421, 2423, 2421, 2422, 2434, 2419, 2429, 2422, 2422, 2420, 2423, 2425, 2430, 2425, 2414, 2428, 2423, 2425, 2424, 2426, 2423, 2419, 2425, 2428, 2423, 2424, 2416, 2419, 2419, 2420, 2426, 2420, 2421, 2429, 2425, 2422, 2426, 2429, 2425, 2418, 2429, 2422, 2421, 2424, 2424, 2419, 2424, 2423, 2421, 2426, 2427, 2427, 2427, 2421, 2422, 2425, 2419, 2422, 2424, 2422, 2426, 2425, 2418, 2423, 2417, 2428, 2425, 2421, 2426, 2418, 2422, 2419],
      "WindowCenter": [1063.0, 1063.0, 1063.0, 1063.0, 1063.0, 1063.0, 1063.0, 1063.0, 1063.0, 1063.0, 1063.0, 1063.0, 1063.0, 1063.0, 1063.0, 1063.0, 1063.0, 1063.0, 1063.0, 1063.0, 1063.0, 1063.0, 1063.0, 1063.0, 1063.0, 1063.0, 1063.0, 1063.0, 1063.0, 1063.0, 1063.0, 1063.0, 1063.0, 1063.0, 1063.0, 1063.0, 1063.0, 1063.0, 1062.0, 1063.0, 1063.0, 1062.0, 1062.0, 1062.0, 1063.0, 1063.0, 1063.0, 1062.0, 1062.0, 1063.0, 1062.0, 1062.0, 1062.0, 1062.0, 1062.0, 1062.0, 1062.0, 1062.0, 1062.0, 1062.0, 1062.0, 1062.0, 1062.0, 1062.0, 1062.0, 1062.0, 1062.0, 1062.0, 1062.0, 1062.0, 1062.0, 1062.0, 1062.0, 1062.0, 1062.0, 1062.0, 1062.0, 1062.0, 1062.0, 1062.0, 1062.0, 1062.0, 1062.0, 1062.0, 1062.0, 1062.0, 1062.0, 1062.0, 1062.0, 1062.0, 1062.0, 1062.0, 1062.0, 1062.0, 1062.0, 1062.0, 1062.0, 1062.0, 1062.0, 1062.0, 1062.0, 1062.0, 1062.0, 1062.0, 1062.0, 1062.0, 1062.0, 1062.0, 1062.0, 1062.0, 1062.0, 1062.0, 1062.0, 1062.0, 1062.0, 1062.0, 1062.0, 1062.0, 1062.0, 1062.0, 1062.0, 1062.0, 1062.0, 1062.0, 1062.0, 1062.0, 1062.0, 1062.0, 1062.0, 1062.0, 1062.0, 1062.0, 1062.0, 1062.0, 1062.0, 1062.0, 1062.0, 1062.0, 1062.0, 1062.0, 1062.0, 1062.0, 1062.0, 1062.0, 1062.0, 1062.0, 1062.0, 1062.0, 1062.0, 1062.0, 1062.0, 1062.0, 1062.0, 1062.0, 1062.0, 1062.0, 1062.0, 1062.0, 1062.0, 1062.0, 1062.0, 1062.0, 1062.0, 1062.0, 1062.0, 1062.0, 1062.0, 1062.0, 1062.0, 1062.0, 1062.0, 1062.0, 1062.0, 1062.0, 1062.0, 1062.0, 1062.0, 1062.0, 1062.0, 1062.0, 1062.0, 1061.0, 1062.0, 1062.0, 1062.0, 1062.0, 1062.0, 1062.0, 1062.0, 1062.0, 1062.0, 1062.0, 1062.0, 1062.0, 1062.0, 1062.0, 1062.0, 1062.0, 1062.0, 1062.0],
      "WindowWidth": [2379.0, 2378.0, 2378.0, 2378.0, 2378.0, 2378.0, 2378.0, 2378.0, 2378.0, 2378.0, 2378.0, 2378.0, 2378.0, 2378.0, 2378.0, 2378.0, 2378.0, 2378.0, 2378.0, 2378.0, 2378.0, 2378.0, 2378.0, 2378.0, 2378.0, 2378.0, 2378.0, 2378.0, 2377.0, 2377.0, 2378.0, 2378.0, 2377.0, 2378.0, 2378.0, 2378.0, 2378.0, 2378.0, 2378.0, 2377.0, 2377.0, 2378.0, 2378.0, 2378.0, 2377.0, 2377.0, 2377.0, 2378.0, 2378.0, 2377.0, 2378.0, 2378.0, 2378.0, 2377.0, 2378.0, 2377.0, 2378.0, 2378.0, 2377.0, 2377.0, 2378.0, 2377.0, 2377.0, 2377.0, 2377.0, 2377.0, 2377.0, 2377.0, 2377.0, 2377.0, 2377.0, 2377.0, 2377.0, 2377.0, 2377.0, 2376.0, 2377.0, 2377.0, 2377.0, 2377.0, 2377.0, 2377.0, 2377.0, 2377.0, 2377.0, 2377.0, 2377.0, 2377.0, 2377.0, 2377.0, 2377.0, 2377.0, 2377.0, 2377.0, 2377.0, 2377.0, 2377.0, 2377.0, 2377.0, 2377.0, 2377.0, 2377.0, 2377.0, 2377.0, 2377.0, 2377.0, 2377.0, 2377.0, 2377.0, 2377.0, 2377.0, 2377.0, 2377.0, 2377.0, 2377.0, 2377.0, 2376.0, 2376.0, 2376.0, 2376.0, 2376.0, 2377.0, 2377.0, 2376.0, 2376.0, 2376.0, 2376.0, 2376.0, 2376.0, 2376.0, 2376.0, 2376.0, 2377.0, 2377.0, 2376.0, 2376.0, 2376.0, 2376.0, 2376.0, 2376.0, 2376.0, 2376.0, 2376.0, 2376.0, 2376.0, 2376.0, 2376.0, 2376.0, 2376.0, 2376.0, 2376.0, 2376.0, 2376.0, 2376.0, 2376.0, 2376.0, 2376.0, 2376.0, 2376.0, 2376.0, 2376.0, 2376.0, 2376.0, 2376.0, 2376.0, 2376.0, 2376.0, 2376.0, 2376.0, 2376.0, 2376.0, 2376.0, 2376.0, 2376.0, 2376.0, 2376.0, 2376.0, 2376.0, 2376.0, 2376.0, 2376.0, 2376.0, 2376.0, 2376.0, 2376.0, 2376.0, 2376.0, 2375.0, 2376.0, 2376.0, 2376.0, 2376.0, 2376.0, 2376.0, 2376.0, 2376.0, 2376.0, 2376.0, 2376.0, 2376.0]
    },
    "slices": {}
  }
}