{
  "AcquisitionMatrixPE": 80,
  "AcquisitionNumber": 1,
  "AcquisitionTime": "09:43:4.127500",
  "BandwidthPerPixelPhaseEncode": 44.643,
  "BaseResolution": 80,
  "BodyPartExamined": "BRAIN",
  "CoilCombinationMethod": "Sum of Squares",
  "ConsistencyInfo": "N4_VE11C_LATEST_20160120",
  "ConversionSoftware": "dcm2niix",
  "ConversionSoftwareVersion": "v1.0.20220720",
  "DerivedVendorReportedEchoSpacing": 0.000559998,
  "DeviceSerialNumber": "66112",
  "DwellTime": 2.7e-06,
  "EchoTime": 0.035,
  "EchoTrainLength": 39,
  "EffectiveEchoSpacing": 0.000279999,
  "FlipAngle": 90,
  "HeudiconvVersion": "0.13.1",
  "ImageOrientationPatientDICOM": [0.991369, -0.127409, -0.0308878, 0.126997, 0.874841, 0.467466],
  "ImageOrientationText": "Tra>Cor(27.9)>Sag(1.9)",
  "ImageType": [
    "ORIGINAL",
    "PRIMARY",
    "M",
    "ND",
    "NORM",
    "MOSAIC"
],
  "ImagingFrequency": 123.253,
  "InPlanePhaseEncodingDirectionDICOM": "COL",
  "InstitutionAddress": "Maynard 3,Hanover,NH,US,03755",
  "InstitutionName": "Dartmouth College - PBS",
  "InstitutionalDepartmentName": "Department",
  "MRAcquisitionType": "2D",
  "MagneticFieldStrength": 3,
  "Manufacturer": "Siemens",
  "ManufacturersModelName": "Prisma",
  "Modality": "MR",
  "MultibandAccelerationFactor": 4,
  "NonlinearGradientCorrection": false,
  "ParallelReductionFactorInPlane": 2,
  "PartialFourier": 1,
  "PatientPosition": "HFS",
  "PercentPhaseFOV": 100,
  "PercentSampling": 100,
  "PhaseEncodingDirection": "j-",
  "PhaseEncodingSteps": 79,
  "PhaseResolution": 1,
  "PixelBandwidth": 2315,
  "ProcedureStepDescription": "dbic^QA",
  "ProtocolName": "func-bold_task-rest_acq-p2-s4-3.5mm",
  "PulseSequenceDetails": "%SiemensSeq%\\ep2d_bold",
  "ReceiveCoilActiveElements": "HEA;HEP",
  "ReceiveCoilName": "Head_32",
  "ReconMatrixPE": 80,
  "RefLinesPE": 24,
  "RepetitionTime": 2,
  "SAR": 0.0209313,
  "ScanOptions": "FS",
  "ScanningSequence": "EP",
  "SequenceName": "*epfid2d1_80",
  "SequenceVariant": "SK",
  "SeriesDescription": "func-bold_task-rest_acq-p2-s4-3.5mm",
  "SeriesNumber": 7,
  "ShimSetting": [4151, -7700, -7515, 252, -65, -150, 9, 81],
  "SliceThickness": 3.5,
  "SliceTiming": [1.485, 0, 0.99, 0.2475, 1.2375, 0.7425, 1.7325, 0.495, 1.485, 0, 0.99, 0.2475, 1.2375, 0.7425, 1.7325, 0.495, 1.485, 0, 0.99, 0.2475, 1.2375, 0.7425, 1.7325, 0.495, 1.485, 0, 0.99, 0.2475, 1.2375, 0.7425, 1.7325, 0.495],
  "SoftwareVersions": "syngo MR E11",
  "SpacingBetweenSlices": 3.99,
  "StationName": "AWP66112",
  "TaskName": "rest",
  "TotalReadoutTime": 0.0221199,
  "TxRefAmp": 234.317,
  "dcmmeta_affine": [
    [-2.9741077423095703, 0.3809921145439148, 0.12982355058193207, 98.66006469726562],
    [0.38222578167915344, 2.6245243549346924, 1.8647414445877075, -136.152099609375],
    [-0.09266334027051926, -1.4023970365524292, 3.5250511169433594, 20.512474060058594],
    [0.0, 0.0, 0.0, 1.0]
],
  "dcmmeta_reorient_transform": [
    [0.0, -1.0, 0.0, 79.0],
    [1.0, 0.0, 0.0, 0.0],
    [0.0, 0.0, 1.0, 0.0],
    [0.0, 0.0, 0.0, 1.0]
],
  "dcmmeta_shape": [80, 80, 32, 200],
  "dcmmeta_slice_dim": 2,
  "dcmmeta_version": 0.6,
  "global": {
    "const": {
      "AccessionNumber": "qa",
      "AcquisitionMatrix": [80, 0, 0, 80],
      "AngioFlag": "N",
      "BitsAllocated": 16,
      "BitsStored": 12,
      "BodyPartExamined": "BRAIN",
      "Columns": 480,
      "EchoNumbers": 1,
      "EchoTime": 35.0,
      "EchoTrainLength": 39,
      "FlipAngle": 90.0,
      "HighBit": 11,
      "ImageOrientationPatient": [0.99136925309425, -0.1274085908113, -0.0308877808658, 0.12699737228321, 0.87484142385971, 0.46746566775784],
      "ImagePositionPatient": [-799.77841983003, -519.64501938774, -352.22362128685],
      "ImageType": [
        "ORIGINAL",
        "PRIMARY",
        "M",
        "ND",
        "NORM",
        "MOSAIC"
],
      "ImagedNucleus": "1H",
      "ImagingFrequency": 123.252519,
      "InPlanePhaseEncodingDirection": "COL",
      "MRAcquisitionType": "2D",
      "MagneticFieldStrength": 3.0,
      "Manufacturer": "SIEMENS",
      "ManufacturerModelName": "Prisma",
      "Modality": "MR",
      "NumberOfAverages": 1.0,
      "NumberOfPhaseEncodingSteps": 79,
      "PercentPhaseFieldOfView": 100.0,
      "PercentSampling": 100.0,
      "PerformedProcedureStepStartTime": "093423.698000",
      "PhotometricInterpretation": "MONOCHROME2",
      "PixelBandwidth": 2315.0,
      "PixelRepresentation": 0,
      "PixelSpacing": [3.0, 3.0],
      "ProtocolName": "func-bold_task-rest_acq-p2-s4-3.5mm",
      "RepetitionTime": 2000.0,
      "Rows": 480,
      "SAR": 0.02093133667037,
      "SamplesPerPixel": 1,
      "ScanOptions": "FS",
      "ScanningSequence": "EP",
      "SequenceName": "*epfid2d1_80",
      "SequenceVariant": "SK",
      "SeriesDescription": "func-bold_task-rest_acq-p2-s4-3.5mm",
      "SeriesNumber": 7,
      "SeriesTime": "094352.264000",
      "SliceLocation": -42.298883837183,
      "SliceThickness": 3.5,
      "SmallestImagePixelValue": 0,
      "SoftwareVersions": "syngo MR E11",
      "SpacingBetweenSlices": 3.9899999289394,
      "SpecificCharacterSet": "ISO_IR 100",
      "StudyID": "62",
      "StudyTime": "093423.531000",
      "TransmitCoilName": "Body",
      "VariableFlipAngleFlag": "N",
      "WindowCenterWidthExplanation": "Algo1",
      "dBdt": 0.0},
    "slices": {}
  },
  "time": {
    "samples": {
      "AcquisitionNumber": [1, 2, 3, 4, 5, 6, 7, 8, 9, 10, 11, 12, 13, 14, 15, 16, 17, 18, 19, 20, 21, 22, 23, 24, 25, 26, 27, 28, 29, 30, 31, 32, 33, 34, 35, 36, 37, 38, 39, 40, 41, 42, 43, 44, 45, 46, 47, 48, 49, 50, 51, 52, 53, 54, 55, 56, 57, 58, 59, 60, 61, 62, 63, 64, 65, 66, 67, 68, 69, 70, 71, 72, 73, 74, 75, 76, 77, 78, 79, 80, 81, 82, 83, 84, 85, 86, 87, 88, 89, 90, 91, 92, 93, 94, 95, 96, 97, 98, 99, 100, 101, 102, 103, 104, 105, 106, 107, 108, 109, 110, 111, 112, 113, 114, 115, 116, 117, 118, 119, 120, 121, 122, 123, 124, 125, 126, 127, 128, 129, 130, 131, 132, 133, 134, 135, 136, 137, 138, 139, 140, 141, 142, 143, 144, 145, 146, 147, 148, 149, 150, 151, 152, 153, 154, 155, 156, 157, 158, 159, 160, 161, 162, 163, 164, 165, 166, 167, 168, 169, 170, 171, 172, 173, 174, 175, 176, 177, 178, 179, 180, 181, 182, 183, 184, 185, 186, 187, 188, 189, 190, 191, 192, 193, 194, 195, 196, 197, 198, 199, 200],
      "AcquisitionTime": ["094304.127500", "094306.127500", "094308.127500", "094310.127500", "094312.127500", "094314.127500", "094316.127500", "094318.127500", "094320.127500", "094322.127500", "094324.127500", "094326.127500", "094328.127500", "094330.127500", "094332.127500", "094334.127500", "094336.127500", "094338.127500", "094340.127500", "094342.127500", "094344.127500", "094346.127500", "094348.127500", "094350.127500", "094352.127500", "094354.127500", "094356.127500", "094358.127500", "094400.127500", "094402.127500", "094404.127500", "094406.127500", "094408.127500", "094410.127500", "094412.127500", "094414.127500", "094416.127500", "094418.127500", "094420.127500", "094422.127500", "094424.127500", "094426.127500", "094428.127500", "094430.127500", "094432.127500", "094434.127500", "094436.127500", "094438.127500", "094440.127500", "094442.127500", "094444.127500", "094446.127500", "094448.127500", "094450.127500", "094452.127500", "094454.127500", "094456.127500", "094458.127500", "094500.127500", "094502.127500", "094504.127500", "094506.127500", "094508.127500", "094510.127500", "094512.127500", "094514.127500", "094516.127500", "094518.127500", "094520.127500", "094522.127500", "094524.127500", "094526.127500", "094528.127500", "094530.127500", "094532.127500", "094534.127500", "094536.127500", "094538.127500", "094540.127500", "094542.127500", "094544.127500", "094546.127500", "094548.127500", "094550.127500", "094552.127500", "094554.127500", "094556.127500", "094558.127500", "094600.127500", "094602.127500", "094604.127500", "094606.127500", "094608.127500", "094610.127500", "094612.127500", "094614.127500", "094616.127500", "094618.127500", "094620.127500", "094622.127500", "094624.127500", "094626.127500", "094628.127500", "094630.127500", "094632.127500", "094634.127500", "094636.127500", "094638.127500", "094640.127500", "094642.127500", "094644.127500", "094646.127500", "094648.127500", "094650.127500", "094652.127500", "094654.127500", "094656.127500", "094658.127500", "094700.127500", "094702.127500", "094704.127500", "094706.127500", "094708.127500", "094710.127500", "094712.127500", "094714.127500", "094716.127500", "094718.127500", "094720.127500", "094722.127500", "094724.127500", "094726.127500", "094728.127500", "094730.127500", "094732.127500", "094734.127500", "094736.127500", "094738.127500", "094740.127500", "094742.127500", "094744.127500", "094746.127500", "094748.127500", "094750.127500", "094752.127500", "094754.127500", "094756.127500", "094758.127500", "094800.127500", "094802.127500", "094804.127500", "094806.127500", "094808.127500", "094810.127500", "094812.127500", "094814.127500", "094816.127500", "094818.127500", "094820.127500", "094822.127500", "094824.127500", "094826.127500", "094828.127500", "094830.127500", "094832.127500", "094834.127500", "094836.127500", "094838.127500", "094840.127500", "094842.127500", "094844.127500", "094846.127500", "094848.127500", "094850.127500", "094852.127500", "094854.127500", "094856.127500", "094858.127500", "094900.127500", "094902.127500", "094904.127500", "094906.127500", "094908.127500", "094910.127500", "094912.127500", "094914.127500", "094916.127500", "094918.127500", "094920.127500", "094922.127500", "094924.127500", "094926.127500", "094928.127500", "094930.127500", "094932.127500", "094934.127500", "094936.127500", "094938.127500", "094940.127500", "094942.127500"],
      "ContentTime": ["094352.267000", "094352.270000", "094352.273000", "094352.275000", "094352.278000", "094352.281000", "094352.283000", "094352.286000", "094352.288000", "094352.291000", "094352.293000", "094352.296000", "094352.299000", "094352.301000", "094352.304000", "094352.306000", "094352.309000", "094352.311000", "094352.314000", "094352.316000", "094352.326000", "094352.329000", "094352.332000", "094352.334000", "094432.262000", "094432.265000", "094432.268000", "094432.271000", "094432.273000", "094432.276000", "094432.278000", "094432.281000", "094432.283000", "094432.286000", "094432.288000", "094432.291000", "094432.293000", "094432.296000", "094432.298000", "094432.301000", "094432.304000", "094432.306000", "094432.309000", "094432.311000", "094512.261000", "094512.264000", "094512.267000", "094512.269000", "094512.272000", "094512.274000", "094512.277000", "094512.280000", "094512.282000", "094512.285000", "094512.287000", "094512.290000", "094512.292000", "094512.295000", "094512.297000", "094512.300000", "094512.303000", "094512.305000", "094512.307000", "094512.310000", "094552.262000", "094552.265000", "094552.268000", "094552.271000", "094552.273000", "094552.276000", "094552.278000", "094552.281000", "094552.283000", "094552.286000", "094552.288000", "094552.291000", "094552.293000", "094552.296000", "094552.298000", "094552.301000", "094552.304000", "094552.306000", "094552.309000", "094552.311000", "094632.262000", "094632.265000", "094632.268000", "094632.271000", "094632.273000", "094632.276000", "094632.278000", "094632.281000", "094632.283000", "094632.286000", "094632.288000", "094632.291000", "094632.294000", "094632.296000", "094632.299000", "094632.301000", "094632.304000", "094632.306000", "094632.309000", "094632.311000", "094712.262000", "094712.264000", "094712.267000", "094712.270000", "094712.272000", "094712.275000", "094712.277000", "094712.280000", "094712.282000", "094712.285000", "094712.287000", "094712.290000", "094712.292000", "094712.295000", "094712.297000", "094712.300000", "094712.303000", "094712.305000", "094712.308000", "094712.310000", "094752.262000", "094752.265000", "094752.268000", "094752.271000", "094752.273000", "094752.276000", "094752.278000", "094752.281000", "094752.283000", "094752.286000", "094752.288000", "094752.291000", "094752.293000", "094752.296000", "094752.298000", "094752.301000", "094752.304000", "094752.306000", "094752.309000", "094752.311000", "094832.262000", "094832.265000", "094832.268000", "094832.271000", "094832.273000", "094832.276000", "094832.278000", "094832.281000", "094832.283000", "094832.286000", "094832.288000", "094832.291000", "094832.294000", "094832.296000", "094832.299000", "094832.301000", "094832.304000", "094832.306000", "094832.309000", "094832.311000", "094912.262000", "094912.265000", "094912.268000", "094912.270000", "094912.273000", "094912.276000", "094912.291000", "094912.294000", "094912.297000", "094912.299000", "094912.302000", "094912.304000", "094912.307000", "094912.309000", "094912.312000", "094912.314000", "094912.317000", "094912.319000", "094912.322000", "094912.325000", "094943.147000", "094943.150000", "094943.152000", "094943.155000", "094943.158000", "094943.161000", "094943.163000", "094943.166000", "094943.169000", "094943.171000", "094943.174000", "094943.178000", "094943.181000", "094943.185000", "094943.188000", "094943.191000"],
      "InstanceCreationTime": ["094352.267000", "094352.270000", "094352.273000", "094352.275000", "094352.278000", "094352.281000", "094352.283000", "094352.286000", "094352.288000", "094352.291000", "094352.293000", "094352.296000", "094352.299000", "094352.301000", "094352.304000", "094352.306000", "094352.309000", "094352.311000", "094352.314000", "094352.316000", "094352.326000", "094352.329000", "094352.332000", "094352.334000", "094432.262000", "094432.265000", "094432.268000", "094432.271000", "094432.273000", "094432.276000", "094432.278000", "094432.281000", "094432.283000", "094432.286000", "094432.288000", "094432.291000", "094432.293000", "094432.296000", "094432.298000", "094432.301000", "094432.304000", "094432.306000", "094432.309000", "094432.311000", "094512.261000", "094512.264000", "094512.267000", "094512.269000", "094512.272000", "094512.274000", "094512.277000", "094512.280000", "094512.282000", "094512.285000", "094512.287000", "094512.290000", "094512.292000", "094512.295000", "094512.297000", "094512.300000", "094512.303000", "094512.305000", "094512.307000", "094512.310000", "094552.262000", "094552.265000", "094552.268000", "094552.271000", "094552.273000", "094552.276000", "094552.278000", "094552.281000", "094552.283000", "094552.286000", "094552.288000", "094552.291000", "094552.293000", "094552.296000", "094552.298000", "094552.301000", "094552.304000", "094552.306000", "094552.309000", "094552.311000", "094632.262000", "094632.265000", "094632.268000", "094632.271000", "094632.273000", "094632.276000", "094632.278000", "094632.281000", "094632.283000", "094632.286000", "094632.288000", "094632.291000", "094632.294000", "094632.296000", "094632.299000", "094632.301000", "094632.304000", "094632.306000", "094632.309000", "094632.311000", "094712.262000", "094712.264000", "094712.267000", "094712.270000", "094712.272000", "094712.275000", "094712.277000", "094712.280000", "094712.282000", "094712.285000", "094712.287000", "094712.290000", "094712.292000", "094712.295000", "094712.297000", "094712.300000", "094712.303000", "094712.305000", "094712.308000", "094712.310000", "094752.262000", "094752.265000", "094752.268000", "094752.271000", "094752.273000", "094752.276000", "094752.278000", "094752.281000", "094752.283000", "094752.286000", "094752.288000", "094752.291000", "094752.293000", "094752.296000", "094752.298000", "094752.301000", "094752.304000", "094752.306000", "094752.309000", "094752.311000", "094832.262000", "094832.265000", "094832.268000", "094832.271000", "094832.273000", "094832.276000", "094832.278000", "094832.281000", "094832.283000", "094832.286000", "094832.288000", "094832.291000", "094832.294000", "094832.296000", "094832.299000", "094832.301000", "094832.304000", "094832.306000", "094832.309000", "094832.311000", "094912.262000", "094912.265000", "094912.268000", "094912.270000", "094912.273000", "094912.276000", "094912.291000", "094912.294000", "094912.297000", "094912.299000", "094912.302000", "094912.304000", "094912.307000", "094912.309000", "094912.312000", "094912.314000", "094912.317000", "094912.319000", "094912.322000", "094912.325000", "094943.147000", "094943.150000", "094943.152000", "094943.155000", "094943.158000", "094943.161000", "094943.163000", "094943.166000", "094943.169000", "094943.171000", "094943.174000", "094943.178000", "094943.181000", "094943.185000", "094943.188000", "094943.191000"],
      "InstanceNumber": [1, 2, 3, 4, 5, 6, 7, 8, 9, 10, 11, 12, 13, 14, 15, 16, 17, 18, 19, 20, 21, 22, 23, 24, 25, 26, 27, 28, 29, 30, 31, 32, 33, 34, 35, 36, 37, 38, 39, 40, 41, 42, 43, 44, 45, 46, 47, 48, 49, 50, 51, 52, 53, 54, 55, 56, 57, 58, 59, 60, 61, 62, 63, 64, 65, 66, 67, 68, 69, 70, 71, 72, 73, 74, 75, 76, 77, 78, 79, 80, 81, 82, 83, 84, 85, 86, 87, 88, 89, 90, 91, 92, 93, 94, 95, 96, 97, 98, 99, 100, 101, 102, 103, 104, 105, 106, 107, 108, 109, 110, 111, 112, 113, 114, 115, 116, 117, 118, 119, 120, 121, 122, 123, 124, 125, 126, 127, 128, 129, 130, 131, 132, 133, 134, 135, 136, 137, 138, 139, 140, 141, 142, 143, 144, 145, 146, 147, 148, 149, 150, 151, 152, 153, 154, 155, 156, 157, 158, 159, 160, 161, 162, 163, 164, 165, 166, 167, 168, 169, 170, 171, 172, 173, 174, 175, 176, 177, 178, 179, 180, 181, 182, 183, 184, 185, 186, 187, 188, 189, 190, 191, 192, 193, 194, 195, 196, 197, 198, 199, 200],
      "LargestImagePixelValue": [2390, 2393, 2394, 2387, 2390, 2393, 2387, 2391, 2384, 2389, 2392, 2393, 2395, 2394, 2390, 2393, 2390, 2395, 2392, 2394, 2388, 2388, 2386, 2396, 2394, 2393, 2400, 2390, 2387, 2388, 2395, 2389, 2385, 2390, 2393, 2387, 2384, 2391, 2389, 2387, 2391, 2386, 2385, 2393, 2393, 2388, 2389, 2384, 2397, 2389, 2397, 2390, 2391, 2392, 2392, 2390, 2391, 2389, 2390, 2388, 2389, 2391, 2387, 2387, 2390, 2392, 2389, 2391, 2388, 2392, 2392, 2398, 2386, 2389, 2388, 2386, 2391, 2386, 2389, 2391, 2387, 2388, 2392, 2392, 2389, 2390, 2397, 2395, 2390, 2392, 2389, 2396, 2388, 2388, 2390, 2387, 2391, 2385, 2390, 2387, 2387, 2387, 2388, 2390, 2386, 2388, 2390, 2396, 2393, 2397, 2389, 2387, 2389, 2386, 2392, 2395, 2394, 2391, 2395, 2391, 2383, 2388, 2388, 2391, 2391, 2390, 2389, 2392, 2386, 2391, 2392, 2388, 2392, 2391, 2388, 2390, 2389, 2392, 2388, 2385, 2392, 2386, 2390, 2390, 2392, 2387, 2391, 2395, 2388, 2387, 2388, 2388, 2386, 2385, 2382, 2391, 2384, 2395, 2387, 2394, 2390, 2383, 2389, 2385, 2389, 2388, 2388, 2391, 2390, 2386, 2388, 2390, 2393, 2392, 2385, 2391, 2389, 2393, 2388, 2388, 2386, 2389, 2387, 2391, 2389, 2392, 2389, 2390, 2388, 2393, 2388, 2392, 2389, 2386, 2388, 2394, 2391, 2389, 2388, 2385],
      "WindowCenter": [979.0, 979.0, 979.0, 979.0, 979.0, 979.0, 979.0, 979.0, 979.0, 979.0, 979.0, 979.0, 979.0, 979.0, 979.0, 979.0, 979.0, 979.0, 979.0, 979.0, 979.0, 979.0, 979.0, 979.0, 979.0, 979.0, 979.0, 979.0, 979.0, 979.0, 979.0, 979.0, 979.0, 979.0, 979.0, 979.0, 979.0, 979.0, 979.0, 979.0, 979.0, 979.0, 979.0, 979.0, 979.0, 979.0, 979.0, 979.0, 979.0, 979.0, 979.0, 979.0, 979.0, 979.0, 979.0, 979.0, 979.0, 979.0, 979.0, 979.0, 979.0, 979.0, 979.0, 979.0, 979.0, 979.0, 979.0, 979.0, 979.0, 979.0, 979.0, 979.0, 979.0, 979.0, 979.0, 979.0, 979.0, 979.0, 979.0, 979.0, 979.0, 979.0, 979.0, 979.0, 979.0, 979.0, 979.0, 979.0, 979.0, 979.0, 979.0, 979.0, 979.0, 979.0, 979.0, 979.0, 979.0, 979.0, 979.0, 979.0, 979.0, 979.0, 979.0, 979.0, 979.0, 979.0, 979.0, 979.0, 979.0, 979.0, 979.0, 979.0, 979.0, 979.0, 979.0, 979.0, 979.0, 979.0, 979.0, 979.0, 979.0, 979.0, 979.0, 979.0, 979.0, 979.0, 979.0, 979.0, 979.0, 979.0, 979.0, 979.0, 978.0, 979.0, 979.0, 979.0, 979.0, 979.0, 979.0, 979.0, 979.0, 979.0, 979.0, 979.0, 979.0, 979.0, 979.0, 979.0, 979.0, 979.0, 979.0, 979.0, 979.0, 979.0, 979.0, 979.0, 979.0, 979.0, 979.0, 979.0, 979.0, 979.0, 979.0, 979.0, 979.0, 979.0, 979.0, 979.0, 979.0, 979.0, 979.0, 979.0, 979.0, 979.0, 979.0, 979.0, 979.0, 979.0, 979.0, 979.0, 979.0, 979.0, 979.0, 979.0, 979.0, 979.0, 979.0, 979.0, 979.0, 979.0, 979.0, 979.0, 978.0, 979.0, 979.0, 979.0, 979.0, 979.0, 979.0, 979.0],
      "WindowWidth": [2303.0, 2302.0, 2302.0, 2302.0, 2302.0, 2302.0, 2302.0, 2302.0, 2302.0, 2302.0, 2302.0, 2302.0, 2302.0, 2302.0, 2302.0, 2302.0, 2302.0, 2302.0, 2302.0, 2302.0, 2302.0, 2302.0, 2302.0, 2302.0, 2302.0, 2302.0, 2302.0, 2302.0, 2302.0, 2302.0, 2302.0, 2303.0, 2303.0, 2302.0, 2302.0, 2302.0, 2302.0, 2303.0, 2303.0, 2303.0, 2303.0, 2302.0, 2302.0, 2303.0, 2302.0, 2302.0, 2302.0, 2302.0, 2303.0, 2302.0, 2302.0, 2302.0, 2302.0, 2302.0, 2302.0, 2302.0, 2302.0, 2302.0, 2302.0, 2302.0, 2302.0, 2303.0, 2303.0, 2302.0, 2302.0, 2303.0, 2303.0, 2302.0, 2302.0, 2302.0, 2303.0, 2303.0, 2303.0, 2302.0, 2303.0, 2302.0, 2303.0, 2302.0, 2303.0, 2302.0, 2303.0, 2302.0, 2303.0, 2302.0, 2302.0, 2302.0, 2303.0, 2302.0, 2302.0, 2302.0, 2302.0, 2302.0, 2303.0, 2303.0, 2302.0, 2303.0, 2303.0, 2303.0, 2303.0, 2302.0, 2303.0, 2303.0, 2303.0, 2303.0, 2302.0, 2303.0, 2303.0, 2303.0, 2303.0, 2302.0, 2302.0, 2302.0, 2303.0, 2303.0, 2302.0, 2302.0, 2303.0, 2302.0, 2303.0, 2302.0, 2303.0, 2302.0, 2303.0, 2302.0, 2303.0, 2303.0, 2302.0, 2302.0, 2303.0, 2302.0, 2302.0, 2302.0, 2302.0, 2302.0, 2302.0, 2303.0, 2302.0, 2302.0, 2302.0, 2302.0, 2302.0, 2303.0, 2302.0, 2302.0, 2302.0, 2303.0, 2302.0, 2303.0, 2302.0, 2302.0, 2302.0, 2302.0, 2302.0, 2302.0, 2302.0, 2302.0, 2303.0, 2302.0, 2303.0, 2302.0, 2302.0, 2302.0, 2302.0, 2302.0, 2303.0, 2302.0, 2302.0, 2302.0, 2303.0, 2302.0, 2303.0, 2302.0, 2303.0, 2302.0, 2302.0, 2302.0, 2302.0, 2302.0, 2302.0, 2302.0, 2302.0, 2302.0, 2302.0, 2303.0, 2303.0, 2302.0, 2302.0, 2302.0, 2302.0, 2302.0, 2302.0, 2302.0, 2302.0, 2302.0, 2302.0, 2303.0, 2302.0, 2302.0, 2302.0, 2302.0]
    },
    "slices": {}
  }
}