{
  "AcquisitionMatrixPE": 80,
  "AcquisitionNumber": 1,
  "AcquisitionTime": "08:55:5.200000",
  "BandwidthPerPixelPhaseEncode": 48.077,
  "BaseResolution": 80,
  "BodyPartExamined": "BRAIN",
  "CoilCombinationMethod": "Sum of Squares",
  "ConsistencyInfo": "N4_VE11C_LATEST_20160120",
  "ConversionSoftware": "dcm2niix",
  "ConversionSoftwareVersion": "v1.0.20220720",
  "DerivedVendorReportedEchoSpacing": 0.000519999,
  "DeviceSerialNumber": "66112",
  "DwellTime": 2.7e-06,
  "EchoTime": 0.035,
  "EchoTrainLength": 39,
  "EffectiveEchoSpacing": 0.00026,
  "FlipAngle": 90,
  "HeudiconvVersion": "0.13.1",
  "ImageOrientationPatientDICOM": [0.996691, 0.0811567, 0.00444036, -0.0786164, 0.948745, 0.306108],
  "ImageOrientationText": "Tra>Cor(17.8)>Sag(-1.2)",
  "ImageType": [
    "ORIGINAL",
    "PRIMARY",
    "M",
    "ND",
    "NORM",
    "MOSAIC"
],
  "ImagingFrequency": 123.252,
  "InPlanePhaseEncodingDirectionDICOM": "COL",
  "InstitutionAddress": "Maynard 3,Hanover,NH,US,03755",
  "InstitutionName": "Dartmouth College - PBS",
  "InstitutionalDepartmentName": "Department",
  "MRAcquisitionType": "2D",
  "MagneticFieldStrength": 3,
  "Manufacturer": "Siemens",
  "ManufacturersModelName": "Prisma",
  "MatrixCoilMode": "GRAPPA",
  "Modality": "MR",
  "NonlinearGradientCorrection": false,
  "ParallelReductionFactorInPlane": 2,
  "PartialFourier": 1,
  "PatientPosition": "HFS",
  "PercentPhaseFOV": 100,
  "PercentSampling": 100,
  "PhaseEncodingDirection": "j-",
  "PhaseEncodingSteps": 79,
  "PhaseResolution": 1,
  "PixelBandwidth": 2315,
  "ProcedureStepDescription": "dbic^QA",
  "ProtocolName": "func-bold_task-rest_acq-p2",
  "PulseSequenceDetails": "%SiemensSeq%\\ep2d_bold",
  "ReceiveCoilActiveElements": "HEA;HEP",
  "ReceiveCoilName": "Head_32",
  "ReconMatrixPE": 80,
  "RefLinesPE": 24,
  "RepetitionTime": 2,
  "SAR": 0.055456,
  "ScanOptions": "FS",
  "ScanningSequence": "EP",
  "SequenceName": "*epfid2d1_80",
  "SequenceVariant": "SK",
  "SeriesDescription": "func-bold_task-rest_acq-p2",
  "SeriesNumber": 5,
  "ShimSetting": [4143, -7696, -7515, 256, -78, -106, -41, 67],
  "SliceThickness": 3.5,
  "SliceTiming": [0.99, 0, 1.055, 0.065, 1.12, 0.13, 1.1875, 0.1975, 1.2525, 0.2625, 1.32, 0.33, 1.385, 0.395, 1.45, 0.46, 1.5175, 0.5275, 1.5825, 0.5925, 1.65, 0.66, 1.715, 0.725, 1.78, 0.79, 1.8475, 0.8575, 1.9125, 0.9225],
  "SoftwareVersions": "syngo MR E11",
  "SpacingBetweenSlices": 3.99,
  "StationName": "AWP66112",
  "TaskName": "rest",
  "TotalReadoutTime": 0.02054,
  "TxRefAmp": 230.059,
  "dcmmeta_affine": [
    [-2.990074396133423, -0.235849067568779, -0.08231334388256073, 130.2628936767578],
    [-0.24347007274627686, 2.846235752105713, 1.2187213897705078, -112.29521942138672],
    [0.013321083039045334, -0.9183229207992554, 3.798426389694214, -19.58802604675293],
    [0.0, 0.0, 0.0, 1.0]
],
  "dcmmeta_reorient_transform": [
    [0.0, -1.0, 0.0, 79.0],
    [1.0, 0.0, 0.0, 0.0],
    [0.0, 0.0, 1.0, 0.0],
    [0.0, 0.0, 0.0, 1.0]
],
  "dcmmeta_shape": [80, 80, 30, 200],
  "dcmmeta_slice_dim": 2,
  "dcmmeta_version": 0.6,
  "global": {
    "const": {
      "AccessionNumber": "qa",
      "AcquisitionMatrix": [80, 0, 0, 80],
      "AngioFlag": "N",
      "BitsAllocated": 16,
      "BitsStored": 12,
      "BodyPartExamined": "BRAIN",
      "Columns": 480,
      "EchoNumbers": 1,
      "EchoTime": 35.0,
      "EchoTrainLength": 39,
      "FlipAngle": 90.0,
      "HighBit": 11,
      "ImageOrientationPatient": [0.99669146434715, 0.08115668851815, 0.00444036105581, -0.0786163574398, 0.94874526495211, 0.30610764540249],
      "ImagePositionPatient": [-662.47587373385, -730.49858374468, -278.46434232942],
      "ImageType": [
        "ORIGINAL",
        "PRIMARY",
        "M",
        "ND",
        "NORM",
        "MOSAIC"
],
      "ImagedNucleus": "1H",
      "ImagingFrequency": 123.25248,
      "InPlanePhaseEncodingDirection": "COL",
      "MRAcquisitionType": "2D",
      "MagneticFieldStrength": 3.0,
      "Manufacturer": "SIEMENS",
      "ManufacturerModelName": "Prisma",
      "Modality": "MR",
      "NumberOfAverages": 1.0,
      "NumberOfPhaseEncodingSteps": 79,
      "PercentPhaseFieldOfView": 100.0,
      "PercentSampling": 100.0,
      "PerformedProcedureStepStartTime": "083427.444000",
      "PhotometricInterpretation": "MONOCHROME2",
      "PixelBandwidth": 2315.0,
      "PixelRepresentation": 0,
      "PixelSpacing": [3.0, 3.0],
      "ProtocolName": "func-bold_task-rest_acq-p2",
      "RepetitionTime": 2000.0,
      "Rows": 480,
      "SAR": 0.05545604954836,
      "SamplesPerPixel": 1,
      "ScanOptions": "FS",
      "ScanningSequence": "EP",
      "SequenceName": "*epfid2d1_80",
      "SequenceVariant": "SK",
      "SeriesDescription": "func-bold_task-rest_acq-p2",
      "SeriesNumber": 5,
      "SeriesTime": "085548.014000",
      "SliceLocation": -55.63474533554,
      "SliceThickness": 3.5,
      "SmallestImagePixelValue": 0,
      "SoftwareVersions": "syngo MR E11",
      "SpacingBetweenSlices": 3.9900000722167,
      "SpecificCharacterSet": "ISO_IR 100",
      "StudyID": "106",
      "StudyTime": "083427.354000",
      "TransmitCoilName": "Body",
      "VariableFlipAngleFlag": "N",
      "WindowCenterWidthExplanation": "Algo1",
      "dBdt": 0.0},
    "slices": {}
  },
  "time": {
    "samples": {
      "AcquisitionNumber": [1, 2, 3, 4, 5, 6, 7, 8, 9, 10, 11, 12, 13, 14, 15, 16, 17, 18, 19, 20, 21, 22, 23, 24, 25, 26, 27, 28, 29, 30, 31, 32, 33, 34, 35, 36, 37, 38, 39, 40, 41, 42, 43, 44, 45, 46, 47, 48, 49, 50, 51, 52, 53, 54, 55, 56, 57, 58, 59, 60, 61, 62, 63, 64, 65, 66, 67, 68, 69, 70, 71, 72, 73, 74, 75, 76, 77, 78, 79, 80, 81, 82, 83, 84, 85, 86, 87, 88, 89, 90, 91, 92, 93, 94, 95, 96, 97, 98, 99, 100, 101, 102, 103, 104, 105, 106, 107, 108, 109, 110, 111, 112, 113, 114, 115, 116, 117, 118, 119, 120, 121, 122, 123, 124, 125, 126, 127, 128, 129, 130, 131, 132, 133, 134, 135, 136, 137, 138, 139, 140, 141, 142, 143, 144, 145, 146, 147, 148, 149, 150, 151, 152, 153, 154, 155, 156, 157, 158, 159, 160, 161, 162, 163, 164, 165, 166, 167, 168, 169, 170, 171, 172, 173, 174, 175, 176, 177, 178, 179, 180, 181, 182, 183, 184, 185, 186, 187, 188, 189, 190, 191, 192, 193, 194, 195, 196, 197, 198, 199, 200],
      "AcquisitionTime": ["085505.200000", "085507.200000", "085509.200000", "085511.200000", "085513.200000", "085515.200000", "085517.200000", "085519.200000", "085521.200000", "085523.200000", "085525.200000", "085527.200000", "085529.200000", "085531.200000", "085533.200000", "085535.200000", "085537.200000", "085539.200000", "085541.200000", "085543.200000", "085545.200000", "085547.200000", "085549.200000", "085551.200000", "085553.200000", "085555.200000", "085557.200000", "085559.200000", "085601.200000", "085603.200000", "085605.200000", "085607.200000", "085609.200000", "085611.200000", "085613.200000", "085615.200000", "085617.200000", "085619.200000", "085621.200000", "085623.200000", "085625.200000", "085627.200000", "085629.200000", "085631.200000", "085633.200000", "085635.200000", "085637.200000", "085639.200000", "085641.200000", "085643.200000", "085645.200000", "085647.200000", "085649.200000", "085651.200000", "085653.200000", "085655.200000", "085657.200000", "085659.200000", "085701.200000", "085703.200000", "085705.200000", "085707.200000", "085709.200000", "085711.200000", "085713.200000", "085715.200000", "085717.200000", "085719.200000", "085721.200000", "085723.200000", "085725.200000", "085727.200000", "085729.200000", "085731.200000", "085733.200000", "085735.200000", "085737.200000", "085739.200000", "085741.200000", "085743.200000", "085745.200000", "085747.200000", "085749.200000", "085751.200000", "085753.200000", "085755.200000", "085757.200000", "085759.200000", "085801.200000", "085803.200000", "085805.200000", "085807.200000", "085809.200000", "085811.200000", "085813.200000", "085815.200000", "085817.200000", "085819.200000", "085821.200000", "085823.200000", "085825.200000", "085827.200000", "085829.200000", "085831.200000", "085833.200000", "085835.200000", "085837.200000", "085839.200000", "085841.200000", "085843.200000", "085845.200000", "085847.200000", "085849.200000", "085851.200000", "085853.200000", "085855.200000", "085857.200000", "085859.200000", "085901.200000", "085903.200000", "085905.200000", "085907.200000", "085909.200000", "085911.200000", "085913.200000", "085915.200000", "085917.200000", "085919.200000", "085921.200000", "085923.200000", "085925.200000", "085927.200000", "085929.200000", "085931.200000", "085933.200000", "085935.200000", "085937.200000", "085939.200000", "085941.200000", "085943.200000", "085945.200000", "085947.200000", "085949.200000", "085951.200000", "085953.200000", "085955.200000", "085957.200000", "085959.200000", "090001.200000", "090003.200000", "090005.200000", "090007.200000", "090009.200000", "090011.200000", "090013.200000", "090015.200000", "090017.200000", "090019.200000", "090021.200000", "090023.200000", "090025.200000", "090027.200000", "090029.200000", "090031.200000", "090033.200000", "090035.200000", "090037.200000", "090039.200000", "090041.200000", "090043.200000", "090045.200000", "090047.200000", "090049.200000", "090051.200000", "090053.200000", "090055.200000", "090057.200000", "090059.200000", "090101.200000", "090103.200000", "090105.200000", "090107.200000", "090109.200000", "090111.200000", "090113.200000", "090115.200000", "090117.200000", "090119.200000", "090121.200000", "090123.200000", "090125.200000", "090127.200000", "090129.200000", "090131.200000", "090133.200000", "090135.200000", "090137.200000", "090139.200000", "090141.200000", "090143.200000"],
      "ContentTime": ["085548.017000", "085548.021000", "085548.023000", "085548.026000", "085548.028000", "085548.031000", "085548.034000", "085548.036000", "085548.039000", "085548.041000", "085548.044000", "085548.046000", "085548.049000", "085548.051000", "085548.054000", "085548.056000", "085548.059000", "085548.061000", "085548.064000", "085548.072000", "085548.074000", "085628.025000", "085628.028000", "085628.031000", "085628.033000", "085628.036000", "085628.038000", "085628.040000", "085628.043000", "085628.045000", "085628.048000", "085628.050000", "085628.053000", "085628.055000", "085628.058000", "085628.060000", "085628.063000", "085628.066000", "085628.068000", "085628.071000", "085628.073000", "085708.014000", "085708.016000", "085708.019000", "085708.021000", "085708.024000", "085708.026000", "085708.029000", "085708.032000", "085708.034000", "085708.037000", "085708.039000", "085708.042000", "085708.044000", "085708.047000", "085708.049000", "085708.051000", "085708.054000", "085708.057000", "085708.059000", "085708.062000", "085748.013000", "085748.016000", "085748.019000", "085748.021000", "085748.024000", "085748.026000", "085748.029000", "085748.032000", "085748.034000", "085748.037000", "085748.039000", "085748.042000", "085748.044000", "085748.047000", "085748.049000", "085748.052000", "085748.054000", "085748.057000", "085748.060000", "085748.062000", "085828.012000", "085828.015000", "085828.018000", "085828.020000", "085828.023000", "085828.025000", "085828.028000", "085828.030000", "085828.033000", "085828.035000", "085828.038000", "085828.040000", "085828.043000", "085828.045000", "085828.048000", "085828.050000", "085828.053000", "085828.055000", "085828.058000", "085828.061000", "085908.013000", "085908.016000", "085908.019000", "085908.021000", "085908.024000", "085908.026000", "085908.029000", "085908.031000", "085908.034000", "085908.036000", "085908.039000", "085908.041000", "085908.044000", "085908.046000", "085908.049000", "085908.051000", "085908.054000", "085908.056000", "085908.059000", "085908.061000", "085948.013000", "085948.020000", "085948.023000", "085948.025000", "085948.028000", "085948.031000", "085948.033000", "085948.036000", "085948.038000", "085948.041000", "085948.043000", "085948.046000", "085948.048000", "085948.051000", "085948.053000", "085948.056000", "085948.058000", "085948.061000", "085948.063000", "085948.066000", "090028.012000", "090028.015000", "090028.018000", "090028.020000", "090028.023000", "090028.025000", "090028.028000", "090028.030000", "090028.033000", "090028.035000", "090028.038000", "090028.040000", "090028.043000", "090028.045000", "090028.048000", "090028.050000", "090028.053000", "090028.055000", "090028.058000", "090028.060000", "090108.012000", "090108.015000", "090108.018000", "090108.020000", "090108.023000", "090108.025000", "090108.028000", "090108.030000", "090108.033000", "090108.035000", "090108.038000", "090108.040000", "090108.043000", "090108.045000", "090108.048000", "090108.050000", "090108.053000", "090108.055000", "090108.058000", "090108.060000", "090144.226000", "090144.229000", "090144.232000", "090144.234000", "090144.237000", "090144.240000", "090144.242000", "090144.245000", "090144.247000", "090144.250000", "090144.253000", "090144.257000", "090144.262000", "090144.265000", "090144.267000", "090144.271000", "090144.277000", "090144.283000", "090144.286000"],
      "InstanceCreationTime": ["085548.017000", "085548.021000", "085548.023000", "085548.026000", "085548.028000", "085548.031000", "085548.034000", "085548.036000", "085548.039000", "085548.041000", "085548.044000", "085548.046000", "085548.049000", "085548.051000", "085548.054000", "085548.056000", "085548.059000", "085548.061000", "085548.064000", "085548.072000", "085548.074000", "085628.025000", "085628.028000", "085628.031000", "085628.033000", "085628.036000", "085628.038000", "085628.040000", "085628.043000", "085628.045000", "085628.048000", "085628.050000", "085628.053000", "085628.055000", "085628.058000", "085628.060000", "085628.063000", "085628.066000", "085628.068000", "085628.071000", "085628.073000", "085708.014000", "085708.016000", "085708.019000", "085708.021000", "085708.024000", "085708.026000", "085708.029000", "085708.032000", "085708.034000", "085708.037000", "085708.039000", "085708.042000", "085708.044000", "085708.047000", "085708.049000", "085708.051000", "085708.054000", "085708.057000", "085708.059000", "085708.062000", "085748.013000", "085748.016000", "085748.019000", "085748.021000", "085748.024000", "085748.026000", "085748.029000", "085748.032000", "085748.034000", "085748.037000", "085748.039000", "085748.042000", "085748.044000", "085748.047000", "085748.049000", "085748.052000", "085748.054000", "085748.057000", "085748.060000", "085748.062000", "085828.012000", "085828.015000", "085828.018000", "085828.020000", "085828.023000", "085828.025000", "085828.028000", "085828.030000", "085828.033000", "085828.035000", "085828.038000", "085828.040000", "085828.043000", "085828.045000", "085828.048000", "085828.050000", "085828.053000", "085828.055000", "085828.058000", "085828.061000", "085908.013000", "085908.016000", "085908.019000", "085908.021000", "085908.024000", "085908.026000", "085908.029000", "085908.031000", "085908.034000", "085908.036000", "085908.039000", "085908.041000", "085908.044000", "085908.046000", "085908.049000", "085908.051000", "085908.054000", "085908.056000", "085908.059000", "085908.061000", "085948.013000", "085948.020000", "085948.023000", "085948.025000", "085948.028000", "085948.031000", "085948.033000", "085948.036000", "085948.038000", "085948.041000", "085948.043000", "085948.046000", "085948.048000", "085948.051000", "085948.053000", "085948.056000", "085948.058000", "085948.061000", "085948.063000", "085948.066000", "090028.012000", "090028.015000", "090028.018000", "090028.020000", "090028.023000", "090028.025000", "090028.028000", "090028.030000", "090028.033000", "090028.035000", "090028.038000", "090028.040000", "090028.043000", "090028.045000", "090028.048000", "090028.050000", "090028.053000", "090028.055000", "090028.058000", "090028.060000", "090108.012000", "090108.015000", "090108.018000", "090108.020000", "090108.023000", "090108.025000", "090108.028000", "090108.030000", "090108.033000", "090108.035000", "090108.038000", "090108.040000", "090108.043000", "090108.045000", "090108.048000", "090108.050000", "090108.053000", "090108.055000", "090108.058000", "090108.060000", "090144.226000", "090144.229000", "090144.232000", "090144.234000", "090144.237000", "090144.240000", "090144.242000", "090144.245000", "090144.247000", "090144.250000", "090144.253000", "090144.257000", "090144.262000", "090144.265000", "090144.267000", "090144.271000", "090144.277000", "090144.283000", "090144.286000"],
      "InstanceNumber": [1, 2, 3, 4, 5, 6, 7, 8, 9, 10, 11, 12, 13, 14, 15, 16, 17, 18, 19, 20, 21, 22, 23, 24, 25, 26, 27, 28, 29, 30, 31, 32, 33, 34, 35, 36, 37, 38, 39, 40, 41, 42, 43, 44, 45, 46, 47, 48, 49, 50, 51, 52, 53, 54, 55, 56, 57, 58, 59, 60, 61, 62, 63, 64, 65, 66, 67, 68, 69, 70, 71, 72, 73, 74, 75, 76, 77, 78, 79, 80, 81, 82, 83, 84, 85, 86, 87, 88, 89, 90, 91, 92, 93, 94, 95, 96, 97, 98, 99, 100, 101, 102, 103, 104, 105, 106, 107, 108, 109, 110, 111, 112, 113, 114, 115, 116, 117, 118, 119, 120, 121, 122, 123, 124, 125, 126, 127, 128, 129, 130, 131, 132, 133, 134, 135, 136, 137, 138, 139, 140, 141, 142, 143, 144, 145, 146, 147, 148, 149, 150, 151, 152, 153, 154, 155, 156, 157, 158, 159, 160, 161, 162, 163, 164, 165, 166, 167, 168, 169, 170, 171, 172, 173, 174, 175, 176, 177, 178, 179, 180, 181, 182, 183, 184, 185, 186, 187, 188, 189, 190, 191, 192, 193, 194, 195, 196, 197, 198, 199, 200],
      "LargestImagePixelValue": [2046, 2050, 2049, 2053, 2050, 2056, 2054, 2048, 2056, 2054, 2056, 2046, 2049, 2050, 2049, 2052, 2057, 2054, 2047, 2048, 2052, 2051, 2049, 2044, 2045, 2052, 2042, 2052, 2049, 2047, 2048, 2045, 2052, 2050, 2047, 2042, 2050, 2054, 2048, 2049, 2048, 2047, 2045, 2045, 2047, 2052, 2057, 2059, 2045, 2052, 2052, 2055, 2050, 2049, 2057, 2052, 2053, 2054, 2053, 2048, 2052, 2047, 2050, 2044, 2053, 2056, 2050, 2047, 2045, 2046, 2045, 2055, 2052, 2054, 2054, 2051, 2048, 2051, 2053, 2046, 2047, 2046, 2049, 2046, 2053, 2045, 2046, 2049, 2045, 2048, 2044, 2052, 2045, 2046, 2047, 2044, 2044, 2046, 2044, 2043, 2044, 2045, 2048, 2043, 2044, 2043, 2050, 2045, 2052, 2046, 2042, 2044, 2046, 2048, 2047, 2051, 2052, 2046, 2047, 2049, 2048, 2042, 2047, 2045, 2046, 2046, 2044, 2040, 2052, 2045, 2046, 2047, 2053, 2049, 2043, 2044, 2045, 2047, 2050, 2047, 2047, 2048, 2045, 2044, 2045, 2043, 2046, 2044, 2044, 2043, 2047, 2041, 2038, 2042, 2050, 2047, 2047, 2044, 2049, 2044, 2048, 2049, 2045, 2049, 2045, 2044, 2046, 2049, 2042, 2045, 2047, 2053, 2049, 2049, 2049, 2050, 2049, 2049, 2044, 2049, 2041, 2047, 2042, 2045, 2052, 2044, 2046, 2043, 2045, 2045, 2038, 2044, 2051, 2045, 2045, 2038, 2045, 2046, 2046, 2043],
      "WindowCenter": [989.0, 988.0, 988.0, 988.0, 988.0, 989.0, 988.0, 989.0, 989.0, 988.0, 988.0, 988.0, 988.0, 988.0, 988.0, 988.0, 989.0, 989.0, 988.0, 989.0, 988.0, 988.0, 988.0, 989.0, 988.0, 988.0, 988.0, 988.0, 988.0, 988.0, 989.0, 988.0, 988.0, 988.0, 988.0, 988.0, 988.0, 988.0, 989.0, 988.0, 988.0, 988.0, 988.0, 988.0, 988.0, 988.0, 988.0, 988.0, 988.0, 988.0, 988.0, 988.0, 988.0, 988.0, 988.0, 988.0, 988.0, 988.0, 988.0, 988.0, 987.0, 988.0, 988.0, 988.0, 987.0, 987.0, 987.0, 987.0, 987.0, 988.0, 988.0, 987.0, 987.0, 987.0, 987.0, 987.0, 988.0, 987.0, 987.0, 987.0, 988.0, 988.0, 987.0, 989.0, 988.0, 987.0, 987.0, 987.0, 988.0, 988.0, 988.0, 987.0, 987.0, 988.0, 988.0, 987.0, 988.0, 987.0, 988.0, 987.0, 987.0, 987.0, 987.0, 987.0, 988.0, 987.0, 987.0, 987.0, 987.0, 987.0, 988.0, 987.0, 987.0, 988.0, 988.0, 987.0, 987.0, 988.0, 987.0, 987.0, 987.0, 987.0, 988.0, 987.0, 988.0, 988.0, 987.0, 987.0, 987.0, 987.0, 987.0, 988.0, 987.0, 988.0, 987.0, 988.0, 987.0, 988.0, 987.0, 987.0, 988.0, 987.0, 987.0, 988.0, 987.0, 987.0, 987.0, 987.0, 988.0, 987.0, 988.0, 987.0, 987.0, 988.0, 988.0, 987.0, 987.0, 987.0, 988.0, 987.0, 987.0, 987.0, 988.0, 987.0, 987.0, 988.0, 988.0, 987.0, 987.0, 987.0, 988.0, 987.0, 987.0, 987.0, 987.0, 987.0, 987.0, 987.0, 988.0, 987.0, 987.0, 987.0, 987.0, 987.0, 988.0, 988.0, 987.0, 987.0, 987.0, 987.0, 987.0, 988.0, 987.0, 987.0, 987.0, 988.0, 988.0, 988.0, 987.0, 988.0],
      "WindowWidth": [2168.0, 2166.0, 2166.0, 2166.0, 2166.0, 2167.0, 2166.0, 2167.0, 2167.0, 2166.0, 2166.0, 2166.0, 2166.0, 2166.0, 2166.0, 2166.0, 2167.0, 2167.0, 2166.0, 2167.0, 2166.0, 2166.0, 2166.0, 2167.0, 2166.0, 2166.0, 2166.0, 2166.0, 2166.0, 2166.0, 2167.0, 2166.0, 2166.0, 2166.0, 2166.0, 2166.0, 2166.0, 2166.0, 2167.0, 2166.0, 2166.0, 2166.0, 2167.0, 2166.0, 2166.0, 2166.0, 2166.0, 2166.0, 2166.0, 2166.0, 2166.0, 2166.0, 2166.0, 2166.0, 2166.0, 2166.0, 2166.0, 2166.0, 2166.0, 2166.0, 2166.0, 2166.0, 2166.0, 2166.0, 2166.0, 2166.0, 2166.0, 2166.0, 2166.0, 2166.0, 2166.0, 2166.0, 2166.0, 2166.0, 2166.0, 2166.0, 2166.0, 2166.0, 2166.0, 2166.0, 2165.0, 2165.0, 2166.0, 2167.0, 2166.0, 2166.0, 2166.0, 2166.0, 2166.0, 2166.0, 2166.0, 2166.0, 2166.0, 2165.0, 2166.0, 2166.0, 2166.0, 2166.0, 2166.0, 2165.0, 2165.0, 2166.0, 2165.0, 2166.0, 2166.0, 2166.0, 2166.0, 2165.0, 2166.0, 2166.0, 2166.0, 2165.0, 2166.0, 2166.0, 2166.0, 2165.0, 2165.0, 2166.0, 2165.0, 2165.0, 2165.0, 2166.0, 2166.0, 2165.0, 2166.0, 2166.0, 2165.0, 2165.0, 2166.0, 2165.0, 2165.0, 2166.0, 2165.0, 2166.0, 2165.0, 2166.0, 2165.0, 2166.0, 2165.0, 2165.0, 2166.0, 2165.0, 2165.0, 2166.0, 2165.0, 2165.0, 2165.0, 2165.0, 2165.0, 2165.0, 2166.0, 2165.0, 2165.0, 2166.0, 2165.0, 2165.0, 2165.0, 2165.0, 2165.0, 2165.0, 2165.0, 2165.0, 2166.0, 2165.0, 2165.0, 2165.0, 2165.0, 2165.0, 2165.0, 2165.0, 2166.0, 2165.0, 2165.0, 2165.0, 2165.0, 2165.0, 2165.0, 2165.0, 2165.0, 2165.0, 2165.0, 2165.0, 2165.0, 2165.0, 2165.0, 2165.0, 2165.0, 2165.0, 2165.0, 2165.0, 2165.0, 2165.0, 2164.0, 2165.0, 2164.0, 2165.0, 2165.0, 2165.0, 2165.0, 2165.0]
    },
    "slices": {}
  }
}