{
  "AcquisitionMatrixPE": 80,
  "AcquisitionNumber": 1,
  "AcquisitionTime": "10:04:2.505000",
  "BandwidthPerPixelPhaseEncode": 25,
  "BaseResolution": 80,
  "BodyPartExamined": "BRAIN",
  "CoilCombinationMethod": "Sum of Squares",
  "ConsistencyInfo": "N4_VE11E_LATEST_20181129",
  "ConversionSoftware": "dcm2niix",
  "ConversionSoftwareVersion": "v1.0.20220720",
  "DerivedVendorReportedEchoSpacing": 0.0005,
  "DeviceSerialNumber": "66112",
  "DwellTime": 2.7e-06,
  "EchoTime": 0.03,
  "EchoTrainLength": 80,
  "EffectiveEchoSpacing": 0.0005,
  "FlipAngle": 10,
  "HeudiconvVersion": "0.13.1",
  "ImageOrientationPatientDICOM": [0.989264, 0.145911, 0.00819436, -0.141498, 0.942305, 0.303381],
  "ImageOrientationText": "Tra>Cor(17.5)>Sag(-2.1)",
  "ImageType": [
    "ORIGINAL",
    "PRIMARY",
    "M",
    "ND",
    "NORM",
    "MOSAIC"
],
  "ImagingFrequency": 123.259,
  "InPlanePhaseEncodingDirectionDICOM": "COL",
  "InstitutionAddress": "Maynard 3,Hanover,NH,US,03755",
  "InstitutionName": "Dartmouth College - PBS",
  "InstitutionalDepartmentName": "Department",
  "MRAcquisitionType": "2D",
  "MagneticFieldStrength": 3,
  "Manufacturer": "Siemens",
  "ManufacturersModelName": "Prisma",
  "MatrixCoilMode": "SENSE",
  "Modality": "MR",
  "NonlinearGradientCorrection": false,
  "PartialFourier": 1,
  "PatientPosition": "HFS",
  "PercentPhaseFOV": 100,
  "PercentSampling": 100,
  "PhaseEncodingDirection": "j-",
  "PhaseEncodingSteps": 80,
  "PhaseResolution": 1,
  "PixelBandwidth": 2315,
  "ProcedureStepDescription": "dbic^QA",
  "ProtocolName": "func-bold_fa-10",
  "PulseSequenceDetails": "%SiemensSeq%\\ep2d_bold",
  "ReceiveCoilActiveElements": "HC1-7;NC1,2",
  "ReceiveCoilName": "HeadNeck_64",
  "ReconMatrixPE": 80,
  "RepetitionTime": 2,
  "SAR": 0.00760188,
  "ScanOptions": "FS",
  "ScanningSequence": "EP",
  "SequenceName": "*epfid2d1_80",
  "SequenceVariant": "SK",
  "SeriesDescription": "func-bold_fa-10",
  "SeriesNumber": 7,
  "ShimSetting": [4210, -7738, -7491, -127, -145, -291, -58, 108],
  "SliceThickness": 3.5,
  "SliceTiming": [0.99, 0, 1.055, 0.065, 1.12, 0.1325, 1.1875, 0.1975, 1.2525, 0.2625, 1.32, 0.33, 1.385, 0.395, 1.45, 0.46, 1.5175, 0.5275, 1.5825, 0.5925, 1.65, 0.66, 1.715, 0.725, 1.78, 0.79, 1.8475, 0.8575, 1.9125, 0.9225],
  "SoftwareVersions": "syngo MR E11",
  "SpacingBetweenSlices": 3.99,
  "StationName": "AWP66112",
  "TotalReadoutTime": 0.0395,
  "TxRefAmp": 214.978,
  "dcmmeta_affine": [
    [-2.9677913188934326, -0.42449337244033813, -0.14581497013568878, 139.6793975830078],
    [-0.4377330243587494, 2.826914072036743, 1.2021220922470093, -107.6907958984375],
    [0.024583080783486366, -0.9101442694664001, 3.8018076419830322, -22.775218963623047],
    [0.0, 0.0, 0.0, 1.0]
],
  "dcmmeta_reorient_transform": [
    [0.0, -1.0, 0.0, 79.0],
    [1.0, 0.0, 0.0, 0.0],
    [0.0, 0.0, 1.0, 0.0],
    [0.0, 0.0, 0.0, 1.0]
],
  "dcmmeta_shape": [80, 80, 30, 200],
  "dcmmeta_slice_dim": 2,
  "dcmmeta_version": 0.6,
  "global": {
    "const": {
      "AccessionNumber": "qa64",
      "AcquisitionMatrix": [80, 0, 0, 80],
      "AngioFlag": "N",
      "BitsAllocated": 16,
      "BitsStored": 12,
      "BodyPartExamined": "BRAIN",
      "Columns": 480,
      "EchoNumbers": 1,
      "EchoTime": 30.0,
      "EchoTrainLength": 80,
      "FlipAngle": 10.0,
      "HighBit": 11,
      "ImageOrientationPatient": [0.98926378226278, 0.14591100563023, 0.00819436020178, -0.1414977895831, 0.94230466902151, 0.30338142046499],
      "ImagePositionPatient": [-614.8040108193, -768.5648176859, -281.62208344238],
      "ImageType": [
        "ORIGINAL",
        "PRIMARY",
        "M",
        "ND",
        "NORM",
        "MOSAIC"
],
      "ImagedNucleus": "1H",
      "ImagingFrequency": 123.259178,
      "InPlanePhaseEncodingDirection": "COL",
      "MRAcquisitionType": "2D",
      "MagneticFieldStrength": 3.0,
      "Manufacturer": "SIEMENS",
      "ManufacturerModelName": "Prisma",
      "Modality": "MR",
      "NumberOfAverages": 1.0,
      "NumberOfPhaseEncodingSteps": 80,
      "PercentPhaseFieldOfView": 100.0,
      "PercentSampling": 100.0,
      "PerformedProcedureStepStartTime": "094651.020000",
      "PhotometricInterpretation": "MONOCHROME2",
      "PixelBandwidth": 2315.0,
      "PixelRepresentation": 0,
      "PixelSpacing": [3.0, 3.0],
      "ProtocolName": "func-bold_fa-10",
      "RepetitionTime": 2000.0,
      "Rows": 480,
      "SAR": 0.00760187951177,
      "SamplesPerPixel": 1,
      "ScanOptions": "FS",
      "ScanningSequence": "EP",
      "SequenceName": "*epfid2d1_80",
      "SequenceVariant": "SK",
      "SeriesDescription": "func-bold_fa-10",
      "SeriesNumber": 7,
      "SeriesTime": "100501.390000",
      "SliceLocation": -59.251084157156,
      "SliceThickness": 3.5,
      "SmallestImagePixelValue": 0,
      "SoftwareVersions": "syngo MR E11",
      "SpacingBetweenSlices": 3.990000018831,
      "SpecificCharacterSet": "ISO_IR 100",
      "StudyID": "26",
      "StudyTime": "094650.932000",
      "TransmitCoilName": "Body",
      "VariableFlipAngleFlag": "N",
      "WindowCenterWidthExplanation": "Algo1"
    },
    "slices": {}
  },
  "time": {
    "samples": {
      "AcquisitionNumber": [1, 2, 3, 4, 5, 6, 7, 8, 9, 10, 11, 12, 13, 14, 15, 16, 17, 18, 19, 20, 21, 22, 23, 24, 25, 26, 27, 28, 29, 30, 31, 32, 33, 34, 35, 36, 37, 38, 39, 40, 41, 42, 43, 44, 45, 46, 47, 48, 49, 50, 51, 52, 53, 54, 55, 56, 57, 58, 59, 60, 61, 62, 63, 64, 65, 66, 67, 68, 69, 70, 71, 72, 73, 74, 75, 76, 77, 78, 79, 80, 81, 82, 83, 84, 85, 86, 87, 88, 89, 90, 91, 92, 93, 94, 95, 96, 97, 98, 99, 100, 101, 102, 103, 104, 105, 106, 107, 108, 109, 110, 111, 112, 113, 114, 115, 116, 117, 118, 119, 120, 121, 122, 123, 124, 125, 126, 127, 128, 129, 130, 131, 132, 133, 134, 135, 136, 137, 138, 139, 140, 141, 142, 143, 144, 145, 146, 147, 148, 149, 150, 151, 152, 153, 154, 155, 156, 157, 158, 159, 160, 161, 162, 163, 164, 165, 166, 167, 168, 169, 170, 171, 172, 173, 174, 175, 176, 177, 178, 179, 180, 181, 182, 183, 184, 185, 186, 187, 188, 189, 190, 191, 192, 193, 194, 195, 196, 197, 198, 199, 200],
      "AcquisitionTime": ["100402.505000", "100404.505000", "100406.505000", "100408.505000", "100410.505000", "100412.505000", "100414.505000", "100416.505000", "100418.505000", "100420.505000", "100422.505000", "100424.505000", "100426.505000", "100428.505000", "100430.505000", "100432.505000", "100434.505000", "100436.505000", "100438.505000", "100440.505000", "100442.505000", "100444.505000", "100446.505000", "100448.505000", "100450.505000", "100452.505000", "100454.505000", "100456.505000", "100458.505000", "100500.505000", "100502.505000", "100504.505000", "100506.505000", "100508.505000", "100510.505000", "100512.505000", "100514.505000", "100516.505000", "100518.505000", "100520.505000", "100522.505000", "100524.505000", "100526.505000", "100528.505000", "100530.505000", "100532.505000", "100534.505000", "100536.505000", "100538.505000", "100540.505000", "100542.505000", "100544.505000", "100546.505000", "100548.505000", "100550.505000", "100552.505000", "100554.505000", "100556.505000", "100558.505000", "100600.505000", "100602.505000", "100604.505000", "100606.505000", "100608.505000", "100610.505000", "100612.505000", "100614.505000", "100616.505000", "100618.505000", "100620.505000", "100622.505000", "100624.505000", "100626.505000", "100628.505000", "100630.505000", "100632.505000", "100634.505000", "100636.505000", "100638.505000", "100640.505000", "100642.505000", "100644.505000", "100646.505000", "100648.505000", "100650.505000", "100652.505000", "100654.505000", "100656.505000", "100658.505000", "100700.505000", "100702.505000", "100704.505000", "100706.505000", "100708.505000", "100710.505000", "100712.505000", "100714.505000", "100716.505000", "100718.505000", "100720.505000", "100722.505000", "100724.505000", "100726.505000", "100728.505000", "100730.505000", "100732.505000", "100734.505000", "100736.505000", "100738.505000", "100740.505000", "100742.505000", "100744.505000", "100746.505000", "100748.505000", "100750.505000", "100752.505000", "100754.505000", "100756.505000", "100758.505000", "100800.505000", "100802.505000", "100804.505000", "100806.505000", "100808.505000", "100810.505000", "100812.505000", "100814.505000", "100816.505000", "100818.505000", "100820.505000", "100822.505000", "100824.505000", "100826.505000", "100828.505000", "100830.505000", "100832.505000", "100834.505000", "100836.505000", "100838.505000", "100840.505000", "100842.505000", "100844.505000", "100846.505000", "100848.505000", "100850.505000", "100852.505000", "100854.505000", "100856.505000", "100858.505000", "100900.505000", "100902.505000", "100904.505000", "100906.505000", "100908.505000", "100910.505000", "100912.505000", "100914.505000", "100916.505000", "100918.505000", "100920.505000", "100922.505000", "100924.505000", "100926.505000", "100928.505000", "100930.505000", "100932.505000", "100934.505000", "100936.505000", "100938.505000", "100940.505000", "100942.505000", "100944.505000", "100946.505000", "100948.505000", "100950.505000", "100952.505000", "100954.505000", "100956.505000", "100958.505000", "101000.505000", "101002.505000", "101004.505000", "101006.505000", "101008.505000", "101010.505000", "101012.505000", "101014.505000", "101016.505000", "101018.505000", "101020.505000", "101022.505000", "101024.505000", "101026.505000", "101028.505000", "101030.505000", "101032.505000", "101034.505000", "101036.505000", "101038.505000", "101040.505000"],
      "ContentTime": ["100501.393000", "100501.396000", "100501.399000", "100501.405000", "100501.408000", "100501.410000", "100501.413000", "100501.415000", "100501.417000", "100501.419000", "100501.422000", "100501.424000", "100501.426000", "100501.429000", "100501.431000", "100501.433000", "100501.436000", "100501.438000", "100501.440000", "100501.443000", "100501.445000", "100501.448000", "100501.450000", "100501.452000", "100501.455000", "100501.457000", "100501.459000", "100501.462000", "100501.464000", "100541.388000", "100541.391000", "100541.393000", "100541.395000", "100541.398000", "100541.400000", "100541.402000", "100541.405000", "100541.407000", "100541.409000", "100541.412000", "100541.414000", "100541.416000", "100541.419000", "100541.421000", "100541.424000", "100541.426000", "100541.428000", "100541.430000", "100541.433000", "100621.389000", "100621.392000", "100621.394000", "100621.396000", "100621.399000", "100621.401000", "100621.403000", "100621.406000", "100621.408000", "100621.411000", "100621.413000", "100621.415000", "100621.418000", "100621.420000", "100621.422000", "100621.425000", "100621.427000", "100621.429000", "100621.432000", "100621.434000", "100701.388000", "100701.391000", "100701.393000", "100701.396000", "100701.398000", "100701.400000", "100701.403000", "100701.405000", "100701.407000", "100701.410000", "100701.412000", "100701.414000", "100701.417000", "100701.419000", "100701.421000", "100701.424000", "100701.426000", "100701.428000", "100701.431000", "100701.433000", "100741.388000", "100741.391000", "100741.393000", "100741.395000", "100741.398000", "100741.400000", "100741.402000", "100741.405000", "100741.407000", "100741.409000", "100741.412000", "100741.414000", "100741.417000", "100741.419000", "100741.421000", "100741.423000", "100741.426000", "100741.428000", "100741.430000", "100741.433000", "100821.388000", "100821.391000", "100821.393000", "100821.396000", "100821.398000", "100821.400000", "100821.403000", "100821.405000", "100821.407000", "100821.410000", "100821.417000", "100821.420000", "100821.422000", "100821.424000", "100821.427000", "100821.429000", "100821.431000", "100821.434000", "100821.436000", "100821.438000", "100901.388000", "100901.391000", "100901.393000", "100901.396000", "100901.398000", "100901.401000", "100901.403000", "100901.405000", "100901.408000", "100901.410000", "100901.412000", "100901.415000", "100901.417000", "100901.419000", "100901.422000", "100901.424000", "100901.426000", "100901.429000", "100901.431000", "100901.433000", "100941.388000", "100941.391000", "100941.393000", "100941.396000", "100941.398000", "100941.401000", "100941.403000", "100941.405000", "100941.408000", "100941.410000", "100941.412000", "100941.415000", "100941.417000", "100941.419000", "100941.422000", "100941.424000", "100941.426000", "100941.429000", "100941.431000", "100941.434000", "101021.388000", "101021.391000", "101021.393000", "101021.396000", "101021.398000", "101021.400000", "101021.402000", "101021.405000", "101021.407000", "101021.410000", "101021.412000", "101021.414000", "101021.417000", "101021.419000", "101021.421000", "101021.424000", "101021.426000", "101021.428000", "101021.431000", "101021.433000", "101041.925000", "101041.927000", "101041.930000", "101041.932000", "101041.934000", "101041.937000", "101041.939000", "101041.942000", "101041.944000", "101041.946000", "101041.949000"],
      "InstanceCreationTime": ["100501.393000", "100501.396000", "100501.399000", "100501.405000", "100501.408000", "100501.410000", "100501.413000", "100501.415000", "100501.417000", "100501.419000", "100501.422000", "100501.424000", "100501.426000", "100501.429000", "100501.431000", "100501.433000", "100501.436000", "100501.438000", "100501.440000", "100501.443000", "100501.445000", "100501.448000", "100501.450000", "100501.452000", "100501.455000", "100501.457000", "100501.459000", "100501.462000", "100501.464000", "100541.388000", "100541.391000", "100541.393000", "100541.395000", "100541.398000", "100541.400000", "100541.402000", "100541.405000", "100541.407000", "100541.409000", "100541.412000", "100541.414000", "100541.416000", "100541.419000", "100541.421000", "100541.424000", "100541.426000", "100541.428000", "100541.430000", "100541.433000", "100621.389000", "100621.392000", "100621.394000", "100621.396000", "100621.399000", "100621.401000", "100621.403000", "100621.406000", "100621.408000", "100621.411000", "100621.413000", "100621.415000", "100621.418000", "100621.420000", "100621.422000", "100621.425000", "100621.427000", "100621.429000", "100621.432000", "100621.434000", "100701.388000", "100701.391000", "100701.393000", "100701.396000", "100701.398000", "100701.400000", "100701.403000", "100701.405000", "100701.407000", "100701.410000", "100701.412000", "100701.414000", "100701.417000", "100701.419000", "100701.421000", "100701.424000", "100701.426000", "100701.428000", "100701.431000", "100701.433000", "100741.388000", "100741.391000", "100741.393000", "100741.395000", "100741.398000", "100741.400000", "100741.402000", "100741.405000", "100741.407000", "100741.409000", "100741.412000", "100741.414000", "100741.417000", "100741.419000", "100741.421000", "100741.423000", "100741.426000", "100741.428000", "100741.430000", "100741.433000", "100821.388000", "100821.391000", "100821.393000", "100821.396000", "100821.398000", "100821.400000", "100821.403000", "100821.405000", "100821.407000", "100821.410000", "100821.417000", "100821.420000", "100821.422000", "100821.424000", "100821.427000", "100821.429000", "100821.431000", "100821.434000", "100821.436000", "100821.438000", "100901.388000", "100901.391000", "100901.393000", "100901.396000", "100901.398000", "100901.401000", "100901.403000", "100901.405000", "100901.408000", "100901.410000", "100901.412000", "100901.415000", "100901.417000", "100901.419000", "100901.422000", "100901.424000", "100901.426000", "100901.429000", "100901.431000", "100901.433000", "100941.388000", "100941.391000", "100941.393000", "100941.396000", "100941.398000", "100941.401000", "100941.403000", "100941.405000", "100941.408000", "100941.410000", "100941.412000", "100941.415000", "100941.417000", "100941.419000", "100941.422000", "100941.424000", "100941.426000", "100941.429000", "100941.431000", "100941.434000", "101021.388000", "101021.391000", "101021.393000", "101021.396000", "101021.398000", "101021.400000", "101021.402000", "101021.405000", "101021.407000", "101021.410000", "101021.412000", "101021.414000", "101021.417000", "101021.419000", "101021.421000", "101021.424000", "101021.426000", "101021.428000", "101021.431000", "101021.433000", "101041.925000", "101041.927000", "101041.930000", "101041.932000", "101041.934000", "101041.937000", "101041.939000", "101041.942000", "101041.944000", "101041.946000", "101041.949000"],
      "InstanceNumber": [1, 2, 3, 4, 5, 6, 7, 8, 9, 10, 11, 12, 13, 14, 15, 16, 17, 18, 19, 20, 21, 22, 23, 24, 25, 26, 27, 28, 29, 30, 31, 32, 33, 34, 35, 36, 37, 38, 39, 40, 41, 42, 43, 44, 45, 46, 47, 48, 49, 50, 51, 52, 53, 54, 55, 56, 57, 58, 59, 60, 61, 62, 63, 64, 65, 66, 67, 68, 69, 70, 71, 72, 73, 74, 75, 76, 77, 78, 79, 80, 81, 82, 83, 84, 85, 86, 87, 88, 89, 90, 91, 92, 93, 94, 95, 96, 97, 98, 99, 100, 101, 102, 103, 104, 105, 106, 107, 108, 109, 110, 111, 112, 113, 114, 115, 116, 117, 118, 119, 120, 121, 122, 123, 124, 125, 126, 127, 128, 129, 130, 131, 132, 133, 134, 135, 136, 137, 138, 139, 140, 141, 142, 143, 144, 145, 146, 147, 148, 149, 150, 151, 152, 153, 154, 155, 156, 157, 158, 159, 160, 161, 162, 163, 164, 165, 166, 167, 168, 169, 170, 171, 172, 173, 174, 175, 176, 177, 178, 179, 180, 181, 182, 183, 184, 185, 186, 187, 188, 189, 190, 191, 192, 193, 194, 195, 196, 197, 198, 199, 200],
      "LargestImagePixelValue": [734, 734, 736, 732, 734, 734, 735, 731, 733, 736, 736, 733, 730, 734, 736, 731, 733, 732, 734, 737, 735, 732, 734, 734, 735, 732, 732, 731, 735, 733, 734, 732, 731, 733, 732, 734, 732, 729, 732, 732, 734, 731, 732, 737, 730, 729, 731, 733, 733, 728, 731, 733, 732, 733, 730, 730, 730, 732, 730, 729, 732, 727, 732, 729, 730, 732, 729, 729, 731, 732, 731, 733, 730, 731, 732, 731, 732, 732, 730, 732, 730, 732, 731, 728, 731, 730, 731, 730, 728, 731, 729, 728, 728, 733, 730, 729, 729, 733, 729, 729, 729, 728, 731, 730, 730, 732, 729, 730, 730, 731, 731, 726, 731, 729, 726, 729, 733, 729, 729, 727, 728, 731, 730, 730, 729, 730, 728, 728, 729, 730, 729, 729, 728, 730, 727, 728, 728, 729, 729, 728, 728, 728, 729, 733, 731, 732, 730, 731, 729, 728, 731, 729, 730, 729, 729, 728, 732, 730, 730, 727, 731, 729, 730, 729, 728, 729, 732, 731, 729, 729, 728, 728, 728, 727, 728, 729, 731, 727, 727, 729, 728, 727, 728, 726, 728, 727, 731, 729, 731, 728, 730, 731, 730, 727, 730, 728, 732, 728, 729, 733],
      "WindowCenter": [478.0, 478.0, 478.0, 478.0, 478.0, 478.0, 478.0, 478.0, 478.0, 478.0, 478.0, 478.0, 478.0, 478.0, 478.0, 478.0, 478.0, 478.0, 478.0, 478.0, 478.0, 478.0, 478.0, 478.0, 478.0, 478.0, 478.0, 478.0, 478.0, 478.0, 478.0, 478.0, 478.0, 478.0, 478.0, 478.0, 478.0, 477.0, 478.0, 478.0, 478.0, 478.0, 478.0, 478.0, 478.0, 477.0, 478.0, 478.0, 478.0, 477.0, 478.0, 478.0, 478.0, 478.0, 477.0, 478.0, 478.0, 478.0, 478.0, 477.0, 477.0, 477.0, 477.0, 477.0, 477.0, 477.0, 477.0, 477.0, 478.0, 477.0, 478.0, 477.0, 477.0, 477.0, 477.0, 477.0, 477.0, 477.0, 477.0, 478.0, 477.0, 477.0, 477.0, 476.0, 477.0, 477.0, 477.0, 477.0, 476.0, 478.0, 477.0, 476.0, 476.0, 477.0, 477.0, 476.0, 476.0, 477.0, 476.0, 476.0, 477.0, 476.0, 477.0, 477.0, 477.0, 477.0, 476.0, 477.0, 477.0, 477.0, 477.0, 476.0, 477.0, 476.0, 476.0, 476.0, 477.0, 476.0, 476.0, 476.0, 476.0, 477.0, 477.0, 477.0, 476.0, 477.0, 476.0, 476.0, 476.0, 477.0, 476.0, 476.0, 476.0, 477.0, 476.0, 476.0, 476.0, 476.0, 476.0, 476.0, 476.0, 476.0, 476.0, 477.0, 477.0, 477.0, 477.0, 477.0, 476.0, 476.0, 477.0, 476.0, 477.0, 476.0, 476.0, 476.0, 477.0, 476.0, 476.0, 476.0, 477.0, 476.0, 477.0, 476.0, 476.0, 476.0, 477.0, 476.0, 476.0, 476.0, 476.0, 476.0, 476.0, 476.0, 476.0, 476.0, 477.0, 475.0, 476.0, 475.0, 476.0, 476.0, 476.0, 476.0, 476.0, 476.0, 476.0, 476.0, 476.0, 475.0, 476.0, 477.0, 477.0, 476.0, 476.0, 476.0, 476.0, 476.0, 475.0, 476.0],
      "WindowWidth": [989.0, 990.0, 989.0, 989.0, 989.0, 990.0, 990.0, 990.0, 990.0, 989.0, 990.0, 989.0, 989.0, 990.0, 990.0, 990.0, 990.0, 990.0, 989.0, 989.0, 989.0, 989.0, 989.0, 990.0, 989.0, 989.0, 989.0, 989.0, 989.0, 989.0, 989.0, 989.0, 989.0, 989.0, 989.0, 989.0, 989.0, 988.0, 989.0, 989.0, 989.0, 989.0, 989.0, 989.0, 989.0, 988.0, 989.0, 989.0, 989.0, 988.0, 989.0, 988.0, 988.0, 988.0, 988.0, 988.0, 988.0, 988.0, 988.0, 987.0, 987.0, 987.0, 987.0, 987.0, 988.0, 988.0, 987.0, 987.0, 988.0, 988.0, 988.0, 987.0, 987.0, 987.0, 987.0, 987.0, 987.0, 987.0, 987.0, 988.0, 987.0, 987.0, 987.0, 987.0, 987.0, 987.0, 987.0, 987.0, 986.0, 988.0, 987.0, 987.0, 987.0, 987.0, 987.0, 986.0, 987.0, 987.0, 987.0, 987.0, 987.0, 987.0, 987.0, 987.0, 987.0, 987.0, 986.0, 987.0, 987.0, 987.0, 987.0, 987.0, 987.0, 986.0, 986.0, 986.0, 987.0, 986.0, 986.0, 986.0, 986.0, 987.0, 987.0, 987.0, 986.0, 987.0, 986.0, 986.0, 986.0, 987.0, 986.0, 986.0, 986.0, 987.0, 986.0, 986.0, 986.0, 986.0, 986.0, 986.0, 986.0, 986.0, 986.0, 987.0, 987.0, 987.0, 987.0, 987.0, 985.0, 985.0, 987.0, 986.0, 987.0, 986.0, 985.0, 985.0, 987.0, 986.0, 986.0, 985.0, 987.0, 985.0, 987.0, 985.0, 985.0, 985.0, 987.0, 986.0, 985.0, 985.0, 985.0, 985.0, 985.0, 985.0, 985.0, 985.0, 987.0, 985.0, 985.0, 985.0, 985.0, 985.0, 985.0, 985.0, 985.0, 985.0, 986.0, 985.0, 986.0, 985.0, 986.0, 987.0, 987.0, 985.0, 986.0, 985.0, 986.0, 985.0, 984.0, 986.0]
    },
    "slices": {}
  }
}