{
  "AcquisitionMatrixPE": 122,
  "AcquisitionNumber": 1,
  "AcquisitionTime": "12:26:54.062500",
  "BandwidthPerPixelPhaseEncode": 28.76,
  "BaseResolution": 122,
  "BodyPartExamined": "BRAIN",
  "CoilCombinationMethod": "Adaptive Combine",
  "ConsistencyInfo": "N4_VE11C_LATEST_20160120",
  "ConversionSoftware": "dcm2niix",
  "ConversionSoftwareVersion": "v1.0.20220720",
  "DerivedVendorReportedEchoSpacing": 0.000570008,
  "DeviceSerialNumber": "66112",
  "DiffusionScheme": "Monopolar",
  "DwellTime": 2e-06,
  "EchoTime": 0.075,
  "EchoTrainLength": 61,
  "EffectiveEchoSpacing": 0.000285004,
  "FlipAngle": 90,
  "HeudiconvVersion": "0.13.1",
  "ImageOrientationPatientDICOM": [0.977341, 0.211384, 0.0110268, -0.204711, 0.930669, 0.30323],
  "ImageOrientationText": "Tra>Cor(17.4)>Sag(-3.1)",
  "ImageType": [
    "ORIGINAL",
    "PRIMARY",
    "DIFFUSION",
    "NONE",
    "ND",
    "NORM"
],
  "ImagingFrequency": 123.252,
  "InPlanePhaseEncodingDirectionDICOM": "COL",
  "InstitutionAddress": "Maynard 3,Hanover,NH,US,03755",
  "InstitutionName": "Dartmouth College - PBS",
  "InstitutionalDepartmentName": "Department",
  "MRAcquisitionType": "2D",
  "MagneticFieldStrength": 3,
  "Manufacturer": "Siemens",
  "ManufacturersModelName": "Prisma",
  "MatrixCoilMode": "GRAPPA",
  "Modality": "MR",
  "NonlinearGradientCorrection": false,
  "ParallelReductionFactorInPlane": 2,
  "PartialFourier": 1,
  "PatientPosition": "HFS",
  "PercentPhaseFOV": 100,
  "PercentSampling": 100,
  "PhaseEncodingDirection": "j-",
  "PhaseEncodingSteps": 122,
  "PhaseResolution": 1,
  "PixelBandwidth": 2050,
  "ProcedureStepDescription": "dbic^QA",
  "ProtocolName": "dwi_acq-DTI-30-p2",
  "PulseSequenceDetails": "%SiemensSeq%\\ep2d_diff",
  "ReceiveCoilActiveElements": "HEA;HEP",
  "ReceiveCoilName": "Head_32",
  "ReconMatrixPE": 122,
  "RefLinesPE": 38,
  "RepetitionTime": 7.7,
  "SAR": 0.101757,
  "ScanOptions": "FS",
  "ScanningSequence": "EP",
  "SequenceName": "*ep_b0",
  "SequenceVariant": "SK\\SP",
  "SeriesDescription": "dwi_acq-DTI-30-p2",
  "SeriesNumber": 12,
  "ShimSetting": [4142, -7686, -7525, 244, -52, -187, -40, 57],
  "SliceThickness": 2,
  "SliceTiming": [3.84375, 0, 3.95312, 0.11719, 4.0625, 0.22656, 4.17188, 0.33594, 4.28125, 0.4375, 4.39062, 0.55469, 4.5, 0.66406, 4.60938, 0.77344, 4.71875, 0.88281, 4.82812, 0.99219, 4.9375, 1.10156, 5.05469, 1.21094, 5.15625, 1.32031, 5.26562, 1.42969, 5.375, 1.53906, 5.49219, 1.64844, 5.60156, 1.75781, 5.71094, 1.86719, 5.82031, 1.97656, 5.92969, 2.08594, 6.03906, 2.19531, 6.14844, 2.30469, 6.25781, 2.41406, 6.36719, 2.52344, 6.47656, 2.63281, 6.58594, 2.75, 6.69531, 2.85938, 6.80469, 2.96875, 6.91406, 3.07812, 7.02344, 3.1875, 7.13281, 3.29688, 7.24219, 3.40625, 7.35156, 3.51562, 7.46094, 3.625, 7.57031, 3.73438],
  "SoftwareVersions": "syngo MR E11",
  "SpacingBetweenSlices": 2,
  "SpoilingState": true,
  "StationName": "AWP66112",
  "TotalReadoutTime": 0.0344855,
  "TxRefAmp": 225.54,
  "dcmmeta_affine": [
    [-1.922637701034546, -0.40271061658859253, -0.10767167806625366, 147.82516479492188],
    [-0.4158383309841156, 1.8308241367340088, 0.5972347259521484, -100.8573989868164],
    [0.021692123264074326, -0.5965187549591064, 1.9057121276855469, -31.996612548828125],
    [0.0, 0.0, 0.0, 1.0]
],
  "dcmmeta_reorient_transform": [
    [0.0, -1.0, 0.0, 121.0],
    [1.0, 0.0, 0.0, 0.0],
    [0.0, 0.0, -1.0, 69.0],
    [0.0, 0.0, 0.0, 1.0]
],
  "dcmmeta_shape": [122, 122, 70, 31],
  "dcmmeta_slice_dim": 2,
  "dcmmeta_version": 0.6,
  "global": {
    "const": {
      "AccessionNumber": "qa",
      "AcquisitionMatrix": [122, 0, 0, 122],
      "AngioFlag": "N",
      "BitsAllocated": 16,
      "BitsStored": 12,
      "BodyPartExamined": "BRAIN",
      "Columns": 122,
      "EchoNumbers": 1,
      "EchoTime": 75.0,
      "EchoTrainLength": 61,
      "FlipAngle": 90.0,
      "HighBit": 11,
      "ImageOrientationPatient": [0.97734078591046, 0.21138447729582, 0.01102682884141, -0.2047112299375, 0.93066892830561, 0.30323037153946],
      "ImageType": [
        "ORIGINAL",
        "PRIMARY",
        "DIFFUSION",
        "NONE",
        "ND",
        "NORM"
],
      "ImagedNucleus": "1H",
      "ImagingFrequency": 123.252386,
      "InPlanePhaseEncodingDirection": "COL",
      "MRAcquisitionType": "2D",
      "MagneticFieldStrength": 3.0,
      "Manufacturer": "SIEMENS",
      "ManufacturerModelName": "Prisma",
      "Modality": "MR",
      "NumberOfAverages": 1.0,
      "NumberOfPhaseEncodingSteps": 122,
      "PercentPhaseFieldOfView": 100.0,
      "PercentSampling": 100.0,
      "PerformedProcedureStepStartTime": "115729.630000",
      "PhotometricInterpretation": "MONOCHROME2",
      "PixelBandwidth": 2050.0,
      "PixelRepresentation": 0,
      "PixelSpacing": [1.9672131538391, 1.9672131538391],
      "ProtocolName": "dwi_acq-DTI-30-p2",
      "RepetitionTime": 7700.0,
      "Rows": 122,
      "SAR": 0.10175739581642,
      "SamplesPerPixel": 1,
      "ScanOptions": "FS",
      "ScanningSequence": "EP",
      "SequenceVariant": [
        "SK",
        "SP"
],
      "SeriesDescription": "dwi_acq-DTI-30-p2",
      "SeriesNumber": 12,
      "SeriesTime": "122657.424000",
      "SliceThickness": 2.0,
      "SmallestImagePixelValue": 0,
      "SoftwareVersions": "syngo MR E11",
      "SpacingBetweenSlices": 2.0,
      "SpecificCharacterSet": "ISO_IR 100",
      "StudyID": "17",
      "StudyTime": "115729.560000",
      "TransmitCoilName": "Body",
      "VariableFlipAngleFlag": "N",
      "WindowCenterWidthExplanation": "Algo1",
      "dBdt": 0.0},
    "slices": {
      "AcquisitionTime": ["122654.062500", "122650.222500", "122654.172500", "122650.332500", "122654.282500", "122650.442500", "122654.390000", "122650.552500", "122654.500000", "122650.660000", "122654.610000", "122650.770000", "122654.720000", "122650.880000", "122654.830000", "122650.990000", "122654.940000", "122651.100000", "122655.050000", "122651.210000", "122655.160000", "122651.320000", "122655.270000", "122651.430000", "122655.377500", "122651.537500", "122655.487500", "122651.647500", "122655.597500", "122651.757500", "122655.707500", "122651.867500", "122655.817500", "122651.977500", "122655.927500", "122652.087500", "122656.037500", "122652.197500", "122656.147500", "122652.307500", "122656.255000", "122652.417500", "122656.365000", "122652.525000", "122656.475000", "122652.635000", "122656.585000", "122652.745000", "122656.695000", "122652.855000", "122656.805000", "122652.965000", "122656.915000", "122653.075000", "122657.025000", "122653.185000", "122657.135000", "122653.295000", "122657.242500", "122653.405000", "122657.352500", "122653.512500", "122657.462500", "122653.622500", "122657.572500", "122653.732500", "122657.682500", "122653.842500", "122657.792500", "122653.952500", "122701.762500", "122657.922500", "122701.872500", "122658.032500", "122701.982500", "122658.142500", "122702.090000", "122658.252500", "122702.200000", "122658.360000", "122702.310000", "122658.470000", "122702.420000", "122658.580000", "122702.530000", "122658.690000", "122702.640000", "122658.800000", "122702.750000", "122658.910000", "122702.860000", "122659.020000", "122702.970000", "122659.130000", "122703.077500", "122659.237500", "122703.187500", "122659.347500", "122703.297500", "122659.457500", "122703.407500", "122659.567500", "122703.517500", "122659.677500", "122703.627500", "122659.787500", "122703.737500", "122659.897500", "122703.847500", "122700.007500", "122703.955000", "122700.117500", "122704.065000", "122700.225000", "122704.175000", "122700.335000", "122704.285000", "122700.445000", "122704.395000", "122700.555000", "122704.505000", "122700.665000", "122704.615000", "122700.775000", "122704.725000", "122700.885000", "122704.835000", "122700.995000", "122704.942500", "122701.105000", "122705.052500", "122701.212500", "122705.162500", "122701.322500", "122705.272500", "122701.432500", "122705.382500", "122701.542500", "122705.492500", "122701.652500", "122709.462500", "122705.622500", "122709.572500", "122705.732500", "122709.682500", "122705.842500", "122709.790000", "122705.952500", "122709.900000", "122706.060000", "122710.010000", "122706.170000", "122710.120000", "122706.280000", "122710.230000", "122706.390000", "122710.340000", "122706.500000", "122710.450000", "122706.610000", "122710.560000", "122706.720000", "122710.670000", "122706.830000", "122710.777500", "122706.937500", "122710.887500", "122707.047500", "122710.997500", "122707.157500", "122711.107500", "122707.267500", "122711.217500", "122707.377500", "122711.327500", "122707.487500", "122711.437500", "122707.597500", "122711.547500", "122707.707500", "122711.655000", "122707.817500", "122711.765000", "122707.925000", "122711.875000", "122708.035000", "122711.985000", "122708.145000", "122712.095000", "122708.255000", "122712.205000", "122708.365000", "122712.315000", "122708.475000", "122712.425000", "122708.585000", "122712.535000", "122708.695000", "122712.642500", "122708.805000", "122712.752500", "122708.912500", "122712.862500", "122709.022500", "122712.972500", "122709.132500", "122713.082500", "122709.242500", "122713.192500", "122709.352500", "122717.162500", "122713.322500", "122717.272500", "122713.432500", "122717.382500", "122713.542500", "122717.490000", "122713.652500", "122717.600000", "122713.760000", "122717.710000", "122713.870000", "122717.820000", "122713.980000", "122717.930000", "122714.090000", "122718.040000", "122714.200000", "122718.150000", "122714.310000", "122718.260000", "122714.420000", "122718.370000", "122714.530000", "122718.477500", "122714.637500", "122718.587500", "122714.747500", "122718.697500", "122714.857500", "122718.807500", "122714.967500", "122718.917500", "122715.077500", "122719.027500", "122715.187500", "122719.137500", "122715.297500", "122719.247500", "122715.407500", "122719.355000", "122715.517500", "122719.465000", "122715.625000", "122719.575000", "122715.735000", "122719.685000", "122715.845000", "122719.795000", "122715.955000", "122719.905000", "122716.065000", "122720.015000", "122716.175000", "122720.125000", "122716.285000", "122720.235000", "122716.395000", "122720.342500", "122716.505000", "122720.452500", "122716.612500", "122720.562500", "122716.722500", "122720.672500", "122716.832500", "122720.782500", "122716.942500", "122720.892500", "122717.052500", "122724.862500", "122721.022500", "122724.972500", "122721.132500", "122725.082500", "122721.242500", "122725.190000", "122721.352500", "122725.300000", "122721.460000", "122725.410000", "122721.570000", "122725.520000", "122721.680000", "122725.630000", "122721.790000", "122725.740000", "122721.900000", "122725.850000", "122722.010000", "122725.960000", "122722.120000", "122726.070000", "122722.230000", "122726.177500", "122722.337500", "122726.287500", "122722.447500", "122726.397500", "122722.557500", "122726.507500", "122722.667500", "122726.617500", "122722.777500", "122726.727500", "122722.887500", "122726.837500", "122722.997500", "122726.947500", "122723.107500", "122727.055000", "122723.217500", "122727.165000", "122723.325000", "122727.275000", "122723.435000", "122727.385000", "122723.545000", "122727.495000", "122723.655000", "122727.605000", "122723.765000", "122727.715000", "122723.875000", "122727.825000", "122723.985000", "122727.935000", "122724.095000", "122728.042500", "122724.205000", "122728.152500", "122724.312500", "122728.262500", "122724.422500", "122728.372500", "122724.532500", "122728.482500", "122724.642500", "122728.592500", "122724.752500", "122732.562500", "122728.722500", "122732.672500", "122728.832500", "122732.782500", "122728.942500", "122732.890000", "122729.052500", "122733.000000", "122729.160000", "122733.110000", "122729.270000", "122733.220000", "122729.380000", "122733.330000", "122729.490000", "122733.440000", "122729.600000", "122733.550000", "122729.710000", "122733.660000", "122729.820000", "122733.770000", "122729.930000", "122733.877500", "122730.037500", "122733.987500", "122730.147500", "122734.097500", "122730.257500", "122734.207500", "122730.367500", "122734.317500", "122730.477500", "122734.427500", "122730.587500", "122734.537500", "122730.697500", "122734.647500", "122730.807500", "122734.755000", "122730.917500", "122734.865000", "122731.025000", "122734.975000", "122731.135000", "122735.085000", "122731.245000", "122735.195000", "122731.355000", "122735.305000", "122731.465000", "122735.415000", "122731.575000", "122735.525000", "122731.685000", "122735.635000", "122731.795000", "122735.742500", "122731.905000", "122735.852500", "122732.012500", "122735.962500", "122732.122500", "122736.072500", "122732.232500", "122736.182500", "122732.342500", "122736.292500", "122732.452500", "122740.262500", "122736.422500", "122740.372500", "122736.532500", "122740.482500", "122736.642500", "122740.590000", "122736.752500", "122740.700000", "122736.860000", "122740.810000", "122736.970000", "122740.920000", "122737.080000", "122741.030000", "122737.190000", "122741.140000", "122737.300000", "122741.250000", "122737.410000", "122741.360000", "122737.520000", "122741.470000", "122737.630000", "122741.577500", "122737.737500", "122741.687500", "122737.847500", "122741.797500", "122737.957500", "122741.907500", "122738.067500", "122742.017500", "122738.177500", "122742.127500", "122738.287500", "122742.237500", "122738.397500", "122742.347500", "122738.507500", "122742.455000", "122738.617500", "122742.565000", "122738.725000", "122742.675000", "122738.835000", "122742.785000", "122738.945000", "122742.895000", "122739.055000", "122743.005000", "122739.165000", "122743.115000", "122739.275000", "122743.225000", "122739.385000", "122743.335000", "122739.495000", "122743.442500", "122739.605000", "122743.552500", "122739.712500", "122743.662500", "122739.822500", "122743.772500", "122739.932500", "122743.882500", "122740.042500", "122743.992500", "122740.152500", "122747.962500", "122744.122500", "122748.072500", "122744.232500", "122748.182500", "122744.342500", "122748.290000", "122744.452500", "122748.400000", "122744.560000", "122748.510000", "122744.670000", "122748.620000", "122744.780000", "122748.730000", "122744.890000", "122748.840000", "122745.000000", "122748.950000", "122745.110000", "122749.060000", "122745.220000", "122749.170000", "122745.330000", "122749.277500", "122745.437500", "122749.387500", "122745.547500", "122749.497500", "122745.657500", "122749.607500", "122745.767500", "122749.717500", "122745.877500", "122749.827500", "122745.987500", "122749.937500", "122746.097500", "122750.047500", "122746.207500", "122750.155000", "122746.317500", "122750.265000", "122746.425000", "122750.375000", "122746.535000", "122750.485000", "122746.645000", "122750.595000", "122746.755000", "122750.705000", "122746.865000", "122750.815000", "122746.975000", "122750.925000", "122747.085000", "122751.035000", "122747.195000", "122751.142500", "122747.305000", "122751.252500", "122747.412500", "122751.362500", "122747.522500", "122751.472500", "122747.632500", "122751.582500", "122747.742500", "122751.692500", "122747.852500", "122755.662500", "122751.822500", "122755.772500", "122751.932500", "122755.882500", "122752.042500", "122755.990000", "122752.152500", "122756.100000", "122752.260000", "122756.210000", "122752.370000", "122756.320000", "122752.480000", "122756.430000", "122752.590000", "122756.540000", "122752.700000", "122756.650000", "122752.810000", "122756.760000", "122752.920000", "122756.870000", "122753.030000", "122756.977500", "122753.137500", "122757.087500", "122753.247500", "122757.197500", "122753.357500", "122757.307500", "122753.467500", "122757.417500", "122753.577500", "122757.527500", "122753.687500", "122757.637500", "122753.797500", "122757.747500", "122753.907500", "122757.855000", "122754.017500", "122757.965000", "122754.125000", "122758.075000", "122754.235000", "122758.185000", "122754.345000", "122758.295000", "122754.455000", "122758.405000", "122754.565000", "122758.515000", "122754.675000", "122758.625000", "122754.785000", "122758.735000", "122754.895000", "122758.842500", "122755.005000", "122758.952500", "122755.112500", "122759.062500", "122755.222500", "122759.172500", "122755.332500", "122759.282500", "122755.442500", "122759.392500", "122755.552500", "122803.362500", "122759.522500", "122803.472500", "122759.632500", "122803.582500", "122759.742500", "122803.690000", "122759.852500", "122803.800000", "122759.960000", "122803.910000", "122800.070000", "122804.020000", "122800.180000", "122804.130000", "122800.290000", "122804.240000", "122800.400000", "122804.350000", "122800.510000", "122804.460000", "122800.620000", "122804.570000", "122800.730000", "122804.677500", "122800.837500", "122804.787500", "122800.947500", "122804.897500", "122801.057500", "122805.007500", "122801.167500", "122805.117500", "122801.277500", "122805.227500", "122801.387500", "122805.337500", "122801.497500", "122805.447500", "122801.607500", "122805.555000", "122801.717500", "122805.665000", "122801.825000", "122805.775000", "122801.935000", "122805.885000", "122802.045000", "122805.995000", "122802.155000", "122806.105000", "122802.265000", "122806.215000", "122802.375000", "122806.325000", "122802.485000", "122806.435000", "122802.595000", "122806.542500", "122802.705000", "122806.652500", "122802.812500", "122806.762500", "122802.922500", "122806.872500", "122803.032500", "122806.982500", "122803.142500", "122807.092500", "122803.252500", "122811.062500", "122807.222500", "122811.172500", "122807.332500", "122811.282500", "122807.442500", "122811.390000", "122807.552500", "122811.500000", "122807.660000", "122811.610000", "122807.770000", "122811.720000", "122807.880000", "122811.830000", "122807.990000", "122811.940000", "122808.100000", "122812.050000", "122808.210000", "122812.160000", "122808.320000", "122812.270000", "122808.430000", "122812.377500", "122808.537500", "122812.487500", "122808.647500", "122812.597500", "122808.757500", "122812.707500", "122808.867500", "122812.817500", "122808.977500", "122812.927500", "122809.087500", "122813.037500", "122809.197500", "122813.147500", "122809.307500", "122813.255000", "122809.417500", "122813.365000", "122809.525000", "122813.475000", "122809.635000", "122813.585000", "122809.745000", "122813.695000", "122809.855000", "122813.805000", "122809.965000", "122813.915000", "122810.075000", "122814.025000", "122810.185000", "122814.135000", "122810.295000", "122814.242500", "122810.405000", "122814.352500", "122810.512500", "122814.462500", "122810.622500", "122814.572500", "122810.732500", "122814.682500", "122810.842500", "122814.792500", "122810.952500", "122818.762500", "122814.922500", "122818.872500", "122815.032500", "122818.982500", "122815.142500", "122819.090000", "122815.252500", "122819.200000", "122815.360000", "122819.310000", "122815.470000", "122819.420000", "122815.580000", "122819.530000", "122815.690000", "122819.640000", "122815.800000", "122819.750000", "122815.910000", "122819.860000", "122816.020000", "122819.970000", "122816.130000", "122820.077500", "122816.237500", "122820.187500", "122816.347500", "122820.297500", "122816.457500", "122820.407500", "122816.567500", "122820.517500", "122816.677500", "122820.627500", "122816.787500", "122820.737500", "122816.897500", "122820.847500", "122817.007500", "122820.955000", "122817.117500", "122821.065000", "122817.225000", "122821.175000", "122817.335000", "122821.285000", "122817.445000", "122821.395000", "122817.555000", "122821.505000", "122817.665000", "122821.615000", "122817.775000", "122821.725000", "122817.885000", "122821.835000", "122817.995000", "122821.942500", "122818.105000", "122822.052500", "122818.212500", "122822.162500", "122818.322500", "122822.272500", "122818.432500", "122822.382500", "122818.542500", "122822.492500", "122818.652500", "122826.462500", "122822.622500", "122826.572500", "122822.732500", "122826.682500", "122822.842500", "122826.790000", "122822.952500", "122826.900000", "122823.060000", "122827.010000", "122823.170000", "122827.120000", "122823.280000", "122827.230000", "122823.390000", "122827.340000", "122823.500000", "122827.450000", "122823.610000", "122827.560000", "122823.720000", "122827.670000", "122823.830000", "122827.777500", "122823.937500", "122827.887500", "122824.047500", "122827.997500", "122824.157500", "122828.107500", "122824.267500", "122828.217500", "122824.377500", "122828.327500", "122824.487500", "122828.437500", "122824.597500", "122828.547500", "122824.707500", "122828.655000", "122824.817500", "122828.765000", "122824.925000", "122828.875000", "122825.035000", "122828.985000", "122825.145000", "122829.095000", "122825.255000", "122829.205000", "122825.365000", "122829.315000", "122825.475000", "122829.425000", "122825.585000", "122829.535000", "122825.695000", "122829.642500", "122825.805000", "122829.752500", "122825.912500", "122829.862500", "122826.022500", "122829.972500", "122826.132500", "122830.082500", "122826.242500", "122830.192500", "122826.352500", "122834.162500", "122830.322500", "122834.272500", "122830.432500", "122834.382500", "122830.542500", "122834.490000", "122830.652500", "122834.600000", "122830.760000", "122834.710000", "122830.870000", "122834.820000", "122830.980000", "122834.930000", "122831.090000", "122835.040000", "122831.200000", "122835.150000", "122831.310000", "122835.260000", "122831.420000", "122835.370000", "122831.530000", "122835.477500", "122831.637500", "122835.587500", "122831.747500", "122835.697500", "122831.857500", "122835.807500", "122831.967500", "122835.917500", "122832.077500", "122836.027500", "122832.187500", "122836.137500", "122832.297500", "122836.247500", "122832.407500", "122836.355000", "122832.517500", "122836.465000", "122832.625000", "122836.575000", "122832.735000", "122836.685000", "122832.845000", "122836.795000", "122832.955000", "122836.905000", "122833.065000", "122837.015000", "122833.175000", "122837.125000", "122833.285000", "122837.235000", "122833.395000", "122837.342500", "122833.505000", "122837.452500", "122833.612500", "122837.562500", "122833.722500", "122837.672500", "122833.832500", "122837.782500", "122833.942500", "122837.892500", "122834.052500", "122841.862500", "122838.022500", "122841.972500", "122838.132500", "122842.082500", "122838.242500", "122842.190000", "122838.352500", "122842.300000", "122838.460000", "122842.410000", "122838.570000", "122842.520000", "122838.680000", "122842.630000", "122838.790000", "122842.740000", "122838.900000", "122842.850000", "122839.010000", "122842.960000", "122839.120000", "122843.070000", "122839.230000", "122843.177500", "122839.337500", "122843.287500", "122839.447500", "122843.397500", "122839.557500", "122843.507500", "122839.667500", "122843.617500", "122839.777500", "122843.727500", "122839.887500", "122843.837500", "122839.997500", "122843.947500", "122840.107500", "122844.055000", "122840.217500", "122844.165000", "122840.325000", "122844.275000", "122840.435000", "122844.385000", "122840.545000", "122844.495000", "122840.655000", "122844.605000", "122840.765000", "122844.715000", "122840.875000", "122844.825000", "122840.985000", "122844.935000", "122841.095000", "122845.042500", "122841.205000", "122845.152500", "122841.312500", "122845.262500", "122841.422500", "122845.372500", "122841.532500", "122845.482500", "122841.642500", "122845.592500", "122841.752500", "122849.562500", "122845.722500", "122849.672500", "122845.832500", "122849.782500", "122845.942500", "122849.890000", "122846.052500", "122850.000000", "122846.160000", "122850.110000", "122846.270000", "122850.220000", "122846.380000", "122850.330000", "122846.490000", "122850.440000", "122846.600000", "122850.550000", "122846.710000", "122850.660000", "122846.820000", "122850.770000", "122846.930000", "122850.877500", "122847.037500", "122850.987500", "122847.147500", "122851.097500", "122847.257500", "122851.207500", "122847.367500", "122851.317500", "122847.477500", "122851.427500", "122847.587500", "122851.537500", "122847.697500", "122851.647500", "122847.807500", "122851.755000", "122847.917500", "122851.865000", "122848.025000", "122851.975000", "122848.135000", "122852.085000", "122848.245000", "122852.195000", "122848.355000", "122852.305000", "122848.465000", "122852.415000", "122848.575000", "122852.525000", "122848.685000", "122852.635000", "122848.795000", "122852.742500", "122848.905000", "122852.852500", "122849.012500", "122852.962500", "122849.122500", "122853.072500", "122849.232500", "122853.182500", "122849.342500", "122853.292500", "122849.452500", "122857.262500", "122853.422500", "122857.372500", "122853.532500", "122857.482500", "122853.642500", "122857.590000", "122853.752500", "122857.700000", "122853.860000", "122857.810000", "122853.970000", "122857.920000", "122854.080000", "122858.030000", "122854.190000", "122858.140000", "122854.300000", "122858.250000", "122854.410000", "122858.360000", "122854.520000", "122858.470000", "122854.630000", "122858.577500", "122854.737500", "122858.687500", "122854.847500", "122858.797500", "122854.957500", "122858.907500", "122855.067500", "122859.017500", "122855.177500", "122859.127500", "122855.287500", "122859.237500", "122855.397500", "122859.347500", "122855.507500", "122859.455000", "122855.617500", "122859.565000", "122855.725000", "122859.675000", "122855.835000", "122859.785000", "122855.945000", "122859.895000", "122856.055000", "122900.005000", "122856.165000", "122900.115000", "122856.275000", "122900.225000", "122856.385000", "122900.335000", "122856.495000", "122900.442500", "122856.605000", "122900.552500", "122856.712500", "122900.662500", "122856.822500", "122900.772500", "122856.932500", "122900.882500", "122857.042500", "122900.992500", "122857.152500", "122904.962500", "122901.122500", "122905.072500", "122901.232500", "122905.182500", "122901.342500", "122905.290000", "122901.452500", "122905.400000", "122901.560000", "122905.510000", "122901.670000", "122905.620000", "122901.780000", "122905.730000", "122901.890000", "122905.840000", "122902.000000", "122905.950000", "122902.110000", "122906.060000", "122902.220000", "122906.170000", "122902.330000", "122906.277500", "122902.437500", "122906.387500", "122902.547500", "122906.497500", "122902.657500", "122906.607500", "122902.767500", "122906.717500", "122902.877500", "122906.827500", "122902.987500", "122906.937500", "122903.097500", "122907.047500", "122903.207500", "122907.155000", "122903.317500", "122907.265000", "122903.425000", "122907.375000", "122903.535000", "122907.485000", "122903.645000", "122907.595000", "122903.755000", "122907.705000", "122903.865000", "122907.815000", "122903.975000", "122907.925000", "122904.085000", "122908.035000", "122904.195000", "122908.142500", "122904.305000", "122908.252500", "122904.412500", "122908.362500", "122904.522500", "122908.472500", "122904.632500", "122908.582500", "122904.742500", "122908.692500", "122904.852500", "122912.662500", "122908.822500", "122912.772500", "122908.932500", "122912.882500", "122909.042500", "122912.990000", "122909.152500", "122913.100000", "122909.260000", "122913.210000", "122909.370000", "122913.320000", "122909.480000", "122913.430000", "122909.590000", "122913.540000", "122909.700000", "122913.650000", "122909.810000", "122913.760000", "122909.920000", "122913.870000", "122910.030000", "122913.977500", "122910.137500", "122914.087500", "122910.247500", "122914.197500", "122910.357500", "122914.307500", "122910.467500", "122914.417500", "122910.577500", "122914.527500", "122910.687500", "122914.637500", "122910.797500", "122914.747500", "122910.907500", "122914.855000", "122911.017500", "122914.965000", "122911.125000", "122915.075000", "122911.235000", "122915.185000", "122911.345000", "122915.295000", "122911.455000", "122915.405000", "122911.565000", "122915.515000", "122911.675000", "122915.625000", "122911.785000", "122915.735000", "122911.895000", "122915.842500", "122912.005000", "122915.952500", "122912.112500", "122916.062500", "122912.222500", "122916.172500", "122912.332500", "122916.282500", "122912.442500", "122916.392500", "122912.552500", "122920.362500", "122916.522500", "122920.472500", "122916.632500", "122920.582500", "122916.742500", "122920.690000", "122916.852500", "122920.800000", "122916.960000", "122920.910000", "122917.070000", "122921.020000", "122917.180000", "122921.130000", "122917.290000", "122921.240000", "122917.400000", "122921.350000", "122917.510000", "122921.460000", "122917.620000", "122921.570000", "122917.730000", "122921.677500", "122917.837500", "122921.787500", "122917.947500", "122921.897500", "122918.057500", "122922.007500", "122918.167500", "122922.117500", "122918.277500", "122922.227500", "122918.387500", "122922.337500", "122918.497500", "122922.447500", "122918.607500", "122922.555000", "122918.717500", "122922.665000", "122918.825000", "122922.775000", "122918.935000", "122922.885000", "122919.045000", "122922.995000", "122919.155000", "122923.105000", "122919.265000", "122923.215000", "122919.375000", "122923.325000", "122919.485000", "122923.435000", "122919.595000", "122923.542500", "122919.705000", "122923.652500", "122919.812500", "122923.762500", "122919.922500", "122923.872500", "122920.032500", "122923.982500", "122920.142500", "122924.092500", "122920.252500", "122928.062500", "122924.222500", "122928.172500", "122924.332500", "122928.282500", "122924.442500", "122928.390000", "122924.552500", "122928.500000", "122924.660000", "122928.610000", "122924.770000", "122928.720000", "122924.880000", "122928.830000", "122924.990000", "122928.940000", "122925.100000", "122929.050000", "122925.210000", "122929.160000", "122925.320000", "122929.270000", "122925.430000", "122929.377500", "122925.537500", "122929.487500", "122925.647500", "122929.597500", "122925.757500", "122929.707500", "122925.867500", "122929.817500", "122925.977500", "122929.927500