{
  "AcquisitionMatrixPE": 122,
  "AcquisitionNumber": 1,
  "AcquisitionTime": "12:31:15.502500",
  "BandwidthPerPixelPhaseEncode": 27.785,
  "BaseResolution": 122,
  "BodyPartExamined": "BRAIN",
  "CoilCombinationMethod": "Adaptive Combine",
  "ConsistencyInfo": "N4_VE11C_LATEST_20160120",
  "ConversionSoftware": "dcm2niix",
  "ConversionSoftwareVersion": "v1.0.20220720",
  "DerivedVendorReportedEchoSpacing": 0.000590011,
  "DeviceSerialNumber": "66112",
  "DiffusionScheme": "Monopolar",
  "DwellTime": 2e-06,
  "EchoTime": 0.068,
  "EchoTrainLength": 61,
  "EffectiveEchoSpacing": 0.000295005,
  "FlipAngle": 90,
  "HeudiconvVersion": "0.13.1",
  "ImageOrientationPatientDICOM": [0.977341, 0.211384, 0.0110268, -0.204711, 0.930669, 0.30323],
  "ImageOrientationText": "Tra>Cor(17.4)>Sag(-3.1)",
  "ImageType": [
    "ORIGINAL",
    "PRIMARY",
    "DIFFUSION",
    "NONE",
    "ND",
    "NORM"
],
  "ImagingFrequency": 123.252,
  "InPlanePhaseEncodingDirectionDICOM": "COL",
  "InstitutionAddress": "Maynard 3,Hanover,NH,US,03755",
  "InstitutionName": "Dartmouth College - PBS",
  "InstitutionalDepartmentName": "Department",
  "MRAcquisitionType": "2D",
  "MagneticFieldStrength": 3,
  "Manufacturer": "Siemens",
  "ManufacturersModelName": "Prisma",
  "Modality": "MR",
  "MultibandAccelerationFactor": 4,
  "NonlinearGradientCorrection": false,
  "ParallelReductionFactorInPlane": 2,
  "PartialFourier": 1,
  "PatientPosition": "HFS",
  "PercentPhaseFOV": 100,
  "PercentSampling": 100,
  "PhaseEncodingDirection": "j-",
  "PhaseEncodingSteps": 122,
  "PhaseResolution": 1,
  "PixelBandwidth": 2050,
  "ProcedureStepDescription": "dbic^QA",
  "ProtocolName": "dwi_acq-DTI-30-p2-s4",
  "PulseSequenceDetails": "%SiemensSeq%\\ep2d_diff",
  "ReceiveCoilActiveElements": "HEA;HEP",
  "ReceiveCoilName": "Head_32",
  "ReconMatrixPE": 122,
  "RefLinesPE": 38,
  "RepetitionTime": 3.6,
  "SAR": 0.161872,
  "ScanOptions": "FS",
  "ScanningSequence": "EP",
  "SequenceName": "*ep_b0",
  "SequenceVariant": "SK\\SP",
  "SeriesDescription": "dwi_acq-DTI-30-p2-s4",
  "SeriesNumber": 13,
  "ShimSetting": [4142, -7686, -7525, 244, -52, -191, -40, 56],
  "SliceThickness": 2,
  "SliceTiming": [2.58594, 0, 1.78906, 0.20312, 1.99219, 0.39844, 2.1875, 0.60156, 2.39062, 0.99219, 2.78906, 1.19531, 2.98438, 1.39062, 3.17969, 1.59375, 3.38281, 0.79688, 2.58594, 0, 1.78906, 0.20312, 1.99219, 0.39844, 2.1875, 0.60156, 2.39062, 0.99219, 2.78906, 1.19531, 2.98438, 1.39062, 3.17969, 1.59375, 3.38281, 0.79688, 2.58594, 0, 1.78906, 0.20312, 1.99219, 0.39844, 2.1875, 0.60156, 2.39062, 0.99219, 2.78906, 1.19531, 2.98438, 1.39062, 3.17969, 1.59375, 3.38281, 0.79688, 2.58594, 0, 1.78906, 0.20312, 1.99219, 0.39844, 2.1875, 0.60156, 2.39062, 0.99219, 2.78906, 1.19531, 2.98438, 1.39062, 3.17969, 1.59375, 3.38281, 0.79688],
  "SoftwareVersions": "syngo MR E11",
  "SpacingBetweenSlices": 2,
  "SpoilingState": true,
  "StationName": "AWP66112",
  "TotalReadoutTime": 0.0356956,
  "TxRefAmp": 225.54,
  "dcmmeta_affine": [
    [-1.922637701034546, -0.40271061658859253, -0.10767173767089844, 147.93283081054688],
    [-0.4158383309841156, 1.8308241367340088, 0.5972328186035156, -101.45449829101562],
    [0.021692123264074326, -0.5965187549591064, 1.90570068359375, -33.90152359008789],
    [0.0, 0.0, 0.0, 1.0]
],
  "dcmmeta_reorient_transform": [
    [0.0, -1.0, 0.0, 121.0],
    [1.0, 0.0, 0.0, 0.0],
    [0.0, 0.0, -1.0, 71.0],
    [0.0, 0.0, 0.0, 1.0]
],
  "dcmmeta_shape": [122, 122, 72, 31],
  "dcmmeta_slice_dim": 2,
  "dcmmeta_version": 0.6,
  "global": {
    "const": {
      "AccessionNumber": "qa",
      "AcquisitionMatrix": [122, 0, 0, 122],
      "AngioFlag": "N",
      "BitsAllocated": 16,
      "BitsStored": 12,
      "BodyPartExamined": "BRAIN",
      "Columns": 122,
      "EchoNumbers": 1,
      "EchoTime": 68.0,
      "EchoTrainLength": 61,
      "FlipAngle": 90.0,
      "HighBit": 11,
      "ImageOrientationPatient": [0.97734078591046, 0.21138447729582, 0.01102682884141, -0.2047112299375, 0.93066892830561, 0.30323037153946],
      "ImageType": [
        "ORIGINAL",
        "PRIMARY",
        "DIFFUSION",
        "NONE",
        "ND",
        "NORM"
],
      "ImagedNucleus": "1H",
      "ImagingFrequency": 123.252389,
      "InPlanePhaseEncodingDirection": "COL",
      "MRAcquisitionType": "2D",
      "MagneticFieldStrength": 3.0,
      "Manufacturer": "SIEMENS",
      "ManufacturerModelName": "Prisma",
      "Modality": "MR",
      "NumberOfAverages": 1.0,
      "NumberOfPhaseEncodingSteps": 122,
      "PercentPhaseFieldOfView": 100.0,
      "PercentSampling": 100.0,
      "PerformedProcedureStepStartTime": "115729.630000",
      "PhotometricInterpretation": "MONOCHROME2",
      "PixelBandwidth": 2050.0,
      "PixelRepresentation": 0,
      "PixelSpacing": [1.9672131538391, 1.9672131538391],
      "ProtocolName": "dwi_acq-DTI-30-p2-s4",
      "RepetitionTime": 3600.0,
      "Rows": 122,
      "SAR": 0.16187157464548,
      "SamplesPerPixel": 1,
      "ScanOptions": "FS",
      "ScanningSequence": "EP",
      "SequenceVariant": [
        "SK",
        "SP"
],
      "SeriesDescription": "dwi_acq-DTI-30-p2-s4",
      "SeriesNumber": 13,
      "SeriesTime": "123124.687000",
      "SliceThickness": 2.0,
      "SmallestImagePixelValue": 0,
      "SoftwareVersions": "syngo MR E11",
      "SpacingBetweenSlices": 2.0,
      "SpecificCharacterSet": "ISO_IR 100",
      "StudyID": "17",
      "StudyTime": "115729.560000",
      "TransmitCoilName": "Body",
      "VariableFlipAngleFlag": "N",
      "WindowCenterWidthExplanation": "Algo1",
      "dBdt": 0.0},
    "slices": {
      "AcquisitionTime": ["123115.502500", "123112.915000", "123114.705000", "123113.115000", "123114.905000", "123113.315000", "123115.105000", "123113.512500", "123115.302500", "123113.910000", "123115.700000", "123114.110000", "123115.900000", "123114.307500", "123116.097500", "123114.507500", "123116.297500", "123113.712500", "123115.502500", "123112.915000", "123114.705000", "123113.115000", "123114.905000", "123113.315000", "123115.105000", "123113.512500", "123115.302500", "123113.910000", "123115.700000", "123114.110000", "123115.900000", "123114.307500", "123116.097500", "123114.507500", "123116.297500", "123113.712500", "123115.502500", "123112.915000", "123114.705000", "123113.115000", "123114.905000", "123113.315000", "123115.105000", "123113.512500", "123115.302500", "123113.910000", "123115.700000", "123114.110000", "123115.900000", "123114.307500", "123116.097500", "123114.507500", "123116.297500", "123113.712500", "123115.502500", "123112.915000", "123114.705000", "123113.115000", "123114.905000", "123113.315000", "123115.105000", "123113.512500", "123115.302500", "123113.910000", "123115.700000", "123114.110000", "123115.900000", "123114.307500", "123116.097500", "123114.507500", "123116.297500", "123113.712500", "123119.102500", "123116.515000", "123118.305000", "123116.715000", "123118.505000", "123116.915000", "123118.705000", "123117.112500", "123118.902500", "123117.510000", "123119.300000", "123117.710000", "123119.500000", "123117.907500", "123119.697500", "123118.107500", "123119.897500", "123117.312500", "123119.102500", "123116.515000", "123118.305000", "123116.715000", "123118.505000", "123116.915000", "123118.705000", "123117.112500", "123118.902500", "123117.510000", "123119.300000", "123117.710000", "123119.500000", "123117.907500", "123119.697500", "123118.107500", "123119.897500", "123117.312500", "123119.102500", "123116.515000", "123118.305000", "123116.715000", "123118.505000", "123116.915000", "123118.705000", "123117.112500", "123118.902500", "123117.510000", "123119.300000", "123117.710000", "123119.500000", "123117.907500", "123119.697500", "123118.107500", "123119.897500", "123117.312500", "123119.102500", "123116.515000", "123118.305000", "123116.715000", "123118.505000", "123116.915000", "123118.705000", "123117.112500", "123118.902500", "123117.510000", "123119.300000", "123117.710000", "123119.500000", "123117.907500", "123119.697500", "123118.107500", "123119.897500", "123117.312500", "123122.702500", "123120.115000", "123121.905000", "123120.315000", "123122.105000", "123120.515000", "123122.305000", "123120.712500", "123122.502500", "123121.110000", "123122.900000", "123121.310000", "123123.100000", "123121.507500", "123123.297500", "123121.707500", "123123.497500", "123120.912500", "123122.702500", "123120.115000", "123121.905000", "123120.315000", "123122.105000", "123120.515000", "123122.305000", "123120.712500", "123122.502500", "123121.110000", "123122.900000", "123121.310000", "123123.100000", "123121.507500", "123123.297500", "123121.707500", "123123.497500", "123120.912500", "123122.702500", "123120.115000", "123121.905000", "123120.315000", "123122.105000", "123120.515000", "123122.305000", "123120.712500", "123122.502500", "123121.110000", "123122.900000", "123121.310000", "123123.100000", "123121.507500", "123123.297500", "123121.707500", "123123.497500", "123120.912500", "123122.702500", "123120.115000", "123121.905000", "123120.315000", "123122.105000", "123120.515000", "123122.305000", "123120.712500", "123122.502500", "123121.110000", "123122.900000", "123121.310000", "123123.100000", "123121.507500", "123123.297500", "123121.707500", "123123.497500", "123120.912500", "123126.302500", "123123.715000", "123125.505000", "123123.915000", "123125.705000", "123124.115000", "123125.905000", "123124.312500", "123126.102500", "123124.710000", "123126.500000", "123124.910000", "123126.700000", "123125.107500", "123126.897500", "123125.307500", "123127.097500", "123124.512500", "123126.302500", "123123.715000", "123125.505000", "123123.915000", "123125.705000", "123124.115000", "123125.905000", "123124.312500", "123126.102500", "123124.710000", "123126.500000", "123124.910000", "123126.700000", "123125.107500", "123126.897500", "123125.307500", "123127.097500", "123124.512500", "123126.302500", "123123.715000", "123125.505000", "123123.915000", "123125.705000", "123124.115000", "123125.905000", "123124.312500", "123126.102500", "123124.710000", "123126.500000", "123124.910000", "123126.700000", "123125.107500", "123126.897500", "123125.307500", "123127.097500", "123124.512500", "123126.302500", "123123.715000", "123125.505000", "123123.915000", "123125.705000", "123124.115000", "123125.905000", "123124.312500", "123126.102500", "123124.710000", "123126.500000", "123124.910000", "123126.700000", "123125.107500", "123126.897500", "123125.307500", "123127.097500", "123124.512500", "123129.902500", "123127.315000", "123129.105000", "123127.515000", "123129.305000", "123127.715000", "123129.505000", "123127.912500", "123129.702500", "123128.310000", "123130.100000", "123128.510000", "123130.300000", "123128.707500", "123130.497500", "123128.907500", "123130.697500", "123128.112500", "123129.902500", "123127.315000", "123129.105000", "123127.515000", "123129.305000", "123127.715000", "123129.505000", "123127.912500", "123129.702500", "123128.310000", "123130.100000", "123128.510000", "123130.300000", "123128.707500", "123130.497500", "123128.907500", "123130.697500", "123128.112500", "123129.902500", "123127.315000", "123129.105000", "123127.515000", "123129.305000", "123127.715000", "123129.505000", "123127.912500", "123129.702500", "123128.310000", "123130.100000", "123128.510000", "123130.300000", "123128.707500", "123130.497500", "123128.907500", "123130.697500", "123128.112500", "123129.902500", "123127.315000", "123129.105000", "123127.515000", "123129.305000", "123127.715000", "123129.505000", "123127.912500", "123129.702500", "123128.310000", "123130.100000", "123128.510000", "123130.300000", "123128.707500", "123130.497500", "123128.907500", "123130.697500", "123128.112500", "123133.502500", "123130.915000", "123132.705000", "123131.115000", "123132.905000", "123131.315000", "123133.105000", "123131.512500", "123133.302500", "123131.910000", "123133.700000", "123132.110000", "123133.900000", "123132.307500", "123134.097500", "123132.507500", "123134.297500", "123131.712500", "123133.502500", "123130.915000", "123132.705000", "123131.115000", "123132.905000", "123131.315000", "123133.105000", "123131.512500", "123133.302500", "123131.910000", "123133.700000", "123132.110000", "123133.900000", "123132.307500", "123134.097500", "123132.507500", "123134.297500", "123131.712500", "123133.502500", "123130.915000", "123132.705000", "123131.115000", "123132.905000", "123131.315000", "123133.105000", "123131.512500", "123133.302500", "123131.910000", "123133.700000", "123132.110000", "123133.900000", "123132.307500", "123134.097500", "123132.507500", "123134.297500", "123131.712500", "123133.502500", "123130.915000", "123132.705000", "123131.115000", "123132.905000", "123131.315000", "123133.105000", "123131.512500", "123133.302500", "123131.910000", "123133.700000", "123132.110000", "123133.900000", "123132.307500", "123134.097500", "123132.507500", "123134.297500", "123131.712500", "123137.102500", "123134.515000", "123136.305000", "123134.715000", "123136.505000", "123134.915000", "123136.705000", "123135.112500", "123136.902500", "123135.510000", "123137.300000", "123135.710000", "123137.500000", "123135.907500", "123137.697500", "123136.107500", "123137.897500", "123135.312500", "123137.102500", "123134.515000", "123136.305000", "123134.715000", "123136.505000", "123134.915000", "123136.705000", "123135.112500", "123136.902500", "123135.510000", "123137.300000", "123135.710000", "123137.500000", "123135.907500", "123137.697500", "123136.107500", "123137.897500", "123135.312500", "123137.102500", "123134.515000", "123136.305000", "123134.715000", "123136.505000", "123134.915000", "123136.705000", "123135.112500", "123136.902500", "123135.510000", "123137.300000", "123135.710000", "123137.500000", "123135.907500", "123137.697500", "123136.107500", "123137.897500", "123135.312500", "123137.102500", "123134.515000", "123136.305000", "123134.715000", "123136.505000", "123134.915000", "123136.705000", "123135.112500", "123136.902500", "123135.510000", "123137.300000", "123135.710000", "123137.500000", "123135.907500", "123137.697500", "123136.107500", "123137.897500", "123135.312500", "123140.702500", "123138.115000", "123139.905000", "123138.315000", "123140.105000", "123138.515000", "123140.305000", "123138.712500", "123140.502500", "123139.110000", "123140.900000", "123139.310000", "123141.100000", "123139.507500", "123141.297500", "123139.707500", "123141.497500", "123138.912500", "123140.702500", "123138.115000", "123139.905000", "123138.315000", "123140.105000", "123138.515000", "123140.305000", "123138.712500", "123140.502500", "123139.110000", "123140.900000", "123139.310000", "123141.100000", "123139.507500", "123141.297500", "123139.707500", "123141.497500", "123138.912500", "123140.702500", "123138.115000", "123139.905000", "123138.315000", "123140.105000", "123138.515000", "123140.305000", "123138.712500", "123140.502500", "123139.110000", "123140.900000", "123139.310000", "123141.100000", "123139.507500", "123141.297500", "123139.707500", "123141.497500", "123138.912500", "123140.702500", "123138.115000", "123139.905000", "123138.315000", "123140.105000", "123138.515000", "123140.305000", "123138.712500", "123140.502500", "123139.110000", "123140.900000", "123139.310000", "123141.100000", "123139.507500", "123141.297500", "123139.707500", "123141.497500", "123138.912500", "123144.302500", "123141.715000", "123143.505000", "123141.915000", "123143.705000", "123142.115000", "123143.905000", "123142.312500", "123144.102500", "123142.710000", "123144.500000", "123142.910000", "123144.700000", "123143.107500", "123144.897500", "123143.307500", "123145.097500", "123142.512500", "123144.302500", "123141.715000", "123143.505000", "123141.915000", "123143.705000", "123142.115000", "123143.905000", "123142.312500", "123144.102500", "123142.710000", "123144.500000", "123142.910000", "123144.700000", "123143.107500", "123144.897500", "123143.307500", "123145.097500", "123142.512500", "123144.302500", "123141.715000", "123143.505000", "123141.915000", "123143.705000", "123142.115000", "123143.905000", "123142.312500", "123144.102500", "123142.710000", "123144.500000", "123142.910000", "123144.700000", "123143.107500", "123144.897500", "123143.307500", "123145.097500", "123142.512500", "123144.302500", "123141.715000", "123143.505000", "123141.915000", "123143.705000", "123142.115000", "123143.905000", "123142.312500", "123144.102500", "123142.710000", "123144.500000", "123142.910000", "123144.700000", "123143.107500", "123144.897500", "123143.307500", "123145.097500", "123142.512500", "123147.902500", "123145.315000", "123147.105000", "123145.515000", "123147.305000", "123145.715000", "123147.505000", "123145.912500", "123147.702500", "123146.310000", "123148.100000", "123146.510000", "123148.300000", "123146.707500", "123148.497500", "123146.907500", "123148.697500", "123146.112500", "123147.902500", "123145.315000", "123147.105000", "123145.515000", "123147.305000", "123145.715000", "123147.505000", "123145.912500", "123147.702500", "123146.310000", "123148.100000", "123146.510000", "123148.300000", "123146.707500", "123148.497500", "123146.907500", "123148.697500", "123146.112500", "123147.902500", "123145.315000", "123147.105000", "123145.515000", "123147.305000", "123145.715000", "123147.505000", "123145.912500", "123147.702500", "123146.310000", "123148.100000", "123146.510000", "123148.300000", "123146.707500", "123148.497500", "123146.907500", "123148.697500", "123146.112500", "123147.902500", "123145.315000", "123147.105000", "123145.515000", "123147.305000", "123145.715000", "123147.505000", "123145.912500", "123147.702500", "123146.310000", "123148.100000", "123146.510000", "123148.300000", "123146.707500", "123148.497500", "123146.907500", "123148.697500", "123146.112500", "123151.502500", "123148.915000", "123150.705000", "123149.115000", "123150.905000", "123149.315000", "123151.105000", "123149.512500", "123151.302500", "123149.910000", "123151.700000", "123150.110000", "123151.900000", "123150.307500", "123152.097500", "123150.507500", "123152.297500", "123149.712500", "123151.502500", "123148.915000", "123150.705000", "123149.115000", "123150.905000", "123149.315000", "123151.105000", "123149.512500", "123151.302500", "123149.910000", "123151.700000", "123150.110000", "123151.900000", "123150.307500", "123152.097500", "123150.507500", "123152.297500", "123149.712500", "123151.502500", "123148.915000", "123150.705000", "123149.115000", "123150.905000", "123149.315000", "123151.105000", "123149.512500", "123151.302500", "123149.910000", "123151.700000", "123150.110000", "123151.900000", "123150.307500", "123152.097500", "123150.507500", "123152.297500", "123149.712500", "123151.502500", "123148.915000", "123150.705000", "123149.115000", "123150.905000", "123149.315000", "123151.105000", "123149.512500", "123151.302500", "123149.910000", "123151.700000", "123150.110000", "123151.900000", "123150.307500", "123152.097500", "123150.507500", "123152.297500", "123149.712500", "123155.102500", "123152.515000", "123154.305000", "123152.715000", "123154.505000", "123152.915000", "123154.705000", "123153.112500", "123154.902500", "123153.510000", "123155.300000", "123153.710000", "123155.500000", "123153.907500", "123155.697500", "123154.107500", "123155.897500", "123153.312500", "123155.102500", "123152.515000", "123154.305000", "123152.715000", "123154.505000", "123152.915000", "123154.705000", "123153.112500", "123154.902500", "123153.510000", "123155.300000", "123153.710000", "123155.500000", "123153.907500", "123155.697500", "123154.107500", "123155.897500", "123153.312500", "123155.102500", "123152.515000", "123154.305000", "123152.715000", "123154.505000", "123152.915000", "123154.705000", "123153.112500", "123154.902500", "123153.510000", "123155.300000", "123153.710000", "123155.500000", "123153.907500", "123155.697500", "123154.107500", "123155.897500", "123153.312500", "123155.102500", "123152.515000", "123154.305000", "123152.715000", "123154.505000", "123152.915000", "123154.705000", "123153.112500", "123154.902500", "123153.510000", "123155.300000", "123153.710000", "123155.500000", "123153.907500", "123155.697500", "123154.107500", "123155.897500", "123153.312500", "123158.702500", "123156.115000", "123157.905000", "123156.315000", "123158.105000", "123156.515000", "123158.305000", "123156.712500", "123158.502500", "123157.110000", "123158.900000", "123157.310000", "123159.100000", "123157.507500", "123159.297500", "123157.707500", "123159.497500", "123156.912500", "123158.702500", "123156.115000", "123157.905000", "123156.315000", "123158.105000", "123156.515000", "123158.305000", "123156.712500", "123158.502500", "123157.110000", "123158.900000", "123157.310000", "123159.100000", "123157.507500", "123159.297500", "123157.707500", "123159.497500", "123156.912500", "123158.702500", "123156.115000", "123157.905000", "123156.315000", "123158.105000", "123156.515000", "123158.305000", "123156.712500", "123158.502500", "123157.110000", "123158.900000", "123157.310000", "123159.100000", "123157.507500", "123159.297500", "123157.707500", "123159.497500", "123156.912500", "123158.702500", "123156.115000", "123157.905000", "123156.315000", "123158.105000", "123156.515000", "123158.305000", "123156.712500", "123158.502500", "123157.110000", "123158.900000", "123157.310000", "123159.100000", "123157.507500", "123159.297500", "123157.707500", "123159.497500", "123156.912500", "123202.302500", "123159.715000", "123201.505000", "123159.915000", "123201.705000", "123200.115000", "123201.905000", "123200.312500", "123202.102500", "123200.710000", "123202.500000", "123200.910000", "123202.700000", "123201.107500", "123202.897500", "123201.307500", "123203.097500", "123200.512500", "123202.302500", "123159.715000", "123201.505000", "123159.915000", "123201.705000", "123200.115000", "123201.905000", "123200.312500", "123202.102500", "123200.710000", "123202.500000", "123200.910000", "123202.700000", "123201.107500", "123202.897500", "123201.307500", "123203.097500", "123200.512500", "123202.302500", "123159.715000", "123201.505000", "123159.915000", "123201.705000", "123200.115000", "123201.905000", "123200.312500", "123202.102500", "123200.710000", "123202.500000", "123200.910000", "123202.700000", "123201.107500", "123202.897500", "123201.307500", "123203.097500", "123200.512500", "123202.302500", "123159.715000", "123201.505000", "123159.915000", "123201.705000", "123200.115000", "123201.905000", "123200.312500", "123202.102500", "123200.710000", "123202.500000", "123200.910000", "123202.700000", "123201.107500", "123202.897500", "123201.307500", "123203.097500", "123200.512500", "123205.902500", "123203.315000", "123205.105000", "123203.515000", "123205.305000", "123203.715000", "123205.505000", "123203.912500", "123205.702500", "123204.310000", "123206.100000", "123204.510000", "123206.300000", "123204.707500", "123206.497500", "123204.907500", "123206.697500", "123204.112500", "123205.902500", "123203.315000", "123205.105000", "123203.515000", "123205.305000", "123203.715000", "123205.505000", "123203.912500", "123205.702500", "123204.310000", "123206.100000", "123204.510000", "123206.300000", "123204.707500", "123206.497500", "123204.907500", "123206.697500", "123204.112500", "123205.902500", "123203.315000", "123205.105000", "123203.515000", "123205.305000", "123203.715000", "123205.505000", "123203.912500", "123205.702500", "123204.310000", "123206.100000", "123204.510000", "123206.300000", "123204.707500", "123206.497500", "123204.907500", "123206.697500", "123204.112500", "123205.902500", "123203.315000", "123205.105000", "123203.515000", "123205.305000", "123203.715000", "123205.505000", "123203.912500", "123205.702500", "123204.310000", "123206.100000", "123204.510000", "123206.300000", "123204.707500", "123206.497500", "123204.907500", "123206.697500", "123204.112500", "123209.502500", "123206.915000", "123208.705000", "123207.115000", "123208.905000", "123207.315000", "123209.105000", "123207.512500", "123209.302500", "123207.910000", "123209.700000", "123208.110000", "123209.900000", "123208.307500", "123210.097500", "123208.507500", "123210.297500", "123207.712500", "123209.502500", "123206.915000", "123208.705000", "123207.115000", "123208.905000", "123207.315000", "123209.105000", "123207.512500", "123209.302500", "123207.910000", "123209.700000", "123208.110000", "123209.900000", "123208.307500", "123210.097500", "123208.507500", "123210.297500", "123207.712500", "123209.502500", "123206.915000", "123208.705000", "123207.115000", "123208.905000", "123207.315000", "123209.105000", "123207.512500", "123209.302500", "123207.910000", "123209.700000", "123208.110000", "123209.900000", "123208.307500", "123210.097500", "123208.507500", "123210.297500", "123207.712500", "123209.502500", "123206.915000", "123208.705000", "123207.115000", "123208.905000", "123207.315000", "123209.105000", "123207.512500", "123209.302500", "123207.910000", "123209.700000", "123208.110000", "123209.900000", "123208.307500", "123210.097500", "123208.507500", "123210.297500", "123207.712500", "123213.102500", "123210.515000", "123212.305000", "123210.715000", "123212.505000", "123210.915000", "123212.705000", "123211.112500", "123212.902500", "123211.510000", "123213.300000", "123211.710000", "123213.500000", "123211.907500", "123213.697500", "123212.107500", "123213.897500", "123211.312500", "123213.102500", "123210.515000", "123212.305000", "123210.715000", "123212.505000", "123210.915000", "123212.705000", "123211.112500", "123212.902500", "123211.510000", "123213.300000", "123211.710000", "123213.500000", "123211.907500", "123213.697500", "123212.107500", "123213.897500", "123211.312500", "123213.102500", "123210.515000", "123212.305000", "123210.715000", "123212.505000", "123210.915000", "123212.705000", "123211.112500", "123212.902500", "123211.510000", "123213.300000", "123211.710000", "123213.500000", "123211.907500", "123213.697500", "123212.107500", "123213.897500", "123211.312500", "123213.102500", "123210.515000", "123212.305000", "123210.715000", "123212.505000", "123210.915000", "123212.705000", "123211.112500", "123212.902500", "123211.510000", "123213.300000", "123211.710000", "123213.500000", "123211.907500", "123213.697500", "123212.107500", "123213.897500", "123211.312500", "123216.702500", "123214.115000", "123215.905000", "123214.315000", "123216.105000", "123214.515000", "123216.305000", "123214.712500", "123216.502500", "123215.110000", "123216.900000", "123215.310000", "123217.100000", "123215.507500", "123217.297500", "123215.707500", "123217.497500", "123214.912500", "123216.702500", "123214.115000", "123215.905000", "123214.315000", "123216.105000", "123214.515000", "123216.305000", "123214.712500", "123216.502500", "123215.110000", "123216.900000", "123215.310000", "123217.100000", "123215.507500", "123217.297500", "123215.707500", "123217.497500", "123214.912500", "123216.702500", "123214.115000", "123215.905000", "123214.315000", "123216.105000", "123214.515000", "123216.305000", "123214.712500", "123216.502500", "123215.110000", "123216.900000", "123215.310000", "123217.100000", "123215.507500", "123217.297500", "123215.707500", "123217.497500", "123214.912500", "123216.702500", "123214.115000", "123215.905000", "123214.315000", "123216.105000", "123214.515000", "123216.305000", "123214.712500", "123216.502500", "123215.110000", "123216.900000", "123215.310000", "123217.100000", "123215.507500", "123217.297500", "123215.707500", "123217.497500", "123214.912500", "123220.302500", "123217.715000", "123219.505000", "123217.915000", "123219.705000", "123218.115000", "123219.905000", "123218.312500", "123220.102500", "123218.710000", "123220.500000", "123218.910000", "123220.700000", "123219.107500", "123220.897500", "123219.307500", "123221.097500", "123218.512500", "123220.302500", "123217.715000", "123219.505000", "123217.915000", "123219.705000", "123218.115000", "123219.905000", "123218.312500", "123220.102500", "123218.710000", "123220.500000", "123218.910000", "123220.700000", "123219.107500", "123220.897500", "123219.307500", "123221.097500", "123218.512500", "123220.302500", "123217.715000", "123219.505000", "123217.915000", "123219.705000", "123218.115000", "123219.905000", "123218.312500", "123220.102500", "123218.710000", "123220.500000", "123218.910000", "123220.700000", "123219.107500", "123220.897500", "123219.307500", "123221.097500", "123218.512500", "123220.302500", "123217.715000", "123219.505000", "123217.915000", "123219.705000", "123218.115000", "123219.905000", "123218.312500", "123220.102500", "123218.710000", "123220.500000", "123218.910000", "123220.700000", "123219.107500", "123220.897500", "123219.307500", "123221.097500", "123218.512500", "123223.902500", "123221.315000", "123223.105000", "123221.515000", "123223.305000", "123221.715000", "123223.505000", "123221.912500", "123223.702500", "123222.310000", "123224.100000", "123222.510000", "123224.300000", "123222.707500", "123224.497500", "123222.907500", "123224.697500", "123222.112500", "123223.902500", "123221.315000", "123223.105000", "123221.515000", "123223.305000", "123221.715000", "123223.505000", "123221.912500", "123223.702500", "123222.310000", "123224.100000", "123222.510000", "123224.300000", "123222.707500", "123224.497500", "123222.907500", "123224.697500", "123222.112500", "123223.902500", "123221.315000", "123223.105000", "123221.515000", "123223.305000", "123221.715000", "123223.505000", "123221.912500", "123223.702500", "123222.310000", "123224.100000", "123222.510000", "123224.300000", "123222.707500", "123224.497500", "123222.907500", "123224.697500", "123222.112500", "123223.902500", "123221.315000", "123223.105000", "123221.515000", "123223.305000", "123221.715000", "123223.505000", "123221.912500", "123223.702500", "123222.310000", "123224.100000", "12