{
  "AcquisitionMatrixPE": 122,
  "AcquisitionNumber": 1,
  "AcquisitionTime": "12:30:52.040000",
  "BandwidthPerPixelPhaseEncode": 28.76,
  "BaseResolution": 122,
  "BodyPartExamined": "BRAIN",
  "CoilCombinationMethod": "Adaptive Combine",
  "ConsistencyInfo": "N4_VE11C_LATEST_20160120",
  "ConversionSoftware": "dcm2niix",
  "ConversionSoftwareVersion": "v1.0.20220720",
  "DerivedVendorReportedEchoSpacing": 0.000570008,
  "DeviceSerialNumber": "66112",
  "DiffusionScheme": "Monopolar",
  "DwellTime": 2e-06,
  "EchoTime": 0.075,
  "EchoTrainLength": 61,
  "EffectiveEchoSpacing": 0.000285004,
  "FlipAngle": 90,
  "HeudiconvVersion": "0.13.1",
  "ImageOrientationPatientDICOM": [0.98121, 0.192451, 0.0138066, -0.187531, 0.934397, 0.302878],
  "ImageOrientationText": "Tra>Cor(17.5)>Sag(-2.6)",
  "ImageType": [
    "ORIGINAL",
    "PRIMARY",
    "DIFFUSION",
    "NONE",
    "ND",
    "NORM"
],
  "ImagingFrequency": 123.252,
  "InPlanePhaseEncodingDirectionDICOM": "COL",
  "InstitutionAddress": "Maynard 3,Hanover,NH,US,03755",
  "InstitutionName": "Dartmouth College - PBS",
  "InstitutionalDepartmentName": "Department",
  "MRAcquisitionType": "2D",
  "MagneticFieldStrength": 3,
  "Manufacturer": "Siemens",
  "ManufacturersModelName": "Prisma",
  "MatrixCoilMode": "GRAPPA",
  "Modality": "MR",
  "NonlinearGradientCorrection": false,
  "ParallelReductionFactorInPlane": 2,
  "PartialFourier": 1,
  "PatientPosition": "HFS",
  "PercentPhaseFOV": 100,
  "PercentSampling": 100,
  "PhaseEncodingDirection": "j-",
  "PhaseEncodingSteps": 122,
  "PhaseResolution": 1,
  "PixelBandwidth": 2050,
  "ProcedureStepDescription": "dbic^QA",
  "ProtocolName": "dwi_acq-DTI-30-p2",
  "PulseSequenceDetails": "%SiemensSeq%\\ep2d_diff",
  "ReceiveCoilActiveElements": "HEA;HEP",
  "ReceiveCoilName": "Head_32",
  "ReconMatrixPE": 122,
  "RefLinesPE": 38,
  "RepetitionTime": 7.7,
  "SAR": 0.101939,
  "ScanOptions": "FS",
  "ScanningSequence": "EP",
  "SequenceName": "*ep_b0",
  "SequenceVariant": "SK\\SP",
  "SeriesDescription": "dwi_acq-DTI-30-p2",
  "SeriesNumber": 8,
  "ShimSetting": [4150, -7697, -7508, 309, -35, -290, -12, 34],
  "SliceThickness": 2,
  "SliceTiming": [3.83594, 0, 3.94531, 0.10938, 4.05469, 0.21875, 4.16406, 0.32812, 4.27344, 0.4375, 4.38281, 0.54688, 4.49219, 0.65625, 4.60156, 0.76562, 4.71094, 0.875, 4.82812, 0.98438, 4.9375, 1.09375, 5.04688, 1.20312, 5.15625, 1.3125, 5.26562, 1.42188, 5.375, 1.53125, 5.48438, 1.64062, 5.59375, 1.75, 5.70312, 1.85938, 5.8125, 1.96875, 5.92188, 2.07812, 6.03125, 2.19531, 6.14062, 2.30469, 6.25, 2.40625, 6.35938, 2.51562, 6.46875, 2.63281, 6.57812, 2.74219, 6.6875, 2.85156, 6.79688, 2.96094, 6.90625, 3.07031, 7.01562, 3.17969, 7.125, 3.28906, 7.23438, 3.39844, 7.34375, 3.50781, 7.45312, 3.61719, 7.57031, 3.72656],
  "SoftwareVersions": "syngo MR E11",
  "SpacingBetweenSlices": 2,
  "SpoilingState": true,
  "StationName": "AWP66112",
  "TotalReadoutTime": 0.0344855,
  "TxRefAmp": 229.432,
  "dcmmeta_affine": [
    [-1.9302482604980469, -0.3689129650592804, -0.09077650308609009, 146.8767852783203],
    [-0.3785914480686188, 1.838157296180725, 0.5995521545410156, -100.13299560546875],
    [0.02716057375073433, -0.5958260893821716, 1.905853271484375, -31.207307815551758],
    [0.0, 0.0, 0.0, 1.0]
],
  "dcmmeta_reorient_transform": [
    [0.0, -1.0, 0.0, 121.0],
    [1.0, 0.0, 0.0, 0.0],
    [0.0, 0.0, -1.0, 69.0],
    [0.0, 0.0, 0.0, 1.0]
],
  "dcmmeta_shape": [122, 122, 70, 31],
  "dcmmeta_slice_dim": 2,
  "dcmmeta_version": 0.6,
  "global": {
    "const": {
      "AccessionNumber": "qa",
      "AcquisitionMatrix": [122, 0, 0, 122],
      "AngioFlag": "N",
      "BitsAllocated": 16,
      "BitsStored": 12,
      "BodyPartExamined": "BRAIN",
      "Columns": 122,
      "EchoNumbers": 1,
      "EchoTime": 75.0,
      "EchoTrainLength": 61,
      "FlipAngle": 90.0,
      "HighBit": 11,
      "ImageOrientationPatient": [0.98120952140537, 0.19245064881675, 0.01380662426025, -0.1875307475417, 0.93439658279661, 0.30287826727002],
      "ImageType": [
        "ORIGINAL",
        "PRIMARY",
        "DIFFUSION",
        "NONE",
        "ND",
        "NORM"
],
      "ImagedNucleus": "1H",
      "ImagingFrequency": 123.252408,
      "InPlanePhaseEncodingDirection": "COL",
      "MRAcquisitionType": "2D",
      "MagneticFieldStrength": 3.0,
      "Manufacturer": "SIEMENS",
      "ManufacturerModelName": "Prisma",
      "Modality": "MR",
      "NumberOfAverages": 1.0,
      "NumberOfPhaseEncodingSteps": 122,
      "PercentPhaseFieldOfView": 100.0,
      "PercentSampling": 100.0,
      "PerformedProcedureStepStartTime": "121325.090000",
      "PhotometricInterpretation": "MONOCHROME2",
      "PixelBandwidth": 2050.0,
      "PixelRepresentation": 0,
      "PixelSpacing": [1.9672131538391, 1.9672131538391],
      "ProtocolName": "dwi_acq-DTI-30-p2",
      "RepetitionTime": 7700.0,
      "Rows": 122,
      "SAR": 0.10193941849888,
      "SamplesPerPixel": 1,
      "ScanOptions": "FS",
      "ScanningSequence": "EP",
      "SequenceVariant": [
        "SK",
        "SP"
],
      "SeriesDescription": "dwi_acq-DTI-30-p2",
      "SeriesNumber": 8,
      "SeriesTime": "123110.031000",
      "SliceThickness": 2.0,
      "SmallestImagePixelValue": 0,
      "SoftwareVersions": "syngo MR E11",
      "SpacingBetweenSlices": 2.0,
      "SpecificCharacterSet": "ISO_IR 100",
      "StudyID": "93",
      "StudyTime": "121325.008000",
      "TransmitCoilName": "Body",
      "VariableFlipAngleFlag": "N",
      "WindowCenterWidthExplanation": "Algo1",
      "dBdt": 0.0},
    "slices": {
      "AcquisitionTime": ["123052.040000", "123048.200000", "123052.150000", "123048.310000", "123052.260000", "123048.420000", "123052.370000", "123048.530000", "123052.477500", "123048.640000", "123052.587500", "123048.747500", "123052.697500", "123048.857500", "123052.807500", "123048.967500", "123052.917500", "123049.077500", "123053.027500", "123049.187500", "123053.137500", "123049.297500", "123053.247500", "123049.407500", "123053.357500", "123049.517500", "123053.465000", "123049.627500", "123053.575000", "123049.735000", "123053.685000", "123049.845000", "123053.795000", "123049.955000", "123053.905000", "123050.065000", "123054.015000", "123050.175000", "123054.125000", "123050.285000", "123054.235000", "123050.395000", "123054.345000", "123050.505000", "123054.452500", "123050.612500", "123054.562500", "123050.722500", "123054.672500", "123050.832500", "123054.782500", "123050.942500", "123054.892500", "123051.052500", "123055.002500", "123051.162500", "123055.112500", "123051.272500", "123055.222500", "123051.382500", "123055.330000", "123051.492500", "123055.440000", "123051.600000", "123055.550000", "123051.710000", "123055.660000", "123051.820000", "123055.770000", "123051.930000", "123059.740000", "123055.900000", "123059.850000", "123056.010000", "123059.960000", "123056.120000", "123100.070000", "123056.230000", "123100.177500", "123056.340000", "123100.287500", "123056.447500", "123100.397500", "123056.557500", "123100.507500", "123056.667500", "123100.617500", "123056.777500", "123100.727500", "123056.887500", "123100.837500", "123056.997500", "123100.947500", "123057.107500", "123101.057500", "123057.217500", "123101.165000", "123057.327500", "123101.275000", "123057.435000", "123101.385000", "123057.545000", "123101.495000", "123057.655000", "123101.605000", "123057.765000", "123101.715000", "123057.875000", "123101.825000", "123057.985000", "123101.935000", "123058.095000", "123102.045000", "123058.205000", "123102.152500", "123058.312500", "123102.262500", "123058.422500", "123102.372500", "123058.532500", "123102.482500", "123058.642500", "123102.592500", "123058.752500", "123102.702500", "123058.862500", "123102.812500", "123058.972500", "123102.922500", "123059.082500", "123103.030000", "123059.192500", "123103.140000", "123059.300000", "123103.250000", "123059.410000", "123103.360000", "123059.520000", "123103.470000", "123059.630000", "123107.440000", "123103.600000", "123107.550000", "123103.710000", "123107.660000", "123103.820000", "123107.770000", "123103.930000", "123107.877500", "123104.040000", "123107.987500", "123104.147500", "123108.097500", "123104.257500", "123108.207500", "123104.367500", "123108.317500", "123104.477500", "123108.427500", "123104.587500", "123108.537500", "123104.697500", "123108.647500", "123104.807500", "123108.757500", "123104.917500", "123108.865000", "123105.027500", "123108.975000", "123105.135000", "123109.085000", "123105.245000", "123109.195000", "123105.355000", "123109.305000", "123105.465000", "123109.415000", "123105.575000", "123109.525000", "123105.685000", "123109.635000", "123105.795000", "123109.745000", "123105.905000", "123109.852500", "123106.012500", "123109.962500", "123106.122500", "123110.072500", "123106.232500", "123110.182500", "123106.342500", "123110.292500", "123106.452500", "123110.402500", "123106.562500", "123110.512500", "123106.672500", "123110.622500", "123106.782500", "123110.730000", "123106.892500", "123110.840000", "123107.000000", "123110.950000", "123107.110000", "123111.060000", "123107.220000", "123111.170000", "123107.330000", "123115.140000", "123111.300000", "123115.250000", "123111.410000", "123115.360000", "123111.520000", "123115.470000", "123111.630000", "123115.577500", "123111.740000", "123115.687500", "123111.847500", "123115.797500", "123111.957500", "123115.907500", "123112.067500", "123116.017500", "123112.177500", "123116.127500", "123112.287500", "123116.237500", "123112.397500", "123116.347500", "123112.507500", "123116.457500", "123112.617500", "123116.565000", "123112.727500", "123116.675000", "123112.835000", "123116.785000", "123112.945000", "123116.895000", "123113.055000", "123117.005000", "123113.165000", "123117.115000", "123113.275000", "123117.225000", "123113.385000", "123117.335000", "123113.495000", "123117.445000", "123113.605000", "123117.552500", "123113.712500", "123117.662500", "123113.822500", "123117.772500", "123113.932500", "123117.882500", "123114.042500", "123117.992500", "123114.152500", "123118.102500", "123114.262500", "123118.212500", "123114.372500", "123118.322500", "123114.482500", "123118.430000", "123114.592500", "123118.540000", "123114.700000", "123118.650000", "123114.810000", "123118.760000", "123114.920000", "123118.870000", "123115.030000", "123122.840000", "123119.000000", "123122.950000", "123119.110000", "123123.060000", "123119.220000", "123123.170000", "123119.330000", "123123.277500", "123119.440000", "123123.387500", "123119.547500", "123123.497500", "123119.657500", "123123.607500", "123119.767500", "123123.717500", "123119.877500", "123123.827500", "123119.987500", "123123.937500", "123120.097500", "123124.047500", "123120.207500", "123124.157500", "123120.317500", "123124.265000", "123120.427500", "123124.375000", "123120.535000", "123124.485000", "123120.645000", "123124.595000", "123120.755000", "123124.705000", "123120.865000", "123124.815000", "123120.975000", "123124.925000", "123121.085000", "123125.035000", "123121.195000", "123125.145000", "123121.305000", "123125.252500", "123121.412500", "123125.362500", "123121.522500", "123125.472500", "123121.632500", "123125.582500", "123121.742500", "123125.692500", "123121.852500", "123125.802500", "123121.962500", "123125.912500", "123122.072500", "123126.022500", "123122.182500", "123126.130000", "123122.292500", "123126.240000", "123122.400000", "123126.350000", "123122.510000", "123126.460000", "123122.620000", "123126.570000", "123122.730000", "123130.540000", "123126.700000", "123130.650000", "123126.810000", "123130.760000", "123126.920000", "123130.870000", "123127.030000", "123130.977500", "123127.140000", "123131.087500", "123127.247500", "123131.197500", "123127.357500", "123131.307500", "123127.467500", "123131.417500", "123127.577500", "123131.527500", "123127.687500", "123131.637500", "123127.797500", "123131.747500", "123127.907500", "123131.857500", "123128.017500", "123131.965000", "123128.127500", "123132.075000", "123128.235000", "123132.185000", "123128.345000", "123132.295000", "123128.455000", "123132.405000", "123128.565000", "123132.515000", "123128.675000", "123132.625000", "123128.785000", "123132.735000", "123128.895000", "123132.845000", "123129.005000", "123132.952500", "123129.112500", "123133.062500", "123129.222500", "123133.172500", "123129.332500", "123133.282500", "123129.442500", "123133.392500", "123129.552500", "123133.502500", "123129.662500", "123133.612500", "123129.772500", "123133.722500", "123129.882500", "123133.830000", "123129.992500", "123133.940000", "123130.100000", "123134.050000", "123130.210000", "123134.160000", "123130.320000", "123134.270000", "123130.430000", "123138.240000", "123134.400000", "123138.350000", "123134.510000", "123138.460000", "123134.620000", "123138.570000", "123134.730000", "123138.677500", "123134.840000", "123138.787500", "123134.947500", "123138.897500", "123135.057500", "123139.007500", "123135.167500", "123139.117500", "123135.277500", "123139.227500", "123135.387500", "123139.337500", "123135.497500", "123139.447500", "123135.607500", "123139.557500", "123135.717500", "123139.665000", "123135.827500", "123139.775000", "123135.935000", "123139.885000", "123136.045000", "123139.995000", "123136.155000", "123140.105000", "123136.265000", "123140.215000", "123136.375000", "123140.325000", "123136.485000", "123140.435000", "123136.595000", "123140.545000", "123136.705000", "123140.652500", "123136.812500", "123140.762500", "123136.922500", "123140.872500", "123137.032500", "123140.982500", "123137.142500", "123141.092500", "123137.252500", "123141.202500", "123137.362500", "123141.312500", "123137.472500", "123141.422500", "123137.582500", "123141.530000", "123137.692500", "123141.640000", "123137.800000", "123141.750000", "123137.910000", "123141.860000", "123138.020000", "123141.970000", "123138.130000", "123145.940000", "123142.100000", "123146.050000", "123142.210000", "123146.160000", "123142.320000", "123146.270000", "123142.430000", "123146.377500", "123142.540000", "123146.487500", "123142.647500", "123146.597500", "123142.757500", "123146.707500", "123142.867500", "123146.817500", "123142.977500", "123146.927500", "123143.087500", "123147.037500", "123143.197500", "123147.147500", "123143.307500", "123147.257500", "123143.417500", "123147.365000", "123143.527500", "123147.475000", "123143.635000", "123147.585000", "123143.745000", "123147.695000", "123143.855000", "123147.805000", "123143.965000", "123147.915000", "123144.075000", "123148.025000", "123144.185000", "123148.135000", "123144.295000", "123148.245000", "123144.405000", "123148.352500", "123144.512500", "123148.462500", "123144.622500", "123148.572500", "123144.732500", "123148.682500", "123144.842500", "123148.792500", "123144.952500", "123148.902500", "123145.062500", "123149.012500", "123145.172500", "123149.122500", "123145.282500", "123149.230000", "123145.392500", "123149.340000", "123145.500000", "123149.450000", "123145.610000", "123149.560000", "123145.720000", "123149.670000", "123145.830000", "123153.640000", "123149.800000", "123153.750000", "123149.910000", "123153.860000", "123150.020000", "123153.970000", "123150.130000", "123154.077500", "123150.240000", "123154.187500", "123150.347500", "123154.297500", "123150.457500", "123154.407500", "123150.567500", "123154.517500", "123150.677500", "123154.627500", "123150.787500", "123154.737500", "123150.897500", "123154.847500", "123151.007500", "123154.957500", "123151.117500", "123155.065000", "123151.227500", "123155.175000", "123151.335000", "123155.285000", "123151.445000", "123155.395000", "123151.555000", "123155.505000", "123151.665000", "123155.615000", "123151.775000", "123155.725000", "123151.885000", "123155.835000", "123151.995000", "123155.945000", "123152.105000", "123156.052500", "123152.212500", "123156.162500", "123152.322500", "123156.272500", "123152.432500", "123156.382500", "123152.542500", "123156.492500", "123152.652500", "123156.602500", "123152.762500", "123156.712500", "123152.872500", "123156.822500", "123152.982500", "123156.930000", "123153.092500", "123157.040000", "123153.200000", "123157.150000", "123153.310000", "123157.260000", "123153.420000", "123157.370000", "123153.530000", "123201.340000", "123157.500000", "123201.450000", "123157.610000", "123201.560000", "123157.720000", "123201.670000", "123157.830000", "123201.777500", "123157.940000", "123201.887500", "123158.047500", "123201.997500", "123158.157500", "123202.107500", "123158.267500", "123202.217500", "123158.377500", "123202.327500", "123158.487500", "123202.437500", "123158.597500", "123202.547500", "123158.707500", "123202.657500", "123158.817500", "123202.765000", "123158.927500", "123202.875000", "123159.035000", "123202.985000", "123159.145000", "123203.095000", "123159.255000", "123203.205000", "123159.365000", "123203.315000", "123159.475000", "123203.425000", "123159.585000", "123203.535000", "123159.695000", "123203.645000", "123159.805000", "123203.752500", "123159.912500", "123203.862500", "123200.022500", "123203.972500", "123200.132500", "123204.082500", "123200.242500", "123204.192500", "123200.352500", "123204.302500", "123200.462500", "123204.412500", "123200.572500", "123204.522500", "123200.682500", "123204.630000", "123200.792500", "123204.740000", "123200.900000", "123204.850000", "123201.010000", "123204.960000", "123201.120000", "123205.070000", "123201.230000", "123209.040000", "123205.200000", "123209.150000", "123205.310000", "123209.260000", "123205.420000", "123209.370000", "123205.530000", "123209.477500", "123205.640000", "123209.587500", "123205.747500", "123209.697500", "123205.857500", "123209.807500", "123205.967500", "123209.917500", "123206.077500", "123210.027500", "123206.187500", "123210.137500", "123206.297500", "123210.247500", "123206.407500", "123210.357500", "123206.517500", "123210.465000", "123206.627500", "123210.575000", "123206.735000", "123210.685000", "123206.845000", "123210.795000", "123206.955000", "123210.905000", "123207.065000", "123211.015000", "123207.175000", "123211.125000", "123207.285000", "123211.235000", "123207.395000", "123211.345000", "123207.505000", "123211.452500", "123207.612500", "123211.562500", "123207.722500", "123211.672500", "123207.832500", "123211.782500", "123207.942500", "123211.892500", "123208.052500", "123212.002500", "123208.162500", "123212.112500", "123208.272500", "123212.222500", "123208.382500", "123212.330000", "123208.492500", "123212.440000", "123208.600000", "123212.550000", "123208.710000", "123212.660000", "123208.820000", "123212.770000", "123208.930000", "123216.740000", "123212.900000", "123216.850000", "123213.010000", "123216.960000", "123213.120000", "123217.070000", "123213.230000", "123217.177500", "123213.340000", "123217.287500", "123213.447500", "123217.397500", "123213.557500", "123217.507500", "123213.667500", "123217.617500", "123213.777500", "123217.727500", "123213.887500", "123217.837500", "123213.997500", "123217.947500", "123214.107500", "123218.057500", "123214.217500", "123218.165000", "123214.327500", "123218.275000", "123214.435000", "123218.385000", "123214.545000", "123218.495000", "123214.655000", "123218.605000", "123214.765000", "123218.715000", "123214.875000", "123218.825000", "123214.985000", "123218.935000", "123215.095000", "123219.045000", "123215.205000", "123219.152500", "123215.312500", "123219.262500", "123215.422500", "123219.372500", "123215.532500", "123219.482500", "123215.642500", "123219.592500", "123215.752500", "123219.702500", "123215.862500", "123219.812500", "123215.972500", "123219.922500", "123216.082500", "123220.030000", "123216.192500", "123220.140000", "123216.300000", "123220.250000", "123216.410000", "123220.360000", "123216.520000", "123220.470000", "123216.630000", "123224.440000", "123220.600000", "123224.550000", "123220.710000", "123224.660000", "123220.820000", "123224.770000", "123220.930000", "123224.877500", "123221.040000", "123224.987500", "123221.147500", "123225.097500", "123221.257500", "123225.207500", "123221.367500", "123225.317500", "123221.477500", "123225.427500", "123221.587500", "123225.537500", "123221.697500", "123225.647500", "123221.807500", "123225.757500", "123221.917500", "123225.865000", "123222.027500", "123225.975000", "123222.135000", "123226.085000", "123222.245000", "123226.195000", "123222.355000", "123226.305000", "123222.465000", "123226.415000", "123222.575000", "123226.525000", "123222.685000", "123226.635000", "123222.795000", "123226.745000", "123222.905000", "123226.852500", "123223.012500", "123226.962500", "123223.122500", "123227.072500", "123223.232500", "123227.182500", "123223.342500", "123227.292500", "123223.452500", "123227.402500", "123223.562500", "123227.512500", "123223.672500", "123227.622500", "123223.782500", "123227.730000", "123223.892500", "123227.840000", "123224.000000", "123227.950000", "123224.110000", "123228.060000", "123224.220000", "123228.170000", "123224.330000", "123232.140000", "123228.300000", "123232.250000", "123228.410000", "123232.360000", "123228.520000", "123232.470000", "123228.630000", "123232.577500", "123228.740000", "123232.687500", "123228.847500", "123232.797500", "123228.957500", "123232.907500", "123229.067500", "123233.017500", "123229.177500", "123233.127500", "123229.287500", "123233.237500", "123229.397500", "123233.347500", "123229.507500", "123233.457500", "123229.617500", "123233.565000", "123229.727500", "123233.675000", "123229.835000", "123233.785000", "123229.945000", "123233.895000", "123230.055000", "123234.005000", "123230.165000", "123234.115000", "123230.275000", "123234.225000", "123230.385000", "123234.335000", "123230.495000", "123234.445000", "123230.605000", "123234.552500", "123230.712500", "123234.662500", "123230.822500", "123234.772500", "123230.932500", "123234.882500", "123231.042500", "123234.992500", "123231.152500", "123235.102500", "123231.262500", "123235.212500", "123231.372500", "123235.322500", "123231.482500", "123235.430000", "123231.592500", "123235.540000", "123231.700000", "123235.650000", "123231.810000", "123235.760000", "123231.920000", "123235.870000", "123232.030000", "123239.840000", "123236.000000", "123239.950000", "123236.110000", "123240.060000", "123236.220000", "123240.170000", "123236.330000", "123240.277500", "123236.440000", "123240.387500", "123236.547500", "123240.497500", "123236.657500", "123240.607500", "123236.767500", "123240.717500", "123236.877500", "123240.827500", "123236.987500", "123240.937500", "123237.097500", "123241.047500", "123237.207500", "123241.157500", "123237.317500", "123241.265000", "123237.427500", "123241.375000", "123237.535000", "123241.485000", "123237.645000", "123241.595000", "123237.755000", "123241.705000", "123237.865000", "123241.815000", "123237.975000", "123241.925000", "123238.085000", "123242.035000", "123238.195000", "123242.145000", "123238.305000", "123242.252500", "123238.412500", "123242.362500", "123238.522500", "123242.472500", "123238.632500", "123242.582500", "123238.742500", "123242.692500", "123238.852500", "123242.802500", "123238.962500", "123242.912500", "123239.072500", "123243.022500", "123239.182500", "123243.130000", "123239.292500", "123243.240000", "123239.400000", "123243.350000", "123239.510000", "123243.460000", "123239.620000", "123243.570000", "123239.730000", "123247.540000", "123243.700000", "123247.650000", "123243.810000", "123247.760000", "123243.920000", "123247.870000", "123244.030000", "123247.977500", "123244.140000", "123248.087500", "123244.247500", "123248.197500", "123244.357500", "123248.307500", "123244.467500", "123248.417500", "123244.577500", "123248.527500", "123244.687500", "123248.637500", "123244.797500", "123248.747500", "123244.907500", "123248.857500", "123245.017500", "123248.965000", "123245.127500", "123249.075000", "123245.235000", "123249.185000", "123245.345000", "123249.295000", "123245.455000", "123249.405000", "123245.565000", "123249.515000", "123245.675000", "123249.625000", "123245.785000", "123249.735000", "123245.895000", "123249.845000", "123246.005000", "123249.952500", "123246.112500", "123250.062500", "123246.222500", "123250.172500", "123246.332500", "123250.282500", "123246.442500", "123250.392500", "123246.552500", "123250.502500", "123246.662500", "123250.612500", "123246.772500", "123250.722500", "123246.882500", "123250.830000", "123246.992500", "123250.940000", "123247.100000", "123251.050000", "123247.210000", "123251.160000", "123247.320000", "123251.270000", "123247.430000", "123255.240000", "123251.400000", "123255.350000", "123251.510000", "123255.460000", "123251.620000", "123255.570000", "123251.730000", "123255.677500", "123251.840000", "123255.787500", "123251.947500", "123255.897500", "123252.057500", "123256.007500", "123252.167500", "123256.117500", "123252.277500", "123256.227500", "123252.387500", "123256.337500", "123252.497500", "123256.447500", "123252.607500", "123256.557500", "123252.717500", "123256.665000", "123252.827500", "123256.775000", "123252.935000", "123256.885000", "123253.045000", "123256.995000", "123253.155000", "123257.105000", "123253.265000", "123257.215000", "123253.375000", "123257.325000", "123253.485000", "123257.435000", "123253.595000", "123257.545000", "123253.705000", "123257.652500", "123253.812500", "123257.762500", "123253.922500", "123257.872500", "123254.032500", "123257.982500", "123254.142500", "123258.092500", "123254.252500", "123258.202500", "123254.362500", "123258.312500", "123254.472500", "123258.422500", "123254.582500", "123258.530000", "123254.692500", "123258.640000", "123254.800000", "123258.750000", "123254.910000", "123258.860000", "123255.020000", "123258.970000", "123255.130000", "123302.940000", "123259.100000", "123303.050000", "123259.210000", "123303.160000", "123259.320000", "123303.270000", "123259.430000", "123303.377500", "123259.540000", "123303.487500", "123259.647500", "123303.597500", "123259.757500", "123303.707500", "123259.867500", "123303.817500", "123259.977500", "123303.927500", "123300.087500", "123304.037500", "123300.197500", "123304.147500", "123300.307500", "123304.257500", "123300.417500", "123304.365000", "123300.527500", "123304.475000", "123300.635000", "123304.585000", "123300.745000", "123304.695000", "123300.855000", "123304.805000", "123300.965000", "123304.915000", "123301.075000", "123305.025000", "123301.185000", "123305.135000", "123301.295000", "123305.245000", "123301.405000", "123305.352500", "123301.512500", "123305.462500", "123301.622500", "123305.572500", "123301.732500", "123305.682500", "123301.842500", "123305.792500", "123301.952500", "123305.902500", "123302.062500", "123306.012500", "123302.172500", "123306.122500", "123302.282500", "123306.230000", "123302.392500", "123306.340000", "123302.500000", "123306.450000", "123302.610000", "123306.560000", "123302.720000", "123306.670000", "123302.830000", "123310.640000", "123306.800000", "123310.750000", "123306.910000", "123310.860000", "123307.020000", "123310.970000", "123307.130000", "123311.077500", "123307.240000", "123311.187500", "123307.347500", "123311.297500", "123307.457500", "123311.407500", "123307.567500", "123311.517500", "123307.677500", "123311.627500", "123307.787500", "123311.737500", "123307.897500", "123311.847500", "123308.007500", "123311.957500", "123308.117500", "123312.065000", "123308.227500", "123312.175000", "123308.335000", "123312.285000", "123308.445000", "123312.395000", "123308.555000", "123312.505000", "123308.665000", "123312.615000", "123308.775000", "123312.725000", "123308.885000", "123312.835000", "123308.995000", "123312.945000", "123309.105000", "123313.052500", "123309.212500", "123313.162500", "123309.322500", "123313.272500", "123309.432500", "123313.382500", "123309.542500", "123313.492500", "123309.652500", "123313.602500", "123309.762500", "123313.712500", "123309.872500", "123313.822500", "123309.982500", "123313.930000", "123310.092500", "123314.040000", "123310.200000", "123314.150000", "123310.310000", "123314.260000", "123310.420000", "123314.370000", "123310.530000", "123318.340000", "123314.500000", "123318.450000", "123314.610000", "123318.560000", "123314.720000", "123318.670000", "123314.830000", "123318.777500", "123314.940000", "123318.887500", "123315.047500", "123318.997500", "123315.157500", "123319.107500", "123315.267500", "123319.217500", "123315.377500", "123319.327500", "123315.487500", "123319.437500", "123315.597500", "123319.547500", "123315.707500", "123319.657500", "123315.817500", "123319.765000", "123315.927500", "123319.875000", "123316.035000", "123319.985000", "123316.145000", "123320.095000", "123316.255000", "123320.205000", "123316.365000", "123320.315000", "123316.475000", "123320.425000", "123316.585000", "123320.535000", "123316.695000", "123320.645000", "123316.805000", "123320.752500", "123316.912500", "123320.862500", "123317.022500", "123320.972500", "123317.132500", "123321.082500", "123317.242500", "123321.192500", "123317.352500", "123321.302500", "123317.462500", "123321.412500", "123317.572500", "123321.522500", "123317.682500", "123321.630000", "123317.792500", "123321.740000", "123317.900000", "123321.850000", "123318.010000", "123321.960000", "123318.120000", "123322.070000", "123318.230000", "123326.040000", "123322.200000", "123326.150000", "123322.310000", "123326.260000", "123322.420000", "123326.370000", "123322.530000", "123326.477500", "123322.640000", "123326.587500", "123322.747500", "123326.697500", "123322.857500", "123326.807500", "123322.967500", "123326.917500", "123323.077500", "123327.027500", "123323.187500", "123327.137500", "123323.297500", "123327.247500", "123323.407500", "123327.357500", "123323.517500", "123327.465000", "123323.627500", "123327.575000", "123323.735000", "123327.685000", "123323.845000", "123327.795000", "123323.955000", "123327.905000", "12