{
  "AcquisitionMatrixPE": 122,
  "AcquisitionNumber": 1,
  "AcquisitionTime": "12:35:13.485000",
  "BandwidthPerPixelPhaseEncode": 27.785,
  "BaseResolution": 122,
  "BodyPartExamined": "BRAIN",
  "CoilCombinationMethod": "Adaptive Combine",
  "ConsistencyInfo": "N4_VE11C_LATEST_20160120",
  "ConversionSoftware": "dcm2niix",
  "ConversionSoftwareVersion": "v1.0.20220720",
  "DerivedVendorReportedEchoSpacing": 0.000590011,
  "DeviceSerialNumber": "66112",
  "DiffusionScheme": "Monopolar",
  "DwellTime": 2e-06,
  "EchoTime": 0.068,
  "EchoTrainLength": 61,
  "EffectiveEchoSpacing": 0.000295005,
  "FlipAngle": 90,
  "HeudiconvVersion": "0.13.1",
  "ImageOrientationPatientDICOM": [0.98121, 0.192451, 0.0138066, -0.187531, 0.934397, 0.302878],
  "ImageOrientationText": "Tra>Cor(17.5)>Sag(-2.6)",
  "ImageType": [
    "ORIGINAL",
    "PRIMARY",
    "DIFFUSION",
    "NONE",
    "ND",
    "NORM"
],
  "ImagingFrequency": 123.252,
  "InPlanePhaseEncodingDirectionDICOM": "COL",
  "InstitutionAddress": "Maynard 3,Hanover,NH,US,03755",
  "InstitutionName": "Dartmouth College - PBS",
  "InstitutionalDepartmentName": "Department",
  "MRAcquisitionType": "2D",
  "MagneticFieldStrength": 3,
  "Manufacturer": "Siemens",
  "ManufacturersModelName": "Prisma",
  "Modality": "MR",
  "MultibandAccelerationFactor": 4,
  "NonlinearGradientCorrection": false,
  "ParallelReductionFactorInPlane": 2,
  "PartialFourier": 1,
  "PatientPosition": "HFS",
  "PercentPhaseFOV": 100,
  "PercentSampling": 100,
  "PhaseEncodingDirection": "j-",
  "PhaseEncodingSteps": 122,
  "PhaseResolution": 1,
  "PixelBandwidth": 2050,
  "ProcedureStepDescription": "dbic^QA",
  "ProtocolName": "dwi_acq-DTI-30-p2-s4",
  "PulseSequenceDetails": "%SiemensSeq%\\ep2d_diff",
  "ReceiveCoilActiveElements": "HEA;HEP",
  "ReceiveCoilName": "Head_32",
  "ReconMatrixPE": 122,
  "RefLinesPE": 38,
  "RepetitionTime": 3.6,
  "SAR": 0.161068,
  "ScanOptions": "FS",
  "ScanningSequence": "EP",
  "SequenceName": "*ep_b0",
  "SequenceVariant": "SK\\SP",
  "SeriesDescription": "dwi_acq-DTI-30-p2-s4",
  "SeriesNumber": 9,
  "ShimSetting": [4150, -7697, -7508, 310, -35, -295, -12, 34],
  "SliceThickness": 2,
  "SliceTiming": [2.58594, 0, 1.78906, 0.20312, 1.99219, 0.39844, 2.1875, 0.60156, 2.39062, 1, 2.78906, 1.19531, 2.98438, 1.39062, 3.1875, 1.59375, 3.38281, 0.79688, 2.58594, 0, 1.78906, 0.20312, 1.99219, 0.39844, 2.1875, 0.60156, 2.39062, 1, 2.78906, 1.19531, 2.98438, 1.39062, 3.1875, 1.59375, 3.38281, 0.79688, 2.58594, 0, 1.78906, 0.20312, 1.99219, 0.39844, 2.1875, 0.60156, 2.39062, 1, 2.78906, 1.19531, 2.98438, 1.39062, 3.1875, 1.59375, 3.38281, 0.79688, 2.58594, 0, 1.78906, 0.20312, 1.99219, 0.39844, 2.1875, 0.60156, 2.39062, 1, 2.78906, 1.19531, 2.98438, 1.39062, 3.1875, 1.59375, 3.38281, 0.79688],
  "SoftwareVersions": "syngo MR E11",
  "SpacingBetweenSlices": 2,
  "SpoilingState": true,
  "StationName": "AWP66112",
  "TotalReadoutTime": 0.0356956,
  "TxRefAmp": 229.432,
  "dcmmeta_affine": [
    [-1.9302482604980469, -0.3689129650592804, -0.09077650308609009, 146.96755981445312],
    [-0.3785914480686188, 1.838157296180725, 0.5995540618896484, -100.73268127441406],
    [0.02716057375073433, -0.5958260893821716, 1.9058609008789062, -33.11369323730469],
    [0.0, 0.0, 0.0, 1.0]
],
  "dcmmeta_reorient_transform": [
    [0.0, -1.0, 0.0, 121.0],
    [1.0, 0.0, 0.0, 0.0],
    [0.0, 0.0, -1.0, 71.0],
    [0.0, 0.0, 0.0, 1.0]
],
  "dcmmeta_shape": [122, 122, 72, 31],
  "dcmmeta_slice_dim": 2,
  "dcmmeta_version": 0.6,
  "global": {
    "const": {
      "AccessionNumber": "qa",
      "AcquisitionMatrix": [122, 0, 0, 122],
      "AngioFlag": "N",
      "BitsAllocated": 16,
      "BitsStored": 12,
      "BodyPartExamined": "BRAIN",
      "Columns": 122,
      "EchoNumbers": 1,
      "EchoTime": 68.0,
      "EchoTrainLength": 61,
      "FlipAngle": 90.0,
      "HighBit": 11,
      "ImageOrientationPatient": [0.98120952140537, 0.19245064881675, 0.01380662426025, -0.1875307475417, 0.93439658279661, 0.30287826727002],
      "ImageType": [
        "ORIGINAL",
        "PRIMARY",
        "DIFFUSION",
        "NONE",
        "ND",
        "NORM"
],
      "ImagedNucleus": "1H",
      "ImagingFrequency": 123.252414,
      "InPlanePhaseEncodingDirection": "COL",
      "MRAcquisitionType": "2D",
      "MagneticFieldStrength": 3.0,
      "Manufacturer": "SIEMENS",
      "ManufacturerModelName": "Prisma",
      "Modality": "MR",
      "NumberOfAverages": 1.0,
      "NumberOfPhaseEncodingSteps": 122,
      "PercentPhaseFieldOfView": 100.0,
      "PercentSampling": 100.0,
      "PerformedProcedureStepStartTime": "121325.090000",
      "PhotometricInterpretation": "MONOCHROME2",
      "PixelBandwidth": 2050.0,
      "PixelRepresentation": 0,
      "PixelSpacing": [1.9672131538391, 1.9672131538391],
      "ProtocolName": "dwi_acq-DTI-30-p2-s4",
      "RepetitionTime": 3600.0,
      "Rows": 122,
      "SAR": 0.16106750007389,
      "SamplesPerPixel": 1,
      "ScanOptions": "FS",
      "ScanningSequence": "EP",
      "SequenceVariant": [
        "SK",
        "SP"
],
      "SeriesDescription": "dwi_acq-DTI-30-p2-s4",
      "SeriesNumber": 9,
      "SeriesTime": "123522.379000",
      "SliceThickness": 2.0,
      "SmallestImagePixelValue": 0,
      "SoftwareVersions": "syngo MR E11",
      "SpacingBetweenSlices": 2.0,
      "SpecificCharacterSet": "ISO_IR 100",
      "StudyID": "93",
      "StudyTime": "121325.008000",
      "TransmitCoilName": "Body",
      "VariableFlipAngleFlag": "N",
      "WindowCenterWidthExplanation": "Algo1",
      "dBdt": 0.0},
    "slices": {
      "AcquisitionTime": ["123513.485000", "123510.900000", "123512.690000", "123511.100000", "123512.887500", "123511.297500", "123513.087500", "123511.497500", "123513.287500", "123511.895000", "123513.685000", "123512.092500", "123513.882500", "123512.292500", "123514.082500", "123512.490000", "123514.280000", "123511.695000", "123513.485000", "123510.900000", "123512.690000", "123511.100000", "123512.887500", "123511.297500", "123513.087500", "123511.497500", "123513.287500", "123511.895000", "123513.685000", "123512.092500", "123513.882500", "123512.292500", "123514.082500", "123512.490000", "123514.280000", "123511.695000", "123513.485000", "123510.900000", "123512.690000", "123511.100000", "123512.887500", "123511.297500", "123513.087500", "123511.497500", "123513.287500", "123511.895000", "123513.685000", "123512.092500", "123513.882500", "123512.292500", "123514.082500", "123512.490000", "123514.280000", "123511.695000", "123513.485000", "123510.900000", "123512.690000", "123511.100000", "123512.887500", "123511.297500", "123513.087500", "123511.497500", "123513.287500", "123511.895000", "123513.685000", "123512.092500", "123513.882500", "123512.292500", "123514.082500", "123512.490000", "123514.280000", "123511.695000", "123517.085000", "123514.500000", "123516.290000", "123514.700000", "123516.487500", "123514.897500", "123516.687500", "123515.097500", "123516.887500", "123515.495000", "123517.285000", "123515.692500", "123517.482500", "123515.892500", "123517.682500", "123516.090000", "123517.880000", "123515.295000", "123517.085000", "123514.500000", "123516.290000", "123514.700000", "123516.487500", "123514.897500", "123516.687500", "123515.097500", "123516.887500", "123515.495000", "123517.285000", "123515.692500", "123517.482500", "123515.892500", "123517.682500", "123516.090000", "123517.880000", "123515.295000", "123517.085000", "123514.500000", "123516.290000", "123514.700000", "123516.487500", "123514.897500", "123516.687500", "123515.097500", "123516.887500", "123515.495000", "123517.285000", "123515.692500", "123517.482500", "123515.892500", "123517.682500", "123516.090000", "123517.880000", "123515.295000", "123517.085000", "123514.500000", "123516.290000", "123514.700000", "123516.487500", "123514.897500", "123516.687500", "123515.097500", "123516.887500", "123515.495000", "123517.285000", "123515.692500", "123517.482500", "123515.892500", "123517.682500", "123516.090000", "123517.880000", "123515.295000", "123520.685000", "123518.100000", "123519.890000", "123518.300000", "123520.087500", "123518.497500", "123520.287500", "123518.697500", "123520.487500", "123519.095000", "123520.885000", "123519.292500", "123521.082500", "123519.492500", "123521.282500", "123519.690000", "123521.480000", "123518.895000", "123520.685000", "123518.100000", "123519.890000", "123518.300000", "123520.087500", "123518.497500", "123520.287500", "123518.697500", "123520.487500", "123519.095000", "123520.885000", "123519.292500", "123521.082500", "123519.492500", "123521.282500", "123519.690000", "123521.480000", "123518.895000", "123520.685000", "123518.100000", "123519.890000", "123518.300000", "123520.087500", "123518.497500", "123520.287500", "123518.697500", "123520.487500", "123519.095000", "123520.885000", "123519.292500", "123521.082500", "123519.492500", "123521.282500", "123519.690000", "123521.480000", "123518.895000", "123520.685000", "123518.100000", "123519.890000", "123518.300000", "123520.087500", "123518.497500", "123520.287500", "123518.697500", "123520.487500", "123519.095000", "123520.885000", "123519.292500", "123521.082500", "123519.492500", "123521.282500", "123519.690000", "123521.480000", "123518.895000", "123524.285000", "123521.700000", "123523.490000", "123521.900000", "123523.687500", "123522.097500", "123523.887500", "123522.297500", "123524.087500", "123522.695000", "123524.485000", "123522.892500", "123524.682500", "123523.092500", "123524.882500", "123523.290000", "123525.080000", "123522.495000", "123524.285000", "123521.700000", "123523.490000", "123521.900000", "123523.687500", "123522.097500", "123523.887500", "123522.297500", "123524.087500", "123522.695000", "123524.485000", "123522.892500", "123524.682500", "123523.092500", "123524.882500", "123523.290000", "123525.080000", "123522.495000", "123524.285000", "123521.700000", "123523.490000", "123521.900000", "123523.687500", "123522.097500", "123523.887500", "123522.297500", "123524.087500", "123522.695000", "123524.485000", "123522.892500", "123524.682500", "123523.092500", "123524.882500", "123523.290000", "123525.080000", "123522.495000", "123524.285000", "123521.700000", "123523.490000", "123521.900000", "123523.687500", "123522.097500", "123523.887500", "123522.297500", "123524.087500", "123522.695000", "123524.485000", "123522.892500", "123524.682500", "123523.092500", "123524.882500", "123523.290000", "123525.080000", "123522.495000", "123527.885000", "123525.300000", "123527.090000", "123525.500000", "123527.287500", "123525.697500", "123527.487500", "123525.897500", "123527.687500", "123526.295000", "123528.085000", "123526.492500", "123528.282500", "123526.692500", "123528.482500", "123526.890000", "123528.680000", "123526.095000", "123527.885000", "123525.300000", "123527.090000", "123525.500000", "123527.287500", "123525.697500", "123527.487500", "123525.897500", "123527.687500", "123526.295000", "123528.085000", "123526.492500", "123528.282500", "123526.692500", "123528.482500", "123526.890000", "123528.680000", "123526.095000", "123527.885000", "123525.300000", "123527.090000", "123525.500000", "123527.287500", "123525.697500", "123527.487500", "123525.897500", "123527.687500", "123526.295000", "123528.085000", "123526.492500", "123528.282500", "123526.692500", "123528.482500", "123526.890000", "123528.680000", "123526.095000", "123527.885000", "123525.300000", "123527.090000", "123525.500000", "123527.287500", "123525.697500", "123527.487500", "123525.897500", "123527.687500", "123526.295000", "123528.085000", "123526.492500", "123528.282500", "123526.692500", "123528.482500", "123526.890000", "123528.680000", "123526.095000", "123531.485000", "123528.900000", "123530.690000", "123529.100000", "123530.887500", "123529.297500", "123531.087500", "123529.497500", "123531.287500", "123529.895000", "123531.685000", "123530.092500", "123531.882500", "123530.292500", "123532.082500", "123530.490000", "123532.280000", "123529.695000", "123531.485000", "123528.900000", "123530.690000", "123529.100000", "123530.887500", "123529.297500", "123531.087500", "123529.497500", "123531.287500", "123529.895000", "123531.685000", "123530.092500", "123531.882500", "123530.292500", "123532.082500", "123530.490000", "123532.280000", "123529.695000", "123531.485000", "123528.900000", "123530.690000", "123529.100000", "123530.887500", "123529.297500", "123531.087500", "123529.497500", "123531.287500", "123529.895000", "123531.685000", "123530.092500", "123531.882500", "123530.292500", "123532.082500", "123530.490000", "123532.280000", "123529.695000", "123531.485000", "123528.900000", "123530.690000", "123529.100000", "123530.887500", "123529.297500", "123531.087500", "123529.497500", "123531.287500", "123529.895000", "123531.685000", "123530.092500", "123531.882500", "123530.292500", "123532.082500", "123530.490000", "123532.280000", "123529.695000", "123535.085000", "123532.500000", "123534.290000", "123532.700000", "123534.487500", "123532.897500", "123534.687500", "123533.097500", "123534.887500", "123533.495000", "123535.285000", "123533.692500", "123535.482500", "123533.892500", "123535.682500", "123534.090000", "123535.880000", "123533.295000", "123535.085000", "123532.500000", "123534.290000", "123532.700000", "123534.487500", "123532.897500", "123534.687500", "123533.097500", "123534.887500", "123533.495000", "123535.285000", "123533.692500", "123535.482500", "123533.892500", "123535.682500", "123534.090000", "123535.880000", "123533.295000", "123535.085000", "123532.500000", "123534.290000", "123532.700000", "123534.487500", "123532.897500", "123534.687500", "123533.097500", "123534.887500", "123533.495000", "123535.285000", "123533.692500", "123535.482500", "123533.892500", "123535.682500", "123534.090000", "123535.880000", "123533.295000", "123535.085000", "123532.500000", "123534.290000", "123532.700000", "123534.487500", "123532.897500", "123534.687500", "123533.097500", "123534.887500", "123533.495000", "123535.285000", "123533.692500", "123535.482500", "123533.892500", "123535.682500", "123534.090000", "123535.880000", "123533.295000", "123538.685000", "123536.100000", "123537.890000", "123536.300000", "123538.087500", "123536.497500", "123538.287500", "123536.697500", "123538.487500", "123537.095000", "123538.885000", "123537.292500", "123539.082500", "123537.492500", "123539.282500", "123537.690000", "123539.480000", "123536.895000", "123538.685000", "123536.100000", "123537.890000", "123536.300000", "123538.087500", "123536.497500", "123538.287500", "123536.697500", "123538.487500", "123537.095000", "123538.885000", "123537.292500", "123539.082500", "123537.492500", "123539.282500", "123537.690000", "123539.480000", "123536.895000", "123538.685000", "123536.100000", "123537.890000", "123536.300000", "123538.087500", "123536.497500", "123538.287500", "123536.697500", "123538.487500", "123537.095000", "123538.885000", "123537.292500", "123539.082500", "123537.492500", "123539.282500", "123537.690000", "123539.480000", "123536.895000", "123538.685000", "123536.100000", "123537.890000", "123536.300000", "123538.087500", "123536.497500", "123538.287500", "123536.697500", "123538.487500", "123537.095000", "123538.885000", "123537.292500", "123539.082500", "123537.492500", "123539.282500", "123537.690000", "123539.480000", "123536.895000", "123542.285000", "123539.700000", "123541.490000", "123539.900000", "123541.687500", "123540.097500", "123541.887500", "123540.297500", "123542.087500", "123540.695000", "123542.485000", "123540.892500", "123542.682500", "123541.092500", "123542.882500", "123541.290000", "123543.080000", "123540.495000", "123542.285000", "123539.700000", "123541.490000", "123539.900000", "123541.687500", "123540.097500", "123541.887500", "123540.297500", "123542.087500", "123540.695000", "123542.485000", "123540.892500", "123542.682500", "123541.092500", "123542.882500", "123541.290000", "123543.080000", "123540.495000", "123542.285000", "123539.700000", "123541.490000", "123539.900000", "123541.687500", "123540.097500", "123541.887500", "123540.297500", "123542.087500", "123540.695000", "123542.485000", "123540.892500", "123542.682500", "123541.092500", "123542.882500", "123541.290000", "123543.080000", "123540.495000", "123542.285000", "123539.700000", "123541.490000", "123539.900000", "123541.687500", "123540.097500", "123541.887500", "123540.297500", "123542.087500", "123540.695000", "123542.485000", "123540.892500", "123542.682500", "123541.092500", "123542.882500", "123541.290000", "123543.080000", "123540.495000", "123545.885000", "123543.300000", "123545.090000", "123543.500000", "123545.287500", "123543.697500", "123545.487500", "123543.897500", "123545.687500", "123544.295000", "123546.085000", "123544.492500", "123546.282500", "123544.692500", "123546.482500", "123544.890000", "123546.680000", "123544.095000", "123545.885000", "123543.300000", "123545.090000", "123543.500000", "123545.287500", "123543.697500", "123545.487500", "123543.897500", "123545.687500", "123544.295000", "123546.085000", "123544.492500", "123546.282500", "123544.692500", "123546.482500", "123544.890000", "123546.680000", "123544.095000", "123545.885000", "123543.300000", "123545.090000", "123543.500000", "123545.287500", "123543.697500", "123545.487500", "123543.897500", "123545.687500", "123544.295000", "123546.085000", "123544.492500", "123546.282500", "123544.692500", "123546.482500", "123544.890000", "123546.680000", "123544.095000", "123545.885000", "123543.300000", "123545.090000", "123543.500000", "123545.287500", "123543.697500", "123545.487500", "123543.897500", "123545.687500", "123544.295000", "123546.085000", "123544.492500", "123546.282500", "123544.692500", "123546.482500", "123544.890000", "123546.680000", "123544.095000", "123549.485000", "123546.900000", "123548.690000", "123547.100000", "123548.887500", "123547.297500", "123549.087500", "123547.497500", "123549.287500", "123547.895000", "123549.685000", "123548.092500", "123549.882500", "123548.292500", "123550.082500", "123548.490000", "123550.280000", "123547.695000", "123549.485000", "123546.900000", "123548.690000", "123547.100000", "123548.887500", "123547.297500", "123549.087500", "123547.497500", "123549.287500", "123547.895000", "123549.685000", "123548.092500", "123549.882500", "123548.292500", "123550.082500", "123548.490000", "123550.280000", "123547.695000", "123549.485000", "123546.900000", "123548.690000", "123547.100000", "123548.887500", "123547.297500", "123549.087500", "123547.497500", "123549.287500", "123547.895000", "123549.685000", "123548.092500", "123549.882500", "123548.292500", "123550.082500", "123548.490000", "123550.280000", "123547.695000", "123549.485000", "123546.900000", "123548.690000", "123547.100000", "123548.887500", "123547.297500", "123549.087500", "123547.497500", "123549.287500", "123547.895000", "123549.685000", "123548.092500", "123549.882500", "123548.292500", "123550.082500", "123548.490000", "123550.280000", "123547.695000", "123553.085000", "123550.500000", "123552.290000", "123550.700000", "123552.487500", "123550.897500", "123552.687500", "123551.097500", "123552.887500", "123551.495000", "123553.285000", "123551.692500", "123553.482500", "123551.892500", "123553.682500", "123552.090000", "123553.880000", "123551.295000", "123553.085000", "123550.500000", "123552.290000", "123550.700000", "123552.487500", "123550.897500", "123552.687500", "123551.097500", "123552.887500", "123551.495000", "123553.285000", "123551.692500", "123553.482500", "123551.892500", "123553.682500", "123552.090000", "123553.880000", "123551.295000", "123553.085000", "123550.500000", "123552.290000", "123550.700000", "123552.487500", "123550.897500", "123552.687500", "123551.097500", "123552.887500", "123551.495000", "123553.285000", "123551.692500", "123553.482500", "123551.892500", "123553.682500", "123552.090000", "123553.880000", "123551.295000", "123553.085000", "123550.500000", "123552.290000", "123550.700000", "123552.487500", "123550.897500", "123552.687500", "123551.097500", "123552.887500", "123551.495000", "123553.285000", "123551.692500", "123553.482500", "123551.892500", "123553.682500", "123552.090000", "123553.880000", "123551.295000", "123556.685000", "123554.100000", "123555.890000", "123554.300000", "123556.087500", "123554.497500", "123556.287500", "123554.697500", "123556.487500", "123555.095000", "123556.885000", "123555.292500", "123557.082500", "123555.492500", "123557.282500", "123555.690000", "123557.480000", "123554.895000", "123556.685000", "123554.100000", "123555.890000", "123554.300000", "123556.087500", "123554.497500", "123556.287500", "123554.697500", "123556.487500", "123555.095000", "123556.885000", "123555.292500", "123557.082500", "123555.492500", "123557.282500", "123555.690000", "123557.480000", "123554.895000", "123556.685000", "123554.100000", "123555.890000", "123554.300000", "123556.087500", "123554.497500", "123556.287500", "123554.697500", "123556.487500", "123555.095000", "123556.885000", "123555.292500", "123557.082500", "123555.492500", "123557.282500", "123555.690000", "123557.480000", "123554.895000", "123556.685000", "123554.100000", "123555.890000", "123554.300000", "123556.087500", "123554.497500", "123556.287500", "123554.697500", "123556.487500", "123555.095000", "123556.885000", "123555.292500", "123557.082500", "123555.492500", "123557.282500", "123555.690000", "123557.480000", "123554.895000", "123600.285000", "123557.700000", "123559.490000", "123557.900000", "123559.687500", "123558.097500", "123559.887500", "123558.297500", "123600.087500", "123558.695000", "123600.485000", "123558.892500", "123600.682500", "123559.092500", "123600.882500", "123559.290000", "123601.080000", "123558.495000", "123600.285000", "123557.700000", "123559.490000", "123557.900000", "123559.687500", "123558.097500", "123559.887500", "123558.297500", "123600.087500", "123558.695000", "123600.485000", "123558.892500", "123600.682500", "123559.092500", "123600.882500", "123559.290000", "123601.080000", "123558.495000", "123600.285000", "123557.700000", "123559.490000", "123557.900000", "123559.687500", "123558.097500", "123559.887500", "123558.297500", "123600.087500", "123558.695000", "123600.485000", "123558.892500", "123600.682500", "123559.092500", "123600.882500", "123559.290000", "123601.080000", "123558.495000", "123600.285000", "123557.700000", "123559.490000", "123557.900000", "123559.687500", "123558.097500", "123559.887500", "123558.297500", "123600.087500", "123558.695000", "123600.485000", "123558.892500", "123600.682500", "123559.092500", "123600.882500", "123559.290000", "123601.080000", "123558.495000", "123603.885000", "123601.300000", "123603.090000", "123601.500000", "123603.287500", "123601.697500", "123603.487500", "123601.897500", "123603.687500", "123602.295000", "123604.085000", "123602.492500", "123604.282500", "123602.692500", "123604.482500", "123602.890000", "123604.680000", "123602.095000", "123603.885000", "123601.300000", "123603.090000", "123601.500000", "123603.287500", "123601.697500", "123603.487500", "123601.897500", "123603.687500", "123602.295000", "123604.085000", "123602.492500", "123604.282500", "123602.692500", "123604.482500", "123602.890000", "123604.680000", "123602.095000", "123603.885000", "123601.300000", "123603.090000", "123601.500000", "123603.287500", "123601.697500", "123603.487500", "123601.897500", "123603.687500", "123602.295000", "123604.085000", "123602.492500", "123604.282500", "123602.692500", "123604.482500", "123602.890000", "123604.680000", "123602.095000", "123603.885000", "123601.300000", "123603.090000", "123601.500000", "123603.287500", "123601.697500", "123603.487500", "123601.897500", "123603.687500", "123602.295000", "123604.085000", "123602.492500", "123604.282500", "123602.692500", "123604.482500", "123602.890000", "123604.680000", "123602.095000", "123607.485000", "123604.900000", "123606.690000", "123605.100000", "123606.887500", "123605.297500", "123607.087500", "123605.497500", "123607.287500", "123605.895000", "123607.685000", "123606.092500", "123607.882500", "123606.292500", "123608.082500", "123606.490000", "123608.280000", "123605.695000", "123607.485000", "123604.900000", "123606.690000", "123605.100000", "123606.887500", "123605.297500", "123607.087500", "123605.497500", "123607.287500", "123605.895000", "123607.685000", "123606.092500", "123607.882500", "123606.292500", "123608.082500", "123606.490000", "123608.280000", "123605.695000", "123607.485000", "123604.900000", "123606.690000", "123605.100000", "123606.887500", "123605.297500", "123607.087500", "123605.497500", "123607.287500", "123605.895000", "123607.685000", "123606.092500", "123607.882500", "123606.292500", "123608.082500", "123606.490000", "123608.280000", "123605.695000", "123607.485000", "123604.900000", "123606.690000", "123605.100000", "123606.887500", "123605.297500", "123607.087500", "123605.497500", "123607.287500", "123605.895000", "123607.685000", "123606.092500", "123607.882500", "123606.292500", "123608.082500", "123606.490000", "123608.280000", "123605.695000", "123611.085000", "123608.500000", "123610.290000", "123608.700000", "123610.487500", "123608.897500", "123610.687500", "123609.097500", "123610.887500", "123609.495000", "123611.285000", "123609.692500", "123611.482500", "123609.892500", "123611.682500", "123610.090000", "123611.880000", "123609.295000", "123611.085000", "123608.500000", "123610.290000", "123608.700000", "123610.487500", "123608.897500", "123610.687500", "123609.097500", "123610.887500", "123609.495000", "123611.285000", "123609.692500", "123611.482500", "123609.892500", "123611.682500", "123610.090000", "123611.880000", "123609.295000", "123611.085000", "123608.500000", "123610.290000", "123608.700000", "123610.487500", "123608.897500", "123610.687500", "123609.097500", "123610.887500", "123609.495000", "123611.285000", "123609.692500", "123611.482500", "123609.892500", "123611.682500", "123610.090000", "123611.880000", "123609.295000", "123611.085000", "123608.500000", "123610.290000", "123608.700000", "123610.487500", "123608.897500", "123610.687500", "123609.097500", "123610.887500", "123609.495000", "123611.285000", "123609.692500", "123611.482500", "123609.892500", "123611.682500", "123610.090000", "123611.880000", "123609.295000", "123614.685000", "123612.100000", "123613.890000", "123612.300000", "123614.087500", "123612.497500", "123614.287500", "123612.697500", "123614.487500", "123613.095000", "123614.885000", "123613.292500", "123615.082500", "123613.492500", "123615.282500", "123613.690000", "123615.480000", "123612.895000", "123614.685000", "123612.100000", "123613.890000", "123612.300000", "123614.087500", "123612.497500", "123614.287500", "123612.697500", "123614.487500", "123613.095000", "123614.885000", "123613.292500", "123615.082500", "123613.492500", "123615.282500", "123613.690000", "123615.480000", "123612.895000", "123614.685000", "123612.100000", "123613.890000", "123612.300000", "123614.087500", "123612.497500", "123614.287500", "123612.697500", "123614.487500", "123613.095000", "123614.885000", "123613.292500", "123615.082500", "123613.492500", "123615.282500", "123613.690000", "123615.480000", "123612.895000", "123614.685000", "123612.100000", "123613.890000", "123612.300000", "123614.087500", "123612.497500", "123614.287500", "123612.697500", "123614.487500", "123613.095000", "123614.885000", "123613.292500", "123615.082500", "123613.492500", "123615.282500", "123613.690000", "123615.480000", "123612.895000", "123618.285000", "123615.700000", "123617.490000", "123615.900000", "123617.687500", "123616.097500", "123617.887500", "123616.297500", "123618.087500", "123616.695000", "123618.485000", "123616.892500", "123618.682500", "123617.092500", "123618.882500", "123617.290000", "123619.080000", "123616.495000", "123618.285000", "123615.700000", "123617.490000", "123615.900000", "123617.687500", "123616.097500", "123617.887500", "123616.297500", "123618.087500", "123616.695000", "123618.485000", "123616.892500", "123618.682500", "123617.092500", "123618.882500", "123617.290000", "123619.080000", "123616.495000", "123618.285000", "123615.700000", "123617.490000", "123615.900000", "123617.687500", "123616.097500", "123617.887500", "123616.297500", "123618.087500", "123616.695000", "123618.485000", "123616.892500", "123618.682500", "123617.092500", "123618.882500", "123617.290000", "123619.080000", "123616.495000", "123618.285000", "123615.700000", "123617.490000", "123615.900000", "123617.687500", "123616.097500", "123617.887500", "123616.297500", "123618.087500", "123616.695000", "123618.485000", "123616.892500", "123618.682500", "123617.092500", "123618.882500", "123617.290000", "123619.080000", "123616.495000", "123621.885000", "123619.300000", "123621.090000", "123619.500000", "123621.287500", "123619.697500", "123621.487500", "123619.897500", "123621.687500", "123620.295000", "123622.085000", "123620.492500", "123622.282500", "123620.692500", "123622.482500", "123620.890000", "123622.680000", "123620.095000", "123621.885000", "123619.300000", "123621.090000", "123619.500000", "123621.287500", "123619.697500", "123621.487500", "123619.897500", "123621.687500", "123620.295000", "123622.085000", "123620.492500", "123622.282500", "123620.692500", "123622.482500", "123620.890000", "123622.680000", "123620.095000", "123621.885000", "123619.300000", "123621.090000", "123619.500000", "123621.287500", "123619.697500", "123621.487500", "123619.897500", "123621.687500", "123620.295000", "123622.085000", "123620.492500", "123622.282500", "123620.692500", "123622.482500", "123620.890000", "123622.680000", "123620.095000", "123621.885000", "123619.300000", "123621.090000", "123619.500000", "123621.287500", "123619.697500", "123621.487500", "123619.897500", "123621.687500", "123620.295000", "123622.085000", "123620.492500", "123622.282500"