{
  "AcquisitionMatrixPE": 122,
  "AcquisitionNumber": 1,
  "AcquisitionTime": "09:46:52.480000",
  "BandwidthPerPixelPhaseEncode": 27.785,
  "BaseResolution": 122,
  "BodyPartExamined": "BRAIN",
  "CoilCombinationMethod": "Adaptive Combine",
  "ConsistencyInfo": "N4_VE11C_LATEST_20160120",
  "ConversionSoftware": "dcm2niix",
  "ConversionSoftwareVersion": "v1.0.20220720",
  "DerivedVendorReportedEchoSpacing": 0.000590011,
  "DeviceSerialNumber": "66112",
  "DiffusionScheme": "Monopolar",
  "DwellTime": 2e-06,
  "EchoTime": 0.068,
  "EchoTrainLength": 61,
  "EffectiveEchoSpacing": 0.000295005,
  "FlipAngle": 90,
  "HeudiconvVersion": "0.13.1",
  "ImageOrientationPatientDICOM": [0.999953, 0.00874886, 0.00416577, -0.00959916, 0.953097, 0.302512],
  "ImageOrientationText": "Tra>Cor(17.6)>Sag(0.1)",
  "ImageType": [
    "ORIGINAL",
    "PRIMARY",
    "DIFFUSION",
    "NONE",
    "ND",
    "NORM"
],
  "ImagingFrequency": 123.252,
  "InPlanePhaseEncodingDirectionDICOM": "COL",
  "InstitutionAddress": "Maynard 3,Hanover,NH,US,03755",
  "InstitutionName": "Dartmouth College - PBS",
  "InstitutionalDepartmentName": "Department",
  "MRAcquisitionType": "2D",
  "MagneticFieldStrength": 3,
  "Manufacturer": "Siemens",
  "ManufacturersModelName": "Prisma",
  "Modality": "MR",
  "MultibandAccelerationFactor": 4,
  "NonlinearGradientCorrection": false,
  "ParallelReductionFactorInPlane": 2,
  "PartialFourier": 1,
  "PatientPosition": "HFS",
  "PercentPhaseFOV": 100,
  "PercentSampling": 100,
  "PhaseEncodingDirection": "j-",
  "PhaseEncodingSteps": 122,
  "PhaseResolution": 1,
  "PixelBandwidth": 2050,
  "ProcedureStepDescription": "dbic^QA",
  "ProtocolName": "dwi_acq-DTI-30-p2-s4",
  "PulseSequenceDetails": "%SiemensSeq%\\ep2d_diff",
  "ReceiveCoilActiveElements": "HEA;HEP",
  "ReceiveCoilName": "Head_32",
  "ReconMatrixPE": 122,
  "RefLinesPE": 38,
  "RepetitionTime": 3.6,
  "SAR": 0.160155,
  "ScanOptions": "FS",
  "ScanningSequence": "EP",
  "SequenceName": "*ep_b0",
  "SequenceVariant": "SK\\SP",
  "SeriesDescription": "dwi_acq-DTI-30-p2-s4",
  "SeriesNumber": 13,
  "ShimSetting": [4145, -7701, -7515, 270, -66, -188, -16, 66],
  "SliceThickness": 2,
  "SliceTiming": [2.57812, 0, 1.78125, 0.19531, 1.98438, 0.39062, 2.1875, 0.59375, 2.38281, 0.99219, 2.78125, 1.1875, 2.97656, 1.38281, 3.17969, 1.58594, 3.375, 0.78906, 2.57812, 0, 1.78125, 0.19531, 1.98438, 0.39062, 2.1875, 0.59375, 2.38281, 0.99219, 2.78125, 1.1875, 2.97656, 1.38281, 3.17969, 1.58594, 3.375, 0.78906, 2.57812, 0, 1.78125, 0.19531, 1.98438, 0.39062, 2.1875, 0.59375, 2.38281, 0.99219, 2.78125, 1.1875, 2.97656, 1.38281, 3.17969, 1.58594, 3.375, 0.78906, 2.57812, 0, 1.78125, 0.19531, 1.98438, 0.39062, 2.1875, 0.59375, 2.38281, 0.99219, 2.78125, 1.1875, 2.97656, 1.38281, 3.17969, 1.58594, 3.375, 0.78906],
  "SoftwareVersions": "syngo MR E11",
  "SpacingBetweenSlices": 2,
  "SpoilingState": true,
  "StationName": "AWP66112",
  "TotalReadoutTime": 0.0356956,
  "TxRefAmp": 222.783,
  "dcmmeta_affine": [
    [-1.9671207666397095, -0.018883587792515755, 0.002647489309310913, 121.081787109375],
    [-0.017210867255926132, 1.8749452829360962, 0.6050758361816406, -124.0400390625],
    [0.008194951340556145, -0.5951061844825745, 1.9062728881835938, -30.359407424926758],
    [0.0, 0.0, 0.0, 1.0]
],
  "dcmmeta_reorient_transform": [
    [0.0, -1.0, 0.0, 121.0],
    [1.0, 0.0, 0.0, 0.0],
    [0.0, 0.0, -1.0, 71.0],
    [0.0, 0.0, 0.0, 1.0]
],
  "dcmmeta_shape": [122, 122, 72, 31],
  "dcmmeta_slice_dim": 2,
  "dcmmeta_version": 0.6,
  "global": {
    "const": {
      "AccessionNumber": "qa",
      "AcquisitionMatrix": [122, 0, 0, 122],
      "AngioFlag": "N",
      "BitsAllocated": 16,
      "BitsStored": 12,
      "BodyPartExamined": "BRAIN",
      "Columns": 122,
      "EchoNumbers": 1,
      "EchoTime": 68.0,
      "EchoTrainLength": 61,
      "FlipAngle": 90.0,
      "HighBit": 11,
      "ImageOrientationPatient": [0.99995305083896, 0.0087488572783, 0.00416576693771, -0.009599157305, 0.95309713960038, 0.30251231159178],
      "ImageType": [
        "ORIGINAL",
        "PRIMARY",
        "DIFFUSION",
        "NONE",
        "ND",
        "NORM"
],
      "ImagedNucleus": "1H",
      "ImagingFrequency": 123.252363,
      "InPlanePhaseEncodingDirection": "COL",
      "MRAcquisitionType": "2D",
      "MagneticFieldStrength": 3.0,
      "Manufacturer": "SIEMENS",
      "ManufacturerModelName": "Prisma",
      "Modality": "MR",
      "NumberOfAverages": 1.0,
      "NumberOfPhaseEncodingSteps": 122,
      "PercentPhaseFieldOfView": 100.0,
      "PercentSampling": 100.0,
      "PerformedProcedureStepStartTime": "091315.567000",
      "PhotometricInterpretation": "MONOCHROME2",
      "PixelBandwidth": 2050.0,
      "PixelRepresentation": 0,
      "PixelSpacing": [1.9672131538391, 1.9672131538391],
      "ProtocolName": "dwi_acq-DTI-30-p2-s4",
      "RepetitionTime": 3600.0,
      "Rows": 122,
      "SAR": 0.16015456434381,
      "SamplesPerPixel": 1,
      "ScanOptions": "FS",
      "ScanningSequence": "EP",
      "SequenceVariant": [
        "SK",
        "SP"
],
      "SeriesDescription": "dwi_acq-DTI-30-p2-s4",
      "SeriesNumber": 13,
      "SeriesTime": "094658.112000",
      "SliceThickness": 2.0,
      "SmallestImagePixelValue": 0,
      "SoftwareVersions": "syngo MR E11",
      "SpacingBetweenSlices": 2.0,
      "SpecificCharacterSet": "ISO_IR 100",
      "StudyID": "12",
      "StudyTime": "091315.518000",
      "TransmitCoilName": "Body",
      "VariableFlipAngleFlag": "N",
      "WindowCenterWidthExplanation": "Algo1",
      "dBdt": 0.0},
    "slices": {
      "AcquisitionTime": ["094652.480000", "094649.895000", "094651.682500", "094650.092500", "094651.882500", "094650.292500", "094652.082500", "094650.490000", "094652.280000", "094650.887500", "094652.677500", "094651.087500", "094652.877500", "094651.285000", "094653.075000", "094651.485000", "094653.275000", "094650.690000", "094652.480000", "094649.895000", "094651.682500", "094650.092500", "094651.882500", "094650.292500", "094652.082500", "094650.490000", "094652.280000", "094650.887500", "094652.677500", "094651.087500", "094652.877500", "094651.285000", "094653.075000", "094651.485000", "094653.275000", "094650.690000", "094652.480000", "094649.895000", "094651.682500", "094650.092500", "094651.882500", "094650.292500", "094652.082500", "094650.490000", "094652.280000", "094650.887500", "094652.677500", "094651.087500", "094652.877500", "094651.285000", "094653.075000", "094651.485000", "094653.275000", "094650.690000", "094652.480000", "094649.895000", "094651.682500", "094650.092500", "094651.882500", "094650.292500", "094652.082500", "094650.490000", "094652.280000", "094650.887500", "094652.677500", "094651.087500", "094652.877500", "094651.285000", "094653.075000", "094651.485000", "094653.275000", "094650.690000", "094656.080000", "094653.495000", "094655.282500", "094653.692500", "094655.482500", "094653.892500", "094655.682500", "094654.090000", "094655.880000", "094654.487500", "094656.277500", "094654.687500", "094656.477500", "094654.885000", "094656.675000", "094655.085000", "094656.875000", "094654.290000", "094656.080000", "094653.495000", "094655.282500", "094653.692500", "094655.482500", "094653.892500", "094655.682500", "094654.090000", "094655.880000", "094654.487500", "094656.277500", "094654.687500", "094656.477500", "094654.885000", "094656.675000", "094655.085000", "094656.875000", "094654.290000", "094656.080000", "094653.495000", "094655.282500", "094653.692500", "094655.482500", "094653.892500", "094655.682500", "094654.090000", "094655.880000", "094654.487500", "094656.277500", "094654.687500", "094656.477500", "094654.885000", "094656.675000", "094655.085000", "094656.875000", "094654.290000", "094656.080000", "094653.495000", "094655.282500", "094653.692500", "094655.482500", "094653.892500", "094655.682500", "094654.090000", "094655.880000", "094654.487500", "094656.277500", "094654.687500", "094656.477500", "094654.885000", "094656.675000", "094655.085000", "094656.875000", "094654.290000", "094659.680000", "094657.095000", "094658.882500", "094657.292500", "094659.082500", "094657.492500", "094659.282500", "094657.690000", "094659.480000", "094658.087500", "094659.877500", "094658.287500", "094700.077500", "094658.485000", "094700.275000", "094658.685000", "094700.475000", "094657.890000", "094659.680000", "094657.095000", "094658.882500", "094657.292500", "094659.082500", "094657.492500", "094659.282500", "094657.690000", "094659.480000", "094658.087500", "094659.877500", "094658.287500", "094700.077500", "094658.485000", "094700.275000", "094658.685000", "094700.475000", "094657.890000", "094659.680000", "094657.095000", "094658.882500", "094657.292500", "094659.082500", "094657.492500", "094659.282500", "094657.690000", "094659.480000", "094658.087500", "094659.877500", "094658.287500", "094700.077500", "094658.485000", "094700.275000", "094658.685000", "094700.475000", "094657.890000", "094659.680000", "094657.095000", "094658.882500", "094657.292500", "094659.082500", "094657.492500", "094659.282500", "094657.690000", "094659.480000", "094658.087500", "094659.877500", "094658.287500", "094700.077500", "094658.485000", "094700.275000", "094658.685000", "094700.475000", "094657.890000", "094703.280000", "094700.695000", "094702.482500", "094700.892500", "094702.682500", "094701.092500", "094702.882500", "094701.290000", "094703.080000", "094701.687500", "094703.477500", "094701.887500", "094703.677500", "094702.085000", "094703.875000", "094702.285000", "094704.075000", "094701.490000", "094703.280000", "094700.695000", "094702.482500", "094700.892500", "094702.682500", "094701.092500", "094702.882500", "094701.290000", "094703.080000", "094701.687500", "094703.477500", "094701.887500", "094703.677500", "094702.085000", "094703.875000", "094702.285000", "094704.075000", "094701.490000", "094703.280000", "094700.695000", "094702.482500", "094700.892500", "094702.682500", "094701.092500", "094702.882500", "094701.290000", "094703.080000", "094701.687500", "094703.477500", "094701.887500", "094703.677500", "094702.085000", "094703.875000", "094702.285000", "094704.075000", "094701.490000", "094703.280000", "094700.695000", "094702.482500", "094700.892500", "094702.682500", "094701.092500", "094702.882500", "094701.290000", "094703.080000", "094701.687500", "094703.477500", "094701.887500", "094703.677500", "094702.085000", "094703.875000", "094702.285000", "094704.075000", "094701.490000", "094706.880000", "094704.295000", "094706.082500", "094704.492500", "094706.282500", "094704.692500", "094706.482500", "094704.890000", "094706.680000", "094705.287500", "094707.077500", "094705.487500", "094707.277500", "094705.685000", "094707.475000", "094705.885000", "094707.675000", "094705.090000", "094706.880000", "094704.295000", "094706.082500", "094704.492500", "094706.282500", "094704.692500", "094706.482500", "094704.890000", "094706.680000", "094705.287500", "094707.077500", "094705.487500", "094707.277500", "094705.685000", "094707.475000", "094705.885000", "094707.675000", "094705.090000", "094706.880000", "094704.295000", "094706.082500", "094704.492500", "094706.282500", "094704.692500", "094706.482500", "094704.890000", "094706.680000", "094705.287500", "094707.077500", "094705.487500", "094707.277500", "094705.685000", "094707.475000", "094705.885000", "094707.675000", "094705.090000", "094706.880000", "094704.295000", "094706.082500", "094704.492500", "094706.282500", "094704.692500", "094706.482500", "094704.890000", "094706.680000", "094705.287500", "094707.077500", "094705.487500", "094707.277500", "094705.685000", "094707.475000", "094705.885000", "094707.675000", "094705.090000", "094710.480000", "094707.895000", "094709.682500", "094708.092500", "094709.882500", "094708.292500", "094710.082500", "094708.490000", "094710.280000", "094708.887500", "094710.677500", "094709.087500", "094710.877500", "094709.285000", "094711.075000", "094709.485000", "094711.275000", "094708.690000", "094710.480000", "094707.895000", "094709.682500", "094708.092500", "094709.882500", "094708.292500", "094710.082500", "094708.490000", "094710.280000", "094708.887500", "094710.677500", "094709.087500", "094710.877500", "094709.285000", "094711.075000", "094709.485000", "094711.275000", "094708.690000", "094710.480000", "094707.895000", "094709.682500", "094708.092500", "094709.882500", "094708.292500", "094710.082500", "094708.490000", "094710.280000", "094708.887500", "094710.677500", "094709.087500", "094710.877500", "094709.285000", "094711.075000", "094709.485000", "094711.275000", "094708.690000", "094710.480000", "094707.895000", "094709.682500", "094708.092500", "094709.882500", "094708.292500", "094710.082500", "094708.490000", "094710.280000", "094708.887500", "094710.677500", "094709.087500", "094710.877500", "094709.285000", "094711.075000", "094709.485000", "094711.275000", "094708.690000", "094714.080000", "094711.495000", "094713.282500", "094711.692500", "094713.482500", "094711.892500", "094713.682500", "094712.090000", "094713.880000", "094712.487500", "094714.277500", "094712.687500", "094714.477500", "094712.885000", "094714.675000", "094713.085000", "094714.875000", "094712.290000", "094714.080000", "094711.495000", "094713.282500", "094711.692500", "094713.482500", "094711.892500", "094713.682500", "094712.090000", "094713.880000", "094712.487500", "094714.277500", "094712.687500", "094714.477500", "094712.885000", "094714.675000", "094713.085000", "094714.875000", "094712.290000", "094714.080000", "094711.495000", "094713.282500", "094711.692500", "094713.482500", "094711.892500", "094713.682500", "094712.090000", "094713.880000", "094712.487500", "094714.277500", "094712.687500", "094714.477500", "094712.885000", "094714.675000", "094713.085000", "094714.875000", "094712.290000", "094714.080000", "094711.495000", "094713.282500", "094711.692500", "094713.482500", "094711.892500", "094713.682500", "094712.090000", "094713.880000", "094712.487500", "094714.277500", "094712.687500", "094714.477500", "094712.885000", "094714.675000", "094713.085000", "094714.875000", "094712.290000", "094717.680000", "094715.095000", "094716.882500", "094715.292500", "094717.082500", "094715.492500", "094717.282500", "094715.690000", "094717.480000", "094716.087500", "094717.877500", "094716.287500", "094718.077500", "094716.485000", "094718.275000", "094716.685000", "094718.475000", "094715.890000", "094717.680000", "094715.095000", "094716.882500", "094715.292500", "094717.082500", "094715.492500", "094717.282500", "094715.690000", "094717.480000", "094716.087500", "094717.877500", "094716.287500", "094718.077500", "094716.485000", "094718.275000", "094716.685000", "094718.475000", "094715.890000", "094717.680000", "094715.095000", "094716.882500", "094715.292500", "094717.082500", "094715.492500", "094717.282500", "094715.690000", "094717.480000", "094716.087500", "094717.877500", "094716.287500", "094718.077500", "094716.485000", "094718.275000", "094716.685000", "094718.475000", "094715.890000", "094717.680000", "094715.095000", "094716.882500", "094715.292500", "094717.082500", "094715.492500", "094717.282500", "094715.690000", "094717.480000", "094716.087500", "094717.877500", "094716.287500", "094718.077500", "094716.485000", "094718.275000", "094716.685000", "094718.475000", "094715.890000", "094721.280000", "094718.695000", "094720.482500", "094718.892500", "094720.682500", "094719.092500", "094720.882500", "094719.290000", "094721.080000", "094719.687500", "094721.477500", "094719.887500", "094721.677500", "094720.085000", "094721.875000", "094720.285000", "094722.075000", "094719.490000", "094721.280000", "094718.695000", "094720.482500", "094718.892500", "094720.682500", "094719.092500", "094720.882500", "094719.290000", "094721.080000", "094719.687500", "094721.477500", "094719.887500", "094721.677500", "094720.085000", "094721.875000", "094720.285000", "094722.075000", "094719.490000", "094721.280000", "094718.695000", "094720.482500", "094718.892500", "094720.682500", "094719.092500", "094720.882500", "094719.290000", "094721.080000", "094719.687500", "094721.477500", "094719.887500", "094721.677500", "094720.085000", "094721.875000", "094720.285000", "094722.075000", "094719.490000", "094721.280000", "094718.695000", "094720.482500", "094718.892500", "094720.682500", "094719.092500", "094720.882500", "094719.290000", "094721.080000", "094719.687500", "094721.477500", "094719.887500", "094721.677500", "094720.085000", "094721.875000", "094720.285000", "094722.075000", "094719.490000", "094724.880000", "094722.295000", "094724.082500", "094722.492500", "094724.282500", "094722.692500", "094724.482500", "094722.890000", "094724.680000", "094723.287500", "094725.077500", "094723.487500", "094725.277500", "094723.685000", "094725.475000", "094723.885000", "094725.675000", "094723.090000", "094724.880000", "094722.295000", "094724.082500", "094722.492500", "094724.282500", "094722.692500", "094724.482500", "094722.890000", "094724.680000", "094723.287500", "094725.077500", "094723.487500", "094725.277500", "094723.685000", "094725.475000", "094723.885000", "094725.675000", "094723.090000", "094724.880000", "094722.295000", "094724.082500", "094722.492500", "094724.282500", "094722.692500", "094724.482500", "094722.890000", "094724.680000", "094723.287500", "094725.077500", "094723.487500", "094725.277500", "094723.685000", "094725.475000", "094723.885000", "094725.675000", "094723.090000", "094724.880000", "094722.295000", "094724.082500", "094722.492500", "094724.282500", "094722.692500", "094724.482500", "094722.890000", "094724.680000", "094723.287500", "094725.077500", "094723.487500", "094725.277500", "094723.685000", "094725.475000", "094723.885000", "094725.675000", "094723.090000", "094728.480000", "094725.895000", "094727.682500", "094726.092500", "094727.882500", "094726.292500", "094728.082500", "094726.490000", "094728.280000", "094726.887500", "094728.677500", "094727.087500", "094728.877500", "094727.285000", "094729.075000", "094727.485000", "094729.275000", "094726.690000", "094728.480000", "094725.895000", "094727.682500", "094726.092500", "094727.882500", "094726.292500", "094728.082500", "094726.490000", "094728.280000", "094726.887500", "094728.677500", "094727.087500", "094728.877500", "094727.285000", "094729.075000", "094727.485000", "094729.275000", "094726.690000", "094728.480000", "094725.895000", "094727.682500", "094726.092500", "094727.882500", "094726.292500", "094728.082500", "094726.490000", "094728.280000", "094726.887500", "094728.677500", "094727.087500", "094728.877500", "094727.285000", "094729.075000", "094727.485000", "094729.275000", "094726.690000", "094728.480000", "094725.895000", "094727.682500", "094726.092500", "094727.882500", "094726.292500", "094728.082500", "094726.490000", "094728.280000", "094726.887500", "094728.677500", "094727.087500", "094728.877500", "094727.285000", "094729.075000", "094727.485000", "094729.275000", "094726.690000", "094732.080000", "094729.495000", "094731.282500", "094729.692500", "094731.482500", "094729.892500", "094731.682500", "094730.090000", "094731.880000", "094730.487500", "094732.277500", "094730.687500", "094732.477500", "094730.885000", "094732.675000", "094731.085000", "094732.875000", "094730.290000", "094732.080000", "094729.495000", "094731.282500", "094729.692500", "094731.482500", "094729.892500", "094731.682500", "094730.090000", "094731.880000", "094730.487500", "094732.277500", "094730.687500", "094732.477500", "094730.885000", "094732.675000", "094731.085000", "094732.875000", "094730.290000", "094732.080000", "094729.495000", "094731.282500", "094729.692500", "094731.482500", "094729.892500", "094731.682500", "094730.090000", "094731.880000", "094730.487500", "094732.277500", "094730.687500", "094732.477500", "094730.885000", "094732.675000", "094731.085000", "094732.875000", "094730.290000", "094732.080000", "094729.495000", "094731.282500", "094729.692500", "094731.482500", "094729.892500", "094731.682500", "094730.090000", "094731.880000", "094730.487500", "094732.277500", "094730.687500", "094732.477500", "094730.885000", "094732.675000", "094731.085000", "094732.875000", "094730.290000", "094735.680000", "094733.095000", "094734.882500", "094733.292500", "094735.082500", "094733.492500", "094735.282500", "094733.690000", "094735.480000", "094734.087500", "094735.877500", "094734.287500", "094736.077500", "094734.485000", "094736.275000", "094734.685000", "094736.475000", "094733.890000", "094735.680000", "094733.095000", "094734.882500", "094733.292500", "094735.082500", "094733.492500", "094735.282500", "094733.690000", "094735.480000", "094734.087500", "094735.877500", "094734.287500", "094736.077500", "094734.485000", "094736.275000", "094734.685000", "094736.475000", "094733.890000", "094735.680000", "094733.095000", "094734.882500", "094733.292500", "094735.082500", "094733.492500", "094735.282500", "094733.690000", "094735.480000", "094734.087500", "094735.877500", "094734.287500", "094736.077500", "094734.485000", "094736.275000", "094734.685000", "094736.475000", "094733.890000", "094735.680000", "094733.095000", "094734.882500", "094733.292500", "094735.082500", "094733.492500", "094735.282500", "094733.690000", "094735.480000", "094734.087500", "094735.877500", "094734.287500", "094736.077500", "094734.485000", "094736.275000", "094734.685000", "094736.475000", "094733.890000", "094739.280000", "094736.695000", "094738.482500", "094736.892500", "094738.682500", "094737.092500", "094738.882500", "094737.290000", "094739.080000", "094737.687500", "094739.477500", "094737.887500", "094739.677500", "094738.085000", "094739.875000", "094738.285000", "094740.075000", "094737.490000", "094739.280000", "094736.695000", "094738.482500", "094736.892500", "094738.682500", "094737.092500", "094738.882500", "094737.290000", "094739.080000", "094737.687500", "094739.477500", "094737.887500", "094739.677500", "094738.085000", "094739.875000", "094738.285000", "094740.075000", "094737.490000", "094739.280000", "094736.695000", "094738.482500", "094736.892500", "094738.682500", "094737.092500", "094738.882500", "094737.290000", "094739.080000", "094737.687500", "094739.477500", "094737.887500", "094739.677500", "094738.085000", "094739.875000", "094738.285000", "094740.075000", "094737.490000", "094739.280000", "094736.695000", "094738.482500", "094736.892500", "094738.682500", "094737.092500", "094738.882500", "094737.290000", "094739.080000", "094737.687500", "094739.477500", "094737.887500", "094739.677500", "094738.085000", "094739.875000", "094738.285000", "094740.075000", "094737.490000", "094742.880000", "094740.295000", "094742.082500", "094740.492500", "094742.282500", "094740.692500", "094742.482500", "094740.890000", "094742.680000", "094741.287500", "094743.077500", "094741.487500", "094743.277500", "094741.685000", "094743.475000", "094741.885000", "094743.675000", "094741.090000", "094742.880000", "094740.295000", "094742.082500", "094740.492500", "094742.282500", "094740.692500", "094742.482500", "094740.890000", "094742.680000", "094741.287500", "094743.077500", "094741.487500", "094743.277500", "094741.685000", "094743.475000", "094741.885000", "094743.675000", "094741.090000", "094742.880000", "094740.295000", "094742.082500", "094740.492500", "094742.282500", "094740.692500", "094742.482500", "094740.890000", "094742.680000", "094741.287500", "094743.077500", "094741.487500", "094743.277500", "094741.685000", "094743.475000", "094741.885000", "094743.675000", "094741.090000", "094742.880000", "094740.295000", "094742.082500", "094740.492500", "094742.282500", "094740.692500", "094742.482500", "094740.890000", "094742.680000", "094741.287500", "094743.077500", "094741.487500", "094743.277500", "094741.685000", "094743.475000", "094741.885000", "094743.675000", "094741.090000", "094746.480000", "094743.895000", "094745.682500", "094744.092500", "094745.882500", "094744.292500", "094746.082500", "094744.490000", "094746.280000", "094744.887500", "094746.677500", "094745.087500", "094746.877500", "094745.285000", "094747.075000", "094745.485000", "094747.275000", "094744.690000", "094746.480000", "094743.895000", "094745.682500", "094744.092500", "094745.882500", "094744.292500", "094746.082500", "094744.490000", "094746.280000", "094744.887500", "094746.677500", "094745.087500", "094746.877500", "094745.285000", "094747.075000", "094745.485000", "094747.275000", "094744.690000", "094746.480000", "094743.895000", "094745.682500", "094744.092500", "094745.882500", "094744.292500", "094746.082500", "094744.490000", "094746.280000", "094744.887500", "094746.677500", "094745.087500", "094746.877500", "094745.285000", "094747.075000", "094745.485000", "094747.275000", "094744.690000", "094746.480000", "094743.895000", "094745.682500", "094744.092500", "094745.882500", "094744.292500", "094746.082500", "094744.490000", "094746.280000", "094744.887500", "094746.677500", "094745.087500", "094746.877500", "094745.285000", "094747.075000", "094745.485000", "094747.275000", "094744.690000", "094750.080000", "094747.495000", "094749.282500", "094747.692500", "094749.482500", "094747.892500", "094749.682500", "094748.090000", "094749.880000", "094748.487500", "094750.277500", "094748.687500", "094750.477500", "094748.885000", "094750.675000", "094749.085000", "094750.875000", "094748.290000", "094750.080000", "094747.495000", "094749.282500", "094747.692500", "094749.482500", "094747.892500", "094749.682500", "094748.090000", "094749.880000", "094748.487500", "094750.277500", "094748.687500", "094750.477500", "094748.885000", "094750.675000", "094749.085000", "094750.875000", "094748.290000", "094750.080000", "094747.495000", "094749.282500", "094747.692500", "094749.482500", "094747.892500", "094749.682500", "094748.090000", "094749.880000", "094748.487500", "094750.277500", "094748.687500", "094750.477500", "094748.885000", "094750.675000", "094749.085000", "094750.875000", "094748.290000", "094750.080000", "094747.495000", "094749.282500", "094747.692500", "094749.482500", "094747.892500", "094749.682500", "094748.090000", "094749.880000", "094748.487500", "094750.277500", "094748.687500", "094750.477500", "094748.885000", "094750.675000", "094749.085000", "094750.875000", "094748.290000", "094753.680000", "094751.095000", "094752.882500", "094751.292500", "094753.082500", "094751.492500", "094753.282500", "094751.690000", "094753.480000", "094752.087500", "094753.877500", "094752.287500", "094754.077500", "094752.485000", "094754.275000", "094752.685000", "094754.475000", "094751.890000", "094753.680000", "094751.095000", "094752.882500", "094751.292500", "094753.082500", "094751.492500", "094753.282500", "094751.690000", "094753.480000", "094752.087500", "094753.877500", "094752.287500", "094754.077500", "094752.485000", "094754.275000", "094752.685000", "094754.475000", "094751.890000", "094753.680000", "094751.095000", "094752.882500", "094751.292500", "094753.082500", "094751.492500", "094753.282500", "094751.690000", "094753.480000", "094752.087500", "094753.877500", "094752.287500", "094754.077500", "094752.485000", "094754.275000", "094752.685000", "094754.475000", "094751.890000", "094753.680000", "094751.095000", "094752.882500", "094751.292500", "094753.082500", "094751.492500", "094753.282500", "094751.690000", "094753.480000", "094752.087500", "094753.877500", "094752.287500", "094754.077500", "094752.485000", "094754.275000", "094752.685000", "094754.475000", "094751.890000", "094757.280000", "094754.695000", "094756.482500", "094754.892500", "094756.682500", "094755.092500", "094756.882500", "094755.290000", "094757.080000", "094755.687500", "094757.477500", "094755.887500", "094757.677500", "094756.085000", "094757.875000", "094756.285000", "094758.075000", "094755.490000", "094757.280000", "094754.695000", "094756.482500", "094754.892500", "094756.682500", "094755.092500", "094756.882500", "094755.290000", "094757.080000", "094755.687500", "094757.477500", "094755.887500", "094757.677500", "094756.085000", "094757.875000", "094756.285000", "094758.075000", "094755.490000", "094757.280000", "094754.695000", "094756.482500", "094754.892500", "094756.682500", "094755.092500", "094756.882500", "094755.290000", "094757.080000", "094755.687500", "094757.477500", "094755.887500", "094757.677500", "094756.085000", "094757.875000", "094756.285000", "094758.075000", "094755.490000", "094757.280000", "094754.695000", "094756.482500", "094754.892500", "094756.682500", "094755.092500", "094756.882500", "094755.290000", "094757.080000", "094755.687500", "094757.477500", "094755.887500", "094757.677500", "094756.085000", "094757.875000", "094756.285000", "094758.075000", "094755.490000", "094800.880000", "094758.295000", "094800.082500", "094758.492500", "094800.282500", "094758.692500", "094800.482500", "094758.890000", "094800.680000", "094759.287500", "094801.077500", "094759.487500", "094801.277500", "094759.685000", "094801.475000", "094759.885000", "094801.675000", "094759.090000", "094800.880000", "094758.295000", "094800.082500", "094758.492500", "094800.282500", "094758.692500", "094800.482500", "094758.890000", "094800.680000", "094759.287500", "094801.077500", "094759.487500", "094801.277500", "094759.685000", "094801.475000", "094759.885000", "094801.675000", "094759.090000", "094800.880000", "094758.295000", "094800.082500", "094758.492500", "094800.282500", "094758.692500", "094800.482500", "094758.890000", "094800.680000", "094759.287500", "094801.077500", "094759.487500", "094801.277500", "094759.685000", "094801.475000", "094759.885000", "094801.675000", "094759.090000", "094800.880000", "094758.295000", "094800.082500", "094758.492500", "094800.282500", "094758.692500", "094800.482500", "094758.890000", "094800.680000", "094759.287500", "094801.077500", "094759.48