{
  "AcquisitionMatrixPE": 122,
  "AcquisitionNumber": 1,
  "AcquisitionTime": "09:42:31.205000",
  "BandwidthPerPixelPhaseEncode": 28.76,
  "BaseResolution": 122,
  "BodyPartExamined": "BRAIN",
  "CoilCombinationMethod": "Adaptive Combine",
  "ConsistencyInfo": "N4_VE11C_LATEST_20160120",
  "ConversionSoftware": "dcm2niix",
  "ConversionSoftwareVersion": "v1.0.20220720",
  "DerivedVendorReportedEchoSpacing": 0.000570008,
  "DeviceSerialNumber": "66112",
  "DiffusionScheme": "Monopolar",
  "DwellTime": 2e-06,
  "EchoTime": 0.075,
  "EchoTrainLength": 61,
  "EffectiveEchoSpacing": 0.000285004,
  "FlipAngle": 90,
  "HeudiconvVersion": "0.13.1",
  "ImageOrientationPatientDICOM": [0.999953, 0.00874886, 0.00416577, -0.00959916, 0.953097, 0.302512],
  "ImageOrientationText": "Tra>Cor(17.6)>Sag(0.1)",
  "ImageType": [
    "ORIGINAL",
    "PRIMARY",
    "DIFFUSION",
    "NONE",
    "ND",
    "NORM"
],
  "ImagingFrequency": 123.252,
  "InPlanePhaseEncodingDirectionDICOM": "COL",
  "InstitutionAddress": "Maynard 3,Hanover,NH,US,03755",
  "InstitutionName": "Dartmouth College - PBS",
  "InstitutionalDepartmentName": "Department",
  "MRAcquisitionType": "2D",
  "MagneticFieldStrength": 3,
  "Manufacturer": "Siemens",
  "ManufacturersModelName": "Prisma",
  "MatrixCoilMode": "GRAPPA",
  "Modality": "MR",
  "NonlinearGradientCorrection": false,
  "ParallelReductionFactorInPlane": 2,
  "PartialFourier": 1,
  "PatientPosition": "HFS",
  "PercentPhaseFOV": 100,
  "PercentSampling": 100,
  "PhaseEncodingDirection": "j-",
  "PhaseEncodingSteps": 122,
  "PhaseResolution": 1,
  "PixelBandwidth": 2050,
  "ProcedureStepDescription": "dbic^QA",
  "ProtocolName": "dwi_acq-DTI-30-p2",
  "PulseSequenceDetails": "%SiemensSeq%\\ep2d_diff",
  "ReceiveCoilActiveElements": "HEA;HEP",
  "ReceiveCoilName": "Head_32",
  "ReconMatrixPE": 122,
  "RefLinesPE": 38,
  "RepetitionTime": 7.7,
  "SAR": 0.101878,
  "ScanOptions": "FS",
  "ScanningSequence": "EP",
  "SequenceName": "*ep_b0",
  "SequenceVariant": "SK\\SP",
  "SeriesDescription": "dwi_acq-DTI-30-p2",
  "SeriesNumber": 12,
  "ShimSetting": [4144, -7700, -7514, 267, -66, -187, -16, 66],
  "SliceThickness": 2,
  "SliceTiming": [3.83594, 0, 3.94531, 0.10938, 4.05469, 0.21875, 4.16406, 0.32812, 4.27344, 0.4375, 4.38281, 0.54688, 4.49219, 0.65625, 4.60156, 0.76562, 4.71875, 0.875, 4.82812, 0.98438, 4.9375, 1.09375, 5.04688, 1.20312, 5.15625, 1.3125, 5.26562, 1.42188, 5.375, 1.53125, 5.48438, 1.64062, 5.59375, 1.75, 5.70312, 1.85938, 5.8125, 1.97656, 5.92188, 2.08594, 6.03125, 2.19531, 6.14062, 2.30469, 6.25, 2.41406, 6.35938, 2.52344, 6.46875, 2.63281, 6.57812, 2.74219, 6.6875, 2.85156, 6.79688, 2.96094, 6.91406, 3.07031, 7.02344, 3.17969, 7.125, 3.28906, 7.23438, 3.39844, 7.35156, 3.50781, 7.46094, 3.61719, 7.57031, 3.72656],
  "SoftwareVersions": "syngo MR E11",
  "SpacingBetweenSlices": 2,
  "SpoilingState": true,
  "StationName": "AWP66112",
  "TotalReadoutTime": 0.0344855,
  "TxRefAmp": 222.783,
  "dcmmeta_affine": [
    [-1.9671207666397095, -0.018883587792515755, 0.0026474744081497192, 121.08443450927734],
    [-0.017210867255926132, 1.8749452829360962, 0.6050758361816406, -123.4349594116211],
    [0.008194951340556145, -0.5951061844825745, 1.9062728881835938, -28.453134536743164],
    [0.0, 0.0, 0.0, 1.0]
],
  "dcmmeta_reorient_transform": [
    [0.0, -1.0, 0.0, 121.0],
    [1.0, 0.0, 0.0, 0.0],
    [0.0, 0.0, -1.0, 69.0],
    [0.0, 0.0, 0.0, 1.0]
],
  "dcmmeta_shape": [122, 122, 70, 31],
  "dcmmeta_slice_dim": 2,
  "dcmmeta_version": 0.6,
  "global": {
    "const": {
      "AccessionNumber": "qa",
      "AcquisitionMatrix": [122, 0, 0, 122],
      "AngioFlag": "N",
      "BitsAllocated": 16,
      "BitsStored": 12,
      "BodyPartExamined": "BRAIN",
      "Columns": 122,
      "EchoNumbers": 1,
      "EchoTime": 75.0,
      "EchoTrainLength": 61,
      "FlipAngle": 90.0,
      "HighBit": 11,
      "ImageOrientationPatient": [0.99995305083896, 0.0087488572783, 0.00416576693771, -0.009599157305, 0.95309713960038, 0.30251231159178],
      "ImageType": [
        "ORIGINAL",
        "PRIMARY",
        "DIFFUSION",
        "NONE",
        "ND",
        "NORM"
],
      "ImagedNucleus": "1H",
      "ImagingFrequency": 123.252361,
      "InPlanePhaseEncodingDirection": "COL",
      "MRAcquisitionType": "2D",
      "MagneticFieldStrength": 3.0,
      "Manufacturer": "SIEMENS",
      "ManufacturerModelName": "Prisma",
      "Modality": "MR",
      "NumberOfAverages": 1.0,
      "NumberOfPhaseEncodingSteps": 122,
      "PercentPhaseFieldOfView": 100.0,
      "PercentSampling": 100.0,
      "PerformedProcedureStepStartTime": "091315.567000",
      "PhotometricInterpretation": "MONOCHROME2",
      "PixelBandwidth": 2050.0,
      "PixelRepresentation": 0,
      "PixelSpacing": [1.9672131538391, 1.9672131538391],
      "ProtocolName": "dwi_acq-DTI-30-p2",
      "RepetitionTime": 7700.0,
      "Rows": 122,
      "SAR": 0.10187806986868,
      "SamplesPerPixel": 1,
      "ScanOptions": "FS",
      "ScanningSequence": "EP",
      "SequenceVariant": [
        "SK",
        "SP"
],
      "SeriesDescription": "dwi_acq-DTI-30-p2",
      "SeriesNumber": 12,
      "SeriesTime": "094238.041000",
      "SliceThickness": 2.0,
      "SmallestImagePixelValue": 0,
      "SoftwareVersions": "syngo MR E11",
      "SpacingBetweenSlices": 2.0,
      "SpecificCharacterSet": "ISO_IR 100",
      "StudyID": "12",
      "StudyTime": "091315.518000",
      "TransmitCoilName": "Body",
      "VariableFlipAngleFlag": "N",
      "WindowCenterWidthExplanation": "Algo1",
      "dBdt": 0.0},
    "slices": {
      "AcquisitionTime": ["094231.205000", "094227.365000", "094231.315000", "094227.475000", "094231.425000", "094227.585000", "094231.535000", "094227.695000", "094231.642500", "094227.805000", "094231.752500", "094227.912500", "094231.862500", "094228.022500", "094231.972500", "094228.132500", "094232.082500", "094228.242500", "094232.192500", "094228.352500", "094232.302500", "094228.462500", "094232.412500", "094228.572500", "094232.522500", "094228.682500", "094232.630000", "094228.790000", "094232.740000", "094228.900000", "094232.850000", "094229.010000", "094232.960000", "094229.120000", "094233.070000", "094229.230000", "094233.180000", "094229.340000", "094233.290000", "094229.450000", "094233.400000", "094229.560000", "094233.507500", "094229.670000", "094233.617500", "094229.777500", "094233.727500", "094229.887500", "094233.837500", "094229.997500", "094233.947500", "094230.107500", "094234.057500", "094230.217500", "094234.167500", "094230.327500", "094234.277500", "094230.437500", "094234.387500", "094230.547500", "094234.495000", "094230.655000", "094234.605000", "094230.765000", "094234.715000", "094230.875000", "094234.825000", "094230.985000", "094234.935000", "094231.095000", "094238.905000", "094235.065000", "094239.015000", "094235.175000", "094239.125000", "094235.285000", "094239.235000", "094235.395000", "094239.342500", "094235.505000", "094239.452500", "094235.612500", "094239.562500", "094235.722500", "094239.672500", "094235.832500", "094239.782500", "094235.942500", "094239.892500", "094236.052500", "094240.002500", "094236.162500", "094240.112500", "094236.272500", "094240.222500", "094236.382500", "094240.330000", "094236.490000", "094240.440000", "094236.600000", "094240.550000", "094236.710000", "094240.660000", "094236.820000", "094240.770000", "094236.930000", "094240.880000", "094237.040000", "094240.990000", "094237.150000", "094241.100000", "094237.260000", "094241.207500", "094237.370000", "094241.317500", "094237.477500", "094241.427500", "094237.587500", "094241.537500", "094237.697500", "094241.647500", "094237.807500", "094241.757500", "094237.917500", "094241.867500", "094238.027500", "094241.977500", "094238.137500", "094242.087500", "094238.247500", "094242.195000", "094238.355000", "094242.305000", "094238.465000", "094242.415000", "094238.575000", "094242.525000", "094238.685000", "094242.635000", "094238.795000", "094246.605000", "094242.765000", "094246.715000", "094242.875000", "094246.825000", "094242.985000", "094246.935000", "094243.095000", "094247.042500", "094243.205000", "094247.152500", "094243.312500", "094247.262500", "094243.422500", "094247.372500", "094243.532500", "094247.482500", "094243.642500", "094247.592500", "094243.752500", "094247.702500", "094243.862500", "094247.812500", "094243.972500", "094247.922500", "094244.082500", "094248.030000", "094244.190000", "094248.140000", "094244.300000", "094248.250000", "094244.410000", "094248.360000", "094244.520000", "094248.470000", "094244.630000", "094248.580000", "094244.740000", "094248.690000", "094244.850000", "094248.800000", "094244.960000", "094248.907500", "094245.070000", "094249.017500", "094245.177500", "094249.127500", "094245.287500", "094249.237500", "094245.397500", "094249.347500", "094245.507500", "094249.457500", "094245.617500", "094249.567500", "094245.727500", "094249.677500", "094245.837500", "094249.787500", "094245.947500", "094249.895000", "094246.055000", "094250.005000", "094246.165000", "094250.115000", "094246.275000", "094250.225000", "094246.385000", "094250.335000", "094246.495000", "094254.305000", "094250.465000", "094254.415000", "094250.575000", "094254.525000", "094250.685000", "094254.635000", "094250.795000", "094254.742500", "094250.905000", "094254.852500", "094251.012500", "094254.962500", "094251.122500", "094255.072500", "094251.232500", "094255.182500", "094251.342500", "094255.292500", "094251.452500", "094255.402500", "094251.562500", "094255.512500", "094251.672500", "094255.622500", "094251.782500", "094255.730000", "094251.890000", "094255.840000", "094252.000000", "094255.950000", "094252.110000", "094256.060000", "094252.220000", "094256.170000", "094252.330000", "094256.280000", "094252.440000", "094256.390000", "094252.550000", "094256.500000", "094252.660000", "094256.607500", "094252.770000", "094256.717500", "094252.877500", "094256.827500", "094252.987500", "094256.937500", "094253.097500", "094257.047500", "094253.207500", "094257.157500", "094253.317500", "094257.267500", "094253.427500", "094257.377500", "094253.537500", "094257.487500", "094253.647500", "094257.595000", "094253.755000", "094257.705000", "094253.865000", "094257.815000", "094253.975000", "094257.925000", "094254.085000", "094258.035000", "094254.195000", "094302.005000", "094258.165000", "094302.115000", "094258.275000", "094302.225000", "094258.385000", "094302.335000", "094258.495000", "094302.442500", "094258.605000", "094302.552500", "094258.712500", "094302.662500", "094258.822500", "094302.772500", "094258.932500", "094302.882500", "094259.042500", "094302.992500", "094259.152500", "094303.102500", "094259.262500", "094303.212500", "094259.372500", "094303.322500", "094259.482500", "094303.430000", "094259.590000", "094303.540000", "094259.700000", "094303.650000", "094259.810000", "094303.760000", "094259.920000", "094303.870000", "094300.030000", "094303.980000", "094300.140000", "094304.090000", "094300.250000", "094304.200000", "094300.360000", "094304.307500", "094300.470000", "094304.417500", "094300.577500", "094304.527500", "094300.687500", "094304.637500", "094300.797500", "094304.747500", "094300.907500", "094304.857500", "094301.017500", "094304.967500", "094301.127500", "094305.077500", "094301.237500", "094305.187500", "094301.347500", "094305.295000", "094301.455000", "094305.405000", "094301.565000", "094305.515000", "094301.675000", "094305.625000", "094301.785000", "094305.735000", "094301.895000", "094309.705000", "094305.865000", "094309.815000", "094305.975000", "094309.925000", "094306.085000", "094310.035000", "094306.195000", "094310.142500", "094306.305000", "094310.252500", "094306.412500", "094310.362500", "094306.522500", "094310.472500", "094306.632500", "094310.582500", "094306.742500", "094310.692500", "094306.852500", "094310.802500", "094306.962500", "094310.912500", "094307.072500", "094311.022500", "094307.182500", "094311.130000", "094307.290000", "094311.240000", "094307.400000", "094311.350000", "094307.510000", "094311.460000", "094307.620000", "094311.570000", "094307.730000", "094311.680000", "094307.840000", "094311.790000", "094307.950000", "094311.900000", "094308.060000", "094312.007500", "094308.170000", "094312.117500", "094308.277500", "094312.227500", "094308.387500", "094312.337500", "094308.497500", "094312.447500", "094308.607500", "094312.557500", "094308.717500", "094312.667500", "094308.827500", "094312.777500", "094308.937500", "094312.887500", "094309.047500", "094312.995000", "094309.155000", "094313.105000", "094309.265000", "094313.215000", "094309.375000", "094313.325000", "094309.485000", "094313.435000", "094309.595000", "094317.405000", "094313.565000", "094317.515000", "094313.675000", "094317.625000", "094313.785000", "094317.735000", "094313.895000", "094317.842500", "094314.005000", "094317.952500", "094314.112500", "094318.062500", "094314.222500", "094318.172500", "094314.332500", "094318.282500", "094314.442500", "094318.392500", "094314.552500", "094318.502500", "094314.662500", "094318.612500", "094314.772500", "094318.722500", "094314.882500", "094318.830000", "094314.990000", "094318.940000", "094315.100000", "094319.050000", "094315.210000", "094319.160000", "094315.320000", "094319.270000", "094315.430000", "094319.380000", "094315.540000", "094319.490000", "094315.650000", "094319.600000", "094315.760000", "094319.707500", "094315.870000", "094319.817500", "094315.977500", "094319.927500", "094316.087500", "094320.037500", "094316.197500", "094320.147500", "094316.307500", "094320.257500", "094316.417500", "094320.367500", "094316.527500", "094320.477500", "094316.637500", "094320.587500", "094316.747500", "094320.695000", "094316.855000", "094320.805000", "094316.965000", "094320.915000", "094317.075000", "094321.025000", "094317.185000", "094321.135000", "094317.295000", "094325.105000", "094321.265000", "094325.215000", "094321.375000", "094325.325000", "094321.485000", "094325.435000", "094321.595000", "094325.542500", "094321.705000", "094325.652500", "094321.812500", "094325.762500", "094321.922500", "094325.872500", "094322.032500", "094325.982500", "094322.142500", "094326.092500", "094322.252500", "094326.202500", "094322.362500", "094326.312500", "094322.472500", "094326.422500", "094322.582500", "094326.530000", "094322.690000", "094326.640000", "094322.800000", "094326.750000", "094322.910000", "094326.860000", "094323.020000", "094326.970000", "094323.130000", "094327.080000", "094323.240000", "094327.190000", "094323.350000", "094327.300000", "094323.460000", "094327.407500", "094323.570000", "094327.517500", "094323.677500", "094327.627500", "094323.787500", "094327.737500", "094323.897500", "094327.847500", "094324.007500", "094327.957500", "094324.117500", "094328.067500", "094324.227500", "094328.177500", "094324.337500", "094328.287500", "094324.447500", "094328.395000", "094324.555000", "094328.505000", "094324.665000", "094328.615000", "094324.775000", "094328.725000", "094324.885000", "094328.835000", "094324.995000", "094332.805000", "094328.965000", "094332.915000", "094329.075000", "094333.025000", "094329.185000", "094333.135000", "094329.295000", "094333.242500", "094329.405000", "094333.352500", "094329.512500", "094333.462500", "094329.622500", "094333.572500", "094329.732500", "094333.682500", "094329.842500", "094333.792500", "094329.952500", "094333.902500", "094330.062500", "094334.012500", "094330.172500", "094334.122500", "094330.282500", "094334.230000", "094330.390000", "094334.340000", "094330.500000", "094334.450000", "094330.610000", "094334.560000", "094330.720000", "094334.670000", "094330.830000", "094334.780000", "094330.940000", "094334.890000", "094331.050000", "094335.000000", "094331.160000", "094335.107500", "094331.270000", "094335.217500", "094331.377500", "094335.327500", "094331.487500", "094335.437500", "094331.597500", "094335.547500", "094331.707500", "094335.657500", "094331.817500", "094335.767500", "094331.927500", "094335.877500", "094332.037500", "094335.987500", "094332.147500", "094336.095000", "094332.255000", "094336.205000", "094332.365000", "094336.315000", "094332.475000", "094336.425000", "094332.585000", "094336.535000", "094332.695000", "094340.505000", "094336.665000", "094340.615000", "094336.775000", "094340.725000", "094336.885000", "094340.835000", "094336.995000", "094340.942500", "094337.105000", "094341.052500", "094337.212500", "094341.162500", "094337.322500", "094341.272500", "094337.432500", "094341.382500", "094337.542500", "094341.492500", "094337.652500", "094341.602500", "094337.762500", "094341.712500", "094337.872500", "094341.822500", "094337.982500", "094341.930000", "094338.090000", "094342.040000", "094338.200000", "094342.150000", "094338.310000", "094342.260000", "094338.420000", "094342.370000", "094338.530000", "094342.480000", "094338.640000", "094342.590000", "094338.750000", "094342.700000", "094338.860000", "094342.807500", "094338.970000", "094342.917500", "094339.077500", "094343.027500", "094339.187500", "094343.137500", "094339.297500", "094343.247500", "094339.407500", "094343.357500", "094339.517500", "094343.467500", "094339.627500", "094343.577500", "094339.737500", "094343.687500", "094339.847500", "094343.795000", "094339.955000", "094343.905000", "094340.065000", "094344.015000", "094340.175000", "094344.125000", "094340.285000", "094344.235000", "094340.395000", "094348.205000", "094344.365000", "094348.315000", "094344.475000", "094348.425000", "094344.585000", "094348.535000", "094344.695000", "094348.642500", "094344.805000", "094348.752500", "094344.912500", "094348.862500", "094345.022500", "094348.972500", "094345.132500", "094349.082500", "094345.242500", "094349.192500", "094345.352500", "094349.302500", "094345.462500", "094349.412500", "094345.572500", "094349.522500", "094345.682500", "094349.630000", "094345.790000", "094349.740000", "094345.900000", "094349.850000", "094346.010000", "094349.960000", "094346.120000", "094350.070000", "094346.230000", "094350.180000", "094346.340000", "094350.290000", "094346.450000", "094350.400000", "094346.560000", "094350.507500", "094346.670000", "094350.617500", "094346.777500", "094350.727500", "094346.887500", "094350.837500", "094346.997500", "094350.947500", "094347.107500", "094351.057500", "094347.217500", "094351.167500", "094347.327500", "094351.277500", "094347.437500", "094351.387500", "094347.547500", "094351.495000", "094347.655000", "094351.605000", "094347.765000", "094351.715000", "094347.875000", "094351.825000", "094347.985000", "094351.935000", "094348.095000", "094355.905000", "094352.065000", "094356.015000", "094352.175000", "094356.125000", "094352.285000", "094356.235000", "094352.395000", "094356.342500", "094352.505000", "094356.452500", "094352.612500", "094356.562500", "094352.722500", "094356.672500", "094352.832500", "094356.782500", "094352.942500", "094356.892500", "094353.052500", "094357.002500", "094353.162500", "094357.112500", "094353.272500", "094357.222500", "094353.382500", "094357.330000", "094353.490000", "094357.440000", "094353.600000", "094357.550000", "094353.710000", "094357.660000", "094353.820000", "094357.770000", "094353.930000", "094357.880000", "094354.040000", "094357.990000", "094354.150000", "094358.100000", "094354.260000", "094358.207500", "094354.370000", "094358.317500", "094354.477500", "094358.427500", "094354.587500", "094358.537500", "094354.697500", "094358.647500", "094354.807500", "094358.757500", "094354.917500", "094358.867500", "094355.027500", "094358.977500", "094355.137500", "094359.087500", "094355.247500", "094359.195000", "094355.355000", "094359.305000", "094355.465000", "094359.415000", "094355.575000", "094359.525000", "094355.685000", "094359.635000", "094355.795000", "094403.605000", "094359.765000", "094403.715000", "094359.875000", "094403.825000", "094359.985000", "094403.935000", "094400.095000", "094404.042500", "094400.205000", "094404.152500", "094400.312500", "094404.262500", "094400.422500", "094404.372500", "094400.532500", "094404.482500", "094400.642500", "094404.592500", "094400.752500", "094404.702500", "094400.862500", "094404.812500", "094400.972500", "094404.922500", "094401.082500", "094405.030000", "094401.190000", "094405.140000", "094401.300000", "094405.250000", "094401.410000", "094405.360000", "094401.520000", "094405.470000", "094401.630000", "094405.580000", "094401.740000", "094405.690000", "094401.850000", "094405.800000", "094401.960000", "094405.907500", "094402.070000", "094406.017500", "094402.177500", "094406.127500", "094402.287500", "094406.237500", "094402.397500", "094406.347500", "094402.507500", "094406.457500", "094402.617500", "094406.567500", "094402.727500", "094406.677500", "094402.837500", "094406.787500", "094402.947500", "094406.895000", "094403.055000", "094407.005000", "094403.165000", "094407.115000", "094403.275000", "094407.225000", "094403.385000", "094407.335000", "094403.495000", "094411.305000", "094407.465000", "094411.415000", "094407.575000", "094411.525000", "094407.685000", "094411.635000", "094407.795000", "094411.742500", "094407.905000", "094411.852500", "094408.012500", "094411.962500", "094408.122500", "094412.072500", "094408.232500", "094412.182500", "094408.342500", "094412.292500", "094408.452500", "094412.402500", "094408.562500", "094412.512500", "094408.672500", "094412.622500", "094408.782500", "094412.730000", "094408.890000", "094412.840000", "094409.000000", "094412.950000", "094409.110000", "094413.060000", "094409.220000", "094413.170000", "094409.330000", "094413.280000", "094409.440000", "094413.390000", "094409.550000", "094413.500000", "094409.660000", "094413.607500", "094409.770000", "094413.717500", "094409.877500", "094413.827500", "094409.987500", "094413.937500", "094410.097500", "094414.047500", "094410.207500", "094414.157500", "094410.317500", "094414.267500", "094410.427500", "094414.377500", "094410.537500", "094414.487500", "094410.647500", "094414.595000", "094410.755000", "094414.705000", "094410.865000", "094414.815000", "094410.975000", "094414.925000", "094411.085000", "094415.035000", "094411.195000", "094419.005000", "094415.165000", "094419.115000", "094415.275000", "094419.225000", "094415.385000", "094419.335000", "094415.495000", "094419.442500", "094415.605000", "094419.552500", "094415.712500", "094419.662500", "094415.822500", "094419.772500", "094415.932500", "094419.882500", "094416.042500", "094419.992500", "094416.152500", "094420.102500", "094416.262500", "094420.212500", "094416.372500", "094420.322500", "094416.482500", "094420.430000", "094416.590000", "094420.540000", "094416.700000", "094420.650000", "094416.810000", "094420.760000", "094416.920000", "094420.870000", "094417.030000", "094420.980000", "094417.140000", "094421.090000", "094417.250000", "094421.200000", "094417.360000", "094421.307500", "094417.470000", "094421.417500", "094417.577500", "094421.527500", "094417.687500", "094421.637500", "094417.797500", "094421.747500", "094417.907500", "094421.857500", "094418.017500", "094421.967500", "094418.127500", "094422.077500", "094418.237500", "094422.187500", "094418.347500", "094422.295000", "094418.455000", "094422.405000", "094418.565000", "094422.515000", "094418.675000", "094422.625000", "094418.785000", "094422.735000", "094418.895000", "094426.705000", "094422.865000", "094426.815000", "094422.975000", "094426.925000", "094423.085000", "094427.035000", "094423.195000", "094427.142500", "094423.305000", "094427.252500", "094423.412500", "094427.362500", "094423.522500", "094427.472500", "094423.632500", "094427.582500", "094423.742500", "094427.692500", "094423.852500", "094427.802500", "094423.962500", "094427.912500", "094424.072500", "094428.022500", "094424.182500", "094428.130000", "094424.290000", "094428.240000", "094424.400000", "094428.350000", "094424.510000", "094428.460000", "094424.620000", "094428.570000", "094424.730000", "094428.680000", "094424.840000", "094428.790000", "094424.950000", "094428.900000", "094425.060000", "094429.007500", "094425.170000", "094429.117500", "094425.277500", "094429.227500", "094425.387500", "094429.337500", "094425.497500", "094429.447500", "094425.607500", "094429.557500", "094425.717500", "094429.667500", "094425.827500", "094429.777500", "094425.937500", "094429.887500", "094426.047500", "094429.995000", "094426.155000", "094430.105000", "094426.265000", "094430.215000", "094426.375000", "094430.325000", "094426.485000", "094430.435000", "094426.595000", "094434.405000", "094430.565000", "094434.515000", "094430.675000", "094434.625000", "094430.785000", "094434.735000", "094430.895000", "094434.842500", "094431.005000", "094434.952500", "094431.112500", "094435.062500", "094431.222500", "094435.172500", "094431.332500", "094435.282500", "094431.442500", "094435.392500", "094431.552500", "094435.502500", "094431.662500", "094435.612500", "094431.772500", "094435.722500", "094431.882500", "094435.830000", "094431.990000", "094435.940000", "094432.100000", "094436.050000", "094432.210000", "094436.160000", "094432.320000", "094436.270000", "094432.430000", "094436.380000", "094432.540000", "094436.490000", "094432.650000", "094436.600000", "094432.760000", "094436.707500", "094432.870000", "094436.817500", "094432.977500", "094436.927500", "094433.087500", "094437.037500", "094433.197500", "094437.147500", "094433.307500", "094437.257500", "094433.417500", "094437.367500", "094433.527500", "094437.477500", "094433.637500", "094437.587500", "094433.747500", "094437.695000", "094433.855000", "094437.805000", "094433.965000", "094437.915000", "094434.075000", "094438.025000", "094434.185000", "094438.135000", "094434.295000", "094442.105000", "094438.265000", "094442.215000", "094438.375000", "094442.325000", "094438.485000", "094442.435000", "094438.595000", "094442.542500", "094438.705000", "094442.652500", "094438.812500", "094442.762500", "094438.922500", "094442.872500", "094439.032500", "094442.982500", "094439.142500", "094443.092500", "094439.252500", "094443.202500", "094439.362500", "094443.312500", "094439.472500", "094443.422500", "094439.582500", "094443.530000", "094439.690000", "094443.640000", "094439.800000", "094443.750000", "094439.910000", "094443.860000", "094440.020000", "094443.970000", "094440.130000", "094444.080000", "094440.240000", "094444.190000", "094440.350000", "094444.300000", "094440.460000", "094444.407500", "094440.570000", "094444.517500", "094440.677500", "094444.627500", "094440.787500", "094444.737500", "094440.897500", "094444.847500", "094441.007500", "094444.957500", "094441.117500", "094445.067500", "094441.227500", "094445.177500", "094441.337500", "094445.287500", "094441.447500", "094445.395000", "094441.555000", "094445.505000", "094441.665000", "094445.615000", "094441.775000", "094445.725000", "094441.885000", "094445.835000", "094441.995000", "094449.805000", "094445.965000", "094449.915000", "094446.075000", "094450.025000", "094446.185000", "094450.135000", "094446.295000", "094450.242500", "094446.405000", "094450.352500", "094446.512500", "094450.462500", "094446.622500", "094450.572500", "094446.732500", "094450.682500", "094446.842500", "094450.792500", "094446.952500", "094450.902500", "094447.062500", "094451.012500", "094447.172500", "094451.122500", "094447.282500", "094451.230000", "094447.390000", "094451.340000", "094447.500000", "094451.450000", "094447.610000", "094451.560000", "094447.720000", "094451.670000", "094447.830000", "094451.780000", "094447.940000", "094451.890000", "094448.050000", "094452.000000", "094448.160000", "094452.107500", "094448.270000", "094452.217500", "094448.377500", "094452.327500", "094448.487500", "094452.437500", "094448.597500", "094452.547500", "094448.707500", "094452.657500", "094448.817500", "094452.767500", "094448.927500", "094452.877500", "094449.037500", "094452.987500", "094449.147500", "094453.095000", "094449.255000", "094453.205000", "094449.365000", "094453.315000", "094449.475000", "094453.425000", "094449.585000", "094453.535000", "094449.695000", "094457.505000", "094453.665000", "094457.615000", "094453.775000", "094457.725000", "094453.885000", "094457.835000", "094453.995000", "094457.942500", "094454.105000", "094458.052500", "094454.212500", "094458.162500", "094454.322500", "094458.272500", "094454.432500", "094458.382500", "094454.542500", "094458.492500", "094454.652500", "094458.602500", "094454.762500", "094458.712500", "094454.872500", "094458.822500", "094454.982500", "094458.930000", "094455.090000", "094459.040000", "094455.200000", "094459.150000", "094455.310000", "094459.260000", "094455.420000", "094459.370000", "094455.530000", "094459.480000", "094455.640000", "094459.590000", "094455.750000", "094459.700000", "094455.860000", "094459.807500", "094455.970000", "094459.917500", "094456.077500", "094500.027500", "094456.187500", "094500.137500", "094456.297500", "094500.247500", "094456.407500", "094500.357500", "094456.517500", "094500.467500", "094456.627500", "094500.577500", "094456.737500", "094500.687500", "094456.847500", "094500.795000", "094456.955000", "094500.905000", "094457.065000", "094501.015000", "094457.175000", "094501.125000", "094457.285000", "094501.235000", "094457.395000", "094505.205000", "094501.365000", "094505.315000", "094501.475000", "094505.425000", "094501.585000", "094505.535000", "094501.695000", "094505.642500", "094501.805000", "094505.752500", "094501.912500", "094505.862500", "094502.022500", "094505.972500", "094502.132500", "094506.082500", "094502.242500", "094506.192500", "094502.352500", "094506.302500", "094502.462500", "094506.412500", "094502.572500", "094506.522500", "094502.682500", "094506.630000", "094502.790000", "094506.740000", "094502.900000", "094506.850000", "094503.010000", "094506.960000", "094503.120000", "094507