{
  "AcquisitionMatrixPE": 80,
  "AcquisitionNumber": 1,
  "AcquisitionTime": "10:12:28.510000",
  "BandwidthPerPixelPhaseEncode": 25,
  "BaseResolution": 80,
  "BodyPartExamined": "BRAIN",
  "CoilCombinationMethod": "Sum of Squares",
  "ConsistencyInfo": "N4_VE11C_LATEST_20160120",
  "ConversionSoftware": "dcm2niix",
  "ConversionSoftwareVersion": "v1.0.20220720",
  "DerivedVendorReportedEchoSpacing": 0.0005,
  "DeviceSerialNumber": "66112",
  "DwellTime": 2.7e-06,
  "EchoTime": 0.03,
  "EchoTrainLength": 80,
  "EffectiveEchoSpacing": 0.0005,
  "FlipAngle": 77,
  "HeudiconvVersion": "0.13.1",
  "ImageOrientationPatientDICOM": [0.986382, 0.163824, 0.014551, -0.160112, 0.936264, 0.312687],
  "ImageOrientationText": "Tra>Cor(18.1)>Sag(-2.2)",
  "ImageType": [
    "ORIGINAL",
    "PRIMARY",
    "M",
    "ND",
    "NORM",
    "MOSAIC"
],
  "ImagingFrequency": 123.252,
  "InPlanePhaseEncodingDirectionDICOM": "COL",
  "InstitutionAddress": "Maynard 3,Hanover,NH,US,03755",
  "InstitutionName": "Dartmouth College - PBS",
  "InstitutionalDepartmentName": "Department",
  "MRAcquisitionType": "2D",
  "MagneticFieldStrength": 3,
  "Manufacturer": "Siemens",
  "ManufacturersModelName": "Prisma",
  "MatrixCoilMode": "SENSE",
  "Modality": "MR",
  "NonlinearGradientCorrection": false,
  "PartialFourier": 1,
  "PatientPosition": "HFS",
  "PercentPhaseFOV": 100,
  "PercentSampling": 100,
  "PhaseEncodingDirection": "j-",
  "PhaseEncodingSteps": 80,
  "PhaseResolution": 1,
  "PixelBandwidth": 2315,
  "ProcedureStepDescription": "dbic^QA",
  "ProtocolName": "func-bold_fa-77",
  "PulseSequenceDetails": "%SiemensSeq%\\ep2d_bold",
  "ReceiveCoilActiveElements": "HEA;HEP",
  "ReceiveCoilName": "Head_32",
  "ReconMatrixPE": 80,
  "RepetitionTime": 2,
  "SAR": 0.0515141,
  "ScanOptions": "FS",
  "ScanningSequence": "EP",
  "SequenceName": "*epfid2d1_80",
  "SequenceVariant": "SK",
  "SeriesDescription": "func-bold_fa-77",
  "SeriesNumber": 8,
  "ShimSetting": [4145, -7690, -7509, 279, -66, -45, -24, 51],
  "SliceThickness": 3.5,
  "SliceTiming": [0.99, 0, 1.0575, 0.0675, 1.1225, 0.1325, 1.1875, 0.2, 1.255, 0.265, 1.32, 0.33, 1.3875, 0.3975, 1.4525, 0.4625, 1.5175, 0.5275, 1.585, 0.595, 1.65, 0.66, 1.7175, 0.7275, 1.7825, 0.7925, 1.8475, 0.8575, 1.915, 0.925],
  "SoftwareVersions": "syngo MR E11",
  "SpacingBetweenSlices": 3.99,
  "StationName": "AWP66112",
  "TotalReadoutTime": 0.0395,
  "TxRefAmp": 220.109,
  "dcmmeta_affine": [
    [-2.9591469764709473, -0.4803372025489807, -0.15003180503845215, 142.740234375],
    [-0.49147066473960876, 2.80879282951355, 1.2399271726608276, -92.89374542236328],
    [0.043652866035699844, -0.9380609393119812, 3.7894816398620605, -12.339998245239258],
    [0.0, 0.0, 0.0, 1.0]
],
  "dcmmeta_reorient_transform": [
    [0.0, -1.0, 0.0, 79.0],
    [1.0, 0.0, 0.0, 0.0],
    [0.0, 0.0, 1.0, 0.0],
    [0.0, 0.0, 0.0, 1.0]
],
  "dcmmeta_shape": [80, 80, 30, 200],
  "dcmmeta_slice_dim": 2,
  "dcmmeta_version": 0.6,
  "global": {
    "const": {
      "AccessionNumber": "qa",
      "AcquisitionMatrix": [80, 0, 0, 80],
      "AngioFlag": "N",
      "BitsAllocated": 16,
      "BitsStored": 12,
      "BodyPartExamined": "BRAIN",
      "Columns": 480,
      "EchoNumbers": 1,
      "EchoTime": 30.0,
      "EchoTrainLength": 80,
      "FlipAngle": 77.0,
      "HighBit": 11,
      "ImageOrientationPatient": [0.98638233520296, 0.16382355908066, 0.0145509549411, -0.1601124037183, 0.93626431600367, 0.31268698206628],
      "ImagePositionPatient": [-600.5555540724, -789.05362436026, -282.78957544854],
      "ImageType": [
        "ORIGINAL",
        "PRIMARY",
        "M",
        "ND",
        "NORM",
        "MOSAIC"
],
      "ImagedNucleus": "1H",
      "ImagingFrequency": 123.252308,
      "InPlanePhaseEncodingDirection": "COL",
      "MRAcquisitionType": "2D",
      "MagneticFieldStrength": 3.0,
      "Manufacturer": "SIEMENS",
      "ManufacturerModelName": "Prisma",
      "Modality": "MR",
      "NumberOfAverages": 1.0,
      "NumberOfPhaseEncodingSteps": 80,
      "PercentPhaseFieldOfView": 100.0,
      "PercentSampling": 100.0,
      "PerformedProcedureStepStartTime": "094734.573000",
      "PhotometricInterpretation": "MONOCHROME2",
      "PixelBandwidth": 2315.0,
      "PixelRepresentation": 0,
      "PixelSpacing": [3.0, 3.0],
      "ProtocolName": "func-bold_fa-77",
      "RepetitionTime": 2000.0,
      "Rows": 480,
      "SAR": 0.05151411192997,
      "SamplesPerPixel": 1,
      "ScanOptions": "FS",
      "ScanningSequence": "EP",
      "SequenceName": "*epfid2d1_80",
      "SequenceVariant": "SK",
      "SeriesDescription": "func-bold_fa-77",
      "SeriesNumber": 8,
      "SeriesTime": "101327.923000",
      "SliceLocation": -45.954700147411,
      "SliceThickness": 3.5,
      "SmallestImagePixelValue": 0,
      "SoftwareVersions": "syngo MR E11",
      "SpacingBetweenSlices": 3.9899999986675,
      "SpecificCharacterSet": "ISO_IR 100",
      "StudyID": "69",
      "StudyTime": "094734.520000",
      "TransmitCoilName": "Body",
      "VariableFlipAngleFlag": "N",
      "WindowCenterWidthExplanation": "Algo1",
      "dBdt": 0.0},
    "slices": {}
  },
  "time": {
    "samples": {
      "AcquisitionNumber": [1, 2, 3, 4, 5, 6, 7, 8, 9, 10, 11, 12, 13, 14, 15, 16, 17, 18, 19, 20, 21, 22, 23, 24, 25, 26, 27, 28, 29, 30, 31, 32, 33, 34, 35, 36, 37, 38, 39, 40, 41, 42, 43, 44, 45, 46, 47, 48, 49, 50, 51, 52, 53, 54, 55, 56, 57, 58, 59, 60, 61, 62, 63, 64, 65, 66, 67, 68, 69, 70, 71, 72, 73, 74, 75, 76, 77, 78, 79, 80, 81, 82, 83, 84, 85, 86, 87, 88, 89, 90, 91, 92, 93, 94, 95, 96, 97, 98, 99, 100, 101, 102, 103, 104, 105, 106, 107, 108, 109, 110, 111, 112, 113, 114, 115, 116, 117, 118, 119, 120, 121, 122, 123, 124, 125, 126, 127, 128, 129, 130, 131, 132, 133, 134, 135, 136, 137, 138, 139, 140, 141, 142, 143, 144, 145, 146, 147, 148, 149, 150, 151, 152, 153, 154, 155, 156, 157, 158, 159, 160, 161, 162, 163, 164, 165, 166, 167, 168, 169, 170, 171, 172, 173, 174, 175, 176, 177, 178, 179, 180, 181, 182, 183, 184, 185, 186, 187, 188, 189, 190, 191, 192, 193, 194, 195, 196, 197, 198, 199, 200],
      "AcquisitionTime": ["101228.510000", "101230.510000", "101232.510000", "101234.510000", "101236.510000", "101238.510000", "101240.510000", "101242.510000", "101244.510000", "101246.510000", "101248.510000", "101250.510000", "101252.510000", "101254.510000", "101256.510000", "101258.510000", "101300.510000", "101302.510000", "101304.510000", "101306.510000", "101308.510000", "101310.510000", "101312.510000", "101314.510000", "101316.510000", "101318.510000", "101320.510000", "101322.510000", "101324.510000", "101326.510000", "101328.510000", "101330.510000", "101332.510000", "101334.510000", "101336.510000", "101338.510000", "101340.510000", "101342.510000", "101344.510000", "101346.510000", "101348.510000", "101350.510000", "101352.510000", "101354.510000", "101356.510000", "101358.510000", "101400.510000", "101402.510000", "101404.510000", "101406.510000", "101408.510000", "101410.510000", "101412.510000", "101414.510000", "101416.510000", "101418.510000", "101420.510000", "101422.510000", "101424.510000", "101426.510000", "101428.510000", "101430.510000", "101432.510000", "101434.510000", "101436.510000", "101438.510000", "101440.510000", "101442.510000", "101444.510000", "101446.510000", "101448.510000", "101450.510000", "101452.510000", "101454.510000", "101456.510000", "101458.510000", "101500.510000", "101502.510000", "101504.510000", "101506.510000", "101508.510000", "101510.510000", "101512.510000", "101514.510000", "101516.510000", "101518.510000", "101520.510000", "101522.510000", "101524.510000", "101526.510000", "101528.510000", "101530.510000", "101532.510000", "101534.510000", "101536.510000", "101538.510000", "101540.510000", "101542.510000", "101544.510000", "101546.510000", "101548.510000", "101550.510000", "101552.510000", "101554.510000", "101556.510000", "101558.510000", "101600.510000", "101602.510000", "101604.510000", "101606.510000", "101608.510000", "101610.510000", "101612.510000", "101614.510000", "101616.510000", "101618.510000", "101620.510000", "101622.510000", "101624.510000", "101626.510000", "101628.510000", "101630.510000", "101632.510000", "101634.510000", "101636.510000", "101638.510000", "101640.510000", "101642.510000", "101644.510000", "101646.510000", "101648.510000", "101650.510000", "101652.510000", "101654.510000", "101656.510000", "101658.510000", "101700.510000", "101702.510000", "101704.510000", "101706.510000", "101708.510000", "101710.510000", "101712.510000", "101714.510000", "101716.510000", "101718.510000", "101720.510000", "101722.510000", "101724.510000", "101726.510000", "101728.510000", "101730.510000", "101732.510000", "101734.510000", "101736.510000", "101738.510000", "101740.510000", "101742.510000", "101744.510000", "101746.510000", "101748.510000", "101750.510000", "101752.510000", "101754.510000", "101756.510000", "101758.510000", "101800.510000", "101802.510000", "101804.510000", "101806.510000", "101808.510000", "101810.510000", "101812.510000", "101814.510000", "101816.510000", "101818.510000", "101820.510000", "101822.510000", "101824.510000", "101826.510000", "101828.510000", "101830.510000", "101832.510000", "101834.510000", "101836.510000", "101838.510000", "101840.510000", "101842.510000", "101844.510000", "101846.510000", "101848.510000", "101850.510000", "101852.510000", "101854.510000", "101856.510000", "101858.510000", "101900.510000", "101902.510000", "101904.510000", "101906.510000"],
      "ContentTime": ["101327.926000", "101327.930000", "101327.932000", "101327.944000", "101327.947000", "101327.949000", "101327.952000", "101327.955000", "101327.957000", "101327.960000", "101327.962000", "101327.965000", "101327.967000", "101327.970000", "101327.972000", "101327.975000", "101327.977000", "101327.980000", "101327.982000", "101327.985000", "101327.987000", "101327.990000", "101327.992000", "101327.995000", "101327.997000", "101328.001000", "101328.003000", "101328.006000", "101328.009000", "101407.921000", "101407.924000", "101407.927000", "101407.929000", "101407.932000", "101407.934000", "101407.937000", "101407.940000", "101407.942000", "101407.945000", "101407.958000", "101407.960000", "101407.963000", "101407.965000", "101407.968000", "101407.971000", "101407.973000", "101407.976000", "101407.978000", "101407.981000", "101447.921000", "101447.923000", "101447.926000", "101447.928000", "101447.931000", "101447.933000", "101447.936000", "101447.938000", "101447.941000", "101447.944000", "101447.946000", "101447.949000", "101447.951000", "101447.954000", "101447.956000", "101447.959000", "101447.961000", "101447.964000", "101447.966000", "101447.969000", "101527.921000", "101527.924000", "101527.927000", "101527.929000", "101527.932000", "101527.934000", "101527.937000", "101527.939000", "101527.942000", "101527.945000", "101527.947000", "101527.950000", "101527.952000", "101527.955000", "101527.957000", "101527.960000", "101527.962000", "101527.965000", "101527.968000", "101527.970000", "101607.921000", "101607.924000", "101607.927000", "101607.929000", "101607.932000", "101607.935000", "101607.937000", "101607.940000", "101607.942000", "101607.945000", "101607.947000", "101607.950000", "101607.952000", "101607.955000", "101607.957000", "101607.960000", "101607.962000", "101607.965000", "101607.967000", "101607.970000", "101647.920000", "101647.923000", "101647.926000", "101647.928000", "101647.931000", "101647.933000", "101647.936000", "101647.938000", "101647.941000", "101647.944000", "101647.946000", "101647.949000", "101647.951000", "101647.954000", "101647.956000", "101647.959000", "101647.961000", "101647.964000", "101647.967000", "101647.969000", "101727.920000", "101727.923000", "101727.926000", "101727.928000", "101727.931000", "101727.934000", "101727.936000", "101727.939000", "101727.941000", "101727.944000", "101727.946000", "101727.949000", "101727.951000", "101727.954000", "101727.956000", "101727.959000", "101727.961000", "101727.964000", "101727.967000", "101727.969000", "101807.921000", "101807.924000", "101807.927000", "101807.929000", "101807.932000", "101807.935000", "101807.937000", "101807.940000", "101807.942000", "101807.945000", "101807.947000", "101807.950000", "101807.952000", "101807.955000", "101807.957000", "101807.960000", "101807.962000", "101807.965000", "101807.967000", "101807.970000", "101847.920000", "101847.923000", "101847.926000", "101847.928000", "101847.931000", "101847.934000", "101847.936000", "101847.939000", "101847.941000", "101847.944000", "101847.946000", "101847.949000", "101847.951000", "101847.954000", "101847.957000", "101847.959000", "101847.962000", "101847.964000", "101847.967000", "101847.969000", "101908.085000", "101908.087000", "101908.090000", "101908.092000", "101908.095000", "101908.098000", "101908.100000", "101908.103000", "101908.105000", "101908.108000", "101908.111000"],
      "InstanceCreationTime": ["101327.926000", "101327.930000", "101327.932000", "101327.944000", "101327.947000", "101327.949000", "101327.952000", "101327.955000", "101327.957000", "101327.960000", "101327.962000", "101327.965000", "101327.967000", "101327.970000", "101327.972000", "101327.975000", "101327.977000", "101327.980000", "101327.982000", "101327.985000", "101327.987000", "101327.990000", "101327.992000", "101327.995000", "101327.997000", "101328.001000", "101328.003000", "101328.006000", "101328.009000", "101407.921000", "101407.924000", "101407.927000", "101407.929000", "101407.932000", "101407.934000", "101407.937000", "101407.940000", "101407.942000", "101407.945000", "101407.958000", "101407.960000", "101407.963000", "101407.965000", "101407.968000", "101407.971000", "101407.973000", "101407.976000", "101407.978000", "101407.981000", "101447.921000", "101447.923000", "101447.926000", "101447.928000", "101447.931000", "101447.933000", "101447.936000", "101447.938000", "101447.941000", "101447.944000", "101447.946000", "101447.949000", "101447.951000", "101447.954000", "101447.956000", "101447.959000", "101447.961000", "101447.964000", "101447.966000", "101447.969000", "101527.921000", "101527.924000", "101527.927000", "101527.929000", "101527.932000", "101527.934000", "101527.937000", "101527.939000", "101527.942000", "101527.945000", "101527.947000", "101527.950000", "101527.952000", "101527.955000", "101527.957000", "101527.960000", "101527.962000", "101527.965000", "101527.968000", "101527.970000", "101607.921000", "101607.924000", "101607.927000", "101607.929000", "101607.932000", "101607.935000", "101607.937000", "101607.940000", "101607.942000", "101607.945000", "101607.947000", "101607.950000", "101607.952000", "101607.955000", "101607.957000", "101607.960000", "101607.962000", "101607.965000", "101607.967000", "101607.970000", "101647.920000", "101647.923000", "101647.926000", "101647.928000", "101647.931000", "101647.933000", "101647.936000", "101647.938000", "101647.941000", "101647.944000", "101647.946000", "101647.949000", "101647.951000", "101647.954000", "101647.956000", "101647.959000", "101647.961000", "101647.964000", "101647.967000", "101647.969000", "101727.920000", "101727.923000", "101727.926000", "101727.928000", "101727.931000", "101727.934000", "101727.936000", "101727.939000", "101727.941000", "101727.944000", "101727.946000", "101727.949000", "101727.951000", "101727.954000", "101727.956000", "101727.959000", "101727.961000", "101727.964000", "101727.967000", "101727.969000", "101807.921000", "101807.924000", "101807.927000", "101807.929000", "101807.932000", "101807.935000", "101807.937000", "101807.940000", "101807.942000", "101807.945000", "101807.947000", "101807.950000", "101807.952000", "101807.955000", "101807.957000", "101807.960000", "101807.962000", "101807.965000", "101807.967000", "101807.970000", "101847.920000", "101847.923000", "101847.926000", "101847.928000", "101847.931000", "101847.934000", "101847.936000", "101847.939000", "101847.941000", "101847.944000", "101847.946000", "101847.949000", "101847.951000", "101847.954000", "101847.957000", "101847.959000", "101847.962000", "101847.964000", "101847.967000", "101847.969000", "101908.085000", "101908.087000", "101908.090000", "101908.092000", "101908.095000", "101908.098000", "101908.100000", "101908.103000", "101908.105000", "101908.108000", "101908.111000"],
      "InstanceNumber": [1, 2, 3, 4, 5, 6, 7, 8, 9, 10, 11, 12, 13, 14, 15, 16, 17, 18, 19, 20, 21, 22, 23, 24, 25, 26, 27, 28, 29, 30, 31, 32, 33, 34, 35, 36, 37, 38, 39, 40, 41, 42, 43, 44, 45, 46, 47, 48, 49, 50, 51, 52, 53, 54, 55, 56, 57, 58, 59, 60, 61, 62, 63, 64, 65, 66, 67, 68, 69, 70, 71, 72, 73, 74, 75, 76, 77, 78, 79, 80, 81, 82, 83, 84, 85, 86, 87, 88, 89, 90, 91, 92, 93, 94, 95, 96, 97, 98, 99, 100, 101, 102, 103, 104, 105, 106, 107, 108, 109, 110, 111, 112, 113, 114, 115, 116, 117, 118, 119, 120, 121, 122, 123, 124, 125, 126, 127, 128, 129, 130, 131, 132, 133, 134, 135, 136, 137, 138, 139, 140, 141, 142, 143, 144, 145, 146, 147, 148, 149, 150, 151, 152, 153, 154, 155, 156, 157, 158, 159, 160, 161, 162, 163, 164, 165, 166, 167, 168, 169, 170, 171, 172, 173, 174, 175, 176, 177, 178, 179, 180, 181, 182, 183, 184, 185, 186, 187, 188, 189, 190, 191, 192, 193, 194, 195, 196, 197, 198, 199, 200],
      "LargestImagePixelValue": [1761, 1762, 1767, 1769, 1766, 1762, 1762, 1761, 1763, 1763, 1764, 1762, 1760, 1757, 1757, 1757, 1762, 1761, 1762, 1762, 1762, 1761, 1760, 1760, 1759, 1759, 1759, 1759, 1757, 1764, 1766, 1766, 1764, 1762, 1765, 1764, 1761, 1758, 1760, 1760, 1762, 1763, 1757, 1759, 1761, 1765, 1765, 1767, 1766, 1764, 1761, 1760, 1762, 1760, 1766, 1767, 1766, 1767, 1766, 1764, 1763, 1764, 1764, 1765, 1766, 1761, 1757, 1756, 1756, 1760, 1769, 1771, 1766, 1761, 1756, 1756, 1755, 1757, 1758, 1757, 1759, 1757, 1759, 1759, 1764, 1758, 1754, 1754, 1754, 1757, 1761, 1762, 1760, 1760, 1764, 1763, 1762, 1759, 1754, 1754, 1757, 1761, 1764, 1766, 1765, 1765, 1761, 1760, 1760, 1762, 1763, 1762, 1759, 1761, 1765, 1764, 1759, 1756, 1760, 1767, 1767, 1763, 1758, 1756, 1759, 1761, 1766, 1772, 1768, 1766, 1772, 1772, 1772, 1766, 1759, 1760, 1761, 1765, 1766, 1766, 1763, 1765, 1762, 1766, 1764, 1764, 1758, 1759, 1759, 1760, 1761, 1758, 1759, 1759, 1764, 1766, 1765, 1767, 1768, 1767, 1771, 1774, 1769, 1769, 1767, 1767, 1768, 1768, 1770, 1765, 1764, 1761, 1761, 1760, 1759, 1762, 1762, 1762, 1759, 1760, 1758, 1760, 1760, 1761, 1764, 1764, 1764, 1764, 1760, 1759, 1763, 1768, 1767, 1769, 1762, 1759, 1761, 1762, 1764, 1766],
      "WindowCenter": [938.0, 939.0, 938.0, 938.0, 939.0, 938.0, 938.0, 938.0, 938.0, 938.0, 938.0, 938.0, 938.0, 938.0, 938.0, 938.0, 938.0, 937.0, 938.0, 938.0, 938.0, 938.0, 938.0, 938.0, 937.0, 938.0, 938.0, 938.0, 939.0, 937.0, 938.0, 938.0, 937.0, 938.0, 938.0, 938.0, 937.0, 938.0, 938.0, 938.0, 938.0, 938.0, 938.0, 938.0, 937.0, 939.0, 939.0, 938.0, 938.0, 938.0, 938.0, 939.0, 938.0, 939.0, 937.0, 938.0, 938.0, 938.0, 939.0, 939.0, 938.0, 938.0, 938.0, 938.0, 938.0, 938.0, 938.0, 938.0, 938.0, 938.0, 938.0, 938.0, 938.0, 938.0, 938.0, 938.0, 938.0, 938.0, 938.0, 938.0, 937.0, 938.0, 937.0, 938.0, 938.0, 938.0, 938.0, 938.0, 938.0, 938.0, 938.0, 938.0, 938.0, 938.0, 938.0, 938.0, 938.0, 938.0, 938.0, 938.0, 937.0, 937.0, 937.0, 937.0, 937.0, 937.0, 937.0, 937.0, 937.0, 937.0, 937.0, 937.0, 937.0, 937.0, 937.0, 937.0, 937.0, 937.0, 937.0, 937.0, 937.0, 937.0, 937.0, 937.0, 937.0, 938.0, 937.0, 937.0, 937.0, 937.0, 937.0, 937.0, 937.0, 937.0, 937.0, 937.0, 938.0, 937.0, 938.0, 937.0, 937.0, 937.0, 937.0, 937.0, 937.0, 937.0, 937.0, 937.0, 937.0, 937.0, 937.0, 937.0, 937.0, 938.0, 937.0, 937.0, 937.0, 937.0, 937.0, 936.0, 937.0, 938.0, 937.0, 937.0, 936.0, 937.0, 937.0, 937.0, 937.0, 937.0, 937.0, 937.0, 937.0, 937.0, 937.0, 936.0, 936.0, 938.0, 936.0, 937.0, 937.0, 938.0, 936.0, 938.0, 937.0, 937.0, 937.0, 937.0, 937.0, 937.0, 937.0, 937.0, 937.0, 937.0, 937.0, 937.0, 937.0, 938.0, 937.0, 937.0],
      "WindowWidth": [2028.0, 2028.0, 2028.0, 2028.0, 2029.0, 2028.0, 2028.0, 2027.0, 2028.0, 2028.0, 2027.0, 2027.0, 2028.0, 2027.0, 2028.0, 2028.0, 2028.0, 2026.0, 2027.0, 2028.0, 2028.0, 2028.0, 2027.0, 2028.0, 2026.0, 2028.0, 2027.0, 2027.0, 2028.0, 2026.0, 2027.0, 2027.0, 2027.0, 2027.0, 2027.0, 2027.0, 2026.0, 2028.0, 2028.0, 2027.0, 2027.0, 2027.0, 2027.0, 2027.0, 2026.0, 2028.0, 2027.0, 2027.0, 2027.0, 2027.0, 2027.0, 2027.0, 2027.0, 2027.0, 2026.0, 2027.0, 2027.0, 2027.0, 2027.0, 2027.0, 2027.0, 2027.0, 2026.0, 2026.0, 2026.0, 2026.0, 2026.0, 2026.0, 2026.0, 2026.0, 2027.0, 2027.0, 2026.0, 2026.0, 2027.0, 2027.0, 2027.0, 2026.0, 2026.0, 2027.0, 2026.0, 2027.0, 2026.0, 2026.0, 2027.0, 2026.0, 2026.0, 2026.0, 2026.0, 2027.0, 2026.0, 2026.0, 2027.0, 2026.0, 2026.0, 2026.0, 2026.0, 2026.0, 2026.0, 2027.0, 2026.0, 2026.0, 2026.0, 2026.0, 2026.0, 2026.0, 2026.0, 2026.0, 2026.0, 2026.0, 2026.0, 2026.0, 2026.0, 2026.0, 2025.0, 2026.0, 2026.0, 2026.0, 2026.0, 2025.0, 2026.0, 2026.0, 2026.0, 2026.0, 2026.0, 2027.0, 2026.0, 2026.0, 2026.0, 2026.0, 2026.0, 2026.0, 2025.0, 2026.0, 2025.0, 2025.0, 2026.0, 2025.0, 2027.0, 2025.0, 2025.0, 2025.0, 2026.0, 2025.0, 2025.0, 2025.0, 2025.0, 2025.0, 2026.0, 2026.0, 2026.0, 2026.0, 2026.0, 2026.0, 2025.0, 2025.0, 2025.0, 2026.0, 2025.0, 2025.0, 2025.0, 2026.0, 2025.0, 2025.0, 2025.0, 2025.0, 2025.0, 2025.0, 2026.0, 2025.0, 2025.0, 2025.0, 2025.0, 2025.0, 2025.0, 2024.0, 2024.0, 2026.0, 2024.0, 2025.0, 2025.0, 2026.0, 2024.0, 2026.0, 2025.0, 2025.0, 2025.0, 2025.0, 2025.0, 2025.0, 2025.0, 2025.0, 2025.0, 2025.0, 2025.0, 2025.0, 2025.0, 2026.0, 2025.0, 2025.0]
    },
    "slices": {}
  }
}