{
  "AcquisitionMatrixPE": 80,
  "AcquisitionNumber": 1,
  "AcquisitionTime": "09:53:41.530000",
  "BandwidthPerPixelPhaseEncode": 25,
  "BaseResolution": 80,
  "BodyPartExamined": "BRAIN",
  "CoilCombinationMethod": "Sum of Squares",
  "ConsistencyInfo": "N4_VE11C_LATEST_20160120",
  "ConversionSoftware": "dcm2niix",
  "ConversionSoftwareVersion": "v1.0.20220720",
  "DerivedVendorReportedEchoSpacing": 0.0005,
  "DeviceSerialNumber": "66112",
  "DwellTime": 2.7e-06,
  "EchoTime": 0.03,
  "EchoTrainLength": 80,
  "EffectiveEchoSpacing": 0.0005,
  "FlipAngle": 77,
  "HeudiconvVersion": "0.13.1",
  "ImageOrientationPatientDICOM": [0.987433, 0.157782, 0.00899552, -0.152333, 0.935091, 0.32],
  "ImageOrientationText": "Tra>Cor(18.5)>Sag(-2.4)",
  "ImageType": [
    "ORIGINAL",
    "PRIMARY",
    "M",
    "ND",
    "NORM",
    "MOSAIC"
],
  "ImagingFrequency": 123.252,
  "InPlanePhaseEncodingDirectionDICOM": "COL",
  "InstitutionAddress": "Maynard 3,Hanover,NH,US,03755",
  "InstitutionName": "Dartmouth College - PBS",
  "InstitutionalDepartmentName": "Department",
  "MRAcquisitionType": "2D",
  "MagneticFieldStrength": 3,
  "Manufacturer": "Siemens",
  "ManufacturersModelName": "Prisma",
  "MatrixCoilMode": "SENSE",
  "Modality": "MR",
  "NonlinearGradientCorrection": false,
  "PartialFourier": 1,
  "PatientPosition": "HFS",
  "PercentPhaseFOV": 100,
  "PercentSampling": 100,
  "PhaseEncodingDirection": "j-",
  "PhaseEncodingSteps": 80,
  "PhaseResolution": 1,
  "PixelBandwidth": 2315,
  "ProcedureStepDescription": "dbic^QA",
  "ProtocolName": "func-bold_fa-77",
  "PulseSequenceDetails": "%SiemensSeq%\\ep2d_bold",
  "ReceiveCoilActiveElements": "HC1-7;NC1,2",
  "ReceiveCoilName": "HeadNeck_64",
  "ReconMatrixPE": 80,
  "RepetitionTime": 2,
  "SAR": 0.0282563,
  "ScanOptions": "FS",
  "ScanningSequence": "EP",
  "SequenceName": "*epfid2d1_80",
  "SequenceVariant": "SK",
  "SeriesDescription": "func-bold_fa-77",
  "SeriesNumber": 7,
  "ShimSetting": [4142, -7682, -7508, 337, -116, -452, -196, 152],
  "SliceThickness": 3.5,
  "SliceTiming": [0.99, 0, 1.055, 0.065, 1.1225, 0.1325, 1.1875, 0.1975, 1.2525, 0.265, 1.32, 0.33, 1.385, 0.395, 1.4525, 0.4625, 1.5175, 0.5275, 1.5825, 0.595, 1.65, 0.66, 1.715, 0.725, 1.7825, 0.7925, 1.8475, 0.8575, 1.9125, 0.925],
  "SoftwareVersions": "syngo MR E11",
  "SpacingBetweenSlices": 3.99,
  "StationName": "AWP66112",
  "TotalReadoutTime": 0.0395,
  "TxRefAmp": 211.727,
  "dcmmeta_affine": [
    [-2.962299108505249, -0.45700010657310486, -0.16789330542087555, 138.59034729003906],
    [-0.4733458161354065, 2.805272340774536, 1.2662203311920166, -106.33887481689453],
    [0.026986556127667427, -0.9599986672401428, 3.7800261974334717, -32.32563400268555],
    [0.0, 0.0, 0.0, 1.0]
],
  "dcmmeta_reorient_transform": [
    [0.0, -1.0, 0.0, 79.0],
    [1.0, 0.0, 0.0, 0.0],
    [0.0, 0.0, 1.0, 0.0],
    [0.0, 0.0, 0.0, 1.0]
],
  "dcmmeta_shape": [80, 80, 30, 200],
  "dcmmeta_slice_dim": 2,
  "dcmmeta_version": 0.6,
  "global": {
    "const": {
      "AccessionNumber": "qa64",
      "AcquisitionMatrix": [80, 0, 0, 80],
      "AngioFlag": "N",
      "BitsAllocated": 16,
      "BitsStored": 12,
      "BodyPartExamined": "BRAIN",
      "Columns": 480,
      "EchoNumbers": 1,
      "EchoTime": 30.0,
      "EchoTrainLength": 80,
      "FlipAngle": 77.0,
      "HighBit": 11,
      "ImageOrientationPatient": [0.98743300607823, 0.15778193543716, 0.0089955187186, -0.1523333724635, 0.93509081016949, 0.31999956307854],
      "ImagePositionPatient": [-603.54711061515, -771.00129614831, -305.56257797353],
      "ImageType": [
        "ORIGINAL",
        "PRIMARY",
        "M",
        "ND",
        "NORM",
        "MOSAIC"
],
      "ImagedNucleus": "1H",
      "ImagingFrequency": 123.252367,
      "InPlanePhaseEncodingDirection": "COL",
      "LargestImagePixelValue": 4095,
      "MRAcquisitionType": "2D",
      "MagneticFieldStrength": 3.0,
      "Manufacturer": "SIEMENS",
      "ManufacturerModelName": "Prisma",
      "Modality": "MR",
      "NumberOfAverages": 1.0,
      "NumberOfPhaseEncodingSteps": 80,
      "PercentPhaseFieldOfView": 100.0,
      "PercentSampling": 100.0,
      "PerformedProcedureStepStartTime": "094513.398000",
      "PhotometricInterpretation": "MONOCHROME2",
      "PixelBandwidth": 2315.0,
      "PixelRepresentation": 0,
      "PixelSpacing": [3.0, 3.0],
      "ProtocolName": "func-bold_fa-77",
      "RepetitionTime": 2000.0,
      "Rows": 480,
      "SAR": 0.028256262514,
      "SamplesPerPixel": 1,
      "ScanOptions": "FS",
      "ScanningSequence": "EP",
      "SequenceName": "*epfid2d1_80",
      "SequenceVariant": "SK",
      "SeriesDescription": "func-bold_fa-77",
      "SeriesNumber": 7,
      "SeriesTime": "095429.019000",
      "SliceLocation": -70.202648792685,
      "SliceThickness": 3.5,
      "SmallestImagePixelValue": 0,
      "SoftwareVersions": "syngo MR E11",
      "SpacingBetweenSlices": 3.9899999505181,
      "SpecificCharacterSet": "ISO_IR 100",
      "StudyID": "27",
      "StudyTime": "094513.330000",
      "TransmitCoilName": "Body",
      "VariableFlipAngleFlag": "N",
      "WindowCenterWidthExplanation": "Algo1",
      "dBdt": 0.0},
    "slices": {}
  },
  "time": {
    "samples": {
      "AcquisitionNumber": [1, 2, 3, 4, 5, 6, 7, 8, 9, 10, 11, 12, 13, 14, 15, 16, 17, 18, 19, 20, 21, 22, 23, 24, 25, 26, 27, 28, 29, 30, 31, 32, 33, 34, 35, 36, 37, 38, 39, 40, 41, 42, 43, 44, 45, 46, 47, 48, 49, 50, 51, 52, 53, 54, 55, 56, 57, 58, 59, 60, 61, 62, 63, 64, 65, 66, 67, 68, 69, 70, 71, 72, 73, 74, 75, 76, 77, 78, 79, 80, 81, 82, 83, 84, 85, 86, 87, 88, 89, 90, 91, 92, 93, 94, 95, 96, 97, 98, 99, 100, 101, 102, 103, 104, 105, 106, 107, 108, 109, 110, 111, 112, 113, 114, 115, 116, 117, 118, 119, 120, 121, 122, 123, 124, 125, 126, 127, 128, 129, 130, 131, 132, 133, 134, 135, 136, 137, 138, 139, 140, 141, 142, 143, 144, 145, 146, 147, 148, 149, 150, 151, 152, 153, 154, 155, 156, 157, 158, 159, 160, 161, 162, 163, 164, 165, 166, 167, 168, 169, 170, 171, 172, 173, 174, 175, 176, 177, 178, 179, 180, 181, 182, 183, 184, 185, 186, 187, 188, 189, 190, 191, 192, 193, 194, 195, 196, 197, 198, 199, 200],
      "AcquisitionTime": ["095341.530000", "095343.530000", "095345.530000", "095347.530000", "095349.530000", "095351.530000", "095353.530000", "095355.530000", "095357.530000", "095359.530000", "095401.530000", "095403.530000", "095405.530000", "095407.530000", "095409.530000", "095411.530000", "095413.530000", "095415.530000", "095417.530000", "095419.530000", "095421.530000", "095423.530000", "095425.530000", "095427.530000", "095429.530000", "095431.530000", "095433.530000", "095435.530000", "095437.530000", "095439.530000", "095441.530000", "095443.530000", "095445.530000", "095447.530000", "095449.530000", "095451.530000", "095453.530000", "095455.530000", "095457.530000", "095459.530000", "095501.530000", "095503.530000", "095505.530000", "095507.530000", "095509.530000", "095511.530000", "095513.530000", "095515.530000", "095517.530000", "095519.530000", "095521.530000", "095523.530000", "095525.530000", "095527.530000", "095529.530000", "095531.530000", "095533.530000", "095535.530000", "095537.530000", "095539.530000", "095541.530000", "095543.530000", "095545.530000", "095547.530000", "095549.530000", "095551.530000", "095553.530000", "095555.530000", "095557.530000", "095559.530000", "095601.530000", "095603.530000", "095605.530000", "095607.530000", "095609.530000", "095611.530000", "095613.530000", "095615.530000", "095617.530000", "095619.530000", "095621.530000", "095623.530000", "095625.530000", "095627.530000", "095629.530000", "095631.530000", "095633.530000", "095635.530000", "095637.530000", "095639.530000", "095641.530000", "095643.530000", "095645.530000", "095647.530000", "095649.530000", "095651.530000", "095653.530000", "095655.530000", "095657.530000", "095659.530000", "095701.530000", "095703.530000", "095705.530000", "095707.530000", "095709.530000", "095711.530000", "095713.530000", "095715.530000", "095717.530000", "095719.530000", "095721.530000", "095723.530000", "095725.530000", "095727.530000", "095729.530000", "095731.530000", "095733.530000", "095735.530000", "095737.530000", "095739.530000", "095741.530000", "095743.530000", "095745.530000", "095747.530000", "095749.530000", "095751.530000", "095753.530000", "095755.530000", "095757.530000", "095759.530000", "095801.530000", "095803.530000", "095805.530000", "095807.530000", "095809.530000", "095811.530000", "095813.530000", "095815.530000", "095817.530000", "095819.530000", "095821.530000", "095823.530000", "095825.530000", "095827.530000", "095829.530000", "095831.530000", "095833.530000", "095835.530000", "095837.530000", "095839.530000", "095841.530000", "095843.530000", "095845.530000", "095847.530000", "095849.530000", "095851.530000", "095853.530000", "095855.530000", "095857.530000", "095859.530000", "095901.530000", "095903.530000", "095905.530000", "095907.530000", "095909.530000", "095911.530000", "095913.530000", "095915.530000", "095917.530000", "095919.530000", "095921.530000", "095923.530000", "095925.530000", "095927.530000", "095929.530000", "095931.530000", "095933.530000", "095935.530000", "095937.530000", "095939.530000", "095941.530000", "095943.530000", "095945.530000", "095947.530000", "095949.530000", "095951.530000", "095953.530000", "095955.530000", "095957.530000", "095959.530000", "100001.530000", "100003.530000", "100005.530000", "100007.530000", "100009.530000", "100011.530000", "100013.530000", "100015.530000", "100017.530000", "100019.530000"],
      "ContentTime": ["095429.022000", "095429.026000", "095429.028000", "095429.031000", "095429.033000", "095429.036000", "095429.038000", "095429.041000", "095429.044000", "095429.048000", "095429.051000", "095429.053000", "095429.056000", "095429.059000", "095429.061000", "095429.064000", "095429.066000", "095429.069000", "095429.071000", "095429.074000", "095429.076000", "095429.079000", "095429.082000", "095429.084000", "095509.017000", "095509.020000", "095509.023000", "095509.025000", "095509.028000", "095509.030000", "095509.033000", "095509.036000", "095509.038000", "095509.041000", "095509.043000", "095509.046000", "095509.048000", "095509.051000", "095509.054000", "095509.056000", "095509.059000", "095509.061000", "095509.064000", "095509.066000", "095549.017000", "095549.020000", "095549.023000", "095549.025000", "095549.028000", "095549.030000", "095549.033000", "095549.036000", "095549.038000", "095549.041000", "095549.043000", "095549.046000", "095549.048000", "095549.051000", "095549.054000", "095549.056000", "095549.059000", "095549.061000", "095549.064000", "095549.066000", "095629.016000", "095629.019000", "095629.022000", "095629.024000", "095629.027000", "095629.029000", "095629.032000", "095629.035000", "095629.037000", "095629.040000", "095629.042000", "095629.045000", "095629.047000", "095629.050000", "095629.053000", "095629.055000", "095629.058000", "095629.060000", "095629.063000", "095629.066000", "095709.018000", "095709.020000", "095709.023000", "095709.026000", "095709.028000", "095709.031000", "095709.034000", "095709.036000", "095709.039000", "095709.041000", "095709.044000", "095709.047000", "095709.049000", "095709.052000", "095709.054000", "095709.057000", "095709.059000", "095709.062000", "095709.065000", "095709.067000", "095749.017000", "095749.020000", "095749.023000", "095749.025000", "095749.028000", "095749.031000", "095749.033000", "095749.036000", "095749.038000", "095749.041000", "095749.043000", "095749.046000", "095749.048000", "095749.051000", "095749.054000", "095749.056000", "095749.059000", "095749.061000", "095749.064000", "095749.066000", "095829.017000", "095829.019000", "095829.022000", "095829.025000", "095829.027000", "095829.030000", "095829.033000", "095829.035000", "095829.038000", "095829.040000", "095829.043000", "095829.045000", "095829.048000", "095829.050000", "095829.053000", "095829.056000", "095829.058000", "095829.061000", "095829.063000", "095829.066000", "095909.018000", "095909.021000", "095909.023000", "095909.026000", "095909.029000", "095909.031000", "095909.034000", "095909.037000", "095909.040000", "095909.042000", "095909.045000", "095909.048000", "095909.050000", "095909.053000", "095909.055000", "095909.058000", "095909.061000", "095909.063000", "095909.066000", "095909.069000", "095949.017000", "095949.020000", "095949.023000", "095949.025000", "095949.028000", "095949.030000", "095949.038000", "095949.041000", "095949.043000", "095949.046000", "095949.049000", "095949.051000", "095949.065000", "095949.067000", "095949.070000", "095949.072000", "095949.075000", "095949.077000", "095949.080000", "095949.083000", "100020.885000", "100020.888000", "100020.891000", "100020.893000", "100020.896000", "100020.899000", "100020.901000", "100020.904000", "100020.906000", "100020.909000", "100020.912000", "100020.915000", "100020.918000", "100020.921000", "100020.924000", "100020.927000"],
      "InstanceCreationTime": ["095429.022000", "095429.026000", "095429.028000", "095429.031000", "095429.033000", "095429.036000", "095429.038000", "095429.041000", "095429.044000", "095429.048000", "095429.051000", "095429.053000", "095429.056000", "095429.059000", "095429.061000", "095429.064000", "095429.066000", "095429.069000", "095429.071000", "095429.074000", "095429.076000", "095429.079000", "095429.082000", "095429.084000", "095509.017000", "095509.020000", "095509.023000", "095509.025000", "095509.028000", "095509.030000", "095509.033000", "095509.036000", "095509.038000", "095509.041000", "095509.043000", "095509.046000", "095509.048000", "095509.051000", "095509.054000", "095509.056000", "095509.059000", "095509.061000", "095509.064000", "095509.066000", "095549.017000", "095549.020000", "095549.023000", "095549.025000", "095549.028000", "095549.030000", "095549.033000", "095549.036000", "095549.038000", "095549.041000", "095549.043000", "095549.046000", "095549.048000", "095549.051000", "095549.054000", "095549.056000", "095549.059000", "095549.061000", "095549.064000", "095549.066000", "095629.016000", "095629.019000", "095629.022000", "095629.024000", "095629.027000", "095629.029000", "095629.032000", "095629.035000", "095629.037000", "095629.040000", "095629.042000", "095629.045000", "095629.047000", "095629.050000", "095629.053000", "095629.055000", "095629.058000", "095629.060000", "095629.063000", "095629.066000", "095709.018000", "095709.020000", "095709.023000", "095709.026000", "095709.028000", "095709.031000", "095709.034000", "095709.036000", "095709.039000", "095709.041000", "095709.044000", "095709.047000", "095709.049000", "095709.052000", "095709.054000", "095709.057000", "095709.059000", "095709.062000", "095709.065000", "095709.067000", "095749.017000", "095749.020000", "095749.023000", "095749.025000", "095749.028000", "095749.031000", "095749.033000", "095749.036000", "095749.038000", "095749.041000", "095749.043000", "095749.046000", "095749.048000", "095749.051000", "095749.054000", "095749.056000", "095749.059000", "095749.061000", "095749.064000", "095749.066000", "095829.017000", "095829.019000", "095829.022000", "095829.025000", "095829.027000", "095829.030000", "095829.033000", "095829.035000", "095829.038000", "095829.040000", "095829.043000", "095829.045000", "095829.048000", "095829.050000", "095829.053000", "095829.056000", "095829.058000", "095829.061000", "095829.063000", "095829.066000", "095909.018000", "095909.021000", "095909.023000", "095909.026000", "095909.029000", "095909.031000", "095909.034000", "095909.037000", "095909.040000", "095909.042000", "095909.045000", "095909.048000", "095909.050000", "095909.053000", "095909.055000", "095909.058000", "095909.061000", "095909.063000", "095909.066000", "095909.069000", "095949.017000", "095949.020000", "095949.023000", "095949.025000", "095949.028000", "095949.030000", "095949.038000", "095949.041000", "095949.043000", "095949.046000", "095949.049000", "095949.051000", "095949.065000", "095949.067000", "095949.070000", "095949.072000", "095949.075000", "095949.077000", "095949.080000", "095949.083000", "100020.885000", "100020.888000", "100020.891000", "100020.893000", "100020.896000", "100020.899000", "100020.901000", "100020.904000", "100020.906000", "100020.909000", "100020.912000", "100020.915000", "100020.918000", "100020.921000", "100020.924000", "100020.927000"],
      "InstanceNumber": [1, 2, 3, 4, 5, 6, 7, 8, 9, 10, 11, 12, 13, 14, 15, 16, 17, 18, 19, 20, 21, 22, 23, 24, 25, 26, 27, 28, 29, 30, 31, 32, 33, 34, 35, 36, 37, 38, 39, 40, 41, 42, 43, 44, 45, 46, 47, 48, 49, 50, 51, 52, 53, 54, 55, 56, 57, 58, 59, 60, 61, 62, 63, 64, 65, 66, 67, 68, 69, 70, 71, 72, 73, 74, 75, 76, 77, 78, 79, 80, 81, 82, 83, 84, 85, 86, 87, 88, 89, 90, 91, 92, 93, 94, 95, 96, 97, 98, 99, 100, 101, 102, 103, 104, 105, 106, 107, 108, 109, 110, 111, 112, 113, 114, 115, 116, 117, 118, 119, 120, 121, 122, 123, 124, 125, 126, 127, 128, 129, 130, 131, 132, 133, 134, 135, 136, 137, 138, 139, 140, 141, 142, 143, 144, 145, 146, 147, 148, 149, 150, 151, 152, 153, 154, 155, 156, 157, 158, 159, 160, 161, 162, 163, 164, 165, 166, 167, 168, 169, 170, 171, 172, 173, 174, 175, 176, 177, 178, 179, 180, 181, 182, 183, 184, 185, 186, 187, 188, 189, 190, 191, 192, 193, 194, 195, 196, 197, 198, 199, 200],
      "WindowCenter": [1440.0, 1440.0, 1440.0, 1439.0, 1439.0, 1439.0, 1440.0, 1439.0, 1440.0, 1439.0, 1440.0, 1440.0, 1439.0, 1439.0, 1439.0, 1440.0, 1439.0, 1438.0, 1438.0, 1439.0, 1437.0, 1437.0, 1439.0, 1438.0, 1437.0, 1437.0, 1437.0, 1437.0, 1437.0, 1438.0, 1438.0, 1438.0, 1437.0, 1439.0, 1437.0, 1437.0, 1437.0, 1437.0, 1437.0, 1436.0, 1437.0, 1437.0, 1437.0, 1436.0, 1436.0, 1437.0, 1437.0, 1437.0, 1437.0, 1437.0, 1436.0, 1436.0, 1436.0, 1436.0, 1437.0, 1437.0, 1435.0, 1436.0, 1436.0, 1436.0, 1437.0, 1436.0, 1435.0, 1435.0, 1436.0, 1436.0, 1436.0, 1435.0, 1435.0, 1437.0, 1436.0, 1435.0, 1436.0, 1435.0, 1435.0, 1435.0, 1435.0, 1435.0, 1436.0, 1435.0, 1435.0, 1436.0, 1435.0, 1435.0, 1435.0, 1435.0, 1436.0, 1435.0, 1435.0, 1435.0, 1435.0, 1435.0, 1435.0, 1435.0, 1435.0, 1435.0, 1435.0, 1435.0, 1435.0, 1435.0, 1435.0, 1434.0, 1435.0, 1435.0, 1435.0, 1435.0, 1434.0, 1435.0, 1435.0, 1433.0, 1434.0, 1434.0, 1434.0, 1434.0, 1434.0, 1434.0, 1434.0, 1434.0, 1434.0, 1434.0, 1434.0, 1434.0, 1434.0, 1434.0, 1434.0, 1434.0, 1435.0, 1434.0, 1434.0, 1435.0, 1435.0, 1434.0, 1434.0, 1434.0, 1434.0, 1434.0, 1433.0, 1434.0, 1434.0, 1433.0, 1434.0, 1434.0, 1434.0, 1433.0, 1433.0, 1434.0, 1434.0, 1434.0, 1434.0, 1433.0, 1433.0, 1434.0, 1434.0, 1433.0, 1434.0, 1433.0, 1434.0, 1433.0, 1433.0, 1434.0, 1434.0, 1433.0, 1433.0, 1433.0, 1433.0, 1433.0, 1433.0, 1433.0, 1433.0, 1432.0, 1433.0, 1433.0, 1433.0, 1433.0, 1433.0, 1433.0, 1433.0, 1433.0, 1434.0, 1432.0, 1433.0, 1433.0, 1433.0, 1432.0, 1433.0, 1433.0, 1433.0, 1432.0, 1433.0, 1433.0, 1432.0, 1433.0, 1433.0, 1432.0, 1433.0, 1432.0, 1433.0, 1433.0, 1432.0, 1433.0],
      "WindowWidth": [3408.0, 3408.0, 3407.0, 3407.0, 3408.0, 3408.0, 3407.0, 3408.0, 3409.0, 3408.0, 3408.0, 3408.0, 3408.0, 3408.0, 3408.0, 3407.0, 3407.0, 3406.0, 3407.0, 3406.0, 3405.0, 3405.0, 3406.0, 3407.0, 3405.0, 3405.0, 3405.0, 3405.0, 3407.0, 3407.0, 3408.0, 3407.0, 3405.0, 3406.0, 3405.0, 3405.0, 3405.0, 3405.0, 3405.0, 3405.0, 3405.0, 3405.0, 3405.0, 3405.0, 3405.0, 3405.0, 3405.0, 3405.0, 3405.0, 3405.0, 3405.0, 3405.0, 3405.0, 3405.0, 3405.0, 3405.0, 3405.0, 3405.0, 3405.0, 3405.0, 3405.0, 3405.0, 3405.0, 3405.0, 3405.0, 3405.0, 3405.0, 3405.0, 3405.0, 3405.0, 3405.0, 3405.0, 3404.0, 3405.0, 3405.0, 3405.0, 3405.0, 3405.0, 3404.0, 3405.0, 3405.0, 3404.0, 3405.0, 3405.0, 3405.0, 3405.0, 3404.0, 3405.0, 3404.0, 3404.0, 3404.0, 3404.0, 3404.0, 3404.0, 3404.0, 3404.0, 3404.0, 3404.0, 3404.0, 3404.0, 3404.0, 3404.0, 3404.0, 3404.0, 3404.0, 3404.0, 3404.0, 3404.0, 3404.0, 3404.0, 3403.0, 3403.0, 3403.0, 3403.0, 3403.0, 3403.0, 3403.0, 3403.0, 3403.0, 3403.0, 3403.0, 3403.0, 3403.0, 3403.0, 3403.0, 3403.0, 3403.0, 3403.0, 3403.0, 3403.0, 3403.0, 3403.0, 3403.0, 3403.0, 3403.0, 3403.0, 3403.0, 3403.0, 3403.0, 3404.0, 3403.0, 3403.0, 3403.0, 3404.0, 3403.0, 3403.0, 3403.0, 3403.0, 3403.0, 3403.0, 3403.0, 3403.0, 3403.0, 3403.0, 3403.0, 3403.0, 3402.0, 3403.0, 3403.0, 3403.0, 3403.0, 3402.0, 3403.0, 3403.0, 3403.0, 3403.0, 3402.0, 3402.0, 3402.0, 3403.0, 3402.0, 3402.0, 3402.0, 3402.0, 3402.0, 3402.0, 3402.0, 3402.0, 3402.0, 3402.0, 3402.0, 3402.0, 3402.0, 3402.0, 3402.0, 3402.0, 3402.0, 3402.0, 3402.0, 3402.0, 3402.0, 3402.0, 3402.0, 3402.0, 3402.0, 3402.0, 3402.0, 3402.0, 3402.0, 3402.0]
    },
    "slices": {}
  }
}