{
  "AcquisitionMatrixPE": 80,
  "AcquisitionNumber": 1,
  "AcquisitionTime": "10:00:27.535000",
  "BandwidthPerPixelPhaseEncode": 25,
  "BaseResolution": 80,
  "BodyPartExamined": "BRAIN",
  "CoilCombinationMethod": "Sum of Squares",
  "ConsistencyInfo": "N4_VE11C_LATEST_20160120",
  "ConversionSoftware": "dcm2niix",
  "ConversionSoftwareVersion": "v1.0.20220720",
  "DerivedVendorReportedEchoSpacing": 0.0005,
  "DeviceSerialNumber": "66112",
  "DwellTime": 2.7e-06,
  "EchoTime": 0.03,
  "EchoTrainLength": 80,
  "EffectiveEchoSpacing": 0.0005,
  "FlipAngle": 10,
  "HeudiconvVersion": "0.13.1",
  "ImageOrientationPatientDICOM": [0.987433, 0.157782, 0.00899552, -0.152333, 0.935091, 0.32],
  "ImageOrientationText": "Tra>Cor(18.5)>Sag(-2.4)",
  "ImageType": [
    "ORIGINAL",
    "PRIMARY",
    "M",
    "ND",
    "NORM",
    "MOSAIC"
],
  "ImagingFrequency": 123.252,
  "InPlanePhaseEncodingDirectionDICOM": "COL",
  "InstitutionAddress": "Maynard 3,Hanover,NH,US,03755",
  "InstitutionName": "Dartmouth College - PBS",
  "InstitutionalDepartmentName": "Department",
  "MRAcquisitionType": "2D",
  "MagneticFieldStrength": 3,
  "Manufacturer": "Siemens",
  "ManufacturersModelName": "Prisma",
  "MatrixCoilMode": "SENSE",
  "Modality": "MR",
  "NonlinearGradientCorrection": false,
  "PartialFourier": 1,
  "PatientPosition": "HFS",
  "PercentPhaseFOV": 100,
  "PercentSampling": 100,
  "PhaseEncodingDirection": "j-",
  "PhaseEncodingSteps": 80,
  "PhaseResolution": 1,
  "PixelBandwidth": 2315,
  "ProcedureStepDescription": "dbic^QA",
  "ProtocolName": "func-bold_fa-10",
  "PulseSequenceDetails": "%SiemensSeq%\\ep2d_bold",
  "ReceiveCoilActiveElements": "HC1-7;NC1,2",
  "ReceiveCoilName": "HeadNeck_64",
  "ReconMatrixPE": 80,
  "RepetitionTime": 2,
  "SAR": 0.00757972,
  "ScanOptions": "FS",
  "ScanningSequence": "EP",
  "SequenceName": "*epfid2d1_80",
  "SequenceVariant": "SK",
  "SeriesDescription": "func-bold_fa-10",
  "SeriesNumber": 9,
  "ShimSetting": [4142, -7682, -7508, 337, -116, -452, -196, 152],
  "SliceThickness": 3.5,
  "SliceTiming": [0.99, 0, 1.055, 0.065, 1.1225, 0.1325, 1.1875, 0.1975, 1.2525, 0.2625, 1.32, 0.33, 1.385, 0.395, 1.4525, 0.4625, 1.5175, 0.5275, 1.5825, 0.5925, 1.65, 0.66, 1.715, 0.725, 1.7825, 0.7925, 1.8475, 0.8575, 1.9125, 0.9225],
  "SoftwareVersions": "syngo MR E11",
  "SpacingBetweenSlices": 3.99,
  "StationName": "AWP66112",
  "TotalReadoutTime": 0.0395,
  "TxRefAmp": 211.727,
  "dcmmeta_affine": [
    [-2.962299108505249, -0.45700010657310486, -0.16789330542087555, 138.59034729003906],
    [-0.4733458161354065, 2.805272340774536, 1.2662203311920166, -106.33887481689453],
    [0.026986556127667427, -0.9599986672401428, 3.7800261974334717, -32.32563400268555],
    [0.0, 0.0, 0.0, 1.0]
],
  "dcmmeta_reorient_transform": [
    [0.0, -1.0, 0.0, 79.0],
    [1.0, 0.0, 0.0, 0.0],
    [0.0, 0.0, 1.0, 0.0],
    [0.0, 0.0, 0.0, 1.0]
],
  "dcmmeta_shape": [80, 80, 30, 200],
  "dcmmeta_slice_dim": 2,
  "dcmmeta_version": 0.6,
  "global": {
    "const": {
      "AccessionNumber": "qa64",
      "AcquisitionMatrix": [80, 0, 0, 80],
      "AngioFlag": "N",
      "BitsAllocated": 16,
      "BitsStored": 12,
      "BodyPartExamined": "BRAIN",
      "Columns": 480,
      "EchoNumbers": 1,
      "EchoTime": 30.0,
      "EchoTrainLength": 80,
      "FlipAngle": 10.0,
      "HighBit": 11,
      "ImageOrientationPatient": [0.98743300607823, 0.15778193543716, 0.0089955187186, -0.1523333724635, 0.93509081016949, 0.31999956307854],
      "ImagePositionPatient": [-603.54711061515, -771.00129614831, -305.56257797353],
      "ImageType": [
        "ORIGINAL",
        "PRIMARY",
        "M",
        "ND",
        "NORM",
        "MOSAIC"
],
      "ImagedNucleus": "1H",
      "ImagingFrequency": 123.252367,
      "InPlanePhaseEncodingDirection": "COL",
      "MRAcquisitionType": "2D",
      "MagneticFieldStrength": 3.0,
      "Manufacturer": "SIEMENS",
      "ManufacturerModelName": "Prisma",
      "Modality": "MR",
      "NumberOfAverages": 1.0,
      "NumberOfPhaseEncodingSteps": 80,
      "PercentPhaseFieldOfView": 100.0,
      "PercentSampling": 100.0,
      "PerformedProcedureStepStartTime": "094513.398000",
      "PhotometricInterpretation": "MONOCHROME2",
      "PixelBandwidth": 2315.0,
      "PixelRepresentation": 0,
      "PixelSpacing": [3.0, 3.0],
      "ProtocolName": "func-bold_fa-10",
      "RepetitionTime": 2000.0,
      "Rows": 480,
      "SAR": 0.00757971772129,
      "SamplesPerPixel": 1,
      "ScanOptions": "FS",
      "ScanningSequence": "EP",
      "SequenceName": "*epfid2d1_80",
      "SequenceVariant": "SK",
      "SeriesDescription": "func-bold_fa-10",
      "SeriesNumber": 9,
      "SeriesTime": "100109.088000",
      "SliceLocation": -70.202648792685,
      "SliceThickness": 3.5,
      "SmallestImagePixelValue": 0,
      "SoftwareVersions": "syngo MR E11",
      "SpacingBetweenSlices": 3.9899999505181,
      "SpecificCharacterSet": "ISO_IR 100",
      "StudyID": "27",
      "StudyTime": "094513.330000",
      "TransmitCoilName": "Body",
      "VariableFlipAngleFlag": "N",
      "WindowCenterWidthExplanation": "Algo1",
      "dBdt": 0.0},
    "slices": {}
  },
  "time": {
    "samples": {
      "AcquisitionNumber": [1, 2, 3, 4, 5, 6, 7, 8, 9, 10, 11, 12, 13, 14, 15, 16, 17, 18, 19, 20, 21, 22, 23, 24, 25, 26, 27, 28, 29, 30, 31, 32, 33, 34, 35, 36, 37, 38, 39, 40, 41, 42, 43, 44, 45, 46, 47, 48, 49, 50, 51, 52, 53, 54, 55, 56, 57, 58, 59, 60, 61, 62, 63, 64, 65, 66, 67, 68, 69, 70, 71, 72, 73, 74, 75, 76, 77, 78, 79, 80, 81, 82, 83, 84, 85, 86, 87, 88, 89, 90, 91, 92, 93, 94, 95, 96, 97, 98, 99, 100, 101, 102, 103, 104, 105, 106, 107, 108, 109, 110, 111, 112, 113, 114, 115, 116, 117, 118, 119, 120, 121, 122, 123, 124, 125, 126, 127, 128, 129, 130, 131, 132, 133, 134, 135, 136, 137, 138, 139, 140, 141, 142, 143, 144, 145, 146, 147, 148, 149, 150, 151, 152, 153, 154, 155, 156, 157, 158, 159, 160, 161, 162, 163, 164, 165, 166, 167, 168, 169, 170, 171, 172, 173, 174, 175, 176, 177, 178, 179, 180, 181, 182, 183, 184, 185, 186, 187, 188, 189, 190, 191, 192, 193, 194, 195, 196, 197, 198, 199, 200],
      "AcquisitionTime": ["100027.535000", "100029.535000", "100031.535000", "100033.535000", "100035.535000", "100037.535000", "100039.535000", "100041.535000", "100043.535000", "100045.535000", "100047.535000", "100049.535000", "100051.535000", "100053.535000", "100055.535000", "100057.535000", "100059.535000", "100101.535000", "100103.535000", "100105.535000", "100107.535000", "100109.535000", "100111.535000", "100113.535000", "100115.535000", "100117.535000", "100119.535000", "100121.535000", "100123.535000", "100125.535000", "100127.535000", "100129.535000", "100131.535000", "100133.535000", "100135.535000", "100137.535000", "100139.535000", "100141.535000", "100143.535000", "100145.535000", "100147.535000", "100149.535000", "100151.535000", "100153.535000", "100155.535000", "100157.535000", "100159.535000", "100201.535000", "100203.535000", "100205.535000", "100207.535000", "100209.535000", "100211.535000", "100213.535000", "100215.535000", "100217.535000", "100219.535000", "100221.535000", "100223.535000", "100225.535000", "100227.535000", "100229.535000", "100231.535000", "100233.535000", "100235.535000", "100237.535000", "100239.535000", "100241.535000", "100243.535000", "100245.535000", "100247.535000", "100249.535000", "100251.535000", "100253.535000", "100255.535000", "100257.535000", "100259.535000", "100301.535000", "100303.535000", "100305.535000", "100307.535000", "100309.535000", "100311.535000", "100313.535000", "100315.535000", "100317.535000", "100319.535000", "100321.535000", "100323.535000", "100325.535000", "100327.535000", "100329.535000", "100331.535000", "100333.535000", "100335.535000", "100337.535000", "100339.535000", "100341.535000", "100343.535000", "100345.535000", "100347.535000", "100349.535000", "100351.535000", "100353.535000", "100355.535000", "100357.535000", "100359.535000", "100401.535000", "100403.535000", "100405.535000", "100407.535000", "100409.535000", "100411.535000", "100413.535000", "100415.535000", "100417.535000", "100419.535000", "100421.535000", "100423.535000", "100425.535000", "100427.535000", "100429.535000", "100431.535000", "100433.535000", "100435.535000", "100437.535000", "100439.535000", "100441.535000", "100443.535000", "100445.535000", "100447.535000", "100449.535000", "100451.535000", "100453.535000", "100455.535000", "100457.535000", "100459.535000", "100501.535000", "100503.535000", "100505.535000", "100507.535000", "100509.535000", "100511.535000", "100513.535000", "100515.535000", "100517.535000", "100519.535000", "100521.535000", "100523.535000", "100525.535000", "100527.535000", "100529.535000", "100531.535000", "100533.535000", "100535.535000", "100537.535000", "100539.535000", "100541.535000", "100543.535000", "100545.535000", "100547.535000", "100549.535000", "100551.535000", "100553.535000", "100555.535000", "100557.535000", "100559.535000", "100601.535000", "100603.535000", "100605.535000", "100607.535000", "100609.535000", "100611.535000", "100613.535000", "100615.535000", "100617.535000", "100619.535000", "100621.535000", "100623.535000", "100625.535000", "100627.535000", "100629.535000", "100631.535000", "100633.535000", "100635.535000", "100637.535000", "100639.535000", "100641.535000", "100643.535000", "100645.535000", "100647.535000", "100649.535000", "100651.535000", "100653.535000", "100655.535000", "100657.535000", "100659.535000", "100701.535000", "100703.535000", "100705.535000"],
      "ContentTime": ["100109.091000", "100109.095000", "100109.098000", "100109.100000", "100109.103000", "100109.105000", "100109.108000", "100109.118000", "100109.121000", "100109.123000", "100109.126000", "100109.128000", "100109.131000", "100109.134000", "100109.136000", "100109.139000", "100109.141000", "100109.144000", "100109.146000", "100109.149000", "100149.087000", "100149.090000", "100149.093000", "100149.144000", "100149.147000", "100149.150000", "100149.152000", "100149.155000", "100149.157000", "100149.160000", "100149.162000", "100149.165000", "100149.167000", "100149.170000", "100149.172000", "100149.175000", "100149.178000", "100149.180000", "100149.183000", "100149.185000", "100229.087000", "100229.090000", "100229.093000", "100229.096000", "100229.098000", "100229.101000", "100229.103000", "100229.106000", "100229.108000", "100229.111000", "100229.113000", "100229.116000", "100229.119000", "100229.121000", "100229.124000", "100229.126000", "100229.129000", "100229.131000", "100229.134000", "100229.136000", "100309.087000", "100309.089000", "100309.092000", "100309.095000", "100309.097000", "100309.100000", "100309.102000", "100309.105000", "100309.107000", "100309.110000", "100309.112000", "100309.115000", "100309.117000", "100309.120000", "100309.122000", "100309.125000", "100309.128000", "100309.130000", "100309.133000", "100309.135000", "100349.087000", "100349.090000", "100349.093000", "100349.096000", "100349.098000", "100349.101000", "100349.103000", "100349.106000", "100349.108000", "100349.111000", "100349.113000", "100349.116000", "100349.118000", "100349.121000", "100349.123000", "100349.126000", "100349.129000", "100349.131000", "100349.134000", "100349.136000", "100429.087000", "100429.090000", "100429.093000", "100429.096000", "100429.098000", "100429.101000", "100429.103000", "100429.106000", "100429.108000", "100429.111000", "100429.113000", "100429.116000", "100429.119000", "100429.121000", "100429.124000", "100429.126000", "100429.129000", "100429.131000", "100429.134000", "100429.137000", "100509.087000", "100509.090000", "100509.093000", "100509.096000", "100509.098000", "100509.101000", "100509.112000", "100509.115000", "100509.117000", "100509.120000", "100509.122000", "100509.125000", "100509.127000", "100509.130000", "100509.132000", "100509.135000", "100509.138000", "100509.140000", "100509.143000", "100509.145000", "100549.086000", "100549.089000", "100549.092000", "100549.095000", "100549.097000", "100549.100000", "100549.102000", "100549.105000", "100549.107000", "100549.110000", "100549.112000", "100549.115000", "100549.117000", "100549.120000", "100549.122000", "100549.125000", "100549.128000", "100549.130000", "100549.133000", "100549.135000", "100629.087000", "100629.090000", "100629.093000", "100629.096000", "100629.098000", "100629.101000", "100629.103000", "100629.106000", "100629.108000", "100629.111000", "100629.113000", "100629.116000", "100629.119000", "100629.121000", "100629.124000", "100629.126000", "100629.129000", "100629.131000", "100629.134000", "100629.136000", "100707.507000", "100707.510000", "100707.512000", "100707.515000", "100707.517000", "100707.520000", "100707.523000", "100707.525000", "100707.528000", "100707.530000", "100707.533000", "100707.536000", "100707.539000", "100707.543000", "100707.548000", "100707.552000", "100707.557000", "100707.560000", "100707.563000", "100707.566000"],
      "InstanceCreationTime": ["100109.091000", "100109.095000", "100109.098000", "100109.100000", "100109.103000", "100109.105000", "100109.108000", "100109.118000", "100109.121000", "100109.123000", "100109.126000", "100109.128000", "100109.131000", "100109.134000", "100109.136000", "100109.139000", "100109.141000", "100109.144000", "100109.146000", "100109.149000", "100149.087000", "100149.090000", "100149.093000", "100149.144000", "100149.147000", "100149.150000", "100149.152000", "100149.155000", "100149.157000", "100149.160000", "100149.162000", "100149.165000", "100149.167000", "100149.170000", "100149.172000", "100149.175000", "100149.178000", "100149.180000", "100149.183000", "100149.185000", "100229.087000", "100229.090000", "100229.093000", "100229.096000", "100229.098000", "100229.101000", "100229.103000", "100229.106000", "100229.108000", "100229.111000", "100229.113000", "100229.116000", "100229.119000", "100229.121000", "100229.124000", "100229.126000", "100229.129000", "100229.131000", "100229.134000", "100229.136000", "100309.087000", "100309.089000", "100309.092000", "100309.095000", "100309.097000", "100309.100000", "100309.102000", "100309.105000", "100309.107000", "100309.110000", "100309.112000", "100309.115000", "100309.117000", "100309.120000", "100309.122000", "100309.125000", "100309.128000", "100309.130000", "100309.133000", "100309.135000", "100349.087000", "100349.090000", "100349.093000", "100349.096000", "100349.098000", "100349.101000", "100349.103000", "100349.106000", "100349.108000", "100349.111000", "100349.113000", "100349.116000", "100349.118000", "100349.121000", "100349.123000", "100349.126000", "100349.129000", "100349.131000", "100349.134000", "100349.136000", "100429.087000", "100429.090000", "100429.093000", "100429.096000", "100429.098000", "100429.101000", "100429.103000", "100429.106000", "100429.108000", "100429.111000", "100429.113000", "100429.116000", "100429.119000", "100429.121000", "100429.124000", "100429.126000", "100429.129000", "100429.131000", "100429.134000", "100429.137000", "100509.087000", "100509.090000", "100509.093000", "100509.096000", "100509.098000", "100509.101000", "100509.112000", "100509.115000", "100509.117000", "100509.120000", "100509.122000", "100509.125000", "100509.127000", "100509.130000", "100509.132000", "100509.135000", "100509.138000", "100509.140000", "100509.143000", "100509.145000", "100549.086000", "100549.089000", "100549.092000", "100549.095000", "100549.097000", "100549.100000", "100549.102000", "100549.105000", "100549.107000", "100549.110000", "100549.112000", "100549.115000", "100549.117000", "100549.120000", "100549.122000", "100549.125000", "100549.128000", "100549.130000", "100549.133000", "100549.135000", "100629.087000", "100629.090000", "100629.093000", "100629.096000", "100629.098000", "100629.101000", "100629.103000", "100629.106000", "100629.108000", "100629.111000", "100629.113000", "100629.116000", "100629.119000", "100629.121000", "100629.124000", "100629.126000", "100629.129000", "100629.131000", "100629.134000", "100629.136000", "100707.507000", "100707.510000", "100707.512000", "100707.515000", "100707.517000", "100707.520000", "100707.523000", "100707.525000", "100707.528000", "100707.530000", "100707.533000", "100707.536000", "100707.539000", "100707.543000", "100707.548000", "100707.552000", "100707.557000", "100707.560000", "100707.563000", "100707.566000"],
      "InstanceNumber": [1, 2, 3, 4, 5, 6, 7, 8, 9, 10, 11, 12, 13, 14, 15, 16, 17, 18, 19, 20, 21, 22, 23, 24, 25, 26, 27, 28, 29, 30, 31, 32, 33, 34, 35, 36, 37, 38, 39, 40, 41, 42, 43, 44, 45, 46, 47, 48, 49, 50, 51, 52, 53, 54, 55, 56, 57, 58, 59, 60, 61, 62, 63, 64, 65, 66, 67, 68, 69, 70, 71, 72, 73, 74, 75, 76, 77, 78, 79, 80, 81, 82, 83, 84, 85, 86, 87, 88, 89, 90, 91, 92, 93, 94, 95, 96, 97, 98, 99, 100, 101, 102, 103, 104, 105, 106, 107, 108, 109, 110, 111, 112, 113, 114, 115, 116, 117, 118, 119, 120, 121, 122, 123, 124, 125, 126, 127, 128, 129, 130, 131, 132, 133, 134, 135, 136, 137, 138, 139, 140, 141, 142, 143, 144, 145, 146, 147, 148, 149, 150, 151, 152, 153, 154, 155, 156, 157, 158, 159, 160, 161, 162, 163, 164, 165, 166, 167, 168, 169, 170, 171, 172, 173, 174, 175, 176, 177, 178, 179, 180, 181, 182, 183, 184, 185, 186, 187, 188, 189, 190, 191, 192, 193, 194, 195, 196, 197, 198, 199, 200],
      "LargestImagePixelValue": [738, 735, 736, 737, 737, 735, 733, 735, 739, 734, 735, 737, 735, 733, 734, 732, 735, 737, 735, 735, 734, 734, 733, 732, 732, 734, 736, 731, 733, 731, 734, 733, 732, 731, 733, 731, 731, 736, 732, 731, 731, 733, 730, 730, 731, 733, 733, 732, 732, 727, 731, 739, 733, 732, 739, 736, 740, 736, 732, 732, 728, 733, 731, 730, 729, 731, 730, 735, 728, 733, 733, 734, 732, 732, 735, 732, 733, 730, 733, 729, 734, 731, 730, 734, 731, 734, 730, 731, 732, 733, 733, 731, 730, 734, 730, 735, 729, 733, 732, 728, 732, 730, 727, 730, 727, 732, 732, 727, 728, 729, 727, 732, 730, 726, 727, 730, 730, 728, 730, 729, 730, 730, 727, 730, 727, 729, 727, 729, 729, 729, 725, 729, 730, 729, 728, 724, 730, 731, 732, 732, 734, 730, 736, 729, 729, 729, 726, 728, 730, 736, 727, 729, 728, 726, 727, 730, 727, 729, 728, 726, 726, 729, 729, 729, 726, 731, 729, 728, 725, 727, 728, 729, 730, 730, 732, 729, 728, 731, 731, 729, 736, 727, 731, 729, 729, 730, 730, 730, 731, 729, 728, 730, 731, 728, 730, 729, 728, 729, 729, 728],
      "WindowCenter": [473.0, 473.0, 473.0, 473.0, 473.0, 473.0, 473.0, 472.0, 472.0, 472.0, 472.0, 472.0, 472.0, 472.0, 472.0, 472.0, 472.0, 472.0, 472.0, 472.0, 472.0, 472.0, 472.0, 472.0, 471.0, 472.0, 472.0, 472.0, 472.0, 472.0, 472.0, 472.0, 472.0, 472.0, 472.0, 472.0, 472.0, 472.0, 472.0, 471.0, 472.0, 472.0, 471.0, 471.0, 472.0, 472.0, 471.0, 471.0, 472.0, 471.0, 471.0, 472.0, 471.0, 471.0, 471.0, 471.0, 472.0, 472.0, 471.0, 471.0, 471.0, 471.0, 471.0, 471.0, 471.0, 471.0, 472.0, 471.0, 470.0, 471.0, 471.0, 471.0, 471.0, 472.0, 471.0, 471.0, 472.0, 471.0, 471.0, 470.0, 471.0, 471.0, 471.0, 471.0, 471.0, 471.0, 472.0, 470.0, 471.0, 471.0, 471.0, 471.0, 471.0, 470.0, 471.0, 472.0, 470.0, 471.0, 471.0, 470.0, 471.0, 471.0, 470.0, 471.0, 470.0, 470.0, 470.0, 470.0, 470.0, 470.0, 470.0, 471.0, 470.0, 470.0, 470.0, 471.0, 470.0, 470.0, 471.0, 469.0, 471.0, 471.0, 470.0, 471.0, 470.0, 470.0, 470.0, 470.0, 470.0, 470.0, 470.0, 470.0, 470.0, 470.0, 470.0, 470.0, 470.0, 470.0, 470.0, 471.0, 471.0, 472.0, 471.0, 469.0, 470.0, 470.0, 470.0, 470.0, 470.0, 470.0, 469.0, 470.0, 469.0, 470.0, 470.0, 470.0, 471.0, 469.0, 469.0, 470.0, 470.0, 469.0, 469.0, 469.0, 470.0, 470.0, 469.0, 470.0, 469.0, 469.0, 469.0, 469.0, 470.0, 470.0, 470.0, 469.0, 470.0, 470.0, 470.0, 469.0, 471.0, 469.0, 471.0, 469.0, 469.0, 470.0, 470.0, 470.0, 470.0, 469.0, 469.0, 470.0, 470.0, 470.0, 470.0, 469.0, 469.0, 469.0, 469.0, 469.0],
      "WindowWidth": [980.0, 980.0, 980.0, 980.0, 980.0, 980.0, 980.0, 980.0, 979.0, 979.0, 979.0, 979.0, 979.0, 979.0, 979.0, 978.0, 978.0, 978.0, 978.0, 978.0, 978.0, 978.0, 978.0, 978.0, 978.0, 978.0, 978.0, 978.0, 978.0, 978.0, 978.0, 978.0, 978.0, 978.0, 978.0, 978.0, 978.0, 978.0, 978.0, 977.0, 978.0, 978.0, 977.0, 977.0, 978.0, 978.0, 977.0, 977.0, 978.0, 976.0, 977.0, 980.0, 977.0, 977.0, 977.0, 977.0, 978.0, 978.0, 977.0, 977.0, 977.0, 977.0, 977.0, 977.0, 977.0, 977.0, 978.0, 977.0, 975.0, 977.0, 977.0, 977.0, 977.0, 978.0, 977.0, 977.0, 978.0, 977.0, 977.0, 975.0, 977.0, 977.0, 977.0, 977.0, 977.0, 977.0, 978.0, 976.0, 977.0, 977.0, 977.0, 977.0, 977.0, 976.0, 976.0, 978.0, 975.0, 976.0, 976.0, 975.0, 976.0, 977.0, 975.0, 976.0, 975.0, 976.0, 976.0, 975.0, 975.0, 975.0, 975.0, 976.0, 976.0, 975.0, 975.0, 976.0, 976.0, 975.0, 976.0, 974.0, 976.0, 976.0, 975.0, 976.0, 975.0, 975.0, 975.0, 975.0, 975.0, 975.0, 975.0, 975.0, 976.0, 975.0, 975.0, 975.0, 975.0, 975.0, 976.0, 977.0, 976.0, 978.0, 977.0, 974.0, 975.0, 975.0, 975.0, 975.0, 975.0, 976.0, 974.0, 975.0, 974.0, 975.0, 975.0, 975.0, 976.0, 974.0, 974.0, 975.0, 975.0, 974.0, 974.0, 974.0, 975.0, 975.0, 974.0, 975.0, 974.0, 974.0, 974.0, 974.0, 975.0, 975.0, 975.0, 974.0, 975.0, 975.0, 975.0, 974.0, 976.0, 974.0, 976.0, 974.0, 974.0, 975.0, 975.0, 975.0, 975.0, 974.0, 974.0, 975.0, 975.0, 975.0, 975.0, 974.0, 974.0, 974.0, 974.0, 974.0]
    },
    "slices": {}
  }
}