{
  "AcquisitionMatrixPE": 80,
  "AcquisitionNumber": 1,
  "AcquisitionTime": "11:52:9.152500",
  "BandwidthPerPixelPhaseEncode": 44.643,
  "BaseResolution": 80,
  "BodyPartExamined": "BRAIN",
  "CoilCombinationMethod": "Sum of Squares",
  "ConsistencyInfo": "N4_VE11C_LATEST_20160120",
  "ConversionSoftware": "dcm2niix",
  "ConversionSoftwareVersion": "v1.0.20220720",
  "DerivedVendorReportedEchoSpacing": 0.000559998,
  "DeviceSerialNumber": "66112",
  "DwellTime": 2.7e-06,
  "EchoTime": 0.035,
  "EchoTrainLength": 39,
  "EffectiveEchoSpacing": 0.000279999,
  "FlipAngle": 90,
  "HeudiconvVersion": "0.13.1",
  "ImageOrientationPatientDICOM": [0.981016, 0.193754, 0.00816615, -0.186961, 0.933764, 0.305172],
  "ImageOrientationText": "Tra>Cor(17.5)>Sag(-3.0)",
  "ImageType": [
    "ORIGINAL",
    "PRIMARY",
    "M",
    "ND",
    "NORM",
    "MOSAIC"
],
  "ImagingFrequency": 123.252,
  "InPlanePhaseEncodingDirectionDICOM": "COL",
  "InstitutionAddress": "Maynard 3,Hanover,NH,US,03755",
  "InstitutionName": "Dartmouth College - PBS",
  "InstitutionalDepartmentName": "Department",
  "MRAcquisitionType": "2D",
  "MagneticFieldStrength": 3,
  "Manufacturer": "Siemens",
  "ManufacturersModelName": "Prisma",
  "Modality": "MR",
  "MultibandAccelerationFactor": 4,
  "NonlinearGradientCorrection": false,
  "ParallelReductionFactorInPlane": 2,
  "PartialFourier": 1,
  "PatientPosition": "HFS",
  "PercentPhaseFOV": 100,
  "PercentSampling": 100,
  "PhaseEncodingDirection": "j-",
  "PhaseEncodingSteps": 79,
  "PhaseResolution": 1,
  "PixelBandwidth": 2315,
  "ProcedureStepDescription": "dbic^QA",
  "ProtocolName": "func-bold_task-rest_acq-p2-s4-3.5mm",
  "PulseSequenceDetails": "%SiemensSeq%\\ep2d_bold",
  "ReceiveCoilActiveElements": "HEA;HEP",
  "ReceiveCoilName": "Head_32",
  "ReconMatrixPE": 80,
  "RefLinesPE": 24,
  "RepetitionTime": 2,
  "SAR": 0.0208895,
  "ScanOptions": "FS",
  "ScanningSequence": "EP",
  "SequenceName": "*epfid2d1_80",
  "SequenceVariant": "SK",
  "SeriesDescription": "func-bold_task-rest_acq-p2-s4-3.5mm",
  "SeriesNumber": 7,
  "ShimSetting": [4144, -7687, -7508, 285, -56, -67, -66, 63],
  "SliceThickness": 3.5,
  "SliceTiming": [1.485, 0, 0.99, 0.2475, 1.2375, 0.7425, 1.7325, 0.495, 1.485, 0, 0.99, 0.2475, 1.2375, 0.7425, 1.7325, 0.495, 1.485, 0, 0.99, 0.2475, 1.2375, 0.7425, 1.7325, 0.495, 1.485, 0, 0.99, 0.2475, 1.2375, 0.7425, 1.7325, 0.495],
  "SoftwareVersions": "syngo MR E11",
  "SpacingBetweenSlices": 3.99,
  "StationName": "AWP66112",
  "TaskName": "rest",
  "TotalReadoutTime": 0.0221199,
  "TxRefAmp": 222.905,
  "dcmmeta_affine": [
    [-2.9430487155914307, -0.5608842968940735, -0.20549684762954712, 145.8366241455078],
    [-0.5812607407569885, 2.8012921810150146, 1.2006139755249023, -95.77511596679688],
    [0.024498453363776207, -0.9155169725418091, 3.7995259761810303, -29.546466827392578],
    [0.0, 0.0, 0.0, 1.0]
],
  "dcmmeta_reorient_transform": [
    [0.0, -1.0, 0.0, 79.0],
    [1.0, 0.0, 0.0, 0.0],
    [0.0, 0.0, 1.0, 0.0],
    [0.0, 0.0, 0.0, 1.0]
],
  "dcmmeta_shape": [80, 80, 32, 200],
  "dcmmeta_slice_dim": 2,
  "dcmmeta_version": 0.6,
  "global": {
    "const": {
      "AccessionNumber": "qa",
      "AcquisitionMatrix": [80, 0, 0, 80],
      "AngioFlag": "N",
      "BitsAllocated": 16,
      "BitsStored": 12,
      "BodyPartExamined": "BRAIN",
      "Columns": 480,
      "EchoNumbers": 1,
      "EchoTime": 35.0,
      "EchoTrainLength": 39,
      "FlipAngle": 90.0,
      "HighBit": 11,
      "ImageOrientationPatient": [0.98101624078679, 0.19375357877377, 0.0081661511686, -0.1869614381895, 0.93376403748814, 0.30517231677193],
      "ImagePositionPatient": [-577.95964265395, -802.0375334095, -289.87538728584],
      "ImageType": [
        "ORIGINAL",
        "PRIMARY",
        "M",
        "ND",
        "NORM",
        "MOSAIC"
],
      "ImagedNucleus": "1H",
      "ImagingFrequency": 123.252362,
      "InPlanePhaseEncodingDirection": "COL",
      "MRAcquisitionType": "2D",
      "MagneticFieldStrength": 3.0,
      "Manufacturer": "SIEMENS",
      "ManufacturerModelName": "Prisma",
      "Modality": "MR",
      "NumberOfAverages": 1.0,
      "NumberOfPhaseEncodingSteps": 79,
      "PercentPhaseFieldOfView": 100.0,
      "PercentSampling": 100.0,
      "PerformedProcedureStepStartTime": "114150.276000",
      "PhotometricInterpretation": "MONOCHROME2",
      "PixelBandwidth": 2315.0,
      "PixelRepresentation": 0,
      "PixelSpacing": [3.0, 3.0],
      "ProtocolName": "func-bold_task-rest_acq-p2-s4-3.5mm",
      "RepetitionTime": 2000.0,
      "Rows": 480,
      "SAR": 0.02088948770972,
      "SamplesPerPixel": 1,
      "ScanOptions": "FS",
      "ScanningSequence": "EP",
      "SequenceName": "*epfid2d1_80",
      "SequenceVariant": "SK",
      "SeriesDescription": "func-bold_task-rest_acq-p2-s4-3.5mm",
      "SeriesNumber": 7,
      "SeriesTime": "115304.046000",
      "SliceLocation": -64.466284025151,
      "SliceThickness": 3.5,
      "SmallestImagePixelValue": 0,
      "SoftwareVersions": "syngo MR E11",
      "SpacingBetweenSlices": 3.9900000286125,
      "SpecificCharacterSet": "ISO_IR 100",
      "StudyID": "33",
      "StudyTime": "114150.217000",
      "TransmitCoilName": "Body",
      "VariableFlipAngleFlag": "N",
      "WindowCenter": 893.0,
      "WindowCenterWidthExplanation": "Algo1",
      "dBdt": 0.0},
    "slices": {}
  },
  "time": {
    "samples": {
      "AcquisitionNumber": [1, 2, 3, 4, 5, 6, 7, 8, 9, 10, 11, 12, 13, 14, 15, 16, 17, 18, 19, 20, 21, 22, 23, 24, 25, 26, 27, 28, 29, 30, 31, 32, 33, 34, 35, 36, 37, 38, 39, 40, 41, 42, 43, 44, 45, 46, 47, 48, 49, 50, 51, 52, 53, 54, 55, 56, 57, 58, 59, 60, 61, 62, 63, 64, 65, 66, 67, 68, 69, 70, 71, 72, 73, 74, 75, 76, 77, 78, 79, 80, 81, 82, 83, 84, 85, 86, 87, 88, 89, 90, 91, 92, 93, 94, 95, 96, 97, 98, 99, 100, 101, 102, 103, 104, 105, 106, 107, 108, 109, 110, 111, 112, 113, 114, 115, 116, 117, 118, 119, 120, 121, 122, 123, 124, 125, 126, 127, 128, 129, 130, 131, 132, 133, 134, 135, 136, 137, 138, 139, 140, 141, 142, 143, 144, 145, 146, 147, 148, 149, 150, 151, 152, 153, 154, 155, 156, 157, 158, 159, 160, 161, 162, 163, 164, 165, 166, 167, 168, 169, 170, 171, 172, 173, 174, 175, 176, 177, 178, 179, 180, 181, 182, 183, 184, 185, 186, 187, 188, 189, 190, 191, 192, 193, 194, 195, 196, 197, 198, 199, 200],
      "AcquisitionTime": ["115209.152500", "115211.152500", "115213.152500", "115215.152500", "115217.152500", "115219.152500", "115221.152500", "115223.152500", "115225.152500", "115227.152500", "115229.152500", "115231.152500", "115233.152500", "115235.152500", "115237.152500", "115239.152500", "115241.152500", "115243.152500", "115245.152500", "115247.152500", "115249.152500", "115251.152500", "115253.152500", "115255.152500", "115257.152500", "115259.152500", "115301.152500", "115303.152500", "115305.152500", "115307.152500", "115309.152500", "115311.152500", "115313.152500", "115315.152500", "115317.152500", "115319.152500", "115321.152500", "115323.152500", "115325.152500", "115327.152500", "115329.152500", "115331.152500", "115333.152500", "115335.152500", "115337.152500", "115339.152500", "115341.152500", "115343.152500", "115345.152500", "115347.152500", "115349.152500", "115351.152500", "115353.152500", "115355.152500", "115357.152500", "115359.152500", "115401.152500", "115403.152500", "115405.152500", "115407.152500", "115409.152500", "115411.152500", "115413.152500", "115415.152500", "115417.152500", "115419.152500", "115421.152500", "115423.152500", "115425.152500", "115427.152500", "115429.152500", "115431.152500", "115433.152500", "115435.152500", "115437.152500", "115439.152500", "115441.152500", "115443.152500", "115445.152500", "115447.152500", "115449.152500", "115451.152500", "115453.152500", "115455.152500", "115457.152500", "115459.152500", "115501.152500", "115503.152500", "115505.152500", "115507.152500", "115509.152500", "115511.152500", "115513.152500", "115515.152500", "115517.152500", "115519.152500", "115521.152500", "115523.152500", "115525.152500", "115527.152500", "115529.152500", "115531.152500", "115533.152500", "115535.152500", "115537.152500", "115539.152500", "115541.152500", "115543.152500", "115545.152500", "115547.152500", "115549.152500", "115551.152500", "115553.152500", "115555.152500", "115557.152500", "115559.152500", "115601.152500", "115603.152500", "115605.152500", "115607.152500", "115609.152500", "115611.152500", "115613.152500", "115615.152500", "115617.152500", "115619.152500", "115621.152500", "115623.152500", "115625.152500", "115627.152500", "115629.152500", "115631.152500", "115633.152500", "115635.152500", "115637.152500", "115639.152500", "115641.152500", "115643.152500", "115645.152500", "115647.152500", "115649.152500", "115651.152500", "115653.152500", "115655.152500", "115657.152500", "115659.152500", "115701.152500", "115703.152500", "115705.152500", "115707.152500", "115709.152500", "115711.152500", "115713.152500", "115715.152500", "115717.152500", "115719.152500", "115721.152500", "115723.152500", "115725.152500", "115727.152500", "115729.152500", "115731.152500", "115733.152500", "115735.152500", "115737.152500", "115739.152500", "115741.152500", "115743.152500", "115745.152500", "115747.152500", "115749.152500", "115751.152500", "115753.152500", "115755.152500", "115757.152500", "115759.152500", "115801.152500", "115803.152500", "115805.152500", "115807.152500", "115809.152500", "115811.152500", "115813.152500", "115815.152500", "115817.152500", "115819.152500", "115821.152500", "115823.152500", "115825.152500", "115827.152500", "115829.152500", "115831.152500", "115833.152500", "115835.152500", "115837.152500", "115839.152500", "115841.152500", "115843.152500", "115845.152500", "115847.152500"],
      "ContentTime": ["115304.049000", "115304.053000", "115304.066000", "115304.068000", "115304.077000", "115304.080000", "115304.082000", "115304.085000", "115304.087000", "115304.097000", "115304.100000", "115304.102000", "115304.105000", "115304.108000", "115304.110000", "115304.113000", "115304.115000", "115304.118000", "115304.120000", "115304.123000", "115304.126000", "115304.129000", "115304.131000", "115304.134000", "115304.136000", "115304.139000", "115304.142000", "115344.046000", "115344.049000", "115344.051000", "115344.054000", "115344.056000", "115344.059000", "115344.062000", "115344.065000", "115344.067000", "115344.070000", "115344.078000", "115344.081000", "115344.083000", "115344.086000", "115344.089000", "115344.091000", "115344.094000", "115344.097000", "115344.099000", "115344.102000", "115424.045000", "115424.049000", "115424.051000", "115424.054000", "115424.056000", "115424.059000", "115424.062000", "115424.064000", "115424.067000", "115424.070000", "115424.072000", "115424.075000", "115424.077000", "115424.080000", "115424.083000", "115424.085000", "115424.088000", "115424.091000", "115424.093000", "115424.096000", "115504.044000", "115504.047000", "115504.050000", "115504.053000", "115504.055000", "115504.058000", "115504.061000", "115504.063000", "115504.066000", "115504.068000", "115504.071000", "115504.082000", "115504.085000", "115504.088000", "115504.090000", "115504.093000", "115504.095000", "115504.098000", "115504.101000", "115504.104000", "115544.045000", "115544.048000", "115544.051000", "115544.054000", "115544.056000", "115544.059000", "115544.062000", "115544.064000", "115544.067000", "115544.069000", "115544.072000", "115544.075000", "115544.077000", "115544.080000", "115544.083000", "115544.085000", "115544.088000", "115544.091000", "115544.093000", "115544.096000", "115624.046000", "115624.049000", "115624.051000", "115624.054000", "115624.056000", "115624.059000", "115624.062000", "115624.064000", "115624.067000", "115624.069000", "115624.072000", "115624.075000", "115624.077000", "115624.080000", "115624.083000", "115624.085000", "115624.088000", "115624.090000", "115624.093000", "115624.096000", "115704.046000", "115704.049000", "115704.051000", "115704.054000", "115704.057000", "115704.059000", "115704.070000", "115704.073000", "115704.075000", "115704.078000", "115704.081000", "115704.083000", "115704.086000", "115704.088000", "115704.091000", "115704.094000", "115704.096000", "115704.099000", "115704.101000", "115704.104000", "115744.044000", "115744.047000", "115744.050000", "115744.053000", "115744.055000", "115744.058000", "115744.061000", "115744.063000", "115744.066000", "115744.069000", "115744.071000", "115744.074000", "115744.077000", "115744.079000", "115744.082000", "115744.085000", "115744.087000", "115744.090000", "115744.092000", "115744.095000", "115824.046000", "115824.049000", "115824.051000", "115824.054000", "115824.057000", "115824.059000", "115824.062000", "115824.065000", "115824.067000", "115824.070000", "115824.072000", "115824.075000", "115824.078000", "115824.080000", "115824.083000", "115824.086000", "115824.088000", "115824.091000", "115824.094000", "115824.096000", "115848.331000", "115848.334000", "115848.337000", "115848.340000", "115848.343000", "115848.346000", "115848.348000", "115848.351000", "115848.354000", "115848.356000", "115848.359000", "115848.362000", "115848.366000"],
      "InstanceCreationTime": ["115304.049000", "115304.053000", "115304.066000", "115304.068000", "115304.077000", "115304.080000", "115304.082000", "115304.085000", "115304.087000", "115304.097000", "115304.100000", "115304.102000", "115304.105000", "115304.108000", "115304.110000", "115304.113000", "115304.115000", "115304.118000", "115304.120000", "115304.123000", "115304.126000", "115304.129000", "115304.131000", "115304.134000", "115304.136000", "115304.139000", "115304.142000", "115344.046000", "115344.049000", "115344.051000", "115344.054000", "115344.056000", "115344.059000", "115344.062000", "115344.065000", "115344.067000", "115344.070000", "115344.078000", "115344.081000", "115344.083000", "115344.086000", "115344.089000", "115344.091000", "115344.094000", "115344.097000", "115344.099000", "115344.102000", "115424.045000", "115424.049000", "115424.051000", "115424.054000", "115424.056000", "115424.059000", "115424.062000", "115424.064000", "115424.067000", "115424.070000", "115424.072000", "115424.075000", "115424.077000", "115424.080000", "115424.083000", "115424.085000", "115424.088000", "115424.091000", "115424.093000", "115424.096000", "115504.044000", "115504.047000", "115504.050000", "115504.053000", "115504.055000", "115504.058000", "115504.061000", "115504.063000", "115504.066000", "115504.068000", "115504.071000", "115504.082000", "115504.085000", "115504.088000", "115504.090000", "115504.093000", "115504.095000", "115504.098000", "115504.101000", "115504.104000", "115544.045000", "115544.048000", "115544.051000", "115544.054000", "115544.056000", "115544.059000", "115544.062000", "115544.064000", "115544.067000", "115544.069000", "115544.072000", "115544.075000", "115544.077000", "115544.080000", "115544.083000", "115544.085000", "115544.088000", "115544.091000", "115544.093000", "115544.096000", "115624.046000", "115624.049000", "115624.051000", "115624.054000", "115624.056000", "115624.059000", "115624.062000", "115624.064000", "115624.067000", "115624.069000", "115624.072000", "115624.075000", "115624.077000", "115624.080000", "115624.083000", "115624.085000", "115624.088000", "115624.090000", "115624.093000", "115624.096000", "115704.046000", "115704.049000", "115704.051000", "115704.054000", "115704.057000", "115704.059000", "115704.070000", "115704.073000", "115704.075000", "115704.078000", "115704.081000", "115704.083000", "115704.086000", "115704.088000", "115704.091000", "115704.094000", "115704.096000", "115704.099000", "115704.101000", "115704.104000", "115744.044000", "115744.047000", "115744.050000", "115744.053000", "115744.055000", "115744.058000", "115744.061000", "115744.063000", "115744.066000", "115744.069000", "115744.071000", "115744.074000", "115744.077000", "115744.079000", "115744.082000", "115744.085000", "115744.087000", "115744.090000", "115744.092000", "115744.095000", "115824.046000", "115824.049000", "115824.051000", "115824.054000", "115824.057000", "115824.059000", "115824.062000", "115824.065000", "115824.067000", "115824.070000", "115824.072000", "115824.075000", "115824.078000", "115824.080000", "115824.083000", "115824.086000", "115824.088000", "115824.091000", "115824.094000", "115824.096000", "115848.331000", "115848.334000", "115848.337000", "115848.340000", "115848.343000", "115848.346000", "115848.348000", "115848.351000", "115848.354000", "115848.356000", "115848.359000", "115848.362000", "115848.366000"],
      "InstanceNumber": [1, 2, 3, 4, 5, 6, 7, 8, 9, 10, 11, 12, 13, 14, 15, 16, 17, 18, 19, 20, 21, 22, 23, 24, 25, 26, 27, 28, 29, 30, 31, 32, 33, 34, 35, 36, 37, 38, 39, 40, 41, 42, 43, 44, 45, 46, 47, 48, 49, 50, 51, 52, 53, 54, 55, 56, 57, 58, 59, 60, 61, 62, 63, 64, 65, 66, 67, 68, 69, 70, 71, 72, 73, 74, 75, 76, 77, 78, 79, 80, 81, 82, 83, 84, 85, 86, 87, 88, 89, 90, 91, 92, 93, 94, 95, 96, 97, 98, 99, 100, 101, 102, 103, 104, 105, 106, 107, 108, 109, 110, 111, 112, 113, 114, 115, 116, 117, 118, 119, 120, 121, 122, 123, 124, 125, 126, 127, 128, 129, 130, 131, 132, 133, 134, 135, 136, 137, 138, 139, 140, 141, 142, 143, 144, 145, 146, 147, 148, 149, 150, 151, 152, 153, 154, 155, 156, 157, 158, 159, 160, 161, 162, 163, 164, 165, 166, 167, 168, 169, 170, 171, 172, 173, 174, 175, 176, 177, 178, 179, 180, 181, 182, 183, 184, 185, 186, 187, 188, 189, 190, 191, 192, 193, 194, 195, 196, 197, 198, 199, 200],
      "LargestImagePixelValue": [1863, 1859, 1864, 1869, 1861, 1861, 1869, 1870, 1863, 1866, 1861, 1862, 1858, 1868, 1866, 1871, 1863, 1864, 1864, 1861, 1868, 1860, 1866, 1861, 1868, 1864, 1867, 1867, 1869, 1861, 1863, 1865, 1861, 1863, 1866, 1867, 1868, 1869, 1866, 1867, 1865, 1865, 1862, 1862, 1859, 1861, 1864, 1860, 1861, 1864, 1864, 1862, 1867, 1865, 1865, 1861, 1866, 1862, 1861, 1865, 1865, 1867, 1872, 1866, 1869, 1863, 1860, 1864, 1868, 1867, 1867, 1864, 1866, 1858, 1864, 1864, 1868, 1864, 1864, 1865, 1860, 1866, 1867, 1864, 1861, 1862, 1864, 1863, 1862, 1862, 1865, 1862, 1860, 1865, 1870, 1860, 1859, 1861, 1869, 1868, 1864, 1865, 1867, 1865, 1864, 1864, 1865, 1865, 1864, 1867, 1873, 1864, 1865, 1870, 1868, 1861, 1868, 1862, 1867, 1861, 1865, 1859, 1862, 1857, 1874, 1868, 1863, 1867, 1860, 1865, 1864, 1864, 1868, 1863, 1867, 1861, 1867, 1860, 1870, 1866, 1869, 1870, 1867, 1867, 1867, 1867, 1864, 1866, 1862, 1864, 1860, 1861, 1860, 1861, 1867, 1862, 1865, 1865, 1867, 1866, 1868, 1865, 1868, 1862, 1859, 1869, 1862, 1862, 1864, 1868, 1866, 1862, 1870, 1870, 1865, 1865, 1871, 1871, 1863, 1862, 1870, 1869, 1860, 1865, 1860, 1866, 1867, 1865, 1860, 1864, 1866, 1864, 1863, 1865, 1867, 1863, 1869, 1864, 1863, 1863],
      "WindowWidth": [2004.0, 2003.0, 2004.0, 2003.0, 2003.0, 2003.0, 2003.0, 2003.0, 2004.0, 2004.0, 2004.0, 2003.0, 2003.0, 2003.0, 2003.0, 2004.0, 2004.0, 2004.0, 2004.0, 2004.0, 2003.0, 2003.0, 2003.0, 2003.0, 2004.0, 2003.0, 2003.0, 2003.0, 2003.0, 2004.0, 2004.0, 2003.0, 2004.0, 2004.0, 2003.0, 2003.0, 2004.0, 2003.0, 2003.0, 2003.0, 2004.0, 2003.0, 2003.0, 2003.0, 2003.0, 2004.0, 2003.0, 2003.0, 2003.0, 2003.0, 2004.0, 2003.0, 2003.0, 2003.0, 2003.0, 2003.0, 2004.0, 2003.0, 2003.0, 2004.0, 2003.0, 2003.0, 2003.0, 2004.0, 2003.0, 2004.0, 2003.0, 2003.0, 2003.0, 2004.0, 2003.0, 2004.0, 2004.0, 2004.0, 2004.0, 2003.0, 2004.0, 2003.0, 2004.0, 2003.0, 2003.0, 2004.0, 2003.0, 2003.0, 2003.0, 2003.0, 2003.0, 2004.0, 2003.0, 2004.0, 2003.0, 2003.0, 2003.0, 2004.0, 2003.0, 2003.0, 2003.0, 2004.0, 2003.0, 2004.0, 2004.0, 2003.0, 2003.0, 2003.0, 2003.0, 2003.0, 2004.0, 2003.0, 2003.0, 2003.0, 2004.0, 2003.0, 2003.0, 2003.0, 2003.0, 2003.0, 2003.0, 2003.0, 2003.0, 2004.0, 2004.0, 2003.0, 2004.0, 2004.0, 2004.0, 2004.0, 2004.0, 2003.0, 2003.0, 2003.0, 2003.0, 2004.0, 2004.0, 2003.0, 2004.0, 2003.0, 2003.0, 2004.0, 2004.0, 2004.0, 2004.0, 2004.0, 2004.0, 2003.0, 2003.0, 2003.0, 2003.0, 2003.0, 2003.0, 2003.0, 2003.0, 2003.0, 2003.0, 2003.0, 2003.0, 2003.0, 2004.0, 2003.0, 2003.0, 2004.0, 2003.0, 2003.0, 2003.0, 2004.0, 2003.0, 2003.0, 2003.0, 2003.0, 2004.0, 2003.0, 2003.0, 2003.0, 2003.0, 2003.0, 2004.0, 2003.0, 2004.0, 2003.0, 2003.0, 2003.0, 2003.0, 2003.0, 2003.0, 2003.0, 2003.0, 2003.0, 2003.0, 2003.0, 2003.0, 2003.0, 2003.0, 2003.0, 2003.0, 2003.0, 2003.0, 2003.0, 2003.0, 2003.0, 2003.0, 2003.0]
    },
    "slices": {}
  }
}