{
  "AcquisitionMatrixPE": 80,
  "AcquisitionNumber": 1,
  "AcquisitionTime": "11:45:15.212500",
  "BandwidthPerPixelPhaseEncode": 48.077,
  "BaseResolution": 80,
  "BodyPartExamined": "BRAIN",
  "CoilCombinationMethod": "Sum of Squares",
  "ConsistencyInfo": "N4_VE11C_LATEST_20160120",
  "ConversionSoftware": "dcm2niix",
  "ConversionSoftwareVersion": "v1.0.20220720",
  "DerivedVendorReportedEchoSpacing": 0.000519999,
  "DeviceSerialNumber": "66112",
  "DwellTime": 2.7e-06,
  "EchoTime": 0.035,
  "EchoTrainLength": 39,
  "EffectiveEchoSpacing": 0.00026,
  "FlipAngle": 90,
  "HeudiconvVersion": "0.13.1",
  "ImageOrientationPatientDICOM": [0.981016, 0.193754, 0.00816615, -0.186961, 0.933764, 0.305172],
  "ImageOrientationText": "Tra>Cor(17.5)>Sag(-3.0)",
  "ImageType": [
    "ORIGINAL",
    "PRIMARY",
    "M",
    "ND",
    "NORM",
    "MOSAIC"
],
  "ImagingFrequency": 123.252,
  "InPlanePhaseEncodingDirectionDICOM": "COL",
  "InstitutionAddress": "Maynard 3,Hanover,NH,US,03755",
  "InstitutionName": "Dartmouth College - PBS",
  "InstitutionalDepartmentName": "Department",
  "MRAcquisitionType": "2D",
  "MagneticFieldStrength": 3,
  "Manufacturer": "Siemens",
  "ManufacturersModelName": "Prisma",
  "MatrixCoilMode": "GRAPPA",
  "Modality": "MR",
  "NonlinearGradientCorrection": false,
  "ParallelReductionFactorInPlane": 2,
  "PartialFourier": 1,
  "PatientPosition": "HFS",
  "PercentPhaseFOV": 100,
  "PercentSampling": 100,
  "PhaseEncodingDirection": "j-",
  "PhaseEncodingSteps": 79,
  "PhaseResolution": 1,
  "PixelBandwidth": 2315,
  "ProcedureStepDescription": "dbic^QA",
  "ProtocolName": "func-bold_task-rest_acq-p2",
  "PulseSequenceDetails": "%SiemensSeq%\\ep2d_bold",
  "ReceiveCoilActiveElements": "HEA;HEP",
  "ReceiveCoilName": "Head_32",
  "ReconMatrixPE": 80,
  "RefLinesPE": 24,
  "RepetitionTime": 2,
  "SAR": 0.0555528,
  "ScanOptions": "FS",
  "ScanningSequence": "EP",
  "SequenceName": "*epfid2d1_80",
  "SequenceVariant": "SK",
  "SeriesDescription": "func-bold_task-rest_acq-p2",
  "SeriesNumber": 5,
  "ShimSetting": [4144, -7686, -7509, 284, -56, -71, -70, 62],
  "SliceThickness": 3.5,
  "SliceTiming": [0.99, 0, 1.055, 0.065, 1.1225, 0.1325, 1.1875, 0.1975, 1.2525, 0.265, 1.32, 0.33, 1.385, 0.395, 1.4525, 0.4625, 1.5175, 0.5275, 1.5825, 0.595, 1.65, 0.66, 1.715, 0.725, 1.7825, 0.7925, 1.8475, 0.8575, 1.9125, 0.9225],
  "SoftwareVersions": "syngo MR E11",
  "SpacingBetweenSlices": 3.99,
  "StationName": "AWP66112",
  "TaskName": "rest",
  "TotalReadoutTime": 0.02054,
  "TxRefAmp": 222.905,
  "dcmmeta_affine": [
    [-2.9430487155914307, -0.5608842968940735, -0.20549684762954712, 145.63111877441406],
    [-0.5812607407569885, 2.8012921810150146, 1.2006139755249023, -94.57450103759766],
    [0.024498453363776207, -0.9155169725418091, 3.7995259761810303, -25.74694061279297],
    [0.0, 0.0, 0.0, 1.0]
],
  "dcmmeta_reorient_transform": [
    [0.0, -1.0, 0.0, 79.0],
    [1.0, 0.0, 0.0, 0.0],
    [0.0, 0.0, 1.0, 0.0],
    [0.0, 0.0, 0.0, 1.0]
],
  "dcmmeta_shape": [80, 80, 30, 200],
  "dcmmeta_slice_dim": 2,
  "dcmmeta_version": 0.6,
  "global": {
    "const": {
      "AccessionNumber": "qa",
      "AcquisitionMatrix": [80, 0, 0, 80],
      "AngioFlag": "N",
      "BitsAllocated": 16,
      "BitsStored": 12,
      "BodyPartExamined": "BRAIN",
      "Columns": 480,
      "EchoNumbers": 1,
      "EchoTime": 35.0,
      "EchoTrainLength": 39,
      "FlipAngle": 90.0,
      "HighBit": 11,
      "ImageOrientationPatient": [0.98101624078679, 0.19375357877377, 0.0081661511686, -0.1869614381895, 0.93376403748814, 0.30517231677193],
      "ImagePositionPatient": [-577.75414586592, -803.23814738503, -286.07586107124],
      "ImageType": [
        "ORIGINAL",
        "PRIMARY",
        "M",
        "ND",
        "NORM",
        "MOSAIC"
],
      "ImagedNucleus": "1H",
      "ImagingFrequency": 123.252362,
      "InPlanePhaseEncodingDirection": "COL",
      "MRAcquisitionType": "2D",
      "MagneticFieldStrength": 3.0,
      "Manufacturer": "SIEMENS",
      "ManufacturerModelName": "Prisma",
      "Modality": "MR",
      "NumberOfAverages": 1.0,
      "NumberOfPhaseEncodingSteps": 79,
      "PercentPhaseFieldOfView": 100.0,
      "PercentSampling": 100.0,
      "PerformedProcedureStepStartTime": "114150.276000",
      "PhotometricInterpretation": "MONOCHROME2",
      "PixelBandwidth": 2315.0,
      "PixelRepresentation": 0,
      "PixelSpacing": [3.0, 3.0],
      "ProtocolName": "func-bold_task-rest_acq-p2",
      "RepetitionTime": 2000.0,
      "Rows": 480,
      "SAR": 0.05555284508339,
      "SamplesPerPixel": 1,
      "ScanOptions": "FS",
      "ScanningSequence": "EP",
      "SequenceName": "*epfid2d1_80",
      "SequenceVariant": "SK",
      "SeriesDescription": "func-bold_task-rest_acq-p2",
      "SeriesNumber": 5,
      "SeriesTime": "114603.975000",
      "SliceLocation": -60.476283736486,
      "SliceThickness": 3.5,
      "SmallestImagePixelValue": 0,
      "SoftwareVersions": "syngo MR E11",
      "SpacingBetweenSlices": 3.9900000205071,
      "SpecificCharacterSet": "ISO_IR 100",
      "StudyID": "33",
      "StudyTime": "114150.217000",
      "TransmitCoilName": "Body",
      "VariableFlipAngleFlag": "N",
      "WindowCenterWidthExplanation": "Algo1",
      "dBdt": 0.0},
    "slices": {}
  },
  "time": {
    "samples": {
      "AcquisitionNumber": [1, 2, 3, 4, 5, 6, 7, 8, 9, 10, 11, 12, 13, 14, 15, 16, 17, 18, 19, 20, 21, 22, 23, 24, 25, 26, 27, 28, 29, 30, 31, 32, 33, 34, 35, 36, 37, 38, 39, 40, 41, 42, 43, 44, 45, 46, 47, 48, 49, 50, 51, 52, 53, 54, 55, 56, 57, 58, 59, 60, 61, 62, 63, 64, 65, 66, 67, 68, 69, 70, 71, 72, 73, 74, 75, 76, 77, 78, 79, 80, 81, 82, 83, 84, 85, 86, 87, 88, 89, 90, 91, 92, 93, 94, 95, 96, 97, 98, 99, 100, 101, 102, 103, 104, 105, 106, 107, 108, 109, 110, 111, 112, 113, 114, 115, 116, 117, 118, 119, 120, 121, 122, 123, 124, 125, 126, 127, 128, 129, 130, 131, 132, 133, 134, 135, 136, 137, 138, 139, 140, 141, 142, 143, 144, 145, 146, 147, 148, 149, 150, 151, 152, 153, 154, 155, 156, 157, 158, 159, 160, 161, 162, 163, 164, 165, 166, 167, 168, 169, 170, 171, 172, 173, 174, 175, 176, 177, 178, 179, 180, 181, 182, 183, 184, 185, 186, 187, 188, 189, 190, 191, 192, 193, 194, 195, 196, 197, 198, 199, 200],
      "AcquisitionTime": ["114515.212500", "114517.212500", "114519.212500", "114521.212500", "114523.212500", "114525.212500", "114527.212500", "114529.212500", "114531.212500", "114533.212500", "114535.212500", "114537.212500", "114539.212500", "114541.212500", "114543.212500", "114545.212500", "114547.212500", "114549.212500", "114551.212500", "114553.212500", "114555.212500", "114557.212500", "114559.212500", "114601.212500", "114603.212500", "114605.212500", "114607.212500", "114609.212500", "114611.212500", "114613.212500", "114615.212500", "114617.212500", "114619.212500", "114621.212500", "114623.212500", "114625.212500", "114627.212500", "114629.212500", "114631.212500", "114633.212500", "114635.212500", "114637.212500", "114639.212500", "114641.212500", "114643.212500", "114645.212500", "114647.212500", "114649.212500", "114651.212500", "114653.212500", "114655.212500", "114657.212500", "114659.212500", "114701.212500", "114703.212500", "114705.212500", "114707.212500", "114709.212500", "114711.212500", "114713.212500", "114715.212500", "114717.212500", "114719.212500", "114721.212500", "114723.212500", "114725.212500", "114727.212500", "114729.212500", "114731.212500", "114733.212500", "114735.212500", "114737.212500", "114739.212500", "114741.212500", "114743.212500", "114745.212500", "114747.212500", "114749.212500", "114751.212500", "114753.212500", "114755.212500", "114757.212500", "114759.212500", "114801.212500", "114803.212500", "114805.212500", "114807.212500", "114809.212500", "114811.212500", "114813.212500", "114815.212500", "114817.212500", "114819.212500", "114821.212500", "114823.212500", "114825.212500", "114827.212500", "114829.212500", "114831.212500", "114833.212500", "114835.212500", "114837.212500", "114839.212500", "114841.212500", "114843.212500", "114845.212500", "114847.212500", "114849.212500", "114851.212500", "114853.212500", "114855.212500", "114857.212500", "114859.212500", "114901.212500", "114903.212500", "114905.212500", "114907.212500", "114909.212500", "114911.212500", "114913.212500", "114915.212500", "114917.212500", "114919.212500", "114921.212500", "114923.212500", "114925.212500", "114927.212500", "114929.212500", "114931.212500", "114933.212500", "114935.212500", "114937.212500", "114939.212500", "114941.212500", "114943.212500", "114945.212500", "114947.212500", "114949.212500", "114951.212500", "114953.212500", "114955.212500", "114957.212500", "114959.212500", "115001.212500", "115003.212500", "115005.212500", "115007.212500", "115009.212500", "115011.212500", "115013.212500", "115015.212500", "115017.212500", "115019.212500", "115021.212500", "115023.212500", "115025.212500", "115027.212500", "115029.212500", "115031.212500", "115033.212500", "115035.212500", "115037.212500", "115039.212500", "115041.212500", "115043.212500", "115045.212500", "115047.212500", "115049.212500", "115051.212500", "115053.212500", "115055.212500", "115057.212500", "115059.212500", "115101.212500", "115103.212500", "115105.212500", "115107.212500", "115109.212500", "115111.212500", "115113.212500", "115115.212500", "115117.212500", "115119.212500", "115121.212500", "115123.212500", "115125.212500", "115127.212500", "115129.212500", "115131.212500", "115133.212500", "115135.212500", "115137.212500", "115139.212500", "115141.212500", "115143.212500", "115145.212500", "115147.212500", "115149.212500", "115151.212500", "115153.212500"],
      "ContentTime": ["114603.979000", "114603.982000", "114603.985000", "114603.988000", "114603.990000", "114603.993000", "114603.995000", "114603.998000", "114604.002000", "114604.004000", "114604.007000", "114604.010000", "114604.012000", "114604.019000", "114604.022000", "114604.024000", "114604.027000", "114604.035000", "114604.038000", "114604.041000", "114604.043000", "114604.046000", "114604.048000", "114604.051000", "114643.975000", "114643.978000", "114643.980000", "114643.983000", "114643.986000", "114643.988000", "114643.991000", "114643.993000", "114643.996000", "114644.000000", "114644.002000", "114644.005000", "114644.007000", "114644.010000", "114644.013000", "114644.015000", "114644.018000", "114644.021000", "114644.023000", "114644.026000", "114723.975000", "114723.985000", "114723.988000", "114723.990000", "114723.993000", "114723.996000", "114723.998000", "114724.002000", "114724.004000", "114724.007000", "114724.010000", "114724.013000", "114724.015000", "114724.018000", "114724.020000", "114724.023000", "114724.026000", "114724.028000", "114724.031000", "114724.033000", "114803.974000", "114803.977000", "114803.979000", "114803.982000", "114803.985000", "114803.987000", "114803.990000", "114803.992000", "114803.995000", "114803.998000", "114804.001000", "114804.004000", "114804.006000", "114804.009000", "114804.012000", "114804.015000", "114804.017000", "114804.020000", "114804.022000", "114804.025000", "114843.975000", "114843.990000", "114843.993000", "114843.996000", "114844.000000", "114844.002000", "114844.005000", "114844.008000", "114844.010000", "114844.013000", "114844.015000", "114844.018000", "114844.021000", "114844.023000", "114844.026000", "114844.029000", "114844.031000", "114844.034000", "114844.037000", "114844.039000", "114923.974000", "114923.977000", "114923.980000", "114923.982000", "114923.985000", "114923.988000", "114923.991000", "114923.993000", "114923.996000", "114923.998000", "114924.002000", "114924.005000", "114924.007000", "114924.010000", "114924.013000", "114924.015000", "114924.018000", "114924.021000", "114924.023000", "114924.026000", "115003.975000", "115003.977000", "115003.980000", "115003.983000", "115003.986000", "115003.988000", "115003.991000", "115003.993000", "115003.996000", "115004.000000", "115004.002000", "115004.005000", "115004.008000", "115004.010000", "115004.013000", "115004.016000", "115004.018000", "115004.021000", "115004.023000", "115004.026000", "115043.974000", "115043.976000", "115043.979000", "115043.982000", "115043.984000", "115043.987000", "115043.990000", "115043.992000", "115043.995000", "115043.998000", "115044.001000", "115044.004000", "115044.007000", "115044.009000", "115044.012000", "115044.014000", "115044.017000", "115044.020000", "115044.022000", "115044.025000", "115123.975000", "115123.978000", "115123.980000", "115123.983000", "115123.986000", "115123.988000", "115123.991000", "115123.994000", "115123.996000", "115124.000000", "115124.003000", "115124.005000", "115124.008000", "115124.011000", "115124.013000", "115124.016000", "115124.018000", "115124.021000", "115124.024000", "115124.026000", "115154.283000", "115154.286000", "115154.289000", "115154.292000", "115154.304000", "115154.307000", "115154.309000", "115154.315000", "115154.319000", "115154.322000", "115154.326000", "115154.337000", "115154.351000", "115154.354000", "115154.357000", "115154.363000"],
      "InstanceCreationTime": ["114603.979000", "114603.982000", "114603.985000", "114603.988000", "114603.990000", "114603.993000", "114603.995000", "114603.998000", "114604.002000", "114604.004000", "114604.007000", "114604.010000", "114604.012000", "114604.019000", "114604.022000", "114604.024000", "114604.027000", "114604.035000", "114604.038000", "114604.041000", "114604.043000", "114604.046000", "114604.048000", "114604.051000", "114643.975000", "114643.978000", "114643.980000", "114643.983000", "114643.986000", "114643.988000", "114643.991000", "114643.993000", "114643.996000", "114644.000000", "114644.002000", "114644.005000", "114644.007000", "114644.010000", "114644.013000", "114644.015000", "114644.018000", "114644.021000", "114644.023000", "114644.026000", "114723.975000", "114723.985000", "114723.988000", "114723.990000", "114723.993000", "114723.996000", "114723.998000", "114724.002000", "114724.004000", "114724.007000", "114724.010000", "114724.013000", "114724.015000", "114724.018000", "114724.020000", "114724.023000", "114724.026000", "114724.028000", "114724.031000", "114724.033000", "114803.974000", "114803.977000", "114803.979000", "114803.982000", "114803.985000", "114803.987000", "114803.990000", "114803.992000", "114803.995000", "114803.998000", "114804.001000", "114804.004000", "114804.006000", "114804.009000", "114804.012000", "114804.015000", "114804.017000", "114804.020000", "114804.022000", "114804.025000", "114843.975000", "114843.990000", "114843.993000", "114843.996000", "114844.000000", "114844.002000", "114844.005000", "114844.008000", "114844.010000", "114844.013000", "114844.015000", "114844.018000", "114844.021000", "114844.023000", "114844.026000", "114844.029000", "114844.031000", "114844.034000", "114844.037000", "114844.039000", "114923.974000", "114923.977000", "114923.980000", "114923.982000", "114923.985000", "114923.988000", "114923.991000", "114923.993000", "114923.996000", "114923.998000", "114924.002000", "114924.005000", "114924.007000", "114924.010000", "114924.013000", "114924.015000", "114924.018000", "114924.021000", "114924.023000", "114924.026000", "115003.975000", "115003.977000", "115003.980000", "115003.983000", "115003.986000", "115003.988000", "115003.991000", "115003.993000", "115003.996000", "115004.000000", "115004.002000", "115004.005000", "115004.008000", "115004.010000", "115004.013000", "115004.016000", "115004.018000", "115004.021000", "115004.023000", "115004.026000", "115043.974000", "115043.976000", "115043.979000", "115043.982000", "115043.984000", "115043.987000", "115043.990000", "115043.992000", "115043.995000", "115043.998000", "115044.001000", "115044.004000", "115044.007000", "115044.009000", "115044.012000", "115044.014000", "115044.017000", "115044.020000", "115044.022000", "115044.025000", "115123.975000", "115123.978000", "115123.980000", "115123.983000", "115123.986000", "115123.988000", "115123.991000", "115123.994000", "115123.996000", "115124.000000", "115124.003000", "115124.005000", "115124.008000", "115124.011000", "115124.013000", "115124.016000", "115124.018000", "115124.021000", "115124.024000", "115124.026000", "115154.283000", "115154.286000", "115154.289000", "115154.292000", "115154.304000", "115154.307000", "115154.309000", "115154.315000", "115154.319000", "115154.322000", "115154.326000", "115154.337000", "115154.351000", "115154.354000", "115154.357000", "115154.363000"],
      "InstanceNumber": [1, 2, 3, 4, 5, 6, 7, 8, 9, 10, 11, 12, 13, 14, 15, 16, 17, 18, 19, 20, 21, 22, 23, 24, 25, 26, 27, 28, 29, 30, 31, 32, 33, 34, 35, 36, 37, 38, 39, 40, 41, 42, 43, 44, 45, 46, 47, 48, 49, 50, 51, 52, 53, 54, 55, 56, 57, 58, 59, 60, 61, 62, 63, 64, 65, 66, 67, 68, 69, 70, 71, 72, 73, 74, 75, 76, 77, 78, 79, 80, 81, 82, 83, 84, 85, 86, 87, 88, 89, 90, 91, 92, 93, 94, 95, 96, 97, 98, 99, 100, 101, 102, 103, 104, 105, 106, 107, 108, 109, 110, 111, 112, 113, 114, 115, 116, 117, 118, 119, 120, 121, 122, 123, 124, 125, 126, 127, 128, 129, 130, 131, 132, 133, 134, 135, 136, 137, 138, 139, 140, 141, 142, 143, 144, 145, 146, 147, 148, 149, 150, 151, 152, 153, 154, 155, 156, 157, 158, 159, 160, 161, 162, 163, 164, 165, 166, 167, 168, 169, 170, 171, 172, 173, 174, 175, 176, 177, 178, 179, 180, 181, 182, 183, 184, 185, 186, 187, 188, 189, 190, 191, 192, 193, 194, 195, 196, 197, 198, 199, 200],
      "LargestImagePixelValue": [1883, 1880, 1874, 1874, 1878, 1878, 1873, 1878, 1879, 1877, 1877, 1876, 1885, 1878, 1873, 1879, 1879, 1877, 1875, 1880, 1879, 1884, 1884, 1878, 1876, 1880, 1874, 1880, 1879, 1877, 1877, 1878, 1877, 1880, 1871, 1876, 1877, 1881, 1878, 1868, 1878, 1881, 1879, 1875, 1882, 1868, 1878, 1876, 1879, 1881, 1884, 1881, 1878, 1876, 1874, 1878, 1874, 1874, 1882, 1876, 1874, 1882, 1878, 1875, 1876, 1872, 1875, 1876, 1879, 1873, 1871, 1874, 1875, 1871, 1882, 1877, 1878, 1882, 1877, 1881, 1882, 1875, 1875, 1876, 1884, 1877, 1875, 1870, 1878, 1887, 1877, 1879, 1875, 1875, 1873, 1874, 1880, 1868, 1878, 1879, 1879, 1880, 1877, 1881, 1872, 1875, 1874, 1877, 1884, 1879, 1877, 1877, 1879, 1876, 1879, 1873, 1877, 1877, 1871, 1876, 1878, 1875, 1877, 1878, 1873, 1872, 1881, 1883, 1879, 1878, 1875, 1880, 1876, 1872, 1881, 1876, 1882, 1877, 1880, 1878, 1874, 1870, 1880, 1872, 1882, 1874, 1882, 1878, 1877, 1882, 1876, 1878, 1878, 1879, 1879, 1875, 1879, 1878, 1876, 1881, 1876, 1877, 1868, 1880, 1873, 1875, 1875, 1870, 1873, 1870, 1879, 1876, 1875, 1882, 1879, 1873, 1879, 1881, 1877, 1875, 1875, 1880, 1872, 1880, 1877, 1870, 1877, 1880, 1876, 1874, 1871, 1879, 1876, 1876, 1878, 1873, 1881, 1882, 1875, 1882],
      "WindowCenter": [955.0, 955.0, 954.0, 954.0, 954.0, 955.0, 954.0, 954.0, 954.0, 954.0, 954.0, 954.0, 954.0, 954.0, 954.0, 954.0, 954.0, 954.0, 954.0, 954.0, 955.0, 954.0, 953.0, 954.0, 954.0, 954.0, 955.0, 954.0, 954.0, 954.0, 954.0, 954.0, 954.0, 954.0, 954.0, 953.0, 954.0, 953.0, 954.0, 953.0, 953.0, 953.0, 954.0, 954.0, 954.0, 954.0, 954.0, 953.0, 954.0, 953.0, 954.0, 953.0, 954.0, 954.0, 953.0, 954.0, 954.0, 954.0, 953.0, 954.0, 954.0, 954.0, 954.0, 954.0, 954.0, 954.0, 954.0, 954.0, 954.0, 954.0, 954.0, 953.0, 953.0, 954.0, 954.0, 954.0, 954.0, 953.0, 954.0, 955.0, 953.0, 953.0, 954.0, 953.0, 953.0, 954.0, 954.0, 953.0, 954.0, 954.0, 953.0, 953.0, 955.0, 954.0, 954.0, 954.0, 953.0, 954.0, 953.0, 954.0, 954.0, 953.0, 954.0, 953.0, 954.0, 954.0, 955.0, 953.0, 954.0, 953.0, 954.0, 955.0, 954.0, 954.0, 953.0, 954.0, 954.0, 954.0, 954.0, 953.0, 954.0, 954.0, 955.0, 954.0, 954.0, 954.0, 953.0, 954.0, 953.0, 954.0, 954.0, 953.0, 953.0, 953.0, 953.0, 954.0, 953.0, 954.0, 954.0, 954.0, 953.0, 953.0, 953.0, 954.0, 954.0, 954.0, 954.0, 953.0, 953.0, 953.0, 953.0, 953.0, 954.0, 953.0, 953.0, 953.0, 953.0, 953.0, 952.0, 952.0, 953.0, 952.0, 953.0, 953.0, 952.0, 953.0, 954.0, 952.0, 953.0, 953.0, 953.0, 953.0, 952.0, 953.0, 953.0, 953.0, 953.0, 953.0, 952.0, 953.0, 953.0, 953.0, 953.0, 954.0, 952.0, 952.0, 952.0, 953.0, 952.0, 952.0, 953.0, 952.0, 953.0, 954.0, 952.0, 952.0, 952.0, 952.0, 952.0, 952.0],
      "WindowWidth": [2069.0, 2068.0, 2067.0, 2067.0, 2067.0, 2067.0, 2067.0, 2067.0, 2067.0, 2067.0, 2067.0, 2067.0, 2067.0, 2067.0, 2067.0, 2067.0, 2067.0, 2067.0, 2067.0, 2067.0, 2068.0, 2067.0, 2066.0, 2066.0, 2066.0, 2067.0, 2067.0, 2067.0, 2067.0, 2067.0, 2067.0, 2067.0, 2067.0, 2066.0, 2067.0, 2066.0, 2066.0, 2066.0, 2066.0, 2066.0, 2066.0, 2066.0, 2066.0, 2066.0, 2067.0, 2067.0, 2067.0, 2066.0, 2066.0, 2066.0, 2066.0, 2066.0, 2066.0, 2066.0, 2066.0, 2066.0, 2066.0, 2066.0, 2065.0, 2066.0, 2066.0, 2066.0, 2066.0, 2066.0, 2066.0, 2066.0, 2066.0, 2066.0, 2066.0, 2066.0, 2065.0, 2065.0, 2065.0, 2066.0, 2066.0, 2066.0, 2066.0, 2065.0, 2066.0, 2067.0, 2065.0, 2065.0, 2066.0, 2065.0, 2065.0, 2065.0, 2066.0, 2065.0, 2066.0, 2066.0, 2065.0, 2065.0, 2067.0, 2066.0, 2066.0, 2065.0, 2065.0, 2065.0, 2065.0, 2065.0, 2066.0, 2065.0, 2066.0, 2065.0, 2066.0, 2065.0, 2066.0, 2065.0, 2065.0, 2065.0, 2065.0, 2067.0, 2065.0, 2065.0, 2065.0, 2065.0, 2066.0, 2065.0, 2065.0, 2064.0, 2065.0, 2065.0, 2066.0, 2065.0, 2065.0, 2066.0, 2064.0, 2066.0, 2065.0, 2065.0, 2065.0, 2065.0, 2064.0, 2064.0, 2064.0, 2065.0, 2064.0, 2065.0, 2066.0, 2065.0, 2065.0, 2064.0, 2065.0, 2066.0, 2066.0, 2065.0, 2065.0, 2065.0, 2065.0, 2065.0, 2065.0, 2065.0, 2065.0, 2065.0, 2065.0, 2064.0, 2064.0, 2064.0, 2063.0, 2064.0, 2065.0, 2064.0, 2064.0, 2064.0, 2064.0, 2065.0, 2065.0, 2064.0, 2064.0, 2064.0, 2064.0, 2064.0, 2063.0, 2064.0, 2064.0, 2064.0, 2064.0, 2064.0, 2064.0, 2064.0, 2064.0, 2064.0, 2064.0, 2065.0, 2063.0, 2064.0, 2063.0, 2064.0, 2063.0, 2063.0, 2064.0, 2064.0, 2064.0, 2064.0, 2063.0, 2063.0, 2063.0, 2063.0, 2063.0, 2063.0]
    },
    "slices": {}
  }
}