{
  "AcquisitionMatrixPE": 80,
  "AcquisitionNumber": 1,
  "AcquisitionTime": "09:17:25.532500",
  "BandwidthPerPixelPhaseEncode": 25,
  "BaseResolution": 80,
  "BodyPartExamined": "BRAIN",
  "CoilCombinationMethod": "Sum of Squares",
  "ConsistencyInfo": "N4_VE11C_LATEST_20160120",
  "ConversionSoftware": "dcm2niix",
  "ConversionSoftwareVersion": "v1.0.20220720",
  "DerivedVendorReportedEchoSpacing": 0.0005,
  "DeviceSerialNumber": "66112",
  "DwellTime": 2.7e-06,
  "EchoTime": 0.03,
  "EchoTrainLength": 80,
  "EffectiveEchoSpacing": 0.0005,
  "FlipAngle": 10,
  "HeudiconvVersion": "0.13.1",
  "ImageOrientationPatientDICOM": [0.999734, 0.0122863, -0.0195404, -0.00610711, 0.957191, 0.289392],
  "ImageOrientationText": "Tra>Cor(16.8)>Sag(-1.3)",
  "ImageType": [
    "ORIGINAL",
    "PRIMARY",
    "M",
    "ND",
    "NORM",
    "MOSAIC"
],
  "ImagingFrequency": 123.252,
  "InPlanePhaseEncodingDirectionDICOM": "COL",
  "InstitutionAddress": "Maynard 3,Hanover,NH,US,03755",
  "InstitutionName": "Dartmouth College - PBS",
  "InstitutionalDepartmentName": "Department",
  "MRAcquisitionType": "2D",
  "MagneticFieldStrength": 3,
  "Manufacturer": "Siemens",
  "ManufacturersModelName": "Prisma",
  "MatrixCoilMode": "SENSE",
  "Modality": "MR",
  "NonlinearGradientCorrection": false,
  "PartialFourier": 1,
  "PatientPosition": "HFS",
  "PercentPhaseFOV": 100,
  "PercentSampling": 100,
  "PhaseEncodingDirection": "j-",
  "PhaseEncodingSteps": 80,
  "PhaseResolution": 1,
  "PixelBandwidth": 2315,
  "ProcedureStepDescription": "dbic^QA",
  "ProtocolName": "func-bold_fa-10",
  "PulseSequenceDetails": "%SiemensSeq%\\ep2d_bold",
  "ReceiveCoilActiveElements": "HC1-7;NC1,2",
  "ReceiveCoilName": "HeadNeck_64",
  "ReconMatrixPE": 80,
  "RepetitionTime": 2,
  "SAR": 0.00757815,
  "ScanOptions": "FS",
  "ScanningSequence": "EP",
  "SequenceName": "*epfid2d1_80",
  "SequenceVariant": "SK",
  "SeriesDescription": "func-bold_fa-10",
  "SeriesNumber": 9,
  "ShimSetting": [4136, -7697, -7505, 212, -74, -290, -77, 94],
  "SliceThickness": 3.5,
  "SliceTiming": [0.99, 0, 1.0575, 0.0675, 1.1225, 0.1325, 1.1875, 0.1975, 1.255, 0.265, 1.32, 0.33, 1.3875, 0.3975, 1.4525, 0.4625, 1.5175, 0.5275, 1.585, 0.595, 1.65, 0.66, 1.7175, 0.7275, 1.7825, 0.7925, 1.8475, 0.8575, 1.915, 0.925],
  "SoftwareVersions": "syngo MR E11",
  "SpacingBetweenSlices": 3.99,
  "StationName": "AWP66112",
  "TotalReadoutTime": 0.0395,
  "TxRefAmp": 212.142,
  "dcmmeta_affine": [
    [-2.9992008209228516, -0.018321333453059196, -0.0888151079416275, 121.72550201416016],
    [-0.036858826875686646, 2.8715734481811523, 1.1538907289505005, -121.5216293334961],
    [-0.0586211234331131, -0.8681763410568237, 3.818474531173706, -30.47022819519043],
    [0.0, 0.0, 0.0, 1.0]
],
  "dcmmeta_reorient_transform": [
    [0.0, -1.0, 0.0, 79.0],
    [1.0, 0.0, 0.0, 0.0],
    [0.0, 0.0, 1.0, 0.0],
    [0.0, 0.0, 0.0, 1.0]
],
  "dcmmeta_shape": [80, 80, 30, 200],
  "dcmmeta_slice_dim": 2,
  "dcmmeta_version": 0.6,
  "global": {
    "const": {
      "AccessionNumber": "qa64",
      "AcquisitionMatrix": [80, 0, 0, 80],
      "AngioFlag": "N",
      "BitsAllocated": 16,
      "BitsStored": 12,
      "BodyPartExamined": "BRAIN",
      "Columns": 480,
      "EchoNumbers": 1,
      "EchoTime": 30.0,
      "EchoTrainLength": 80,
      "FlipAngle": 10.0,
      "HighBit": 11,
      "ImageOrientationPatient": [0.99973357509345, 0.01228627592614, -0.0195403749899, -0.006107111304, 0.95719115514423, 0.28939211410331],
      "ImagePositionPatient": [-716.45399216081, -687.01912981861, -260.96720235697],
      "ImageType": [
        "ORIGINAL",
        "PRIMARY",
        "M",
        "ND",
        "NORM",
        "MOSAIC"
],
      "ImagedNucleus": "1H",
      "ImagingFrequency": 123.252354,
      "InPlanePhaseEncodingDirection": "COL",
      "MRAcquisitionType": "2D",
      "MagneticFieldStrength": 3.0,
      "Manufacturer": "SIEMENS",
      "ManufacturerModelName": "Prisma",
      "Modality": "MR",
      "NumberOfAverages": 1.0,
      "NumberOfPhaseEncodingSteps": 80,
      "PercentPhaseFieldOfView": 100.0,
      "PercentSampling": 100.0,
      "PerformedProcedureStepStartTime": "085906.888000",
      "PhotometricInterpretation": "MONOCHROME2",
      "PixelBandwidth": 2315.0,
      "PixelRepresentation": 0,
      "PixelSpacing": [3.0, 3.0],
      "ProtocolName": "func-bold_fa-10",
      "RepetitionTime": 2000.0,
      "Rows": 480,
      "SAR": 0.00757815154924,
      "SamplesPerPixel": 1,
      "ScanOptions": "FS",
      "ScanningSequence": "EP",
      "SequenceName": "*epfid2d1_80",
      "SequenceVariant": "SK",
      "SeriesDescription": "func-bold_fa-10",
      "SeriesNumber": 9,
      "SeriesTime": "091807.270000",
      "SliceLocation": -67.013418936963,
      "SliceThickness": 3.5,
      "SmallestImagePixelValue": 0,
      "SoftwareVersions": "syngo MR E11",
      "SpacingBetweenSlices": 3.9900000441036,
      "SpecificCharacterSet": "ISO_IR 100",
      "StudyID": "47",
      "StudyTime": "085906.809000",
      "TransmitCoilName": "Body",
      "VariableFlipAngleFlag": "N",
      "WindowCenterWidthExplanation": "Algo1",
      "dBdt": 0.0},
    "slices": {}
  },
  "time": {
    "samples": {
      "AcquisitionNumber": [1, 2, 3, 4, 5, 6, 7, 8, 9, 10, 11, 12, 13, 14, 15, 16, 17, 18, 19, 20, 21, 22, 23, 24, 25, 26, 27, 28, 29, 30, 31, 32, 33, 34, 35, 36, 37, 38, 39, 40, 41, 42, 43, 44, 45, 46, 47, 48, 49, 50, 51, 52, 53, 54, 55, 56, 57, 58, 59, 60, 61, 62, 63, 64, 65, 66, 67, 68, 69, 70, 71, 72, 73, 74, 75, 76, 77, 78, 79, 80, 81, 82, 83, 84, 85, 86, 87, 88, 89, 90, 91, 92, 93, 94, 95, 96, 97, 98, 99, 100, 101, 102, 103, 104, 105, 106, 107, 108, 109, 110, 111, 112, 113, 114, 115, 116, 117, 118, 119, 120, 121, 122, 123, 124, 125, 126, 127, 128, 129, 130, 131, 132, 133, 134, 135, 136, 137, 138, 139, 140, 141, 142, 143, 144, 145, 146, 147, 148, 149, 150, 151, 152, 153, 154, 155, 156, 157, 158, 159, 160, 161, 162, 163, 164, 165, 166, 167, 168, 169, 170, 171, 172, 173, 174, 175, 176, 177, 178, 179, 180, 181, 182, 183, 184, 185, 186, 187, 188, 189, 190, 191, 192, 193, 194, 195, 196, 197, 198, 199, 200],
      "AcquisitionTime": ["091725.532500", "091727.532500", "091729.532500", "091731.532500", "091733.532500", "091735.532500", "091737.532500", "091739.532500", "091741.532500", "091743.532500", "091745.532500", "091747.532500", "091749.532500", "091751.532500", "091753.532500", "091755.532500", "091757.532500", "091759.532500", "091801.532500", "091803.532500", "091805.532500", "091807.532500", "091809.532500", "091811.532500", "091813.532500", "091815.532500", "091817.532500", "091819.532500", "091821.532500", "091823.532500", "091825.532500", "091827.532500", "091829.532500", "091831.532500", "091833.532500", "091835.532500", "091837.532500", "091839.532500", "091841.532500", "091843.532500", "091845.532500", "091847.532500", "091849.532500", "091851.532500", "091853.532500", "091855.532500", "091857.532500", "091859.532500", "091901.532500", "091903.532500", "091905.532500", "091907.532500", "091909.532500", "091911.532500", "091913.532500", "091915.532500", "091917.532500", "091919.532500", "091921.532500", "091923.532500", "091925.532500", "091927.532500", "091929.532500", "091931.532500", "091933.532500", "091935.532500", "091937.532500", "091939.532500", "091941.532500", "091943.532500", "091945.532500", "091947.532500", "091949.532500", "091951.532500", "091953.532500", "091955.532500", "091957.532500", "091959.532500", "092001.532500", "092003.532500", "092005.532500", "092007.532500", "092009.532500", "092011.532500", "092013.532500", "092015.532500", "092017.532500", "092019.532500", "092021.532500", "092023.532500", "092025.532500", "092027.532500", "092029.532500", "092031.532500", "092033.532500", "092035.532500", "092037.532500", "092039.532500", "092041.532500", "092043.532500", "092045.532500", "092047.532500", "092049.532500", "092051.532500", "092053.532500", "092055.532500", "092057.532500", "092059.532500", "092101.532500", "092103.532500", "092105.532500", "092107.532500", "092109.532500", "092111.532500", "092113.532500", "092115.532500", "092117.532500", "092119.532500", "092121.532500", "092123.532500", "092125.532500", "092127.532500", "092129.532500", "092131.532500", "092133.532500", "092135.532500", "092137.532500", "092139.532500", "092141.532500", "092143.532500", "092145.532500", "092147.532500", "092149.532500", "092151.532500", "092153.532500", "092155.532500", "092157.532500", "092159.532500", "092201.532500", "092203.532500", "092205.532500", "092207.532500", "092209.532500", "092211.532500", "092213.532500", "092215.532500", "092217.532500", "092219.532500", "092221.532500", "092223.532500", "092225.532500", "092227.532500", "092229.532500", "092231.532500", "092233.532500", "092235.532500", "092237.532500", "092239.532500", "092241.532500", "092243.532500", "092245.532500", "092247.532500", "092249.532500", "092251.532500", "092253.532500", "092255.532500", "092257.532500", "092259.532500", "092301.532500", "092303.532500", "092305.532500", "092307.532500", "092309.532500", "092311.532500", "092313.532500", "092315.532500", "092317.532500", "092319.532500", "092321.532500", "092323.532500", "092325.532500", "092327.532500", "092329.532500", "092331.532500", "092333.532500", "092335.532500", "092337.532500", "092339.532500", "092341.532500", "092343.532500", "092345.532500", "092347.532500", "092349.532500", "092351.532500", "092353.532500", "092355.532500", "092357.532500", "092359.532500", "092401.532500", "092403.532500"],
      "ContentTime": ["091807.273000", "091807.276000", "091807.279000", "091807.281000", "091807.284000", "091807.286000", "091807.289000", "091807.291000", "091807.294000", "091807.296000", "091807.299000", "091807.301000", "091807.304000", "091807.306000", "091807.309000", "091807.311000", "091807.314000", "091807.316000", "091807.319000", "091807.321000", "091847.268000", "091847.271000", "091847.274000", "091847.276000", "091847.291000", "091847.294000", "091847.296000", "091847.299000", "091847.301000", "091847.304000", "091847.306000", "091847.308000", "091847.311000", "091847.313000", "091847.316000", "091847.318000", "091847.321000", "091847.323000", "091847.326000", "091847.328000", "091927.267000", "091927.270000", "091927.273000", "091927.275000", "091927.278000", "091927.280000", "091927.283000", "091927.285000", "091927.288000", "091927.290000", "091927.292000", "091927.295000", "091927.297000", "091927.300000", "091927.302000", "091927.305000", "091927.307000", "091927.310000", "091927.312000", "091927.314000", "092007.268000", "092007.271000", "092007.274000", "092007.276000", "092007.279000", "092007.281000", "092007.284000", "092007.286000", "092007.289000", "092007.291000", "092007.294000", "092007.296000", "092007.299000", "092007.301000", "092007.304000", "092007.306000", "092007.309000", "092007.311000", "092007.314000", "092007.316000", "092047.268000", "092047.271000", "092047.274000", "092047.276000", "092047.279000", "092047.281000", "092047.284000", "092047.286000", "092047.289000", "092047.291000", "092047.294000", "092047.296000", "092047.299000", "092047.301000", "092047.304000", "092047.306000", "092047.309000", "092047.311000", "092047.314000", "092047.316000", "092127.267000", "092127.270000", "092127.273000", "092127.275000", "092127.278000", "092127.280000", "092127.282000", "092127.291000", "092127.294000", "092127.296000", "092127.299000", "092127.301000", "092127.304000", "092127.306000", "092127.309000", "092127.311000", "092127.314000", "092127.316000", "092127.318000", "092127.321000", "092207.268000", "092207.271000", "092207.274000", "092207.289000", "092207.292000", "092207.294000", "092207.297000", "092207.299000", "092207.302000", "092207.304000", "092207.307000", "092207.309000", "092207.311000", "092207.314000", "092207.316000", "092207.319000", "092207.321000", "092207.324000", "092207.326000", "092207.329000", "092247.268000", "092247.271000", "092247.274000", "092247.276000", "092247.279000", "092247.281000", "092247.284000", "092247.286000", "092247.289000", "092247.292000", "092247.294000", "092247.297000", "092247.299000", "092247.302000", "092247.305000", "092247.307000", "092247.310000", "092247.312000", "092247.315000", "092247.317000", "092327.268000", "092327.271000", "092327.274000", "092327.276000", "092327.279000", "092327.281000", "092327.284000", "092327.286000", "092327.289000", "092327.291000", "092327.293000", "092327.296000", "092327.299000", "092327.301000", "092327.303000", "092327.306000", "092327.308000", "092327.311000", "092327.314000", "092327.316000", "092405.529000", "092405.532000", "092405.534000", "092405.537000", "092405.539000", "092405.542000", "092405.545000", "092405.547000", "092405.550000", "092405.552000", "092405.555000", "092405.557000", "092405.566000", "092405.570000", "092405.575000", "092405.579000", "092405.582000", "092405.585000", "092405.588000", "092405.590000"],
      "InstanceCreationTime": ["091807.273000", "091807.276000", "091807.279000", "091807.281000", "091807.284000", "091807.286000", "091807.289000", "091807.291000", "091807.294000", "091807.296000", "091807.299000", "091807.301000", "091807.304000", "091807.306000", "091807.309000", "091807.311000", "091807.314000", "091807.316000", "091807.319000", "091807.321000", "091847.268000", "091847.271000", "091847.274000", "091847.276000", "091847.291000", "091847.294000", "091847.296000", "091847.299000", "091847.301000", "091847.304000", "091847.306000", "091847.308000", "091847.311000", "091847.313000", "091847.316000", "091847.318000", "091847.321000", "091847.323000", "091847.326000", "091847.328000", "091927.267000", "091927.270000", "091927.273000", "091927.275000", "091927.278000", "091927.280000", "091927.283000", "091927.285000", "091927.288000", "091927.290000", "091927.292000", "091927.295000", "091927.297000", "091927.300000", "091927.302000", "091927.305000", "091927.307000", "091927.310000", "091927.312000", "091927.314000", "092007.268000", "092007.271000", "092007.274000", "092007.276000", "092007.279000", "092007.281000", "092007.284000", "092007.286000", "092007.289000", "092007.291000", "092007.294000", "092007.296000", "092007.299000", "092007.301000", "092007.304000", "092007.306000", "092007.309000", "092007.311000", "092007.314000", "092007.316000", "092047.268000", "092047.271000", "092047.274000", "092047.276000", "092047.279000", "092047.281000", "092047.284000", "092047.286000", "092047.289000", "092047.291000", "092047.294000", "092047.296000", "092047.299000", "092047.301000", "092047.304000", "092047.306000", "092047.309000", "092047.311000", "092047.314000", "092047.316000", "092127.267000", "092127.270000", "092127.273000", "092127.275000", "092127.278000", "092127.280000", "092127.282000", "092127.291000", "092127.294000", "092127.296000", "092127.299000", "092127.301000", "092127.304000", "092127.306000", "092127.309000", "092127.311000", "092127.314000", "092127.316000", "092127.318000", "092127.321000", "092207.268000", "092207.271000", "092207.274000", "092207.289000", "092207.292000", "092207.294000", "092207.297000", "092207.299000", "092207.302000", "092207.304000", "092207.307000", "092207.309000", "092207.311000", "092207.314000", "092207.316000", "092207.319000", "092207.321000", "092207.324000", "092207.326000", "092207.329000", "092247.268000", "092247.271000", "092247.274000", "092247.276000", "092247.279000", "092247.281000", "092247.284000", "092247.286000", "092247.289000", "092247.292000", "092247.294000", "092247.297000", "092247.299000", "092247.302000", "092247.305000", "092247.307000", "092247.310000", "092247.312000", "092247.315000", "092247.317000", "092327.268000", "092327.271000", "092327.274000", "092327.276000", "092327.279000", "092327.281000", "092327.284000", "092327.286000", "092327.289000", "092327.291000", "092327.293000", "092327.296000", "092327.299000", "092327.301000", "092327.303000", "092327.306000", "092327.308000", "092327.311000", "092327.314000", "092327.316000", "092405.529000", "092405.532000", "092405.534000", "092405.537000", "092405.539000", "092405.542000", "092405.545000", "092405.547000", "092405.550000", "092405.552000", "092405.555000", "092405.557000", "092405.566000", "092405.570000", "092405.575000", "092405.579000", "092405.582000", "092405.585000", "092405.588000", "092405.590000"],
      "InstanceNumber": [1, 2, 3, 4, 5, 6, 7, 8, 9, 10, 11, 12, 13, 14, 15, 16, 17, 18, 19, 20, 21, 22, 23, 24, 25, 26, 27, 28, 29, 30, 31, 32, 33, 34, 35, 36, 37, 38, 39, 40, 41, 42, 43, 44, 45, 46, 47, 48, 49, 50, 51, 52, 53, 54, 55, 56, 57, 58, 59, 60, 61, 62, 63, 64, 65, 66, 67, 68, 69, 70, 71, 72, 73, 74, 75, 76, 77, 78, 79, 80, 81, 82, 83, 84, 85, 86, 87, 88, 89, 90, 91, 92, 93, 94, 95, 96, 97, 98, 99, 100, 101, 102, 103, 104, 105, 106, 107, 108, 109, 110, 111, 112, 113, 114, 115, 116, 117, 118, 119, 120, 121, 122, 123, 124, 125, 126, 127, 128, 129, 130, 131, 132, 133, 134, 135, 136, 137, 138, 139, 140, 141, 142, 143, 144, 145, 146, 147, 148, 149, 150, 151, 152, 153, 154, 155, 156, 157, 158, 159, 160, 161, 162, 163, 164, 165, 166, 167, 168, 169, 170, 171, 172, 173, 174, 175, 176, 177, 178, 179, 180, 181, 182, 183, 184, 185, 186, 187, 188, 189, 190, 191, 192, 193, 194, 195, 196, 197, 198, 199, 200],
      "LargestImagePixelValue": [639, 641, 644, 643, 640, 640, 642, 641, 638, 643, 639, 641, 642, 641, 641, 639, 641, 639, 638, 638, 636, 637, 640, 641, 638, 639, 640, 639, 637, 639, 639, 641, 638, 639, 639, 638, 640, 641, 641, 638, 638, 637, 638, 640, 642, 640, 639, 639, 638, 637, 639, 638, 641, 637, 637, 638, 637, 641, 637, 640, 639, 640, 639, 640, 640, 637, 638, 639, 640, 642, 640, 636, 640, 638, 638, 639, 637, 640, 639, 636, 637, 635, 638, 641, 636, 637, 638, 637, 639, 638, 640, 640, 638, 638, 640, 639, 639, 637, 637, 638, 639, 640, 638, 637, 639, 635, 640, 638, 641, 640, 638, 640, 640, 639, 636, 637, 637, 638, 637, 638, 638, 637, 637, 639, 637, 638, 641, 638, 636, 640, 638, 638, 639, 637, 642, 639, 639, 636, 642, 639, 637, 637, 636, 640, 639, 640, 641, 640, 640, 642, 639, 638, 638, 638, 640, 638, 636, 639, 637, 638, 638, 636, 639, 639, 637, 641, 638, 637, 640, 638, 637, 638, 639, 640, 638, 639, 637, 640, 640, 639, 637, 640, 636, 640, 634, 638, 633, 638, 639, 639, 636, 639, 637, 639, 635, 642, 636, 637, 638, 641],
      "WindowCenter": [458.0, 458.0, 458.0, 458.0, 458.0, 457.0, 457.0, 457.0, 458.0, 458.0, 458.0, 457.0, 457.0, 457.0, 457.0, 457.0, 457.0, 457.0, 457.0, 457.0, 457.0, 457.0, 457.0, 457.0, 457.0, 457.0, 457.0, 457.0, 457.0, 457.0, 457.0, 457.0, 457.0, 457.0, 457.0, 457.0, 457.0, 457.0, 457.0, 457.0, 457.0, 457.0, 457.0, 457.0, 457.0, 457.0, 457.0, 457.0, 457.0, 457.0, 457.0, 457.0, 457.0, 456.0, 457.0, 457.0, 457.0, 457.0, 457.0, 457.0, 457.0, 457.0, 457.0, 456.0, 457.0, 457.0, 456.0, 456.0, 457.0, 457.0, 457.0, 456.0, 457.0, 456.0, 457.0, 457.0, 457.0, 457.0, 457.0, 457.0, 457.0, 457.0, 457.0, 456.0, 456.0, 457.0, 457.0, 456.0, 456.0, 457.0, 457.0, 457.0, 456.0, 456.0, 456.0, 456.0, 457.0, 456.0, 457.0, 457.0, 456.0, 456.0, 456.0, 456.0, 457.0, 457.0, 456.0, 456.0, 456.0, 456.0, 456.0, 456.0, 457.0, 456.0, 456.0, 456.0, 456.0, 456.0, 456.0, 456.0, 456.0, 456.0, 456.0, 456.0, 456.0, 456.0, 456.0, 456.0, 456.0, 456.0, 456.0, 456.0, 456.0, 456.0, 456.0, 456.0, 456.0, 456.0, 456.0, 456.0, 456.0, 456.0, 456.0, 456.0, 456.0, 456.0, 456.0, 456.0, 456.0, 456.0, 456.0, 456.0, 456.0, 456.0, 456.0, 456.0, 456.0, 456.0, 456.0, 456.0, 456.0, 456.0, 456.0, 456.0, 456.0, 456.0, 456.0, 456.0, 456.0, 456.0, 456.0, 456.0, 456.0, 456.0, 456.0, 456.0, 456.0, 456.0, 456.0, 456.0, 456.0, 456.0, 456.0, 456.0, 456.0, 456.0, 456.0, 456.0, 456.0, 455.0, 456.0, 456.0, 456.0, 456.0, 455.0, 456.0, 456.0, 455.0, 455.0, 456.0],
      "WindowWidth": [952.0, 951.0, 951.0, 951.0, 951.0, 950.0, 950.0, 950.0, 951.0, 951.0, 951.0, 950.0, 950.0, 950.0, 950.0, 950.0, 950.0, 950.0, 950.0, 950.0, 950.0, 950.0, 950.0, 951.0, 950.0, 950.0, 950.0, 950.0, 950.0, 950.0, 950.0, 950.0, 950.0, 950.0, 950.0, 950.0, 950.0, 950.0, 950.0, 950.0, 950.0, 950.0, 950.0, 950.0, 950.0, 950.0, 950.0, 950.0, 950.0, 950.0, 950.0, 950.0, 950.0, 949.0, 950.0, 950.0, 950.0, 950.0, 950.0, 950.0, 950.0, 950.0, 950.0, 949.0, 950.0, 950.0, 949.0, 949.0, 950.0, 950.0, 950.0, 949.0, 950.0, 949.0, 950.0, 949.0, 950.0, 950.0, 950.0, 949.0, 949.0, 949.0, 949.0, 949.0, 949.0, 949.0, 949.0, 949.0, 949.0, 949.0, 949.0, 949.0, 949.0, 949.0, 949.0, 949.0, 949.0, 949.0, 949.0, 949.0, 949.0, 949.0, 949.0, 949.0, 949.0, 949.0, 949.0, 949.0, 949.0, 949.0, 949.0, 949.0, 949.0, 949.0, 949.0, 949.0, 949.0, 949.0, 949.0, 948.0, 948.0, 948.0, 948.0, 948.0, 948.0, 949.0, 948.0, 948.0, 948.0, 948.0, 948.0, 948.0, 948.0, 948.0, 948.0, 948.0, 948.0, 948.0, 948.0, 948.0, 948.0, 948.0, 948.0, 948.0, 948.0, 948.0, 948.0, 948.0, 948.0, 948.0, 948.0, 948.0, 948.0, 948.0, 948.0, 948.0, 948.0, 948.0, 948.0, 948.0, 948.0, 948.0, 948.0, 948.0, 948.0, 948.0, 948.0, 948.0, 948.0, 948.0, 948.0, 948.0, 948.0, 948.0, 947.0, 948.0, 948.0, 948.0, 948.0, 948.0, 948.0, 948.0, 948.0, 948.0, 948.0, 948.0, 948.0, 948.0, 948.0, 947.0, 948.0, 948.0, 948.0, 948.0, 947.0, 948.0, 948.0, 947.0, 947.0, 948.0]
    },
    "slices": {}
  }
}