{
  "AcquisitionMatrixPE": 80,
  "AcquisitionNumber": 1,
  "AcquisitionTime": "09:03:48.202500",
  "BandwidthPerPixelPhaseEncode": 48.077,
  "BaseResolution": 80,
  "BodyPartExamined": "BRAIN",
  "CoilCombinationMethod": "Sum of Squares",
  "ConsistencyInfo": "N4_VE11C_LATEST_20160120",
  "ConversionSoftware": "dcm2niix",
  "ConversionSoftwareVersion": "v1.0.20220720",
  "DerivedVendorReportedEchoSpacing": 0.000519999,
  "DeviceSerialNumber": "66112",
  "DwellTime": 2.7e-06,
  "EchoTime": 0.035,
  "EchoTrainLength": 39,
  "EffectiveEchoSpacing": 0.00026,
  "FlipAngle": 90,
  "HeudiconvVersion": "0.13.1",
  "ImageOrientationPatientDICOM": [0.999734, 0.0122863, -0.0195404, -0.00610711, 0.957191, 0.289392],
  "ImageOrientationText": "Tra>Cor(16.8)>Sag(-1.3)",
  "ImageType": [
    "ORIGINAL",
    "PRIMARY",
    "M",
    "ND",
    "NORM",
    "MOSAIC"
],
  "ImagingFrequency": 123.252,
  "InPlanePhaseEncodingDirectionDICOM": "COL",
  "InstitutionAddress": "Maynard 3,Hanover,NH,US,03755",
  "InstitutionName": "Dartmouth College - PBS",
  "InstitutionalDepartmentName": "Department",
  "MRAcquisitionType": "2D",
  "MagneticFieldStrength": 3,
  "Manufacturer": "Siemens",
  "ManufacturersModelName": "Prisma",
  "MatrixCoilMode": "GRAPPA",
  "Modality": "MR",
  "NonlinearGradientCorrection": false,
  "ParallelReductionFactorInPlane": 2,
  "PartialFourier": 1,
  "PatientPosition": "HFS",
  "PercentPhaseFOV": 100,
  "PercentSampling": 100,
  "PhaseEncodingDirection": "j-",
  "PhaseEncodingSteps": 79,
  "PhaseResolution": 1,
  "PixelBandwidth": 2315,
  "ProcedureStepDescription": "dbic^QA",
  "ProtocolName": "func-bold_task-rest_acq-p2",
  "PulseSequenceDetails": "%SiemensSeq%\\ep2d_bold",
  "ReceiveCoilActiveElements": "HC1-7;NC1,2",
  "ReceiveCoilName": "HeadNeck_64",
  "ReconMatrixPE": 80,
  "RefLinesPE": 24,
  "RepetitionTime": 2,
  "SAR": 0.0359489,
  "ScanOptions": "FS",
  "ScanningSequence": "EP",
  "SequenceName": "*epfid2d1_80",
  "SequenceVariant": "SK",
  "SeriesDescription": "func-bold_task-rest_acq-p2",
  "SeriesNumber": 5,
  "ShimSetting": [4136, -7697, -7505, 211, -73, -291, -78, 94],
  "SliceThickness": 3.5,
  "SliceTiming": [0.99, 0, 1.055, 0.065, 1.1225, 0.1325, 1.1875, 0.1975, 1.2525, 0.2625, 1.32, 0.33, 1.385, 0.395, 1.4525, 0.4625, 1.5175, 0.5275, 1.5825, 0.5925, 1.65, 0.66, 1.715, 0.725, 1.7825, 0.7925, 1.8475, 0.8575, 1.9125, 0.9225],
  "SoftwareVersions": "syngo MR E11",
  "SpacingBetweenSlices": 3.99,
  "StationName": "AWP66112",
  "TaskName": "rest",
  "TotalReadoutTime": 0.02054,
  "TxRefAmp": 212.142,
  "dcmmeta_affine": [
    [-2.9992008209228516, -0.018321333453059196, -0.0888151079416275, 123.68515014648438],
    [-0.036858826875686646, 2.8715734481811523, 1.1538907289505005, -123.70661926269531],
    [-0.0586211234331131, -0.8681763410568237, 3.818474531173706, -31.10017204284668],
    [0.0, 0.0, 0.0, 1.0]
],
  "dcmmeta_reorient_transform": [
    [0.0, -1.0, 0.0, 79.0],
    [1.0, 0.0, 0.0, 0.0],
    [0.0, 0.0, 1.0, 0.0],
    [0.0, 0.0, 0.0, 1.0]
],
  "dcmmeta_shape": [80, 80, 30, 200],
  "dcmmeta_slice_dim": 2,
  "dcmmeta_version": 0.6,
  "global": {
    "const": {
      "AccessionNumber": "qa64",
      "AcquisitionMatrix": [80, 0, 0, 80],
      "AngioFlag": "N",
      "BitsAllocated": 16,
      "BitsStored": 12,
      "BodyPartExamined": "BRAIN",
      "Columns": 480,
      "EchoNumbers": 1,
      "EchoTime": 35.0,
      "EchoTrainLength": 39,
      "FlipAngle": 90.0,
      "HighBit": 11,
      "ImageOrientationPatient": [0.99973357509345, 0.01228627592614, -0.0195403749899, -0.006107111304, 0.95719115514423, 0.28939211410331],
      "ImagePositionPatient": [-718.41364220048, -684.83414084308, -261.59714620463],
      "ImageType": [
        "ORIGINAL",
        "PRIMARY",
        "M",
        "ND",
        "NORM",
        "MOSAIC"
],
      "ImagedNucleus": "1H",
      "ImagingFrequency": 123.252352,
      "InPlanePhaseEncodingDirection": "COL",
      "MRAcquisitionType": "2D",
      "MagneticFieldStrength": 3.0,
      "Manufacturer": "SIEMENS",
      "ManufacturerModelName": "Prisma",
      "Modality": "MR",
      "NumberOfAverages": 1.0,
      "NumberOfPhaseEncodingSteps": 79,
      "PercentPhaseFieldOfView": 100.0,
      "PercentSampling": 100.0,
      "PerformedProcedureStepStartTime": "085906.888000",
      "PhotometricInterpretation": "MONOCHROME2",
      "PixelBandwidth": 2315.0,
      "PixelRepresentation": 0,
      "PixelSpacing": [3.0, 3.0],
      "ProtocolName": "func-bold_task-rest_acq-p2",
      "RepetitionTime": 2000.0,
      "Rows": 480,
      "SAR": 0.03594888283969,
      "SamplesPerPixel": 1,
      "ScanOptions": "FS",
      "ScanningSequence": "EP",
      "SequenceName": "*epfid2d1_80",
      "SequenceVariant": "SK",
      "SeriesDescription": "func-bold_task-rest_acq-p2",
      "SeriesNumber": 5,
      "SeriesTime": "090447.355000",
      "SliceLocation": -68.291792286479,
      "SliceThickness": 3.5,
      "SmallestImagePixelValue": 0,
      "SoftwareVersions": "syngo MR E11",
      "SpacingBetweenSlices": 3.9899999277275,
      "SpecificCharacterSet": "ISO_IR 100",
      "StudyID": "47",
      "StudyTime": "085906.809000",
      "TransmitCoilName": "Body",
      "VariableFlipAngleFlag": "N",
      "WindowCenterWidthExplanation": "Algo1",
      "dBdt": 0.0},
    "slices": {}
  },
  "time": {
    "samples": {
      "AcquisitionNumber": [1, 2, 3, 4, 5, 6, 7, 8, 9, 10, 11, 12, 13, 14, 15, 16, 17, 18, 19, 20, 21, 22, 23, 24, 25, 26, 27, 28, 29, 30, 31, 32, 33, 34, 35, 36, 37, 38, 39, 40, 41, 42, 43, 44, 45, 46, 47, 48, 49, 50, 51, 52, 53, 54, 55, 56, 57, 58, 59, 60, 61, 62, 63, 64, 65, 66, 67, 68, 69, 70, 71, 72, 73, 74, 75, 76, 77, 78, 79, 80, 81, 82, 83, 84, 85, 86, 87, 88, 89, 90, 91, 92, 93, 94, 95, 96, 97, 98, 99, 100, 101, 102, 103, 104, 105, 106, 107, 108, 109, 110, 111, 112, 113, 114, 115, 116, 117, 118, 119, 120, 121, 122, 123, 124, 125, 126, 127, 128, 129, 130, 131, 132, 133, 134, 135, 136, 137, 138, 139, 140, 141, 142, 143, 144, 145, 146, 147, 148, 149, 150, 151, 152, 153, 154, 155, 156, 157, 158, 159, 160, 161, 162, 163, 164, 165, 166, 167, 168, 169, 170, 171, 172, 173, 174, 175, 176, 177, 178, 179, 180, 181, 182, 183, 184, 185, 186, 187, 188, 189, 190, 191, 192, 193, 194, 195, 196, 197, 198, 199, 200],
      "AcquisitionTime": ["090348.202500", "090350.202500", "090352.202500", "090354.202500", "090356.202500", "090358.202500", "090400.202500", "090402.202500", "090404.202500", "090406.202500", "090408.202500", "090410.202500", "090412.202500", "090414.202500", "090416.202500", "090418.202500", "090420.202500", "090422.202500", "090424.202500", "090426.202500", "090428.202500", "090430.202500", "090432.202500", "090434.202500", "090436.202500", "090438.202500", "090440.202500", "090442.202500", "090444.202500", "090446.202500", "090448.202500", "090450.202500", "090452.202500", "090454.202500", "090456.202500", "090458.202500", "090500.202500", "090502.202500", "090504.202500", "090506.202500", "090508.202500", "090510.202500", "090512.202500", "090514.202500", "090516.202500", "090518.202500", "090520.202500", "090522.202500", "090524.202500", "090526.202500", "090528.202500", "090530.202500", "090532.202500", "090534.202500", "090536.202500", "090538.202500", "090540.202500", "090542.202500", "090544.202500", "090546.202500", "090548.202500", "090550.202500", "090552.202500", "090554.202500", "090556.202500", "090558.202500", "090600.202500", "090602.202500", "090604.202500", "090606.202500", "090608.202500", "090610.202500", "090612.202500", "090614.202500", "090616.202500", "090618.202500", "090620.202500", "090622.202500", "090624.202500", "090626.202500", "090628.202500", "090630.202500", "090632.202500", "090634.202500", "090636.202500", "090638.202500", "090640.202500", "090642.202500", "090644.202500", "090646.202500", "090648.202500", "090650.202500", "090652.202500", "090654.202500", "090656.202500", "090658.202500", "090700.202500", "090702.202500", "090704.202500", "090706.202500", "090708.202500", "090710.202500", "090712.202500", "090714.202500", "090716.202500", "090718.202500", "090720.202500", "090722.202500", "090724.202500", "090726.202500", "090728.202500", "090730.202500", "090732.202500", "090734.202500", "090736.202500", "090738.202500", "090740.202500", "090742.202500", "090744.202500", "090746.202500", "090748.202500", "090750.202500", "090752.202500", "090754.202500", "090756.202500", "090758.202500", "090800.202500", "090802.202500", "090804.202500", "090806.202500", "090808.202500", "090810.202500", "090812.202500", "090814.202500", "090816.202500", "090818.202500", "090820.202500", "090822.202500", "090824.202500", "090826.202500", "090828.202500", "090830.202500", "090832.202500", "090834.202500", "090836.202500", "090838.202500", "090840.202500", "090842.202500", "090844.202500", "090846.202500", "090848.202500", "090850.202500", "090852.202500", "090854.202500", "090856.202500", "090858.202500", "090900.202500", "090902.202500", "090904.202500", "090906.202500", "090908.202500", "090910.202500", "090912.202500", "090914.202500", "090916.202500", "090918.202500", "090920.202500", "090922.202500", "090924.202500", "090926.202500", "090928.202500", "090930.202500", "090932.202500", "090934.202500", "090936.202500", "090938.202500", "090940.202500", "090942.202500", "090944.202500", "090946.202500", "090948.202500", "090950.202500", "090952.202500", "090954.202500", "090956.202500", "090958.202500", "091000.202500", "091002.202500", "091004.202500", "091006.202500", "091008.202500", "091010.202500", "091012.202500", "091014.202500", "091016.202500", "091018.202500", "091020.202500", "091022.202500", "091024.202500", "091026.202500"],
      "ContentTime": ["090447.359000", "090447.362000", "090447.365000", "090447.367000", "090447.370000", "090447.373000", "090447.375000", "090447.378000", "090447.380000", "090447.383000", "090447.385000", "090447.388000", "090447.390000", "090447.393000", "090447.395000", "090447.398000", "090447.400000", "090447.403000", "090447.405000", "090447.408000", "090447.416000", "090447.419000", "090447.421000", "090447.424000", "090447.426000", "090447.429000", "090447.431000", "090447.434000", "090447.436000", "090527.337000", "090527.341000", "090527.343000", "090527.346000", "090527.348000", "090527.351000", "090527.353000", "090527.356000", "090527.358000", "090527.361000", "090527.363000", "090527.366000", "090527.368000", "090527.371000", "090527.373000", "090527.376000", "090527.386000", "090527.389000", "090527.392000", "090527.394000", "090607.338000", "090607.341000", "090607.344000", "090607.347000", "090607.349000", "090607.352000", "090607.354000", "090607.357000", "090607.360000", "090607.362000", "090607.365000", "090607.367000", "090607.370000", "090607.372000", "090607.375000", "090607.377000", "090607.380000", "090607.382000", "090607.385000", "090607.387000", "090647.339000", "090647.341000", "090647.344000", "090647.347000", "090647.349000", "090647.352000", "090647.354000", "090647.357000", "090647.360000", "090647.362000", "090647.365000", "090647.368000", "090647.370000", "090647.373000", "090647.375000", "090647.378000", "090647.380000", "090647.383000", "090647.385000", "090647.388000", "090727.338000", "090727.340000", "090727.343000", "090727.345000", "090727.348000", "090727.350000", "090727.353000", "090727.355000", "090727.358000", "090727.361000", "090727.363000", "090727.366000", "090727.368000", "090727.371000", "090727.374000", "090727.376000", "090727.379000", "090727.381000", "090727.384000", "090727.386000", "090807.338000", "090807.341000", "090807.344000", "090807.347000", "090807.349000", "090807.352000", "090807.354000", "090807.357000", "090807.360000", "090807.362000", "090807.365000", "090807.368000", "090807.370000", "090807.373000", "090807.375000", "090807.378000", "090807.380000", "090807.383000", "090807.386000", "090807.388000", "090847.338000", "090847.341000", "090847.344000", "090847.347000", "090847.349000", "090847.352000", "090847.355000", "090847.357000", "090847.360000", "090847.363000", "090847.365000", "090847.368000", "090847.370000", "090847.373000", "090847.375000", "090847.388000", "090847.391000", "090847.393000", "090847.396000", "090847.399000", "090927.338000", "090927.341000", "090927.344000", "090927.347000", "090927.349000", "090927.352000", "090927.355000", "090927.357000", "090927.360000", "090927.362000", "090927.365000", "090927.367000", "090927.370000", "090927.372000", "090927.375000", "090927.377000", "090927.380000", "090927.383000", "090927.385000", "090927.388000", "091007.337000", "091007.340000", "091007.343000", "091007.346000", "091007.348000", "091007.351000", "091007.354000", "091007.356000", "091007.359000", "091007.362000", "091007.364000", "091007.367000", "091007.369000", "091007.372000", "091007.375000", "091007.377000", "091007.380000", "091007.382000", "091007.385000", "091007.387000", "091027.591000", "091027.594000", "091027.596000", "091027.599000", "091027.601000", "091027.604000", "091027.607000", "091027.610000", "091027.612000", "091027.615000", "091027.617000"],
      "InstanceCreationTime": ["090447.359000", "090447.362000", "090447.365000", "090447.367000", "090447.370000", "090447.373000", "090447.375000", "090447.378000", "090447.380000", "090447.383000", "090447.385000", "090447.388000", "090447.390000", "090447.393000", "090447.395000", "090447.398000", "090447.400000", "090447.403000", "090447.405000", "090447.408000", "090447.416000", "090447.419000", "090447.421000", "090447.424000", "090447.426000", "090447.429000", "090447.431000", "090447.434000", "090447.436000", "090527.337000", "090527.341000", "090527.343000", "090527.346000", "090527.348000", "090527.351000", "090527.353000", "090527.356000", "090527.358000", "090527.361000", "090527.363000", "090527.366000", "090527.368000", "090527.371000", "090527.373000", "090527.376000", "090527.386000", "090527.389000", "090527.392000", "090527.394000", "090607.338000", "090607.341000", "090607.344000", "090607.347000", "090607.349000", "090607.352000", "090607.354000", "090607.357000", "090607.360000", "090607.362000", "090607.365000", "090607.367000", "090607.370000", "090607.372000", "090607.375000", "090607.377000", "090607.380000", "090607.382000", "090607.385000", "090607.387000", "090647.339000", "090647.341000", "090647.344000", "090647.347000", "090647.349000", "090647.352000", "090647.354000", "090647.357000", "090647.360000", "090647.362000", "090647.365000", "090647.368000", "090647.370000", "090647.373000", "090647.375000", "090647.378000", "090647.380000", "090647.383000", "090647.385000", "090647.388000", "090727.338000", "090727.340000", "090727.343000", "090727.345000", "090727.348000", "090727.350000", "090727.353000", "090727.355000", "090727.358000", "090727.361000", "090727.363000", "090727.366000", "090727.368000", "090727.371000", "090727.374000", "090727.376000", "090727.379000", "090727.381000", "090727.384000", "090727.386000", "090807.338000", "090807.341000", "090807.344000", "090807.347000", "090807.349000", "090807.352000", "090807.354000", "090807.357000", "090807.360000", "090807.362000", "090807.365000", "090807.368000", "090807.370000", "090807.373000", "090807.375000", "090807.378000", "090807.380000", "090807.383000", "090807.386000", "090807.388000", "090847.338000", "090847.341000", "090847.344000", "090847.347000", "090847.349000", "090847.352000", "090847.355000", "090847.357000", "090847.360000", "090847.363000", "090847.365000", "090847.368000", "090847.370000", "090847.373000", "090847.375000", "090847.388000", "090847.391000", "090847.393000", "090847.396000", "090847.399000", "090927.338000", "090927.341000", "090927.344000", "090927.347000", "090927.349000", "090927.352000", "090927.355000", "090927.357000", "090927.360000", "090927.362000", "090927.365000", "090927.367000", "090927.370000", "090927.372000", "090927.375000", "090927.377000", "090927.380000", "090927.383000", "090927.385000", "090927.388000", "091007.337000", "091007.340000", "091007.343000", "091007.346000", "091007.348000", "091007.351000", "091007.354000", "091007.356000", "091007.359000", "091007.362000", "091007.364000", "091007.367000", "091007.369000", "091007.372000", "091007.375000", "091007.377000", "091007.380000", "091007.382000", "091007.385000", "091007.387000", "091027.591000", "091027.594000", "091027.596000", "091027.599000", "091027.601000", "091027.604000", "091027.607000", "091027.610000", "091027.612000", "091027.615000", "091027.617000"],
      "InstanceNumber": [1, 2, 3, 4, 5, 6, 7, 8, 9, 10, 11, 12, 13, 14, 15, 16, 17, 18, 19, 20, 21, 22, 23, 24, 25, 26, 27, 28, 29, 30, 31, 32, 33, 34, 35, 36, 37, 38, 39, 40, 41, 42, 43, 44, 45, 46, 47, 48, 49, 50, 51, 52, 53, 54, 55, 56, 57, 58, 59, 60, 61, 62, 63, 64, 65, 66, 67, 68, 69, 70, 71, 72, 73, 74, 75, 76, 77, 78, 79, 80, 81, 82, 83, 84, 85, 86, 87, 88, 89, 90, 91, 92, 93, 94, 95, 96, 97, 98, 99, 100, 101, 102, 103, 104, 105, 106, 107, 108, 109, 110, 111, 112, 113, 114, 115, 116, 117, 118, 119, 120, 121, 122, 123, 124, 125, 126, 127, 128, 129, 130, 131, 132, 133, 134, 135, 136, 137, 138, 139, 140, 141, 142, 143, 144, 145, 146, 147, 148, 149, 150, 151, 152, 153, 154, 155, 156, 157, 158, 159, 160, 161, 162, 163, 164, 165, 166, 167, 168, 169, 170, 171, 172, 173, 174, 175, 176, 177, 178, 179, 180, 181, 182, 183, 184, 185, 186, 187, 188, 189, 190, 191, 192, 193, 194, 195, 196, 197, 198, 199, 200],
      "LargestImagePixelValue": [3969, 3959, 3956, 3957, 3965, 3958, 3959, 3966, 3959, 3961, 3968, 3955, 3964, 3961, 3958, 3957, 3956, 3961, 3965, 3961, 3970, 3963, 3958, 3951, 3956, 3966, 3963, 3966, 3960, 3959, 3952, 3963, 3959, 3962, 3963, 3954, 3951, 3961, 3953, 3960, 3954, 3956, 3957, 3960, 3960, 3957, 3958, 3964, 3958, 3958, 3964, 3960, 3956, 3956, 3960, 3959, 3959, 3960, 3969, 3966, 3962, 3956, 3948, 3960, 3956, 3955, 3955, 3966, 3959, 3960, 3955, 3955, 3957, 3950, 3962, 3960, 3962, 3955, 3959, 3955, 3961, 3960, 3958, 3957, 3952, 3965, 3965, 3957, 3960, 3967, 3957, 3956, 3960, 3960, 3959, 3949, 3961, 3953, 3963, 3970, 3950, 3948, 3960, 3953, 3959, 3960, 3959, 3957, 3951, 3963, 3961, 3957, 3954, 3950, 3955, 3969, 3958, 3962, 3957, 3963, 3962, 3953, 3952, 3957, 3967, 3955, 3960, 3958, 3956, 3950, 3952, 3959, 3961, 3962, 3953, 3959, 3952, 3957, 3957, 3957, 3959, 3958, 3956, 3964, 3971, 3952, 3959, 3952, 3953, 3956, 3962, 3957, 3960, 3955, 3956, 3953, 3957, 3958, 3960, 3961, 3958, 3957, 3954, 3954, 3951, 3956, 3958, 3958, 3960, 3950, 3956, 3951, 3961, 3958, 3964, 3952, 3961, 3954, 3954, 3958, 3967, 3950, 3953, 3951, 3954, 3950, 3964, 3951, 3955, 3959, 3956, 3946, 3954, 3953, 3951, 3953, 3949, 3956, 3955, 3957],
      "WindowCenter": [1483.0, 1482.0, 1482.0, 1482.0, 1482.0, 1483.0, 1482.0, 1483.0, 1482.0, 1482.0, 1482.0, 1482.0, 1481.0, 1482.0, 1481.0, 1481.0, 1481.0, 1481.0, 1481.0, 1481.0, 1481.0, 1481.0, 1480.0, 1481.0, 1481.0, 1481.0, 1481.0, 1481.0, 1481.0, 1481.0, 1481.0, 1481.0, 1482.0, 1482.0, 1481.0, 1481.0, 1481.0, 1481.0, 1481.0, 1481.0, 1480.0, 1481.0, 1481.0, 1481.0, 1480.0, 1481.0, 1480.0, 1481.0, 1480.0, 1481.0, 1480.0, 1480.0, 1481.0, 1480.0, 1481.0, 1480.0, 1479.0, 1480.0, 1480.0, 1479.0, 1480.0, 1479.0, 1480.0, 1479.0, 1479.0, 1479.0, 1480.0, 1480.0, 1480.0, 1480.0, 1480.0, 1480.0, 1480.0, 1480.0, 1480.0, 1480.0, 1479.0, 1479.0, 1480.0, 1480.0, 1479.0, 1479.0, 1479.0, 1479.0, 1479.0, 1479.0, 1479.0, 1479.0, 1480.0, 1479.0, 1479.0, 1479.0, 1480.0, 1479.0, 1479.0, 1480.0, 1479.0, 1479.0, 1479.0, 1479.0, 1479.0, 1479.0, 1478.0, 1479.0, 1479.0, 1479.0, 1479.0, 1479.0, 1478.0, 1479.0, 1479.0, 1478.0, 1479.0, 1478.0, 1478.0, 1478.0, 1479.0, 1479.0, 1479.0, 1479.0, 1479.0, 1478.0, 1479.0, 1479.0, 1479.0, 1478.0, 1479.0, 1478.0, 1479.0, 1478.0, 1479.0, 1478.0, 1478.0, 1479.0, 1478.0, 1478.0, 1479.0, 1478.0, 1478.0, 1478.0, 1478.0, 1478.0, 1479.0, 1479.0, 1478.0, 1479.0, 1478.0, 1478.0, 1479.0, 1478.0, 1478.0, 1478.0, 1478.0, 1478.0, 1478.0, 1478.0, 1477.0, 1477.0, 1478.0, 1478.0, 1477.0, 1478.0, 1478.0, 1478.0, 1479.0, 1478.0, 1478.0, 1478.0, 1478.0, 1477.0, 1477.0, 1478.0, 1478.0, 1478.0, 1477.0, 1478.0, 1477.0, 1478.0, 1477.0, 1477.0, 1478.0, 1477.0, 1478.0, 1478.0, 1478.0, 1478.0, 1478.0, 1477.0, 1478.0, 1477.0, 1477.0, 1477.0, 1478.0, 1477.0, 1477.0, 1477.0, 1477.0, 1477.0, 1477.0, 1477.0],
      "WindowWidth": [3373.0, 3372.0, 3372.0, 3372.0, 3372.0, 3372.0, 3372.0, 3372.0, 3372.0, 3372.0, 3372.0, 3372.0, 3372.0, 3372.0, 3372.0, 3371.0, 3372.0, 3372.0, 3371.0, 3371.0, 3371.0, 3372.0, 3372.0, 3372.0, 3371.0, 3372.0, 3372.0, 3372.0, 3372.0, 3371.0, 3371.0, 3371.0, 3371.0, 3371.0, 3371.0, 3371.0, 3371.0, 3371.0, 3371.0, 3371.0, 3371.0, 3371.0, 3371.0, 3371.0, 3371.0, 3371.0, 3371.0, 3371.0, 3371.0, 3371.0, 3371.0, 3371.0, 3371.0, 3371.0, 3370.0, 3371.0, 3370.0, 3370.0, 3370.0, 3370.0, 3370.0, 3370.0, 3370.0, 3370.0, 3370.0, 3370.0, 3370.0, 3370.0, 3370.0, 3370.0, 3370.0, 3370.0, 3370.0, 3370.0, 3370.0, 3370.0, 3370.0, 3370.0, 3370.0, 3370.0, 3370.0, 3370.0, 3370.0, 3370.0, 3370.0, 3370.0, 3370.0, 3370.0, 3369.0, 3370.0, 3370.0, 3370.0, 3369.0, 3369.0, 3370.0, 3369.0, 3370.0, 3370.0, 3369.0, 3369.0, 3369.0, 3369.0, 3369.0, 3369.0, 3370.0, 3370.0, 3370.0, 3369.0, 3370.0, 3369.0, 3369.0, 3370.0, 3370.0, 3370.0, 3370.0, 3369.0, 3369.0, 3369.0, 3369.0, 3369.0, 3369.0, 3369.0, 3369.0, 3369.0, 3369.0, 3369.0, 3369.0, 3369.0, 3368.0, 3369.0, 3369.0, 3369.0, 3369.0, 3369.0, 3369.0, 3369.0, 3368.0, 3369.0, 3369.0, 3369.0, 3369.0, 3369.0, 3368.0, 3368.0, 3368.0, 3368.0, 3368.0, 3368.0, 3368.0, 3368.0, 3368.0, 3368.0, 3368.0, 3368.0, 3368.0, 3368.0, 3369.0, 3369.0, 3368.0, 3368.0, 3369.0, 3368.0, 3368.0, 3368.0, 3368.0, 3368.0, 3368.0, 3368.0, 3368.0, 3368.0, 3368.0, 3368.0, 3368.0, 3368.0, 3368.0, 3368.0, 3368.0, 3368.0, 3368.0, 3368.0, 3368.0, 3367.0, 3367.0, 3367.0, 3367.0, 3368.0, 3368.0, 3367.0, 3367.0, 3367.0, 3367.0, 3367.0, 3367.0, 3367.0, 3367.0, 3367.0, 3367.0, 3367.0, 3367.0, 3367.0]
    },
    "slices": {}
  }
}