{
  "AcquisitionMatrixPE": 80,
  "AcquisitionNumber": 1,
  "AcquisitionTime": "09:24:32.792500",
  "BandwidthPerPixelPhaseEncode": 48.077,
  "BaseResolution": 80,
  "BodyPartExamined": "BRAIN",
  "CoilCombinationMethod": "Sum of Squares",
  "ConsistencyInfo": "N4_VE11C_LATEST_20160120",
  "ConversionSoftware": "dcm2niix",
  "ConversionSoftwareVersion": "v1.0.20220720",
  "DerivedVendorReportedEchoSpacing": 0.000519999,
  "DeviceSerialNumber": "66112",
  "DwellTime": 2.7e-06,
  "EchoTime": 0.035,
  "EchoTrainLength": 39,
  "EffectiveEchoSpacing": 0.00026,
  "FlipAngle": 90,
  "HeudiconvVersion": "0.13.1",
  "ImageOrientationPatientDICOM": [0.988149, -0.153442, 0.00416478, 0.145036, 0.942211, 0.301998],
  "ImageOrientationText": "Tra>Cor(17.3)>Sag(2.9)",
  "ImageType": [
    "ORIGINAL",
    "PRIMARY",
    "M",
    "ND",
    "NORM",
    "MOSAIC"
],
  "ImagingFrequency": 123.252,
  "InPlanePhaseEncodingDirectionDICOM": "COL",
  "InstitutionAddress": "Maynard 3,Hanover,NH,US,03755",
  "InstitutionName": "Dartmouth College - PBS",
  "InstitutionalDepartmentName": "Department",
  "MRAcquisitionType": "2D",
  "MagneticFieldStrength": 3,
  "Manufacturer": "Siemens",
  "ManufacturersModelName": "Prisma",
  "MatrixCoilMode": "GRAPPA",
  "Modality": "MR",
  "NonlinearGradientCorrection": false,
  "ParallelReductionFactorInPlane": 2,
  "PartialFourier": 1,
  "PatientPosition": "HFS",
  "PercentPhaseFOV": 100,
  "PercentSampling": 100,
  "PhaseEncodingDirection": "j-",
  "PhaseEncodingSteps": 79,
  "PhaseResolution": 1,
  "PixelBandwidth": 2315,
  "ProcedureStepDescription": "dbic^QA",
  "ProtocolName": "func-bold_task-rest_acq-p2",
  "PulseSequenceDetails": "%SiemensSeq%\\ep2d_bold",
  "ReceiveCoilActiveElements": "HEA;HEP",
  "ReceiveCoilName": "Head_32",
  "ReconMatrixPE": 80,
  "RefLinesPE": 24,
  "RepetitionTime": 2,
  "SAR": 0.0556304,
  "ScanOptions": "FS",
  "ScanningSequence": "EP",
  "SequenceName": "*epfid2d1_80",
  "SequenceVariant": "SK",
  "SeriesDescription": "func-bold_task-rest_acq-p2",
  "SeriesNumber": 5,
  "ShimSetting": [4151, -7696, -7510, 260, -51, -51, -68, 108],
  "SliceThickness": 3.5,
  "SliceTiming": [0.99, 0, 1.055, 0.065, 1.12, 0.1325, 1.1875, 0.1975, 1.2525, 0.2625, 1.32, 0.33, 1.385, 0.395, 1.45, 0.4625, 1.5175, 0.5275, 1.5825, 0.5925, 1.65, 0.66, 1.715, 0.725, 1.78, 0.79, 1.8475, 0.8575, 1.9125, 0.9225],
  "SoftwareVersions": "syngo MR E11",
  "SpacingBetweenSlices": 3.99,
  "StationName": "AWP66112",
  "TaskName": "rest",
  "TotalReadoutTime": 0.02054,
  "TxRefAmp": 230.108,
  "dcmmeta_affine": [
    [-2.964446544647217, 0.43510836362838745, 0.2005511224269867, 97.11700439453125],
    [0.4603269696235657, 2.8266329765319824, 1.1882832050323486, -141.59906005859375],
    [0.012494349852204323, -0.90599524974823, 3.803664207458496, -22.0637264251709],
    [0.0, 0.0, 0.0, 1.0]
],
  "dcmmeta_reorient_transform": [
    [0.0, -1.0, 0.0, 79.0],
    [1.0, 0.0, 0.0, 0.0],
    [0.0, 0.0, 1.0, 0.0],
    [0.0, 0.0, 0.0, 1.0]
],
  "dcmmeta_shape": [80, 80, 30, 200],
  "dcmmeta_slice_dim": 2,
  "dcmmeta_version": 0.6,
  "global": {
    "const": {
      "AccessionNumber": "qa",
      "AcquisitionMatrix": [80, 0, 0, 80],
      "AngioFlag": "N",
      "BitsAllocated": 16,
      "BitsStored": 12,
      "BodyPartExamined": "BRAIN",
      "Columns": 480,
      "EchoNumbers": 1,
      "EchoTime": 35.0,
      "EchoTrainLength": 39,
      "FlipAngle": 90.0,
      "HighBit": 11,
      "ImageOrientationPatient": [0.98814882917438, -0.1534423213522, 0.00416478322984, 0.14503612596752, 0.94221095397424, 0.30199841121319],
      "ImagePositionPatient": [-811.40153619429, -554.96611076224, -277.33526611227],
      "ImageType": [
        "ORIGINAL",
        "PRIMARY",
        "M",
        "ND",
        "NORM",
        "MOSAIC"
],
      "ImagedNucleus": "1H",
      "ImagingFrequency": 123.252432,
      "InPlanePhaseEncodingDirection": "COL",
      "MRAcquisitionType": "2D",
      "MagneticFieldStrength": 3.0,
      "Manufacturer": "SIEMENS",
      "ManufacturerModelName": "Prisma",
      "Modality": "MR",
      "NumberOfAverages": 1.0,
      "NumberOfPhaseEncodingSteps": 79,
      "PercentPhaseFieldOfView": 100.0,
      "PercentSampling": 100.0,
      "PerformedProcedureStepStartTime": "092246.763000",
      "PhotometricInterpretation": "MONOCHROME2",
      "PixelBandwidth": 2315.0,
      "PixelRepresentation": 0,
      "PixelSpacing": [3.0, 3.0],
      "ProtocolName": "func-bold_task-rest_acq-p2",
      "RepetitionTime": 2000.0,
      "Rows": 480,
      "SAR": 0.05563044818239,
      "SamplesPerPixel": 1,
      "ScanOptions": "FS",
      "ScanningSequence": "EP",
      "SequenceName": "*epfid2d1_80",
      "SequenceVariant": "SK",
      "SeriesDescription": "func-bold_task-rest_acq-p2",
      "SeriesNumber": 5,
      "SeriesTime": "092509.301000",
      "SliceLocation": -58.32227308192,
      "SliceThickness": 3.5,
      "SmallestImagePixelValue": 0,
      "SoftwareVersions": "syngo MR E11",
      "SpacingBetweenSlices": 3.9899999088367,
      "SpecificCharacterSet": "ISO_IR 100",
      "StudyID": "113",
      "StudyTime": "092246.670000",
      "TransmitCoilName": "Body",
      "VariableFlipAngleFlag": "N",
      "WindowCenterWidthExplanation": "Algo1",
      "dBdt": 0.0},
    "slices": {}
  },
  "time": {
    "samples": {
      "AcquisitionNumber": [1, 2, 3, 4, 5, 6, 7, 8, 9, 10, 11, 12, 13, 14, 15, 16, 17, 18, 19, 20, 21, 22, 23, 24, 25, 26, 27, 28, 29, 30, 31, 32, 33, 34, 35, 36, 37, 38, 39, 40, 41, 42, 43, 44, 45, 46, 47, 48, 49, 50, 51, 52, 53, 54, 55, 56, 57, 58, 59, 60, 61, 62, 63, 64, 65, 66, 67, 68, 69, 70, 71, 72, 73, 74, 75, 76, 77, 78, 79, 80, 81, 82, 83, 84, 85, 86, 87, 88, 89, 90, 91, 92, 93, 94, 95, 96, 97, 98, 99, 100, 101, 102, 103, 104, 105, 106, 107, 108, 109, 110, 111, 112, 113, 114, 115, 116, 117, 118, 119, 120, 121, 122, 123, 124, 125, 126, 127, 128, 129, 130, 131, 132, 133, 134, 135, 136, 137, 138, 139, 140, 141, 142, 143, 144, 145, 146, 147, 148, 149, 150, 151, 152, 153, 154, 155, 156, 157, 158, 159, 160, 161, 162, 163, 164, 165, 166, 167, 168, 169, 170, 171, 172, 173, 174, 175, 176, 177, 178, 179, 180, 181, 182, 183, 184, 185, 186, 187, 188, 189, 190, 191, 192, 193, 194, 195, 196, 197, 198, 199, 200],
      "AcquisitionTime": ["092432.792500", "092434.792500", "092436.792500", "092438.792500", "092440.792500", "092442.792500", "092444.792500", "092446.792500", "092448.792500", "092450.792500", "092452.792500", "092454.792500", "092456.792500", "092458.792500", "092500.792500", "092502.792500", "092504.792500", "092506.792500", "092508.792500", "092510.792500", "092512.792500", "092514.792500", "092516.792500", "092518.792500", "092520.792500", "092522.792500", "092524.792500", "092526.792500", "092528.792500", "092530.792500", "092532.792500", "092534.792500", "092536.792500", "092538.792500", "092540.792500", "092542.792500", "092544.792500", "092546.792500", "092548.792500", "092550.792500", "092552.792500", "092554.792500", "092556.792500", "092558.792500", "092600.792500", "092602.792500", "092604.792500", "092606.792500", "092608.792500", "092610.792500", "092612.792500", "092614.792500", "092616.792500", "092618.792500", "092620.792500", "092622.792500", "092624.792500", "092626.792500", "092628.792500", "092630.792500", "092632.792500", "092634.792500", "092636.792500", "092638.792500", "092640.792500", "092642.792500", "092644.792500", "092646.792500", "092648.792500", "092650.792500", "092652.792500", "092654.792500", "092656.792500", "092658.792500", "092700.792500", "092702.792500", "092704.792500", "092706.792500", "092708.792500", "092710.792500", "092712.792500", "092714.792500", "092716.792500", "092718.792500", "092720.792500", "092722.792500", "092724.792500", "092726.792500", "092728.792500", "092730.792500", "092732.792500", "092734.792500", "092736.792500", "092738.792500", "092740.792500", "092742.792500", "092744.792500", "092746.792500", "092748.792500", "092750.792500", "092752.792500", "092754.792500", "092756.792500", "092758.792500", "092800.792500", "092802.792500", "092804.792500", "092806.792500", "092808.792500", "092810.792500", "092812.792500", "092814.792500", "092816.792500", "092818.792500", "092820.792500", "092822.792500", "092824.792500", "092826.792500", "092828.792500", "092830.792500", "092832.792500", "092834.792500", "092836.792500", "092838.792500", "092840.792500", "092842.792500", "092844.792500", "092846.792500", "092848.792500", "092850.792500", "092852.792500", "092854.792500", "092856.792500", "092858.792500", "092900.792500", "092902.792500", "092904.792500", "092906.792500", "092908.792500", "092910.792500", "092912.792500", "092914.792500", "092916.792500", "092918.792500", "092920.792500", "092922.792500", "092924.792500", "092926.792500", "092928.792500", "092930.792500", "092932.792500", "092934.792500", "092936.792500", "092938.792500", "092940.792500", "092942.792500", "092944.792500", "092946.792500", "092948.792500", "092950.792500", "092952.792500", "092954.792500", "092956.792500", "092958.792500", "093000.792500", "093002.792500", "093004.792500", "093006.792500", "093008.792500", "093010.792500", "093012.792500", "093014.792500", "093016.792500", "093018.792500", "093020.792500", "093022.792500", "093024.792500", "093026.792500", "093028.792500", "093030.792500", "093032.792500", "093034.792500", "093036.792500", "093038.792500", "093040.792500", "093042.792500", "093044.792500", "093046.792500", "093048.792500", "093050.792500", "093052.792500", "093054.792500", "093056.792500", "093058.792500", "093100.792500", "093102.792500", "093104.792500", "093106.792500", "093108.792500", "093110.792500"],
      "ContentTime": ["092509.305000", "092509.309000", "092509.311000", "092509.314000", "092509.316000", "092509.319000", "092509.321000", "092509.324000", "092509.326000", "092509.329000", "092509.332000", "092509.334000", "092509.337000", "092509.344000", "092509.347000", "092509.349000", "092509.352000", "092509.355000", "092549.300000", "092549.303000", "092549.305000", "092549.308000", "092549.314000", "092549.317000", "092549.319000", "092549.322000", "092549.324000", "092549.327000", "092549.329000", "092549.332000", "092549.334000", "092549.337000", "092549.339000", "092549.342000", "092549.345000", "092549.347000", "092549.350000", "092549.352000", "092629.300000", "092629.302000", "092629.305000", "092629.308000", "092629.310000", "092629.313000", "092629.315000", "092629.318000", "092629.320000", "092629.323000", "092629.325000", "092629.328000", "092629.330000", "092629.333000", "092629.335000", "092629.338000", "092629.340000", "092629.343000", "092629.345000", "092629.348000", "092709.299000", "092709.302000", "092709.305000", "092709.307000", "092709.310000", "092709.313000", "092709.315000", "092709.318000", "092709.320000", "092709.323000", "092709.325000", "092709.328000", "092709.330000", "092709.333000", "092709.335000", "092709.338000", "092709.340000", "092709.343000", "092709.345000", "092709.348000", "092749.299000", "092749.302000", "092749.305000", "092749.307000", "092749.310000", "092749.312000", "092749.315000", "092749.317000", "092749.320000", "092749.322000", "092749.325000", "092749.327000", "092749.330000", "092749.840000", "092749.843000", "092749.846000", "092749.848000", "092749.851000", "092749.853000", "092749.856000", "092829.300000", "092829.302000", "092829.305000", "092829.308000", "092829.310000", "092829.313000", "092829.315000", "092829.318000", "092829.320000", "092829.323000", "092829.326000", "092829.328000", "092829.331000", "092829.333000", "092829.336000", "092829.338000", "092829.341000", "092829.344000", "092829.346000", "092829.349000", "092909.299000", "092909.302000", "092909.305000", "092909.308000", "092909.310000", "092909.313000", "092909.316000", "092909.318000", "092909.321000", "092909.323000", "092909.326000", "092909.328000", "092909.331000", "092909.334000", "092909.336000", "092909.339000", "092909.341000", "092909.344000", "092909.347000", "092909.349000", "092949.300000", "092949.303000", "092949.305000", "092949.308000", "092949.311000", "092949.313000", "092949.316000", "092949.318000", "092949.321000", "092949.324000", "092949.326000", "092949.329000", "092949.331000", "092949.334000", "092949.337000", "092949.339000", "092949.342000", "092949.344000", "092949.347000", "092949.350000", "093029.300000", "093029.303000", "093029.319000", "093029.322000", "093029.325000", "093029.327000", "093029.330000", "093029.333000", "093029.335000", "093029.338000", "093029.341000", "093029.343000", "093029.346000", "093029.348000", "093029.351000", "093029.353000", "093029.356000", "093029.358000", "093029.361000", "093029.363000", "093109.299000", "093109.302000", "093109.305000", "093109.308000", "093109.310000", "093109.313000", "093109.315000", "093109.318000", "093109.321000", "093109.323000", "093109.326000", "093109.328000", "093109.331000", "093109.333000", "093109.336000", "093109.338000", "093109.341000", "093109.343000", "093109.346000", "093109.348000", "093111.926000", "093111.929000"],
      "InstanceCreationTime": ["092509.305000", "092509.309000", "092509.311000", "092509.314000", "092509.316000", "092509.319000", "092509.321000", "092509.324000", "092509.326000", "092509.329000", "092509.332000", "092509.334000", "092509.337000", "092509.344000", "092509.347000", "092509.349000", "092509.352000", "092509.355000", "092549.300000", "092549.303000", "092549.305000", "092549.308000", "092549.314000", "092549.317000", "092549.319000", "092549.322000", "092549.324000", "092549.327000", "092549.329000", "092549.332000", "092549.334000", "092549.337000", "092549.339000", "092549.342000", "092549.345000", "092549.347000", "092549.350000", "092549.352000", "092629.300000", "092629.302000", "092629.305000", "092629.308000", "092629.310000", "092629.313000", "092629.315000", "092629.318000", "092629.320000", "092629.323000", "092629.325000", "092629.328000", "092629.330000", "092629.333000", "092629.335000", "092629.338000", "092629.340000", "092629.343000", "092629.345000", "092629.348000", "092709.299000", "092709.302000", "092709.305000", "092709.307000", "092709.310000", "092709.313000", "092709.315000", "092709.318000", "092709.320000", "092709.323000", "092709.325000", "092709.328000", "092709.330000", "092709.333000", "092709.335000", "092709.338000", "092709.340000", "092709.343000", "092709.345000", "092709.348000", "092749.299000", "092749.302000", "092749.305000", "092749.307000", "092749.310000", "092749.312000", "092749.315000", "092749.317000", "092749.320000", "092749.322000", "092749.325000", "092749.327000", "092749.330000", "092749.840000", "092749.843000", "092749.846000", "092749.848000", "092749.851000", "092749.853000", "092749.856000", "092829.300000", "092829.302000", "092829.305000", "092829.308000", "092829.310000", "092829.313000", "092829.315000", "092829.318000", "092829.320000", "092829.323000", "092829.326000", "092829.328000", "092829.331000", "092829.333000", "092829.336000", "092829.338000", "092829.341000", "092829.344000", "092829.346000", "092829.349000", "092909.299000", "092909.302000", "092909.305000", "092909.308000", "092909.310000", "092909.313000", "092909.316000", "092909.318000", "092909.321000", "092909.323000", "092909.326000", "092909.328000", "092909.331000", "092909.334000", "092909.336000", "092909.339000", "092909.341000", "092909.344000", "092909.347000", "092909.349000", "092949.300000", "092949.303000", "092949.305000", "092949.308000", "092949.311000", "092949.313000", "092949.316000", "092949.318000", "092949.321000", "092949.324000", "092949.326000", "092949.329000", "092949.331000", "092949.334000", "092949.337000", "092949.339000", "092949.342000", "092949.344000", "092949.347000", "092949.350000", "093029.300000", "093029.303000", "093029.319000", "093029.322000", "093029.325000", "093029.327000", "093029.330000", "093029.333000", "093029.335000", "093029.338000", "093029.341000", "093029.343000", "093029.346000", "093029.348000", "093029.351000", "093029.353000", "093029.356000", "093029.358000", "093029.361000", "093029.363000", "093109.299000", "093109.302000", "093109.305000", "093109.308000", "093109.310000", "093109.313000", "093109.315000", "093109.318000", "093109.321000", "093109.323000", "093109.326000", "093109.328000", "093109.331000", "093109.333000", "093109.336000", "093109.338000", "093109.341000", "093109.343000", "093109.346000", "093109.348000", "093111.926000", "093111.929000"],
      "InstanceNumber": [1, 2, 3, 4, 5, 6, 7, 8, 9, 10, 11, 12, 13, 14, 15, 16, 17, 18, 19, 20, 21, 22, 23, 24, 25, 26, 27, 28, 29, 30, 31, 32, 33, 34, 35, 36, 37, 38, 39, 40, 41, 42, 43, 44, 45, 46, 47, 48, 49, 50, 51, 52, 53, 54, 55, 56, 57, 58, 59, 60, 61, 62, 63, 64, 65, 66, 67, 68, 69, 70, 71, 72, 73, 74, 75, 76, 77, 78, 79, 80, 81, 82, 83, 84, 85, 86, 87, 88, 89, 90, 91, 92, 93, 94, 95, 96, 97, 98, 99, 100, 101, 102, 103, 104, 105, 106, 107, 108, 109, 110, 111, 112, 113, 114, 115, 116, 117, 118, 119, 120, 121, 122, 123, 124, 125, 126, 127, 128, 129, 130, 131, 132, 133, 134, 135, 136, 137, 138, 139, 140, 141, 142, 143, 144, 145, 146, 147, 148, 149, 150, 151, 152, 153, 154, 155, 156, 157, 158, 159, 160, 161, 162, 163, 164, 165, 166, 167, 168, 169, 170, 171, 172, 173, 174, 175, 176, 177, 178, 179, 180, 181, 182, 183, 184, 185, 186, 187, 188, 189, 190, 191, 192, 193, 194, 195, 196, 197, 198, 199, 200],
      "LargestImagePixelValue": [1965, 1966, 1970, 1962, 1966, 1966, 1958, 1965, 1967, 1961, 1965, 1965, 1964, 1969, 1962, 1968, 1961, 1967, 1967, 1968, 1965, 1970, 1973, 1960, 1966, 1967, 1958, 1970, 1954, 1960, 1962, 1960, 1969, 1961, 1964, 1974, 1966, 1968, 1973, 1962, 1970, 1967, 1962, 1965, 1957, 1962, 1961, 1972, 1967, 1971, 1966, 1964, 1968, 1966, 1964, 1963, 1964, 1961, 1964, 1963, 1964, 1968, 1964, 1964, 1961, 1960, 1962, 1971, 1965, 1975, 1961, 1964, 1959, 1970, 1962, 1964, 1961, 1962, 1963, 1957, 1970, 1970, 1957, 1966, 1963, 1961, 1955, 1970, 1971, 1971, 1960, 1963, 1968, 1962, 1961, 1964, 1960, 1962, 1961, 1969, 1970, 1970, 1962, 1965, 1957, 1965, 1969, 1971, 1963, 1962, 1970, 1965, 1967, 1971, 1973, 1975, 1965, 1968, 1972, 1966, 1964, 1973, 1971, 1966, 1965, 1973, 1968, 1964, 1973, 1969, 1974, 1966, 1973, 1968, 1970, 1964, 1960, 1964, 1970, 1969, 1964, 1968, 1960, 1964, 1970, 1970, 1969, 1963, 1965, 1967, 1970, 1968, 1967, 1968, 1962, 1959, 1966, 1962, 1963, 1958, 1966, 1970, 1960, 1957, 1964, 1968, 1966, 1971, 1971, 1958, 1972, 1962, 1963, 1969, 1965, 1964, 1956, 1971, 1958, 1956, 1966, 1965, 1972, 1957, 1960, 1963, 1958, 1965, 1959, 1958, 1960, 1962, 1957, 1965, 1964, 1966, 1966, 1962, 1959, 1959],
      "WindowCenter": [977.0, 977.0, 977.0, 978.0, 977.0, 977.0, 977.0, 977.0, 977.0, 977.0, 977.0, 977.0, 977.0, 977.0, 977.0, 978.0, 977.0, 977.0, 977.0, 977.0, 977.0, 977.0, 978.0, 977.0, 977.0, 977.0, 977.0, 977.0, 977.0, 978.0, 978.0, 977.0, 977.0, 977.0, 977.0, 977.0, 977.0, 977.0, 977.0, 977.0, 977.0, 977.0, 977.0, 978.0, 977.0, 977.0, 977.0, 977.0, 977.0, 977.0, 977.0, 977.0, 977.0, 977.0, 977.0, 977.0, 977.0, 977.0, 977.0, 977.0, 977.0, 977.0, 977.0, 977.0, 977.0, 977.0, 977.0, 976.0, 977.0, 976.0, 976.0, 976.0, 976.0, 976.0, 976.0, 976.0, 976.0, 976.0, 976.0, 976.0, 976.0, 976.0, 976.0, 976.0, 976.0, 976.0, 977.0, 976.0, 977.0, 977.0, 976.0, 976.0, 976.0, 976.0, 976.0, 977.0, 976.0, 977.0, 977.0, 976.0, 977.0, 976.0, 976.0, 977.0, 976.0, 976.0, 976.0, 976.0, 976.0, 976.0, 977.0, 976.0, 976.0, 976.0, 976.0, 976.0, 976.0, 977.0, 976.0, 977.0, 976.0, 976.0, 976.0, 976.0, 976.0, 976.0, 977.0, 977.0, 976.0, 976.0, 976.0, 977.0, 976.0, 977.0, 977.0, 976.0, 976.0, 976.0, 976.0, 976.0, 976.0, 976.0, 976.0, 976.0, 976.0, 976.0, 976.0, 976.0, 976.0, 976.0, 976.0, 976.0, 976.0, 976.0, 976.0, 976.0, 976.0, 976.0, 976.0, 976.0, 976.0, 976.0, 977.0, 976.0, 977.0, 977.0, 976.0, 977.0, 976.0, 976.0, 976.0, 976.0, 976.0, 976.0, 976.0, 976.0, 976.0, 976.0, 976.0, 977.0, 976.0, 976.0, 976.0, 977.0, 977.0, 976.0, 976.0, 976.0, 976.0, 977.0, 976.0, 976.0, 976.0, 976.0, 976.0, 976.0, 976.0, 976.0, 976.0, 977.0],
      "WindowWidth": [2129.0, 2129.0, 2129.0, 2130.0, 2129.0, 2129.0, 2129.0, 2128.0, 2129.0, 2129.0, 2129.0, 2129.0, 2129.0, 2128.0, 2128.0, 2129.0, 2128.0, 2129.0, 2128.0, 2129.0, 2128.0, 2128.0, 2130.0, 2129.0, 2128.0, 2129.0, 2128.0, 2128.0, 2128.0, 2129.0, 2129.0, 2128.0, 2128.0, 2128.0, 2128.0, 2128.0, 2128.0, 2128.0, 2128.0, 2128.0, 2128.0, 2128.0, 2128.0, 2129.0, 2128.0, 2128.0, 2128.0, 2128.0, 2128.0, 2128.0, 2128.0, 2128.0, 2128.0, 2128.0, 2128.0, 2129.0, 2128.0, 2128.0, 2128.0, 2128.0, 2128.0, 2128.0, 2128.0, 2128.0, 2128.0, 2128.0, 2128.0, 2128.0, 2128.0, 2128.0, 2128.0, 2128.0, 2128.0, 2128.0, 2128.0, 2128.0, 2128.0, 2127.0, 2127.0, 2128.0, 2128.0, 2128.0, 2128.0, 2128.0, 2127.0, 2128.0, 2128.0, 2127.0, 2128.0, 2128.0, 2127.0, 2127.0, 2127.0, 2127.0, 2127.0, 2128.0, 2127.0, 2128.0, 2128.0, 2127.0, 2127.0, 2127.0, 2127.0, 2127.0, 2127.0, 2127.0, 2127.0, 2127.0, 2127.0, 2127.0, 2127.0, 2127.0, 2127.0, 2127.0, 2127.0, 2127.0, 2127.0, 2128.0, 2127.0, 2127.0, 2127.0, 2127.0, 2127.0, 2127.0, 2127.0, 2127.0, 2127.0, 2127.0, 2127.0, 2127.0, 2127.0, 2127.0, 2126.0, 2127.0, 2127.0, 2127.0, 2127.0, 2127.0, 2126.0, 2127.0, 2126.0, 2127.0, 2127.0, 2126.0, 2127.0, 2126.0, 2126.0, 2127.0, 2127.0, 2127.0, 2126.0, 2126.0, 2127.0, 2127.0, 2126.0, 2127.0, 2127.0, 2126.0, 2126.0, 2126.0, 2126.0, 2126.0, 2127.0, 2126.0, 2127.0, 2127.0, 2126.0, 2127.0, 2127.0, 2127.0, 2127.0, 2127.0, 2126.0, 2127.0, 2127.0, 2127.0, 2127.0, 2127.0, 2127.0, 2127.0, 2127.0, 2126.0, 2127.0, 2127.0, 2127.0, 2127.0, 2127.0, 2127.0, 2127.0, 2127.0, 2127.0, 2126.0, 2126.0, 2127.0, 2126.0, 2126.0, 2127.0, 2126.0, 2126.0, 2127.0]
    },
    "slices": {}
  }
}