{
  "AcquisitionMatrixPE": 80,
  "AcquisitionNumber": 1,
  "AcquisitionTime": "09:38:16.500000",
  "BandwidthPerPixelPhaseEncode": 25,
  "BaseResolution": 80,
  "BodyPartExamined": "BRAIN",
  "CoilCombinationMethod": "Sum of Squares",
  "ConsistencyInfo": "N4_VE11C_LATEST_20160120",
  "ConversionSoftware": "dcm2niix",
  "ConversionSoftwareVersion": "v1.0.20220720",
  "DerivedVendorReportedEchoSpacing": 0.0005,
  "DeviceSerialNumber": "66112",
  "DwellTime": 2.7e-06,
  "EchoTime": 0.03,
  "EchoTrainLength": 80,
  "EffectiveEchoSpacing": 0.0005,
  "FlipAngle": 77,
  "HeudiconvVersion": "0.13.1",
  "ImageOrientationPatientDICOM": [0.988149, -0.153442, 0.00416478, 0.145036, 0.942211, 0.301998],
  "ImageOrientationText": "Tra>Cor(17.3)>Sag(2.9)",
  "ImageType": [
    "ORIGINAL",
    "PRIMARY",
    "M",
    "ND",
    "NORM",
    "MOSAIC"
],
  "ImagingFrequency": 123.252,
  "InPlanePhaseEncodingDirectionDICOM": "COL",
  "InstitutionAddress": "Maynard 3,Hanover,NH,US,03755",
  "InstitutionName": "Dartmouth College - PBS",
  "InstitutionalDepartmentName": "Department",
  "MRAcquisitionType": "2D",
  "MagneticFieldStrength": 3,
  "Manufacturer": "Siemens",
  "ManufacturersModelName": "Prisma",
  "MatrixCoilMode": "SENSE",
  "Modality": "MR",
  "NonlinearGradientCorrection": false,
  "PartialFourier": 1,
  "PatientPosition": "HFS",
  "PercentPhaseFOV": 100,
  "PercentSampling": 100,
  "PhaseEncodingDirection": "j-",
  "PhaseEncodingSteps": 80,
  "PhaseResolution": 1,
  "PixelBandwidth": 2315,
  "ProcedureStepDescription": "dbic^QA",
  "ProtocolName": "func-bold_acq-32ch-77flip",
  "PulseSequenceDetails": "%SiemensSeq%\\ep2d_bold",
  "ReceiveCoilActiveElements": "HEA;HEP",
  "ReceiveCoilName": "Head_32",
  "ReconMatrixPE": 80,
  "RepetitionTime": 2,
  "SAR": 0.0437172,
  "ScanOptions": "FS",
  "ScanningSequence": "EP",
  "SequenceName": "*epfid2d1_80",
  "SequenceVariant": "SK",
  "SeriesDescription": "func-bold_acq-32ch-77flip",
  "SeriesNumber": 8,
  "ShimSetting": [4151, -7696, -7511, 258, -47, -51, -67, 106],
  "SliceThickness": 3.5,
  "SliceTiming": [0.99, 0, 1.055, 0.065, 1.1225, 0.1325, 1.1875, 0.1975, 1.255, 0.265, 1.32, 0.33, 1.385, 0.395, 1.4525, 0.4625, 1.5175, 0.5275, 1.585, 0.595, 1.65, 0.66, 1.715, 0.725, 1.7825, 0.7925, 1.8475, 0.8575, 1.915, 0.925],
  "SoftwareVersions": "syngo MR E11",
  "SpacingBetweenSlices": 3.99,
  "StationName": "AWP66112",
  "TotalReadoutTime": 0.0395,
  "TxRefAmp": 230.108,
  "dcmmeta_affine": [
    [-2.964446544647217, 0.43510836362838745, 0.2005511224269867, 97.80238342285156],
    [0.4603269696235657, 2.8266329765319824, 1.1882832050323486, -137.21923828125],
    [0.012494349852204323, -0.90599524974823, 3.803664207458496, -20.776731491088867],
    [0.0, 0.0, 0.0, 1.0]
],
  "dcmmeta_reorient_transform": [
    [0.0, -1.0, 0.0, 79.0],
    [1.0, 0.0, 0.0, 0.0],
    [0.0, 0.0, 1.0, 0.0],
    [0.0, 0.0, 0.0, 1.0]
],
  "dcmmeta_shape": [80, 80, 30, 200],
  "dcmmeta_slice_dim": 2,
  "dcmmeta_version": 0.6,
  "global": {
    "const": {
      "AccessionNumber": "qa",
      "AcquisitionMatrix": [80, 0, 0, 80],
      "AngioFlag": "N",
      "BitsAllocated": 16,
      "BitsStored": 12,
      "BodyPartExamined": "BRAIN",
      "Columns": 480,
      "EchoNumbers": 1,
      "EchoTime": 30.0,
      "EchoTrainLength": 80,
      "FlipAngle": 77.0,
      "HighBit": 11,
      "ImageOrientationPatient": [0.98814882917438, -0.1534423213522, 0.00416478322984, 0.14503612596752, 0.94221095397424, 0.30199841121319],
      "ImagePositionPatient": [-812.08691736838, -559.3459392153, -276.04827117818],
      "ImageType": [
        "ORIGINAL",
        "PRIMARY",
        "M",
        "ND",
        "NORM",
        "MOSAIC"
],
      "ImagedNucleus": "1H",
      "ImagingFrequency": 123.252433,
      "InPlanePhaseEncodingDirection": "COL",
      "MRAcquisitionType": "2D",
      "MagneticFieldStrength": 3.0,
      "Manufacturer": "SIEMENS",
      "ManufacturerModelName": "Prisma",
      "Modality": "MR",
      "NumberOfAverages": 1.0,
      "NumberOfPhaseEncodingSteps": 80,
      "PercentPhaseFieldOfView": 100.0,
      "PercentSampling": 100.0,
      "PerformedProcedureStepStartTime": "092246.763000",
      "PhotometricInterpretation": "MONOCHROME2",
      "PixelBandwidth": 2315.0,
      "PixelRepresentation": 0,
      "PixelSpacing": [3.0, 3.0],
      "ProtocolName": "func-bold_acq-32ch-77flip",
      "RepetitionTime": 2000.0,
      "Rows": 480,
      "SAR": 0.04371718482409,
      "SamplesPerPixel": 1,
      "ScanOptions": "FS",
      "ScanningSequence": "EP",
      "SequenceName": "*epfid2d1_80",
      "SequenceVariant": "SK",
      "SeriesDescription": "func-bold_acq-32ch-77flip",
      "SeriesNumber": 8,
      "SeriesTime": "093909.231000",
      "SliceLocation": -55.756551989077,
      "SliceThickness": 3.5,
      "SmallestImagePixelValue": 0,
      "SoftwareVersions": "syngo MR E11",
      "SpacingBetweenSlices": 3.9899999180106,
      "SpecificCharacterSet": "ISO_IR 100",
      "StudyID": "113",
      "StudyTime": "092246.670000",
      "TransmitCoilName": "Body",
      "VariableFlipAngleFlag": "N",
      "WindowCenterWidthExplanation": "Algo1",
      "dBdt": 0.0},
    "slices": {}
  },
  "time": {
    "samples": {
      "AcquisitionNumber": [1, 2, 3, 4, 5, 6, 7, 8, 9, 10, 11, 12, 13, 14, 15, 16, 17, 18, 19, 20, 21, 22, 23, 24, 25, 26, 27, 28, 29, 30, 31, 32, 33, 34, 35, 36, 37, 38, 39, 40, 41, 42, 43, 44, 45, 46, 47, 48, 49, 50, 51, 52, 53, 54, 55, 56, 57, 58, 59, 60, 61, 62, 63, 64, 65, 66, 67, 68, 69, 70, 71, 72, 73, 74, 75, 76, 77, 78, 79, 80, 81, 82, 83, 84, 85, 86, 87, 88, 89, 90, 91, 92, 93, 94, 95, 96, 97, 98, 99, 100, 101, 102, 103, 104, 105, 106, 107, 108, 109, 110, 111, 112, 113, 114, 115, 116, 117, 118, 119, 120, 121, 122, 123, 124, 125, 126, 127, 128, 129, 130, 131, 132, 133, 134, 135, 136, 137, 138, 139, 140, 141, 142, 143, 144, 145, 146, 147, 148, 149, 150, 151, 152, 153, 154, 155, 156, 157, 158, 159, 160, 161, 162, 163, 164, 165, 166, 167, 168, 169, 170, 171, 172, 173, 174, 175, 176, 177, 178, 179, 180, 181, 182, 183, 184, 185, 186, 187, 188, 189, 190, 191, 192, 193, 194, 195, 196, 197, 198, 199, 200],
      "AcquisitionTime": ["093816.500000", "093818.500000", "093820.500000", "093822.500000", "093824.500000", "093826.500000", "093828.500000", "093830.500000", "093832.500000", "093834.500000", "093836.500000", "093838.500000", "093840.500000", "093842.500000", "093844.500000", "093846.500000", "093848.500000", "093850.500000", "093852.500000", "093854.500000", "093856.500000", "093858.500000", "093900.500000", "093902.500000", "093904.500000", "093906.500000", "093908.500000", "093910.500000", "093912.500000", "093914.500000", "093916.500000", "093918.500000", "093920.500000", "093922.500000", "093924.500000", "093926.500000", "093928.500000", "093930.500000", "093932.500000", "093934.500000", "093936.500000", "093938.500000", "093940.500000", "093942.500000", "093944.500000", "093946.500000", "093948.500000", "093950.500000", "093952.500000", "093954.500000", "093956.500000", "093958.500000", "094000.500000", "094002.500000", "094004.500000", "094006.500000", "094008.500000", "094010.500000", "094012.500000", "094014.500000", "094016.500000", "094018.500000", "094020.500000", "094022.500000", "094024.500000", "094026.500000", "094028.500000", "094030.500000", "094032.500000", "094034.500000", "094036.500000", "094038.500000", "094040.500000", "094042.500000", "094044.500000", "094046.500000", "094048.500000", "094050.500000", "094052.500000", "094054.500000", "094056.500000", "094058.500000", "094100.500000", "094102.500000", "094104.500000", "094106.500000", "094108.500000", "094110.500000", "094112.500000", "094114.500000", "094116.500000", "094118.500000", "094120.500000", "094122.500000", "094124.500000", "094126.500000", "094128.500000", "094130.500000", "094132.500000", "094134.500000", "094136.500000", "094138.500000", "094140.500000", "094142.500000", "094144.500000", "094146.500000", "094148.500000", "094150.500000", "094152.500000", "094154.500000", "094156.500000", "094158.500000", "094200.500000", "094202.500000", "094204.500000", "094206.500000", "094208.500000", "094210.500000", "094212.500000", "094214.500000", "094216.500000", "094218.500000", "094220.500000", "094222.500000", "094224.500000", "094226.500000", "094228.500000", "094230.500000", "094232.500000", "094234.500000", "094236.500000", "094238.500000", "094240.500000", "094242.500000", "094244.500000", "094246.500000", "094248.500000", "094250.500000", "094252.500000", "094254.500000", "094256.500000", "094258.500000", "094300.500000", "094302.500000", "094304.500000", "094306.500000", "094308.500000", "094310.500000", "094312.500000", "094314.500000", "094316.500000", "094318.500000", "094320.500000", "094322.500000", "094324.500000", "094326.500000", "094328.500000", "094330.500000", "094332.500000", "094334.500000", "094336.500000", "094338.500000", "094340.500000", "094342.500000", "094344.500000", "094346.500000", "094348.500000", "094350.500000", "094352.500000", "094354.500000", "094356.500000", "094358.500000", "094400.500000", "094402.500000", "094404.500000", "094406.500000", "094408.500000", "094410.500000", "094412.500000", "094414.500000", "094416.500000", "094418.500000", "094420.500000", "094422.500000", "094424.500000", "094426.500000", "094428.500000", "094430.500000", "094432.500000", "094434.500000", "094436.500000", "094438.500000", "094440.500000", "094442.500000", "094444.500000", "094446.500000", "094448.500000", "094450.500000", "094452.500000", "094454.500000"],
      "ContentTime": ["093909.234000", "093909.238000", "093909.241000", "093909.243000", "093909.246000", "093909.248000", "093909.250000", "093909.253000", "093909.255000", "093909.258000", "093909.260000", "093909.263000", "093909.265000", "093909.268000", "093909.270000", "093909.273000", "093909.275000", "093909.278000", "093909.280000", "093909.283000", "093909.285000", "093909.288000", "093909.290000", "093909.293000", "093909.295000", "093909.298000", "093949.229000", "093949.232000", "093949.235000", "093949.237000", "093949.240000", "093949.242000", "093949.245000", "093949.247000", "093949.250000", "093949.252000", "093949.255000", "093949.257000", "093949.260000", "093949.262000", "093949.265000", "093949.267000", "093949.270000", "093949.272000", "093949.275000", "093949.277000", "094029.230000", "094029.232000", "094029.235000", "094029.237000", "094029.240000", "094029.242000", "094029.245000", "094029.247000", "094029.250000", "094029.252000", "094029.266000", "094029.268000", "094029.271000", "094029.273000", "094029.276000", "094029.278000", "094029.281000", "094029.283000", "094029.286000", "094029.288000", "094109.229000", "094109.232000", "094109.235000", "094109.237000", "094109.240000", "094109.242000", "094109.245000", "094109.247000", "094109.250000", "094109.252000", "094109.255000", "094109.257000", "094109.260000", "094109.262000", "094109.265000", "094109.267000", "094109.270000", "094109.272000", "094109.275000", "094109.277000", "094149.229000", "094149.232000", "094149.235000", "094149.237000", "094149.240000", "094149.242000", "094149.245000", "094149.247000", "094149.250000", "094149.252000", "094149.255000", "094149.257000", "094149.260000", "094149.262000", "094149.265000", "094149.267000", "094149.270000", "094149.272000", "094149.275000", "094149.277000", "094229.230000", "094229.232000", "094229.235000", "094229.237000", "094229.240000", "094229.243000", "094229.245000", "094229.248000", "094229.250000", "094229.253000", "094229.255000", "094229.258000", "094229.260000", "094229.263000", "094229.265000", "094229.268000", "094229.270000", "094229.273000", "094229.275000", "094229.278000", "094309.229000", "094309.232000", "094309.235000", "094309.237000", "094309.240000", "094309.242000", "094309.245000", "094309.247000", "094309.250000", "094309.252000", "094309.255000", "094309.257000", "094309.260000", "094309.262000", "094309.265000", "094309.267000", "094309.270000", "094309.272000", "094309.275000", "094309.277000", "094349.230000", "094349.233000", "094349.236000", "094349.238000", "094349.241000", "094349.243000", "094349.246000", "094349.248000", "094349.251000", "094349.254000", "094349.256000", "094349.259000", "094349.261000", "094349.264000", "094349.266000", "094349.269000", "094349.271000", "094349.274000", "094349.276000", "094349.279000", "094429.229000", "094429.232000", "094429.235000", "094429.237000", "094429.240000", "094429.242000", "094429.245000", "094429.247000", "094429.250000", "094429.253000", "094429.255000", "094429.258000", "094429.260000", "094429.262000", "094429.265000", "094429.267000", "094429.270000", "094429.272000", "094429.275000", "094429.277000", "094456.001000", "094456.004000", "094456.006000", "094456.008000", "094456.011000", "094456.014000", "094456.016000", "094456.019000", "094456.021000", "094456.024000", "094456.039000", "094456.042000", "094456.046000", "094456.049000"],
      "InstanceCreationTime": ["093909.234000", "093909.238000", "093909.241000", "093909.243000", "093909.246000", "093909.248000", "093909.250000", "093909.253000", "093909.255000", "093909.258000", "093909.260000", "093909.263000", "093909.265000", "093909.268000", "093909.270000", "093909.273000", "093909.275000", "093909.278000", "093909.280000", "093909.283000", "093909.285000", "093909.288000", "093909.290000", "093909.293000", "093909.295000", "093909.298000", "093949.229000", "093949.232000", "093949.235000", "093949.237000", "093949.240000", "093949.242000", "093949.245000", "093949.247000", "093949.250000", "093949.252000", "093949.255000", "093949.257000", "093949.260000", "093949.262000", "093949.265000", "093949.267000", "093949.270000", "093949.272000", "093949.275000", "093949.277000", "094029.230000", "094029.232000", "094029.235000", "094029.237000", "094029.240000", "094029.242000", "094029.245000", "094029.247000", "094029.250000", "094029.252000", "094029.266000", "094029.268000", "094029.271000", "094029.273000", "094029.276000", "094029.278000", "094029.281000", "094029.283000", "094029.286000", "094029.288000", "094109.229000", "094109.232000", "094109.235000", "094109.237000", "094109.240000", "094109.242000", "094109.245000", "094109.247000", "094109.250000", "094109.252000", "094109.255000", "094109.257000", "094109.260000", "094109.262000", "094109.265000", "094109.267000", "094109.270000", "094109.272000", "094109.275000", "094109.277000", "094149.229000", "094149.232000", "094149.235000", "094149.237000", "094149.240000", "094149.242000", "094149.245000", "094149.247000", "094149.250000", "094149.252000", "094149.255000", "094149.257000", "094149.260000", "094149.262000", "094149.265000", "094149.267000", "094149.270000", "094149.272000", "094149.275000", "094149.277000", "094229.230000", "094229.232000", "094229.235000", "094229.237000", "094229.240000", "094229.243000", "094229.245000", "094229.248000", "094229.250000", "094229.253000", "094229.255000", "094229.258000", "094229.260000", "094229.263000", "094229.265000", "094229.268000", "094229.270000", "094229.273000", "094229.275000", "094229.278000", "094309.229000", "094309.232000", "094309.235000", "094309.237000", "094309.240000", "094309.242000", "094309.245000", "094309.247000", "094309.250000", "094309.252000", "094309.255000", "094309.257000", "094309.260000", "094309.262000", "094309.265000", "094309.267000", "094309.270000", "094309.272000", "094309.275000", "094309.277000", "094349.230000", "094349.233000", "094349.236000", "094349.238000", "094349.241000", "094349.243000", "094349.246000", "094349.248000", "094349.251000", "094349.254000", "094349.256000", "094349.259000", "094349.261000", "094349.264000", "094349.266000", "094349.269000", "094349.271000", "094349.274000", "094349.276000", "094349.279000", "094429.229000", "094429.232000", "094429.235000", "094429.237000", "094429.240000", "094429.242000", "094429.245000", "094429.247000", "094429.250000", "094429.253000", "094429.255000", "094429.258000", "094429.260000", "094429.262000", "094429.265000", "094429.267000", "094429.270000", "094429.272000", "094429.275000", "094429.277000", "094456.001000", "094456.004000", "094456.006000", "094456.008000", "094456.011000", "094456.014000", "094456.016000", "094456.019000", "094456.021000", "094456.024000", "094456.039000", "094456.042000", "094456.046000", "094456.049000"],
      "InstanceNumber": [1, 2, 3, 4, 5, 6, 7, 8, 9, 10, 11, 12, 13, 14, 15, 16, 17, 18, 19, 20, 21, 22, 23, 24, 25, 26, 27, 28, 29, 30, 31, 32, 33, 34, 35, 36, 37, 38, 39, 40, 41, 42, 43, 44, 45, 46, 47, 48, 49, 50, 51, 52, 53, 54, 55, 56, 57, 58, 59, 60, 61, 62, 63, 64, 65, 66, 67, 68, 69, 70, 71, 72, 73, 74, 75, 76, 77, 78, 79, 80, 81, 82, 83, 84, 85, 86, 87, 88, 89, 90, 91, 92, 93, 94, 95, 96, 97, 98, 99, 100, 101, 102, 103, 104, 105, 106, 107, 108, 109, 110, 111, 112, 113, 114, 115, 116, 117, 118, 119, 120, 121, 122, 123, 124, 125, 126, 127, 128, 129, 130, 131, 132, 133, 134, 135, 136, 137, 138, 139, 140, 141, 142, 143, 144, 145, 146, 147, 148, 149, 150, 151, 152, 153, 154, 155, 156, 157, 158, 159, 160, 161, 162, 163, 164, 165, 166, 167, 168, 169, 170, 171, 172, 173, 174, 175, 176, 177, 178, 179, 180, 181, 182, 183, 184, 185, 186, 187, 188, 189, 190, 191, 192, 193, 194, 195, 196, 197, 198, 199, 200],
      "LargestImagePixelValue": [1913, 1912, 1914, 1914, 1911, 1914, 1914, 1916, 1917, 1915, 1915, 1914, 1912, 1916, 1913, 1916, 1916, 1915, 1913, 1916, 1916, 1917, 1912, 1915, 1920, 1914, 1911, 1915, 1912, 1917, 1917, 1917, 1915, 1913, 1917, 1915, 1912, 1911, 1912, 1914, 1917, 1916, 1915, 1914, 1914, 1916, 1915, 1916, 1915, 1917, 1916, 1915, 1913, 1915, 1917, 1920, 1911, 1920, 1914, 1915, 1916, 1919, 1915, 1916, 1919, 1915, 1916, 1917, 1910, 1916, 1918, 1914, 1915, 1916, 1913, 1917, 1918, 1917, 1911, 1923, 1919, 1913, 1915, 1918, 1917, 1917, 1913, 1918, 1915, 1915, 1915, 1918, 1919, 1913, 1920, 1917, 1919, 1919, 1915, 1916, 1921, 1913, 1915, 1923, 1913, 1920, 1919, 1915, 1918, 1915, 1918, 1918, 1919, 1911, 1925, 1911, 1920, 1912, 1917, 1913, 1921, 1912, 1922, 1912, 1926, 1916, 1917, 1919, 1912, 1920, 1918, 1914, 1918, 1923, 1914, 1916, 1923, 1915, 1915, 1921, 1918, 1918, 1916, 1911, 1920, 1918, 1916, 1922, 1914, 1913, 1918, 1918, 1917, 1915, 1920, 1915, 1917, 1913, 1915, 1918, 1918, 1915, 1916, 1921, 1915, 1915, 1917, 1919, 1918, 1917, 1919, 1917, 1920, 1916, 1921, 1914, 1911, 1919, 1918, 1918, 1917, 1919, 1912, 1918, 1910, 1917, 1918, 1915, 1913, 1918, 1913, 1914, 1915, 1913, 1915, 1916, 1918, 1913, 1917, 1913],
      "WindowCenter": [965.0, 964.0, 964.0, 966.0, 965.0, 965.0, 965.0, 966.0, 965.0, 964.0, 964.0, 966.0, 964.0, 965.0, 965.0, 964.0, 964.0, 964.0, 965.0, 965.0, 965.0, 963.0, 964.0, 965.0, 964.0, 964.0, 965.0, 965.0, 964.0, 964.0, 965.0, 965.0, 964.0, 964.0, 964.0, 964.0, 965.0, 964.0, 964.0, 964.0, 964.0, 965.0, 964.0, 964.0, 964.0, 965.0, 964.0, 964.0, 964.0, 965.0, 964.0, 964.0, 964.0, 964.0, 964.0, 964.0, 964.0, 965.0, 964.0, 963.0, 964.0, 964.0, 964.0, 964.0, 964.0, 964.0, 964.0, 964.0, 964.0, 965.0, 964.0, 964.0, 965.0, 964.0, 964.0, 964.0, 964.0, 964.0, 964.0, 964.0, 964.0, 964.0, 964.0, 964.0, 964.0, 964.0, 964.0, 964.0, 964.0, 964.0, 964.0, 963.0, 964.0, 964.0, 964.0, 963.0, 964.0, 965.0, 964.0, 964.0, 964.0, 964.0, 963.0, 963.0, 963.0, 964.0, 963.0, 963.0, 963.0, 964.0, 964.0, 963.0, 963.0, 963.0, 964.0, 963.0, 964.0, 963.0, 964.0, 963.0, 963.0, 963.0, 963.0, 964.0, 964.0, 963.0, 963.0, 964.0, 964.0, 963.0, 963.0, 964.0, 963.0, 964.0, 963.0, 962.0, 963.0, 964.0, 963.0, 963.0, 963.0, 964.0, 965.0, 963.0, 963.0, 963.0, 963.0, 963.0, 962.0, 965.0, 964.0, 964.0, 963.0, 964.0, 963.0, 965.0, 963.0, 964.0, 964.0, 963.0, 965.0, 962.0, 964.0, 963.0, 963.0, 963.0, 963.0, 963.0, 962.0, 964.0, 964.0, 964.0, 964.0, 963.0, 963.0, 964.0, 963.0, 963.0, 963.0, 964.0, 963.0, 963.0, 963.0, 962.0, 963.0, 963.0, 963.0, 964.0, 963.0, 963.0, 962.0, 964.0, 963.0, 963.0, 963.0, 963.0, 963.0, 963.0, 963.0, 963.0],
      "WindowWidth": [2102.0, 2101.0, 2101.0, 2102.0, 2102.0, 2102.0, 2102.0, 2102.0, 2101.0, 2101.0, 2101.0, 2102.0, 2101.0, 2102.0, 2102.0, 2100.0, 2100.0, 2100.0, 2102.0, 2102.0, 2101.0, 2100.0, 2100.0, 2102.0, 2100.0, 2101.0, 2102.0, 2101.0, 2100.0, 2101.0, 2101.0, 2101.0, 2101.0, 2100.0, 2101.0, 2101.0, 2102.0, 2101.0, 2100.0, 2101.0, 2100.0, 2101.0, 2101.0, 2101.0, 2101.0, 2102.0, 2101.0, 2101.0, 2101.0, 2102.0, 2101.0, 2101.0, 2101.0, 2101.0, 2101.0, 2101.0, 2101.0, 2101.0, 2101.0, 2100.0, 2101.0, 2101.0, 2101.0, 2102.0, 2101.0, 2101.0, 2101.0, 2101.0, 2101.0, 2102.0, 2101.0, 2101.0, 2102.0, 2101.0, 2101.0, 2101.0, 2101.0, 2100.0, 2101.0, 2101.0, 2100.0, 2101.0, 2101.0, 2101.0, 2101.0, 2101.0, 2101.0, 2101.0, 2101.0, 2101.0, 2100.0, 2101.0, 2101.0, 2101.0, 2101.0, 2099.0, 2100.0, 2102.0, 2101.0, 2101.0, 2101.0, 2101.0, 2100.0, 2100.0, 2100.0, 2101.0, 2100.0, 2100.0, 2100.0, 2101.0, 2101.0, 2100.0, 2100.0, 2100.0, 2101.0, 2100.0, 2101.0, 2100.0, 2101.0, 2100.0, 2100.0, 2100.0, 2100.0, 2101.0, 2101.0, 2099.0, 2100.0, 2101.0, 2101.0, 2099.0, 2100.0, 2101.0, 2099.0, 2101.0, 2100.0, 2099.0, 2100.0, 2101.0, 2100.0, 2100.0, 2100.0, 2101.0, 2101.0, 2100.0, 2100.0, 2100.0, 2100.0, 2100.0, 2099.0, 2101.0, 2101.0, 2100.0, 2100.0, 2101.0, 2100.0, 2101.0, 2100.0, 2100.0, 2100.0, 2100.0, 2101.0, 2099.0, 2100.0, 2100.0, 2100.0, 2100.0, 2100.0, 2099.0, 2099.0, 2100.0, 2100.0, 2100.0, 2100.0, 2099.0, 2099.0, 2100.0, 2100.0, 2099.0, 2100.0, 2100.0, 2099.0, 2099.0, 2099.0, 2098.0, 2098.0, 2099.0, 2098.0, 2100.0, 2099.0, 2098.0, 2098.0, 2100.0, 2098.0, 2098.0, 2098.0, 2098.0, 2098.0, 2098.0, 2098.0, 2098.0]
    },
    "slices": {}
  }
}