{
  "AcquisitionMatrixPE": 80,
  "AcquisitionNumber": 1,
  "AcquisitionTime": "10:26:13.490000",
  "BandwidthPerPixelPhaseEncode": 48.077,
  "BaseResolution": 80,
  "BodyPartExamined": "BRAIN",
  "CoilCombinationMethod": "Sum of Squares",
  "ConsistencyInfo": "N4_VE11C_LATEST_20160120",
  "ConversionSoftware": "dcm2niix",
  "ConversionSoftwareVersion": "v1.0.20220720",
  "DerivedVendorReportedEchoSpacing": 0.000519999,
  "DeviceSerialNumber": "66112",
  "DwellTime": 2.7e-06,
  "EchoTime": 0.035,
  "EchoTrainLength": 39,
  "EffectiveEchoSpacing": 0.00026,
  "FlipAngle": 90,
  "HeudiconvVersion": "0.13.1",
  "ImageOrientationPatientDICOM": [0.991043, 0.133242, 0.00892708, -0.129242, 0.940169, 0.315245],
  "ImageOrientationText": "Tra>Cor(18.3)>Sag(-1.9)",
  "ImageType": [
    "ORIGINAL",
    "PRIMARY",
    "M",
    "ND",
    "NORM",
    "MOSAIC"
],
  "ImagingFrequency": 123.252,
  "InPlanePhaseEncodingDirectionDICOM": "COL",
  "InstitutionAddress": "Maynard 3,Hanover,NH,US,03755",
  "InstitutionName": "Dartmouth College - PBS",
  "InstitutionalDepartmentName": "Department",
  "MRAcquisitionType": "2D",
  "MagneticFieldStrength": 3,
  "Manufacturer": "Siemens",
  "ManufacturersModelName": "Prisma",
  "MatrixCoilMode": "GRAPPA",
  "Modality": "MR",
  "NonlinearGradientCorrection": false,
  "ParallelReductionFactorInPlane": 2,
  "PartialFourier": 1,
  "PatientPosition": "HFS",
  "PercentPhaseFOV": 100,
  "PercentSampling": 100,
  "PhaseEncodingDirection": "j-",
  "PhaseEncodingSteps": 79,
  "PhaseResolution": 1,
  "PixelBandwidth": 2315,
  "ProcedureStepDescription": "dbic^QA",
  "ProtocolName": "func-bold_task-rest_acq-p2",
  "PulseSequenceDetails": "%SiemensSeq%\\ep2d_bold",
  "ReceiveCoilActiveElements": "HEA;HEP",
  "ReceiveCoilName": "Head_32",
  "ReconMatrixPE": 80,
  "RefLinesPE": 24,
  "RepetitionTime": 2,
  "SAR": 0.0474342,
  "ScanOptions": "FS",
  "ScanningSequence": "EP",
  "SequenceName": "*epfid2d1_80",
  "SequenceVariant": "SK",
  "SeriesDescription": "func-bold_task-rest_acq-p2",
  "SeriesNumber": 5,
  "ShimSetting": [4145, -7708, -7531, 263, -72, -135, 4, 80],
  "SliceThickness": 3.5,
  "SliceTiming": [0.99, 0, 1.055, 0.0675, 1.1225, 0.1325, 1.1875, 0.1975, 1.255, 0.265, 1.32, 0.33, 1.385, 0.395, 1.4525, 0.4625, 1.5175, 0.5275, 1.585, 0.595, 1.65, 0.66, 1.715, 0.725, 1.7825, 0.7925, 1.8475, 0.8575, 1.915, 0.925],
  "SoftwareVersions": "syngo MR E11",
  "SpacingBetweenSlices": 3.99,
  "StationName": "AWP66112",
  "TaskName": "rest",
  "TotalReadoutTime": 0.02054,
  "TxRefAmp": 220.739,
  "dcmmeta_affine": [
    [-2.973129987716675, -0.38772544264793396, -0.13410763442516327, 136.66879272460938],
    [-0.3997262120246887, 2.8205060958862305, 1.2511651515960693, -111.76937866210938],
    [0.026781247928738594, -0.9457350969314575, 3.786383628845215, -18.279117584228516],
    [0.0, 0.0, 0.0, 1.0]
],
  "dcmmeta_reorient_transform": [
    [0.0, -1.0, 0.0, 79.0],
    [1.0, 0.0, 0.0, 0.0],
    [0.0, 0.0, 1.0, 0.0],
    [0.0, 0.0, 0.0, 1.0]
],
  "dcmmeta_shape": [80, 80, 30, 200],
  "dcmmeta_slice_dim": 2,
  "dcmmeta_version": 0.6,
  "global": {
    "const": {
      "AccessionNumber": "qa",
      "AcquisitionMatrix": [80, 0, 0, 80],
      "AngioFlag": "N",
      "BitsAllocated": 16,
      "BitsStored": 12,
      "BodyPartExamined": "BRAIN",
      "Columns": 480,
      "EchoNumbers": 1,
      "EchoTime": 35.0,
      "EchoTrainLength": 39,
      "FlipAngle": 90.0,
      "HighBit": 11,
      "ImageOrientationPatient": [0.99104331777381, 0.13324207101998, 0.00892708273623, -0.1292418165667, 0.94016866606182, 0.31524503518068],
      "ImagePositionPatient": [-623.11937791766, -755.09703891118, -287.49546237576],
      "ImageType": [
        "ORIGINAL",
        "PRIMARY",
        "M",
        "ND",
        "NORM",
        "MOSAIC"
],
      "ImagedNucleus": "1H",
      "ImagingFrequency": 123.252358,
      "InPlanePhaseEncodingDirection": "COL",
      "MRAcquisitionType": "2D",
      "MagneticFieldStrength": 3.0,
      "Manufacturer": "SIEMENS",
      "ManufacturerModelName": "Prisma",
      "Modality": "MR",
      "NumberOfAverages": 1.0,
      "NumberOfPhaseEncodingSteps": 79,
      "PercentPhaseFieldOfView": 100.0,
      "PercentSampling": 100.0,
      "PerformedProcedureStepStartTime": "102451.418000",
      "PhotometricInterpretation": "MONOCHROME2",
      "PixelBandwidth": 2315.0,
      "PixelRepresentation": 0,
      "PixelSpacing": [3.0, 3.0],
      "ProtocolName": "func-bold_task-rest_acq-p2",
      "RepetitionTime": 2000.0,
      "Rows": 480,
      "SAR": 0.04743418988445,
      "SamplesPerPixel": 1,
      "ScanOptions": "FS",
      "ScanningSequence": "EP",
      "SequenceName": "*epfid2d1_80",
      "SequenceVariant": "SK",
      "SeriesDescription": "func-bold_task-rest_acq-p2",
      "SeriesNumber": 5,
      "SeriesTime": "102656.482000",
      "SliceLocation": -56.987979385773,
      "SliceThickness": 3.5,
      "SmallestImagePixelValue": 0,
      "SoftwareVersions": "syngo MR E11",
      "SpacingBetweenSlices": 3.9899999489765,
      "SpecificCharacterSet": "ISO_IR 100",
      "StudyID": "32",
      "StudyTime": "102451.375000",
      "TransmitCoilName": "Body",
      "VariableFlipAngleFlag": "N",
      "WindowCenterWidthExplanation": "Algo1",
      "dBdt": 0.0},
    "slices": {}
  },
  "time": {
    "samples": {
      "AcquisitionNumber": [1, 2, 3, 4, 5, 6, 7, 8, 9, 10, 11, 12, 13, 14, 15, 16, 17, 18, 19, 20, 21, 22, 23, 24, 25, 26, 27, 28, 29, 30, 31, 32, 33, 34, 35, 36, 37, 38, 39, 40, 41, 42, 43, 44, 45, 46, 47, 48, 49, 50, 51, 52, 53, 54, 55, 56, 57, 58, 59, 60, 61, 62, 63, 64, 65, 66, 67, 68, 69, 70, 71, 72, 73, 74, 75, 76, 77, 78, 79, 80, 81, 82, 83, 84, 85, 86, 87, 88, 89, 90, 91, 92, 93, 94, 95, 96, 97, 98, 99, 100, 101, 102, 103, 104, 105, 106, 107, 108, 109, 110, 111, 112, 113, 114, 115, 116, 117, 118, 119, 120, 121, 122, 123, 124, 125, 126, 127, 128, 129, 130, 131, 132, 133, 134, 135, 136, 137, 138, 139, 140, 141, 142, 143, 144, 145, 146, 147, 148, 149, 150, 151, 152, 153, 154, 155, 156, 157, 158, 159, 160, 161, 162, 163, 164, 165, 166, 167, 168, 169, 170, 171, 172, 173, 174, 175, 176, 177, 178, 179, 180, 181, 182, 183, 184, 185, 186, 187, 188, 189, 190, 191, 192, 193, 194, 195, 196, 197, 198, 199, 200],
      "AcquisitionTime": ["102613.490000", "102615.490000", "102617.490000", "102619.490000", "102621.490000", "102623.490000", "102625.490000", "102627.490000", "102629.490000", "102631.490000", "102633.490000", "102635.490000", "102637.490000", "102639.490000", "102641.490000", "102643.490000", "102645.490000", "102647.490000", "102649.490000", "102651.490000", "102653.490000", "102655.490000", "102657.490000", "102659.490000", "102701.490000", "102703.490000", "102705.490000", "102707.490000", "102709.490000", "102711.490000", "102713.490000", "102715.490000", "102717.490000", "102719.490000", "102721.490000", "102723.490000", "102725.490000", "102727.490000", "102729.490000", "102731.490000", "102733.490000", "102735.490000", "102737.490000", "102739.490000", "102741.490000", "102743.490000", "102745.490000", "102747.490000", "102749.490000", "102751.490000", "102753.490000", "102755.490000", "102757.490000", "102759.490000", "102801.490000", "102803.490000", "102805.490000", "102807.490000", "102809.490000", "102811.490000", "102813.490000", "102815.490000", "102817.490000", "102819.490000", "102821.490000", "102823.490000", "102825.490000", "102827.490000", "102829.490000", "102831.490000", "102833.490000", "102835.490000", "102837.490000", "102839.490000", "102841.490000", "102843.490000", "102845.490000", "102847.490000", "102849.490000", "102851.490000", "102853.490000", "102855.490000", "102857.490000", "102859.490000", "102901.490000", "102903.490000", "102905.490000", "102907.490000", "102909.490000", "102911.490000", "102913.490000", "102915.490000", "102917.490000", "102919.490000", "102921.490000", "102923.490000", "102925.490000", "102927.490000", "102929.490000", "102931.490000", "102933.490000", "102935.490000", "102937.490000", "102939.490000", "102941.490000", "102943.490000", "102945.490000", "102947.490000", "102949.490000", "102951.490000", "102953.490000", "102955.490000", "102957.490000", "102959.490000", "103001.490000", "103003.490000", "103005.490000", "103007.490000", "103009.490000", "103011.490000", "103013.490000", "103015.490000", "103017.490000", "103019.490000", "103021.490000", "103023.490000", "103025.490000", "103027.490000", "103029.490000", "103031.490000", "103033.490000", "103035.490000", "103037.490000", "103039.490000", "103041.490000", "103043.490000", "103045.490000", "103047.490000", "103049.490000", "103051.490000", "103053.490000", "103055.490000", "103057.490000", "103059.490000", "103101.490000", "103103.490000", "103105.490000", "103107.490000", "103109.490000", "103111.490000", "103113.490000", "103115.490000", "103117.490000", "103119.490000", "103121.490000", "103123.490000", "103125.490000", "103127.490000", "103129.490000", "103131.490000", "103133.490000", "103135.490000", "103137.490000", "103139.490000", "103141.490000", "103143.490000", "103145.490000", "103147.490000", "103149.490000", "103151.490000", "103153.490000", "103155.490000", "103157.490000", "103159.490000", "103201.490000", "103203.490000", "103205.490000", "103207.490000", "103209.490000", "103211.490000", "103213.490000", "103215.490000", "103217.490000", "103219.490000", "103221.490000", "103223.490000", "103225.490000", "103227.490000", "103229.490000", "103231.490000", "103233.490000", "103235.490000", "103237.490000", "103239.490000", "103241.490000", "103243.490000", "103245.490000", "103247.490000", "103249.490000", "103251.490000"],
      "ContentTime": ["102656.485000", "102656.489000", "102656.498000", "102656.500000", "102656.503000", "102656.505000", "102656.508000", "102656.511000", "102656.514000", "102656.516000", "102656.519000", "102656.527000", "102656.530000", "102656.533000", "102656.536000", "102656.538000", "102656.541000", "102656.544000", "102656.548000", "102656.550000", "102656.553000", "102716.481000", "102716.484000", "102716.486000", "102716.502000", "102716.505000", "102716.507000", "102716.510000", "102716.512000", "102716.515000", "102716.517000", "102756.481000", "102756.483000", "102756.486000", "102756.488000", "102756.491000", "102756.494000", "102756.496000", "102756.499000", "102756.501000", "102756.504000", "102756.506000", "102756.509000", "102756.512000", "102756.514000", "102756.517000", "102756.519000", "102756.522000", "102756.524000", "102756.527000", "102756.531000", "102836.481000", "102836.483000", "102836.486000", "102836.489000", "102836.491000", "102836.494000", "102836.496000", "102836.499000", "102836.501000", "102836.504000", "102836.507000", "102836.509000", "102836.512000", "102836.514000", "102836.517000", "102836.519000", "102836.522000", "102836.531000", "102836.534000", "102836.536000", "102916.481000", "102916.483000", "102916.486000", "102916.488000", "102916.491000", "102916.494000", "102916.496000", "102916.499000", "102916.501000", "102916.504000", "102916.507000", "102916.509000", "102916.512000", "102916.514000", "102916.517000", "102916.519000", "102916.522000", "102916.525000", "102916.528000", "102916.532000", "102956.480000", "102956.483000", "102956.486000", "102956.488000", "102956.491000", "102956.494000", "102956.496000", "102956.499000", "102956.501000", "102956.504000", "102956.507000", "102956.509000", "102956.512000", "102956.514000", "102956.517000", "102956.520000", "102956.522000", "102956.525000", "102956.527000", "102956.530000", "103036.480000", "103036.482000", "103036.485000", "103036.488000", "103036.490000", "103036.493000", "103036.495000", "103036.498000", "103036.500000", "103036.503000", "103036.506000", "103036.508000", "103036.511000", "103036.513000", "103036.516000", "103036.518000", "103036.521000", "103036.524000", "103036.528000", "103036.531000", "103116.480000", "103116.483000", "103116.486000", "103116.489000", "103116.491000", "103116.494000", "103116.496000", "103116.499000", "103116.501000", "103116.504000", "103116.507000", "103116.509000", "103116.512000", "103116.514000", "103116.517000", "103116.519000", "103116.522000", "103116.525000", "103116.529000", "103116.532000", "103156.481000", "103156.483000", "103156.486000", "103156.489000", "103156.491000", "103156.494000", "103156.496000", "103156.499000", "103156.501000", "103156.504000", "103156.507000", "103156.509000", "103156.512000", "103156.514000", "103156.517000", "103156.519000", "103156.523000", "103156.525000", "103156.528000", "103156.531000", "103236.481000", "103236.483000", "103236.486000", "103236.489000", "103236.491000", "103236.494000", "103236.496000", "103236.499000", "103236.501000", "103236.504000", "103236.507000", "103236.509000", "103236.512000", "103236.514000", "103236.517000", "103236.520000", "103236.523000", "103236.527000", "103236.529000", "103236.532000", "103252.580000", "103252.583000", "103252.586000", "103252.589000", "103252.591000", "103252.594000", "103252.596000", "103252.599000", "103252.601000"],
      "InstanceCreationTime": ["102656.485000", "102656.489000", "102656.498000", "102656.500000", "102656.503000", "102656.505000", "102656.508000", "102656.511000", "102656.514000", "102656.516000", "102656.519000", "102656.527000", "102656.530000", "102656.533000", "102656.536000", "102656.538000", "102656.541000", "102656.544000", "102656.548000", "102656.550000", "102656.553000", "102716.481000", "102716.484000", "102716.486000", "102716.502000", "102716.505000", "102716.507000", "102716.510000", "102716.512000", "102716.515000", "102716.517000", "102756.481000", "102756.483000", "102756.486000", "102756.488000", "102756.491000", "102756.494000", "102756.496000", "102756.499000", "102756.501000", "102756.504000", "102756.506000", "102756.509000", "102756.512000", "102756.514000", "102756.517000", "102756.519000", "102756.522000", "102756.524000", "102756.527000", "102756.531000", "102836.481000", "102836.483000", "102836.486000", "102836.489000", "102836.491000", "102836.494000", "102836.496000", "102836.499000", "102836.501000", "102836.504000", "102836.507000", "102836.509000", "102836.512000", "102836.514000", "102836.517000", "102836.519000", "102836.522000", "102836.531000", "102836.534000", "102836.536000", "102916.481000", "102916.483000", "102916.486000", "102916.488000", "102916.491000", "102916.494000", "102916.496000", "102916.499000", "102916.501000", "102916.504000", "102916.507000", "102916.509000", "102916.512000", "102916.514000", "102916.517000", "102916.519000", "102916.522000", "102916.525000", "102916.528000", "102916.532000", "102956.480000", "102956.483000", "102956.486000", "102956.488000", "102956.491000", "102956.494000", "102956.496000", "102956.499000", "102956.501000", "102956.504000", "102956.507000", "102956.509000", "102956.512000", "102956.514000", "102956.517000", "102956.520000", "102956.522000", "102956.525000", "102956.527000", "102956.530000", "103036.480000", "103036.482000", "103036.485000", "103036.488000", "103036.490000", "103036.493000", "103036.495000", "103036.498000", "103036.500000", "103036.503000", "103036.506000", "103036.508000", "103036.511000", "103036.513000", "103036.516000", "103036.518000", "103036.521000", "103036.524000", "103036.528000", "103036.531000", "103116.480000", "103116.483000", "103116.486000", "103116.489000", "103116.491000", "103116.494000", "103116.496000", "103116.499000", "103116.501000", "103116.504000", "103116.507000", "103116.509000", "103116.512000", "103116.514000", "103116.517000", "103116.519000", "103116.522000", "103116.525000", "103116.529000", "103116.532000", "103156.481000", "103156.483000", "103156.486000", "103156.489000", "103156.491000", "103156.494000", "103156.496000", "103156.499000", "103156.501000", "103156.504000", "103156.507000", "103156.509000", "103156.512000", "103156.514000", "103156.517000", "103156.519000", "103156.523000", "103156.525000", "103156.528000", "103156.531000", "103236.481000", "103236.483000", "103236.486000", "103236.489000", "103236.491000", "103236.494000", "103236.496000", "103236.499000", "103236.501000", "103236.504000", "103236.507000", "103236.509000", "103236.512000", "103236.514000", "103236.517000", "103236.520000", "103236.523000", "103236.527000", "103236.529000", "103236.532000", "103252.580000", "103252.583000", "103252.586000", "103252.589000", "103252.591000", "103252.594000", "103252.596000", "103252.599000", "103252.601000"],
      "InstanceNumber": [1, 2, 3, 4, 5, 6, 7, 8, 9, 10, 11, 12, 13, 14, 15, 16, 17, 18, 19, 20, 21, 22, 23, 24, 25, 26, 27, 28, 29, 30, 31, 32, 33, 34, 35, 36, 37, 38, 39, 40, 41, 42, 43, 44, 45, 46, 47, 48, 49, 50, 51, 52, 53, 54, 55, 56, 57, 58, 59, 60, 61, 62, 63, 64, 65, 66, 67, 68, 69, 70, 71, 72, 73, 74, 75, 76, 77, 78, 79, 80, 81, 82, 83, 84, 85, 86, 87, 88, 89, 90, 91, 92, 93, 94, 95, 96, 97, 98, 99, 100, 101, 102, 103, 104, 105, 106, 107, 108, 109, 110, 111, 112, 113, 114, 115, 116, 117, 118, 119, 120, 121, 122, 123, 124, 125, 126, 127, 128, 129, 130, 131, 132, 133, 134, 135, 136, 137, 138, 139, 140, 141, 142, 143, 144, 145, 146, 147, 148, 149, 150, 151, 152, 153, 154, 155, 156, 157, 158, 159, 160, 161, 162, 163, 164, 165, 166, 167, 168, 169, 170, 171, 172, 173, 174, 175, 176, 177, 178, 179, 180, 181, 182, 183, 184, 185, 186, 187, 188, 189, 190, 191, 192, 193, 194, 195, 196, 197, 198, 199, 200],
      "LargestImagePixelValue": [2511, 2507, 2504, 2513, 2505, 2508, 2517, 2507, 2520, 2505, 2509, 2507, 2509, 2510, 2516, 2513, 2513, 2510, 2508, 2513, 2511, 2510, 2511, 2513, 2513, 2510, 2504, 2506, 2505, 2512, 2506, 2507, 2500, 2506, 2511, 2510, 2500, 2504, 2496, 2508, 2510, 2516, 2501, 2507, 2512, 2511, 2510, 2506, 2508, 2503, 2510, 2507, 2502, 2504, 2501, 2501, 2504, 2501, 2501, 2496, 2513, 2498, 2507, 2511, 2504, 2513, 2502, 2510, 2508, 2511, 2499, 2498, 2505, 2507, 2503, 2502, 2500, 2505, 2506, 2503, 2507, 2508, 2504, 2502, 2501, 2496, 2502, 2496, 2503, 2508, 2503, 2500, 2501, 2507, 2509, 2509, 2503, 2508, 2494, 2505, 2501, 2506, 2495, 2506, 2498, 2500, 2508, 2509, 2499, 2500, 2501, 2507, 2492, 2500, 2501, 2504, 2493, 2497, 2501, 2499, 2501, 2499, 2507, 2502, 2501, 2510, 2500, 2500, 2507, 2502, 2502, 2501, 2505, 2504, 2503, 2503, 2498, 2493, 2497, 2493, 2504, 2502, 2496, 2496, 2501, 2504, 2490, 2496, 2498, 2501, 2502, 2500, 2499, 2502, 2505, 2492, 2499, 2500, 2502, 2492, 2499, 2496, 2496, 2499, 2494, 2503, 2501, 2496, 2499, 2499, 2495, 2494, 2504, 2501, 2508, 2499, 2492, 2509, 2496, 2504, 2499, 2498, 2500, 2501, 2496, 2502, 2500, 2500, 2498, 2497, 2495, 2499, 2499, 2504, 2500, 2500, 2487, 2500, 2499, 2502],
      "WindowCenter": [1076.0, 1077.0, 1076.0, 1076.0, 1076.0, 1076.0, 1076.0, 1076.0, 1076.0, 1076.0, 1076.0, 1076.0, 1076.0, 1076.0, 1076.0, 1076.0, 1076.0, 1076.0, 1076.0, 1076.0, 1076.0, 1076.0, 1076.0, 1076.0, 1076.0, 1076.0, 1076.0, 1076.0, 1076.0, 1076.0, 1076.0, 1076.0, 1076.0, 1076.0, 1076.0, 1076.0, 1076.0, 1076.0, 1076.0, 1076.0, 1076.0, 1076.0, 1076.0, 1076.0, 1076.0, 1077.0, 1076.0, 1076.0, 1076.0, 1076.0, 1076.0, 1076.0, 1076.0, 1076.0, 1076.0, 1076.0, 1076.0, 1077.0, 1076.0, 1076.0, 1076.0, 1076.0, 1076.0, 1076.0, 1076.0, 1076.0, 1076.0, 1076.0, 1076.0, 1076.0, 1076.0, 1076.0, 1075.0, 1075.0, 1075.0, 1075.0, 1075.0, 1075.0, 1075.0, 1075.0, 1075.0, 1076.0, 1076.0, 1076.0, 1077.0, 1075.0, 1075.0, 1075.0, 1075.0, 1075.0, 1075.0, 1075.0, 1075.0, 1076.0, 1077.0, 1075.0, 1076.0, 1076.0, 1075.0, 1075.0, 1075.0, 1075.0, 1075.0, 1075.0, 1075.0, 1075.0, 1075.0, 1075.0, 1075.0, 1075.0, 1075.0, 1075.0, 1075.0, 1075.0, 1075.0, 1075.0, 1075.0, 1075.0, 1075.0, 1075.0, 1075.0, 1075.0, 1075.0, 1075.0, 1075.0, 1075.0, 1075.0, 1075.0, 1075.0, 1075.0, 1075.0, 1075.0, 1075.0, 1075.0, 1075.0, 1075.0, 1075.0, 1075.0, 1075.0, 1075.0, 1075.0, 1075.0, 1075.0, 1075.0, 1075.0, 1075.0, 1075.0, 1075.0, 1075.0, 1075.0, 1075.0, 1075.0, 1075.0, 1075.0, 1075.0, 1075.0, 1075.0, 1075.0, 1075.0, 1075.0, 1075.0, 1075.0, 1075.0, 1075.0, 1075.0, 1076.0, 1075.0, 1075.0, 1075.0, 1075.0, 1075.0, 1075.0, 1075.0, 1075.0, 1075.0, 1075.0, 1075.0, 1075.0, 1075.0, 1075.0, 1075.0, 1075.0, 1075.0, 1075.0, 1075.0, 1075.0, 1075.0, 1075.0, 1075.0, 1075.0, 1075.0, 1075.0, 1075.0, 1074.0, 1075.0, 1074.0, 1074.0, 1074.0, 1074.0, 1074.0],
      "WindowWidth": [2436.0, 2434.0, 2435.0, 2434.0, 2434.0, 2434.0, 2434.0, 2434.0, 2435.0, 2434.0, 2434.0, 2434.0, 2435.0, 2434.0, 2435.0, 2435.0, 2434.0, 2434.0, 2434.0, 2434.0, 2434.0, 2434.0, 2433.0, 2434.0, 2434.0, 2434.0, 2434.0, 2433.0, 2434.0, 2434.0, 2434.0, 2433.0, 2433.0, 2434.0, 2434.0, 2434.0, 2434.0, 2434.0, 2434.0, 2434.0, 2434.0, 2434.0, 2434.0, 2434.0, 2434.0, 2435.0, 2434.0, 2434.0, 2434.0, 2433.0, 2434.0, 2433.0, 2434.0, 2434.0, 2433.0, 2433.0, 2433.0, 2434.0, 2433.0, 2433.0, 2434.0, 2433.0, 2433.0, 2433.0, 2434.0, 2434.0, 2433.0, 2434.0, 2433.0, 2433.0, 2433.0, 2433.0, 2433.0, 2433.0, 2433.0, 2432.0, 2432.0, 2432.0, 2433.0, 2433.0, 2432.0, 2433.0, 2433.0, 2433.0, 2434.0, 2433.0, 2433.0, 2433.0, 2433.0, 2433.0, 2433.0, 2432.0, 2433.0, 2432.0, 2433.0, 2433.0, 2432.0, 2432.0, 2432.0, 2433.0, 2433.0, 2432.0, 2432.0, 2433.0, 2432.0, 2432.0, 2432.0, 2432.0, 2432.0, 2432.0, 2432.0, 2432.0, 2432.0, 2432.0, 2432.0, 2432.0, 2432.0, 2432.0, 2432.0, 2432.0, 2432.0, 2432.0, 2432.0, 2432.0, 2432.0, 2432.0, 2432.0, 2432.0, 2432.0, 2432.0, 2432.0, 2432.0, 2432.0, 2432.0, 2432.0, 2432.0, 2432.0, 2432.0, 2432.0, 2432.0, 2432.0, 2432.0, 2432.0, 2432.0, 2432.0, 2432.0, 2432.0, 2431.0, 2432.0, 2431.0, 2431.0, 2431.0, 2431.0, 2432.0, 2431.0, 2431.0, 2431.0, 2431.0, 2432.0, 2431.0, 2431.0, 2432.0, 2431.0, 2432.0, 2431.0, 2432.0, 2431.0, 2431.0, 2431.0, 2431.0, 2431.0, 2431.0, 2431.0, 2431.0, 2431.0, 2431.0, 2431.0, 2431.0, 2431.0, 2431.0, 2431.0, 2431.0, 2430.0, 2430.0, 2430.0, 2431.0, 2430.0, 2430.0, 2430.0, 2430.0, 2430.0, 2430.0, 2430.0, 2430.0, 2430.0, 2430.0, 2430.0, 2430.0, 2430.0, 2430.0]
    },
    "slices": {}
  }
}