{
  "AcquisitionMatrixPE": 80,
  "AcquisitionNumber": 1,
  "AcquisitionTime": "10:46:43.492500",
  "BandwidthPerPixelPhaseEncode": 25,
  "BaseResolution": 80,
  "BodyPartExamined": "BRAIN",
  "CoilCombinationMethod": "Sum of Squares",
  "ConsistencyInfo": "N4_VE11C_LATEST_20160120",
  "ConversionSoftware": "dcm2niix",
  "ConversionSoftwareVersion": "v1.0.20220720",
  "DerivedVendorReportedEchoSpacing": 0.0005,
  "DeviceSerialNumber": "66112",
  "DwellTime": 2.7e-06,
  "EchoTime": 0.03,
  "EchoTrainLength": 80,
  "EffectiveEchoSpacing": 0.0005,
  "FlipAngle": 10,
  "HeudiconvVersion": "0.13.1",
  "ImageOrientationPatientDICOM": [0.991043, 0.133242, 0.00892708, -0.129242, 0.940169, 0.315245],
  "ImageOrientationText": "Tra>Cor(18.3)>Sag(-1.9)",
  "ImageType": [
    "ORIGINAL",
    "PRIMARY",
    "M",
    "ND",
    "NORM",
    "MOSAIC"
],
  "ImagingFrequency": 123.252,
  "InPlanePhaseEncodingDirectionDICOM": "COL",
  "InstitutionAddress": "Maynard 3,Hanover,NH,US,03755",
  "InstitutionName": "Dartmouth College - PBS",
  "InstitutionalDepartmentName": "Department",
  "MRAcquisitionType": "2D",
  "MagneticFieldStrength": 3,
  "Manufacturer": "Siemens",
  "ManufacturersModelName": "Prisma",
  "MatrixCoilMode": "SENSE",
  "Modality": "MR",
  "NonlinearGradientCorrection": false,
  "PartialFourier": 1,
  "PatientPosition": "HFS",
  "PercentPhaseFOV": 100,
  "PercentSampling": 100,
  "PhaseEncodingDirection": "j-",
  "PhaseEncodingSteps": 80,
  "PhaseResolution": 1,
  "PixelBandwidth": 2315,
  "ProcedureStepDescription": "dbic^QA",
  "ProtocolName": "func-bold_fa-10",
  "PulseSequenceDetails": "%SiemensSeq%\\ep2d_bold",
  "ReceiveCoilActiveElements": "HEA;HEP",
  "ReceiveCoilName": "Head_32",
  "ReconMatrixPE": 80,
  "RepetitionTime": 2,
  "SAR": 0.00999929,
  "ScanOptions": "FS",
  "ScanningSequence": "EP",
  "SequenceName": "*epfid2d1_80",
  "SequenceVariant": "SK",
  "SeriesDescription": "func-bold_fa-10",
  "SeriesNumber": 10,
  "ShimSetting": [4145, -7708, -7530, 264, -71, -131, 6, 80],
  "SliceThickness": 3.5,
  "SliceTiming": [0.99, 0, 1.0575, 0.0675, 1.1225, 0.1325, 1.19, 0.2, 1.255, 0.265, 1.32, 0.33, 1.3875, 0.3975, 1.4525, 0.4625, 1.52, 0.53, 1.585, 0.595, 1.65, 0.66, 1.7175, 0.7275, 1.7825, 0.7925, 1.85, 0.86, 1.915, 0.925],
  "SoftwareVersions": "syngo MR E11",
  "SpacingBetweenSlices": 3.99,
  "StationName": "AWP66112",
  "TotalReadoutTime": 0.0395,
  "TxRefAmp": 220.739,
  "dcmmeta_affine": [
    [-2.973129987716675, -0.38772544264793396, -0.13410764932632446, 136.7698516845703],
    [-0.3997262120246887, 2.8205060958862305, 1.2511652708053589, -112.37090301513672],
    [0.026781247928738594, -0.9457350969314575, 3.786383628845215, -16.05156707763672],
    [0.0, 0.0, 0.0, 1.0]
],
  "dcmmeta_reorient_transform": [
    [0.0, -1.0, 0.0, 79.0],
    [1.0, 0.0, 0.0, 0.0],
    [0.0, 0.0, 1.0, 0.0],
    [0.0, 0.0, 0.0, 1.0]
],
  "dcmmeta_shape": [80, 80, 30, 200],
  "dcmmeta_slice_dim": 2,
  "dcmmeta_version": 0.6,
  "global": {
    "const": {
      "AccessionNumber": "qa",
      "AcquisitionMatrix": [80, 0, 0, 80],
      "AngioFlag": "N",
      "BitsAllocated": 16,
      "BitsStored": 12,
      "BodyPartExamined": "BRAIN",
      "Columns": 480,
      "EchoNumbers": 1,
      "EchoTime": 30.0,
      "EchoTrainLength": 80,
      "FlipAngle": 10.0,
      "HighBit": 11,
      "ImageOrientationPatient": [0.99104331777381, 0.13324207101998, 0.00892708273623, -0.1292418165667, 0.94016866606182, 0.31524503518068],
      "ImagePositionPatient": [-623.2204366392, -754.49551074345, -285.26791186917],
      "ImageType": [
        "ORIGINAL",
        "PRIMARY",
        "M",
        "ND",
        "NORM",
        "MOSAIC"
],
      "ImagedNucleus": "1H",
      "ImagingFrequency": 123.252357,
      "InPlanePhaseEncodingDirection": "COL",
      "MRAcquisitionType": "2D",
      "MagneticFieldStrength": 3.0,
      "Manufacturer": "SIEMENS",
      "ManufacturerModelName": "Prisma",
      "Modality": "MR",
      "NumberOfAverages": 1.0,
      "NumberOfPhaseEncodingSteps": 80,
      "PercentPhaseFieldOfView": 100.0,
      "PercentSampling": 100.0,
      "PerformedProcedureStepStartTime": "102451.418000",
      "PhotometricInterpretation": "MONOCHROME2",
      "PixelBandwidth": 2315.0,
      "PixelRepresentation": 0,
      "PixelSpacing": [3.0, 3.0],
      "ProtocolName": "func-bold_fa-10",
      "RepetitionTime": 2000.0,
      "Rows": 480,
      "SAR": 0.00999929421028,
      "SamplesPerPixel": 1,
      "ScanOptions": "FS",
      "ScanningSequence": "EP",
      "SequenceName": "*epfid2d1_80",
      "SequenceVariant": "SK",
      "SeriesDescription": "func-bold_fa-10",
      "SeriesNumber": 10,
      "SeriesTime": "104716.482000",
      "SliceLocation": -55.066125537489,
      "SliceThickness": 3.5,
      "SmallestImagePixelValue": 0,
      "SoftwareVersions": "syngo MR E11",
      "SpacingBetweenSlices": 3.990000053181,
      "SpecificCharacterSet": "ISO_IR 100",
      "StudyID": "32",
      "StudyTime": "102451.375000",
      "TransmitCoilName": "Body",
      "VariableFlipAngleFlag": "N",
      "WindowCenterWidthExplanation": "Algo1",
      "dBdt": 0.0},
    "slices": {}
  },
  "time": {
    "samples": {
      "AcquisitionNumber": [1, 2, 3, 4, 5, 6, 7, 8, 9, 10, 11, 12, 13, 14, 15, 16, 17, 18, 19, 20, 21, 22, 23, 24, 25, 26, 27, 28, 29, 30, 31, 32, 33, 34, 35, 36, 37, 38, 39, 40, 41, 42, 43, 44, 45, 46, 47, 48, 49, 50, 51, 52, 53, 54, 55, 56, 57, 58, 59, 60, 61, 62, 63, 64, 65, 66, 67, 68, 69, 70, 71, 72, 73, 74, 75, 76, 77, 78, 79, 80, 81, 82, 83, 84, 85, 86, 87, 88, 89, 90, 91, 92, 93, 94, 95, 96, 97, 98, 99, 100, 101, 102, 103, 104, 105, 106, 107, 108, 109, 110, 111, 112, 113, 114, 115, 116, 117, 118, 119, 120, 121, 122, 123, 124, 125, 126, 127, 128, 129, 130, 131, 132, 133, 134, 135, 136, 137, 138, 139, 140, 141, 142, 143, 144, 145, 146, 147, 148, 149, 150, 151, 152, 153, 154, 155, 156, 157, 158, 159, 160, 161, 162, 163, 164, 165, 166, 167, 168, 169, 170, 171, 172, 173, 174, 175, 176, 177, 178, 179, 180, 181, 182, 183, 184, 185, 186, 187, 188, 189, 190, 191, 192, 193, 194, 195, 196, 197, 198, 199, 200],
      "AcquisitionTime": ["104643.492500", "104645.492500", "104647.492500", "104649.492500", "104651.492500", "104653.492500", "104655.492500", "104657.492500", "104659.492500", "104701.492500", "104703.492500", "104705.492500", "104707.492500", "104709.492500", "104711.492500", "104713.492500", "104715.492500", "104717.492500", "104719.492500", "104721.492500", "104723.492500", "104725.492500", "104727.492500", "104729.492500", "104731.492500", "104733.492500", "104735.492500", "104737.492500", "104739.492500", "104741.492500", "104743.492500", "104745.492500", "104747.492500", "104749.492500", "104751.492500", "104753.492500", "104755.492500", "104757.492500", "104759.492500", "104801.492500", "104803.492500", "104805.492500", "104807.492500", "104809.492500", "104811.492500", "104813.492500", "104815.492500", "104817.492500", "104819.492500", "104821.492500", "104823.492500", "104825.492500", "104827.492500", "104829.492500", "104831.492500", "104833.492500", "104835.492500", "104837.492500", "104839.492500", "104841.492500", "104843.492500", "104845.492500", "104847.492500", "104849.492500", "104851.492500", "104853.492500", "104855.492500", "104857.492500", "104859.492500", "104901.492500", "104903.492500", "104905.492500", "104907.492500", "104909.492500", "104911.492500", "104913.492500", "104915.492500", "104917.492500", "104919.492500", "104921.492500", "104923.492500", "104925.492500", "104927.492500", "104929.492500", "104931.492500", "104933.492500", "104935.492500", "104937.492500", "104939.492500", "104941.492500", "104943.492500", "104945.492500", "104947.492500", "104949.492500", "104951.492500", "104953.492500", "104955.492500", "104957.492500", "104959.492500", "105001.492500", "105003.492500", "105005.492500", "105007.492500", "105009.492500", "105011.492500", "105013.492500", "105015.492500", "105017.492500", "105019.492500", "105021.492500", "105023.492500", "105025.492500", "105027.492500", "105029.492500", "105031.492500", "105033.492500", "105035.492500", "105037.492500", "105039.492500", "105041.492500", "105043.492500", "105045.492500", "105047.492500", "105049.492500", "105051.492500", "105053.492500", "105055.492500", "105057.492500", "105059.492500", "105101.492500", "105103.492500", "105105.492500", "105107.492500", "105109.492500", "105111.492500", "105113.492500", "105115.492500", "105117.492500", "105119.492500", "105121.492500", "105123.492500", "105125.492500", "105127.492500", "105129.492500", "105131.492500", "105133.492500", "105135.492500", "105137.492500", "105139.492500", "105141.492500", "105143.492500", "105145.492500", "105147.492500", "105149.492500", "105151.492500", "105153.492500", "105155.492500", "105157.492500", "105159.492500", "105201.492500", "105203.492500", "105205.492500", "105207.492500", "105209.492500", "105211.492500", "105213.492500", "105215.492500", "105217.492500", "105219.492500", "105221.492500", "105223.492500", "105225.492500", "105227.492500", "105229.492500", "105231.492500", "105233.492500", "105235.492500", "105237.492500", "105239.492500", "105241.492500", "105243.492500", "105245.492500", "105247.492500", "105249.492500", "105251.492500", "105253.492500", "105255.492500", "105257.492500", "105259.492500", "105301.492500", "105303.492500", "105305.492500", "105307.492500", "105309.492500", "105311.492500", "105313.492500", "105315.492500", "105317.492500", "105319.492500", "105321.492500"],
      "ContentTime": ["104716.485000", "104716.489000", "104716.491000", "104716.494000", "104716.506000", "104716.508000", "104716.511000", "104716.513000", "104716.516000", "104716.518000", "104716.521000", "104716.524000", "104716.526000", "104716.529000", "104716.531000", "104716.534000", "104756.480000", "104756.483000", "104756.486000", "104756.488000", "104756.491000", "104756.494000", "104756.496000", "104756.499000", "104756.501000", "104756.515000", "104756.517000", "104756.520000", "104756.523000", "104756.525000", "104756.528000", "104756.530000", "104756.533000", "104756.535000", "104756.538000", "104756.540000", "104836.480000", "104836.483000", "104836.486000", "104836.488000", "104836.491000", "104836.493000", "104836.496000", "104836.498000", "104836.501000", "104836.504000", "104836.507000", "104836.509000", "104836.518000", "104836.520000", "104836.523000", "104836.526000", "104836.528000", "104836.531000", "104836.533000", "104836.536000", "104916.480000", "104916.483000", "104916.486000", "104916.488000", "104916.491000", "104916.494000", "104916.496000", "104916.499000", "104916.501000", "104916.504000", "104916.507000", "104916.509000", "104916.512000", "104916.514000", "104916.517000", "104916.519000", "104916.522000", "104916.524000", "104916.527000", "104916.529000", "104956.481000", "104956.483000", "104956.486000", "104956.489000", "104956.491000", "104956.494000", "104956.496000", "104956.499000", "104956.502000", "104956.504000", "104956.507000", "104956.509000", "104956.512000", "104956.514000", "104956.517000", "104956.520000", "104956.522000", "104956.525000", "104956.527000", "104956.530000", "105036.480000", "105036.483000", "105036.486000", "105036.488000", "105036.491000", "105036.493000", "105036.496000", "105036.499000", "105036.502000", "105036.504000", "105036.507000", "105036.509000", "105036.512000", "105036.514000", "105036.517000", "105036.528000", "105036.531000", "105036.533000", "105036.536000", "105036.538000", "105116.479000", "105116.482000", "105116.485000", "105116.487000", "105116.490000", "105116.493000", "105116.495000", "105116.498000", "105116.501000", "105116.503000", "105116.506000", "105116.508000", "105116.511000", "105116.514000", "105116.527000", "105116.530000", "105116.532000", "105116.535000", "105116.537000", "105116.540000", "105156.481000", "105156.483000", "105156.486000", "105156.488000", "105156.491000", "105156.494000", "105156.496000", "105156.499000", "105156.502000", "105156.504000", "105156.507000", "105156.509000", "105156.512000", "105156.514000", "105156.517000", "105156.519000", "105156.522000", "105156.525000", "105156.527000", "105156.530000", "105236.481000", "105236.483000", "105236.486000", "105236.489000", "105236.491000", "105236.494000", "105236.497000", "105236.500000", "105236.502000", "105236.505000", "105236.507000", "105236.510000", "105236.512000", "105236.515000", "105236.517000", "105236.520000", "105236.522000", "105236.525000", "105236.528000", "105236.530000", "105316.480000", "105316.483000", "105316.486000", "105316.488000", "105316.491000", "105316.494000", "105316.496000", "105316.499000", "105316.502000", "105316.504000", "105316.507000", "105316.509000", "105316.512000", "105316.515000", "105316.517000", "105316.520000", "105316.522000", "105316.525000", "105316.527000", "105316.530000", "105323.493000", "105323.496000", "105323.499000", "105323.501000"],
      "InstanceCreationTime": ["104716.485000", "104716.489000", "104716.491000", "104716.494000", "104716.506000", "104716.508000", "104716.511000", "104716.513000", "104716.516000", "104716.518000", "104716.521000", "104716.524000", "104716.526000", "104716.529000", "104716.531000", "104716.534000", "104756.480000", "104756.483000", "104756.486000", "104756.488000", "104756.491000", "104756.494000", "104756.496000", "104756.499000", "104756.501000", "104756.515000", "104756.517000", "104756.520000", "104756.523000", "104756.525000", "104756.528000", "104756.530000", "104756.533000", "104756.535000", "104756.538000", "104756.540000", "104836.480000", "104836.483000", "104836.486000", "104836.488000", "104836.491000", "104836.493000", "104836.496000", "104836.498000", "104836.501000", "104836.504000", "104836.507000", "104836.509000", "104836.518000", "104836.520000", "104836.523000", "104836.526000", "104836.528000", "104836.531000", "104836.533000", "104836.536000", "104916.480000", "104916.483000", "104916.486000", "104916.488000", "104916.491000", "104916.494000", "104916.496000", "104916.499000", "104916.501000", "104916.504000", "104916.507000", "104916.509000", "104916.512000", "104916.514000", "104916.517000", "104916.519000", "104916.522000", "104916.524000", "104916.527000", "104916.529000", "104956.481000", "104956.483000", "104956.486000", "104956.489000", "104956.491000", "104956.494000", "104956.496000", "104956.499000", "104956.502000", "104956.504000", "104956.507000", "104956.509000", "104956.512000", "104956.514000", "104956.517000", "104956.520000", "104956.522000", "104956.525000", "104956.527000", "104956.530000", "105036.480000", "105036.483000", "105036.486000", "105036.488000", "105036.491000", "105036.493000", "105036.496000", "105036.499000", "105036.502000", "105036.504000", "105036.507000", "105036.509000", "105036.512000", "105036.514000", "105036.517000", "105036.528000", "105036.531000", "105036.533000", "105036.536000", "105036.538000", "105116.479000", "105116.482000", "105116.485000", "105116.487000", "105116.490000", "105116.493000", "105116.495000", "105116.498000", "105116.501000", "105116.503000", "105116.506000", "105116.508000", "105116.511000", "105116.514000", "105116.527000", "105116.530000", "105116.532000", "105116.535000", "105116.537000", "105116.540000", "105156.481000", "105156.483000", "105156.486000", "105156.488000", "105156.491000", "105156.494000", "105156.496000", "105156.499000", "105156.502000", "105156.504000", "105156.507000", "105156.509000", "105156.512000", "105156.514000", "105156.517000", "105156.519000", "105156.522000", "105156.525000", "105156.527000", "105156.530000", "105236.481000", "105236.483000", "105236.486000", "105236.489000", "105236.491000", "105236.494000", "105236.497000", "105236.500000", "105236.502000", "105236.505000", "105236.507000", "105236.510000", "105236.512000", "105236.515000", "105236.517000", "105236.520000", "105236.522000", "105236.525000", "105236.528000", "105236.530000", "105316.480000", "105316.483000", "105316.486000", "105316.488000", "105316.491000", "105316.494000", "105316.496000", "105316.499000", "105316.502000", "105316.504000", "105316.507000", "105316.509000", "105316.512000", "105316.515000", "105316.517000", "105316.520000", "105316.522000", "105316.525000", "105316.527000", "105316.530000", "105323.493000", "105323.496000", "105323.499000", "105323.501000"],
      "InstanceNumber": [1, 2, 3, 4, 5, 6, 7, 8, 9, 10, 11, 12, 13, 14, 15, 16, 17, 18, 19, 20, 21, 22, 23, 24, 25, 26, 27, 28, 29, 30, 31, 32, 33, 34, 35, 36, 37, 38, 39, 40, 41, 42, 43, 44, 45, 46, 47, 48, 49, 50, 51, 52, 53, 54, 55, 56, 57, 58, 59, 60, 61, 62, 63, 64, 65, 66, 67, 68, 69, 70, 71, 72, 73, 74, 75, 76, 77, 78, 79, 80, 81, 82, 83, 84, 85, 86, 87, 88, 89, 90, 91, 92, 93, 94, 95, 96, 97, 98, 99, 100, 101, 102, 103, 104, 105, 106, 107, 108, 109, 110, 111, 112, 113, 114, 115, 116, 117, 118, 119, 120, 121, 122, 123, 124, 125, 126, 127, 128, 129, 130, 131, 132, 133, 134, 135, 136, 137, 138, 139, 140, 141, 142, 143, 144, 145, 146, 147, 148, 149, 150, 151, 152, 153, 154, 155, 156, 157, 158, 159, 160, 161, 162, 163, 164, 165, 166, 167, 168, 169, 170, 171, 172, 173, 174, 175, 176, 177, 178, 179, 180, 181, 182, 183, 184, 185, 186, 187, 188, 189, 190, 191, 192, 193, 194, 195, 196, 197, 198, 199, 200],
      "LargestImagePixelValue": [416, 411, 410, 414, 415, 412, 412, 411, 412, 412, 414, 415, 413, 410, 411, 410, 410, 410, 411, 414, 416, 410, 409, 411, 409, 415, 412, 409, 410, 412, 412, 414, 415, 415, 415, 415, 413, 413, 415, 417, 416, 415, 415, 415, 415, 414, 414, 415, 417, 415, 415, 414, 414, 415, 413, 413, 415, 415, 415, 415, 414, 415, 415, 415, 414, 414, 414, 414, 416, 414, 414, 416, 415, 413, 415, 414, 414, 415, 417, 414, 413, 415, 415, 413, 414, 414, 415, 414, 416, 413, 415, 415, 415, 413, 415, 413, 414, 413, 416, 415, 415, 414, 414, 414, 414, 415, 413, 414, 416, 415, 414, 416, 413, 414, 415, 415, 414, 413, 415, 414, 415, 414, 412, 415, 415, 414, 413, 416, 414, 414, 414, 415, 414, 414, 416, 416, 413, 415, 414, 413, 415, 414, 414, 414, 414, 415, 413, 413, 413, 415, 413, 416, 415, 414, 413, 413, 416, 413, 414, 414, 414, 415, 414, 414, 414, 413, 413, 413, 414, 415, 415, 414, 412, 414, 414, 414, 414, 414, 414, 413, 412, 413, 414, 415, 415, 414, 415, 414, 414, 412, 414, 412, 414, 413, 413, 412, 416, 414, 412, 412],
      "WindowCenter": [320.0, 318.0, 318.0, 319.0, 318.0, 317.0, 317.0, 317.0, 317.0, 318.0, 318.0, 318.0, 317.0, 317.0, 317.0, 317.0, 317.0, 318.0, 318.0, 319.0, 319.0, 317.0, 317.0, 317.0, 318.0, 318.0, 319.0, 318.0, 318.0, 317.0, 318.0, 318.0, 319.0, 319.0, 319.0, 319.0, 320.0, 320.0, 319.0, 319.0, 319.0, 319.0, 320.0, 319.0, 319.0, 319.0, 319.0, 319.0, 319.0, 319.0, 319.0, 319.0, 319.0, 319.0, 319.0, 319.0, 319.0, 319.0, 319.0, 319.0, 319.0, 319.0, 319.0, 319.0, 319.0, 319.0, 319.0, 319.0, 319.0, 319.0, 319.0, 319.0, 319.0, 319.0, 319.0, 319.0, 319.0, 319.0, 319.0, 319.0, 319.0, 319.0, 319.0, 319.0, 319.0, 319.0, 319.0, 319.0, 319.0, 319.0, 319.0, 319.0, 319.0, 319.0, 319.0, 319.0, 319.0, 319.0, 319.0, 319.0, 319.0, 319.0, 319.0, 319.0, 319.0, 319.0, 319.0, 319.0, 319.0, 319.0, 319.0, 319.0, 319.0, 319.0, 319.0, 319.0, 319.0, 319.0, 319.0, 319.0, 319.0, 319.0, 319.0, 319.0, 319.0, 319.0, 319.0, 319.0, 319.0, 319.0, 319.0, 319.0, 319.0, 319.0, 319.0, 319.0, 319.0, 319.0, 319.0, 319.0, 319.0, 319.0, 319.0, 319.0, 319.0, 319.0, 319.0, 319.0, 319.0, 319.0, 319.0, 319.0, 319.0, 319.0, 319.0, 319.0, 319.0, 319.0, 319.0, 319.0, 319.0, 319.0, 319.0, 319.0, 319.0, 319.0, 319.0, 319.0, 319.0, 319.0, 319.0, 319.0, 319.0, 319.0, 319.0, 319.0, 319.0, 319.0, 319.0, 319.0, 319.0, 319.0, 319.0, 319.0, 319.0, 319.0, 319.0, 319.0, 319.0, 319.0, 319.0, 319.0, 319.0, 319.0, 319.0, 319.0, 319.0, 319.0, 319.0, 319.0],
      "WindowWidth": [687.0, 685.0, 684.0, 687.0, 685.0, 683.0, 683.0, 683.0, 683.0, 683.0, 685.0, 684.0, 683.0, 683.0, 683.0, 683.0, 683.0, 685.0, 684.0, 687.0, 687.0, 683.0, 682.0, 683.0, 684.0, 685.0, 685.0, 684.0, 684.0, 683.0, 684.0, 685.0, 687.0, 687.0, 687.0, 687.0, 687.0, 687.0, 687.0, 687.0, 687.0, 687.0, 687.0, 687.0, 687.0, 687.0, 687.0, 686.0, 687.0, 687.0, 687.0, 687.0, 687.0, 687.0, 687.0, 687.0, 687.0, 687.0, 687.0, 687.0, 687.0, 687.0, 687.0, 687.0, 687.0, 687.0, 687.0, 687.0, 687.0, 687.0, 687.0, 687.0, 687.0, 687.0, 687.0, 687.0, 687.0, 686.0, 687.0, 687.0, 687.0, 687.0, 687.0, 687.0, 687.0, 687.0, 687.0, 686.0, 687.0, 687.0, 687.0, 687.0, 687.0, 687.0, 687.0, 687.0, 686.0, 686.0, 686.0, 687.0, 687.0, 687.0, 687.0, 686.0, 687.0, 687.0, 687.0, 686.0, 686.0, 687.0, 687.0, 687.0, 686.0, 687.0, 686.0, 687.0, 686.0, 687.0, 686.0, 687.0, 686.0, 686.0, 687.0, 686.0, 686.0, 686.0, 686.0, 687.0, 687.0, 686.0, 686.0, 686.0, 686.0, 687.0, 686.0, 686.0, 686.0, 687.0, 686.0, 687.0, 686.0, 686.0, 686.0, 687.0, 686.0, 686.0, 687.0, 687.0, 686.0, 686.0, 687.0, 687.0, 686.0, 686.0, 687.0, 686.0, 687.0, 686.0, 686.0, 686.0, 686.0, 686.0, 686.0, 686.0, 686.0, 686.0, 686.0, 686.0, 686.0, 686.0, 686.0, 686.0, 686.0, 686.0, 686.0, 686.0, 686.0, 686.0, 686.0, 686.0, 686.0, 686.0, 686.0, 686.0, 686.0, 686.0, 686.0, 686.0, 686.0, 687.0, 686.0, 686.0, 686.0, 686.0, 686.0, 686.0, 686.0, 686.0, 686.0, 686.0]
    },
    "slices": {}
  }
}