{
  "AcquisitionMatrixPE": 80,
  "AcquisitionNumber": 1,
  "AcquisitionTime": "10:33:7.352500",
  "BandwidthPerPixelPhaseEncode": 44.643,
  "BaseResolution": 80,
  "BodyPartExamined": "BRAIN",
  "CoilCombinationMethod": "Sum of Squares",
  "ConsistencyInfo": "N4_VE11C_LATEST_20160120",
  "ConversionSoftware": "dcm2niix",
  "ConversionSoftwareVersion": "v1.0.20220720",
  "DerivedVendorReportedEchoSpacing": 0.000559998,
  "DeviceSerialNumber": "66112",
  "DwellTime": 2.7e-06,
  "EchoTime": 0.035,
  "EchoTrainLength": 39,
  "EffectiveEchoSpacing": 0.000279999,
  "FlipAngle": 90,
  "HeudiconvVersion": "0.13.1",
  "ImageOrientationPatientDICOM": [0.991043, 0.133242, 0.00892708, -0.129242, 0.940169, 0.315245],
  "ImageOrientationText": "Tra>Cor(18.3)>Sag(-1.9)",
  "ImageType": [
    "ORIGINAL",
    "PRIMARY",
    "M",
    "ND",
    "NORM",
    "MOSAIC"
],
  "ImagingFrequency": 123.252,
  "InPlanePhaseEncodingDirectionDICOM": "COL",
  "InstitutionAddress": "Maynard 3,Hanover,NH,US,03755",
  "InstitutionName": "Dartmouth College - PBS",
  "InstitutionalDepartmentName": "Department",
  "MRAcquisitionType": "2D",
  "MagneticFieldStrength": 3,
  "Manufacturer": "Siemens",
  "ManufacturersModelName": "Prisma",
  "Modality": "MR",
  "MultibandAccelerationFactor": 4,
  "NonlinearGradientCorrection": false,
  "ParallelReductionFactorInPlane": 2,
  "PartialFourier": 1,
  "PatientPosition": "HFS",
  "PercentPhaseFOV": 100,
  "PercentSampling": 100,
  "PhaseEncodingDirection": "j-",
  "PhaseEncodingSteps": 79,
  "PhaseResolution": 1,
  "PixelBandwidth": 2315,
  "ProcedureStepDescription": "dbic^QA",
  "ProtocolName": "func-bold_task-rest_acq-p2-s4-3.5mm",
  "PulseSequenceDetails": "%SiemensSeq%\\ep2d_bold",
  "ReceiveCoilActiveElements": "HEA;HEP",
  "ReceiveCoilName": "Head_32",
  "ReconMatrixPE": 80,
  "RefLinesPE": 24,
  "RepetitionTime": 2,
  "SAR": 0.0178366,
  "ScanOptions": "FS",
  "ScanningSequence": "EP",
  "SequenceName": "*epfid2d1_80",
  "SequenceVariant": "SK",
  "SeriesDescription": "func-bold_task-rest_acq-p2-s4-3.5mm",
  "SeriesNumber": 7,
  "ShimSetting": [4145, -7709, -7530, 267, -69, -133, 5, 80],
  "SliceThickness": 3.5,
  "SliceTiming": [1.485, 0, 0.99, 0.2475, 1.2375, 0.7425, 1.7325, 0.495, 1.485, 0, 0.99, 0.2475, 1.2375, 0.7425, 1.7325, 0.495, 1.485, 0, 0.99, 0.2475, 1.2375, 0.7425, 1.7325, 0.495, 1.485, 0, 0.99, 0.2475, 1.2375, 0.7425, 1.7325, 0.495],
  "SoftwareVersions": "syngo MR E11",
  "SpacingBetweenSlices": 3.99,
  "StationName": "AWP66112",
  "TaskName": "rest",
  "TotalReadoutTime": 0.0221199,
  "TxRefAmp": 220.739,
  "dcmmeta_affine": [
    [-2.973129987716675, -0.38772544264793396, -0.13410764932632446, 136.8029022216797],
    [-0.3997262120246887, 2.8205060958862305, 1.2511651515960693, -113.02054595947266],
    [0.026781247928738594, -0.9457350969314575, 3.786383628845215, -22.065502166748047],
    [0.0, 0.0, 0.0, 1.0]
],
  "dcmmeta_reorient_transform": [
    [0.0, -1.0, 0.0, 79.0],
    [1.0, 0.0, 0.0, 0.0],
    [0.0, 0.0, 1.0, 0.0],
    [0.0, 0.0, 0.0, 1.0]
],
  "dcmmeta_shape": [80, 80, 32, 200],
  "dcmmeta_slice_dim": 2,
  "dcmmeta_version": 0.6,
  "global": {
    "const": {
      "AccessionNumber": "qa",
      "AcquisitionMatrix": [80, 0, 0, 80],
      "AngioFlag": "N",
      "BitsAllocated": 16,
      "BitsStored": 12,
      "BodyPartExamined": "BRAIN",
      "Columns": 480,
      "EchoNumbers": 1,
      "EchoTime": 35.0,
      "EchoTrainLength": 39,
      "FlipAngle": 90.0,
      "HighBit": 11,
      "ImageOrientationPatient": [0.99104331777381, 0.13324207101998, 0.00892708273623, -0.1292418165667, 0.94016866606182, 0.31524503518068],
      "ImagePositionPatient": [-623.25348550738, -753.84587352116, -291.28184695828],
      "ImageType": [
        "ORIGINAL",
        "PRIMARY",
        "M",
        "ND",
        "NORM",
        "MOSAIC"
],
      "ImagedNucleus": "1H",
      "ImagingFrequency": 123.252358,
      "InPlanePhaseEncodingDirection": "COL",
      "MRAcquisitionType": "2D",
      "MagneticFieldStrength": 3.0,
      "Manufacturer": "SIEMENS",
      "ManufacturerModelName": "Prisma",
      "Modality": "MR",
      "NumberOfAverages": 1.0,
      "NumberOfPhaseEncodingSteps": 79,
      "PercentPhaseFieldOfView": 100.0,
      "PercentSampling": 100.0,
      "PerformedProcedureStepStartTime": "102451.418000",
      "PhotometricInterpretation": "MONOCHROME2",
      "PixelBandwidth": 2315.0,
      "PixelRepresentation": 0,
      "PixelSpacing": [3.0, 3.0],
      "ProtocolName": "func-bold_task-rest_acq-p2-s4-3.5mm",
      "RepetitionTime": 2000.0,
      "Rows": 480,
      "SAR": 0.01783663597228,
      "SamplesPerPixel": 1,
      "ScanOptions": "FS",
      "ScanningSequence": "EP",
      "SequenceName": "*epfid2d1_80",
      "SequenceVariant": "SK",
      "SeriesDescription": "func-bold_task-rest_acq-p2-s4-3.5mm",
      "SeriesNumber": 7,
      "SeriesTime": "103356.338000",
      "SliceLocation": -60.977980373935,
      "SliceThickness": 3.5,
      "SmallestImagePixelValue": 0,
      "SoftwareVersions": "syngo MR E11",
      "SpacingBetweenSlices": 3.99000001615,
      "SpecificCharacterSet": "ISO_IR 100",
      "StudyID": "32",
      "StudyTime": "102451.375000",
      "TransmitCoilName": "Body",
      "VariableFlipAngleFlag": "N",
      "WindowCenterWidthExplanation": "Algo1",
      "dBdt": 0.0},
    "slices": {}
  },
  "time": {
    "samples": {
      "AcquisitionNumber": [1, 2, 3, 4, 5, 6, 7, 8, 9, 10, 11, 12, 13, 14, 15, 16, 17, 18, 19, 20, 21, 22, 23, 24, 25, 26, 27, 28, 29, 30, 31, 32, 33, 34, 35, 36, 37, 38, 39, 40, 41, 42, 43, 44, 45, 46, 47, 48, 49, 50, 51, 52, 53, 54, 55, 56, 57, 58, 59, 60, 61, 62, 63, 64, 65, 66, 67, 68, 69, 70, 71, 72, 73, 74, 75, 76, 77, 78, 79, 80, 81, 82, 83, 84, 85, 86, 87, 88, 89, 90, 91, 92, 93, 94, 95, 96, 97, 98, 99, 100, 101, 102, 103, 104, 105, 106, 107, 108, 109, 110, 111, 112, 113, 114, 115, 116, 117, 118, 119, 120, 121, 122, 123, 124, 125, 126, 127, 128, 129, 130, 131, 132, 133, 134, 135, 136, 137, 138, 139, 140, 141, 142, 143, 144, 145, 146, 147, 148, 149, 150, 151, 152, 153, 154, 155, 156, 157, 158, 159, 160, 161, 162, 163, 164, 165, 166, 167, 168, 169, 170, 171, 172, 173, 174, 175, 176, 177, 178, 179, 180, 181, 182, 183, 184, 185, 186, 187, 188, 189, 190, 191, 192, 193, 194, 195, 196, 197, 198, 199, 200],
      "AcquisitionTime": ["103307.352500", "103309.352500", "103311.352500", "103313.352500", "103315.352500", "103317.352500", "103319.352500", "103321.352500", "103323.352500", "103325.352500", "103327.352500", "103329.352500", "103331.352500", "103333.352500", "103335.352500", "103337.352500", "103339.352500", "103341.352500", "103343.352500", "103345.352500", "103347.352500", "103349.352500", "103351.352500", "103353.352500", "103355.352500", "103357.352500", "103359.352500", "103401.352500", "103403.352500", "103405.352500", "103407.352500", "103409.352500", "103411.352500", "103413.352500", "103415.352500", "103417.352500", "103419.352500", "103421.352500", "103423.352500", "103425.352500", "103427.352500", "103429.352500", "103431.352500", "103433.352500", "103435.352500", "103437.352500", "103439.352500", "103441.352500", "103443.352500", "103445.352500", "103447.352500", "103449.352500", "103451.352500", "103453.352500", "103455.352500", "103457.352500", "103459.352500", "103501.352500", "103503.352500", "103505.352500", "103507.352500", "103509.352500", "103511.352500", "103513.352500", "103515.352500", "103517.352500", "103519.352500", "103521.352500", "103523.352500", "103525.352500", "103527.352500", "103529.352500", "103531.352500", "103533.352500", "103535.352500", "103537.352500", "103539.352500", "103541.352500", "103543.352500", "103545.352500", "103547.352500", "103549.352500", "103551.352500", "103553.352500", "103555.352500", "103557.352500", "103559.352500", "103601.352500", "103603.352500", "103605.352500", "103607.352500", "103609.352500", "103611.352500", "103613.352500", "103615.352500", "103617.352500", "103619.352500", "103621.352500", "103623.352500", "103625.352500", "103627.352500", "103629.352500", "103631.352500", "103633.352500", "103635.352500", "103637.352500", "103639.352500", "103641.352500", "103643.352500", "103645.352500", "103647.352500", "103649.352500", "103651.352500", "103653.352500", "103655.352500", "103657.352500", "103659.352500", "103701.352500", "103703.352500", "103705.352500", "103707.352500", "103709.352500", "103711.352500", "103713.352500", "103715.352500", "103717.352500", "103719.352500", "103721.352500", "103723.352500", "103725.352500", "103727.352500", "103729.352500", "103731.352500", "103733.352500", "103735.352500", "103737.352500", "103739.352500", "103741.352500", "103743.352500", "103745.352500", "103747.352500", "103749.352500", "103751.352500", "103753.352500", "103755.352500", "103757.352500", "103759.352500", "103801.352500", "103803.352500", "103805.352500", "103807.352500", "103809.352500", "103811.352500", "103813.352500", "103815.352500", "103817.352500", "103819.352500", "103821.352500", "103823.352500", "103825.352500", "103827.352500", "103829.352500", "103831.352500", "103833.352500", "103835.352500", "103837.352500", "103839.352500", "103841.352500", "103843.352500", "103845.352500", "103847.352500", "103849.352500", "103851.352500", "103853.352500", "103855.352500", "103857.352500", "103859.352500", "103901.352500", "103903.352500", "103905.352500", "103907.352500", "103909.352500", "103911.352500", "103913.352500", "103915.352500", "103917.352500", "103919.352500", "103921.352500", "103923.352500", "103925.352500", "103927.352500", "103929.352500", "103931.352500", "103933.352500", "103935.352500", "103937.352500", "103939.352500", "103941.352500", "103943.352500", "103945.352500"],
      "ContentTime": ["103356.341000", "103356.345000", "103356.347000", "103356.350000", "103356.361000", "103356.369000", "103356.371000", "103356.374000", "103356.376000", "103356.379000", "103356.382000", "103356.384000", "103356.387000", "103356.389000", "103356.392000", "103356.395000", "103356.397000", "103356.409000", "103356.411000", "103356.414000", "103356.416000", "103356.419000", "103356.422000", "103356.424000", "103436.337000", "103436.340000", "103436.342000", "103436.345000", "103436.347000", "103436.350000", "103436.353000", "103436.355000", "103436.358000", "103436.360000", "103436.363000", "103436.366000", "103436.368000", "103436.371000", "103436.373000", "103436.376000", "103436.378000", "103436.381000", "103436.384000", "103436.386000", "103516.336000", "103516.338000", "103516.341000", "103516.344000", "103516.346000", "103516.349000", "103516.351000", "103516.354000", "103516.357000", "103516.359000", "103516.362000", "103516.365000", "103516.367000", "103516.370000", "103516.372000", "103516.375000", "103516.377000", "103516.380000", "103516.383000", "103516.385000", "103556.337000", "103556.339000", "103556.342000", "103556.345000", "103556.347000", "103556.350000", "103556.352000", "103556.355000", "103556.358000", "103556.360000", "103556.363000", "103556.365000", "103556.368000", "103556.370000", "103556.373000", "103556.376000", "103556.378000", "103556.381000", "103556.383000", "103556.386000", "103636.337000", "103636.339000", "103636.342000", "103636.345000", "103636.347000", "103636.350000", "103636.352000", "103636.355000", "103636.358000", "103636.360000", "103636.363000", "103636.366000", "103636.368000", "103636.371000", "103636.373000", "103636.376000", "103636.379000", "103636.381000", "103636.384000", "103636.386000", "103656.337000", "103656.340000", "103656.342000", "103656.345000", "103656.348000", "103656.350000", "103656.353000", "103656.355000", "103656.358000", "103656.360000", "103736.336000", "103736.338000", "103736.341000", "103736.344000", "103736.346000", "103736.349000", "103736.351000", "103736.354000", "103736.357000", "103736.359000", "103736.362000", "103736.364000", "103736.367000", "103736.370000", "103736.372000", "103736.375000", "103736.377000", "103736.380000", "103736.383000", "103736.385000", "103816.337000", "103816.339000", "103816.342000", "103816.345000", "103816.347000", "103816.350000", "103816.353000", "103816.355000", "103816.358000", "103816.360000", "103816.363000", "103816.365000", "103816.368000", "103816.371000", "103816.373000", "103816.376000", "103816.379000", "103816.381000", "103816.384000", "103816.386000", "103856.337000", "103856.340000", "103856.342000", "103856.345000", "103856.347000", "103856.350000", "103856.353000", "103856.355000", "103856.358000", "103856.360000", "103856.363000", "103856.366000", "103856.368000", "103856.371000", "103856.373000", "103856.376000", "103856.379000", "103856.381000", "103856.384000", "103856.386000", "103936.336000", "103936.339000", "103936.341000", "103936.344000", "103936.346000", "103936.349000", "103936.352000", "103936.354000", "103936.357000", "103936.359000", "103936.362000", "103936.365000", "103936.367000", "103936.370000", "103936.372000", "103936.375000", "103936.378000", "103936.380000", "103936.383000", "103936.386000", "103946.800000", "103946.802000", "103946.805000", "103946.808000", "103946.810000", "103946.813000"],
      "InstanceCreationTime": ["103356.341000", "103356.345000", "103356.347000", "103356.350000", "103356.361000", "103356.369000", "103356.371000", "103356.374000", "103356.376000", "103356.379000", "103356.382000", "103356.384000", "103356.387000", "103356.389000", "103356.392000", "103356.395000", "103356.397000", "103356.409000", "103356.411000", "103356.414000", "103356.416000", "103356.419000", "103356.422000", "103356.424000", "103436.337000", "103436.340000", "103436.342000", "103436.345000", "103436.347000", "103436.350000", "103436.353000", "103436.355000", "103436.358000", "103436.360000", "103436.363000", "103436.366000", "103436.368000", "103436.371000", "103436.373000", "103436.376000", "103436.378000", "103436.381000", "103436.384000", "103436.386000", "103516.336000", "103516.338000", "103516.341000", "103516.344000", "103516.346000", "103516.349000", "103516.351000", "103516.354000", "103516.357000", "103516.359000", "103516.362000", "103516.365000", "103516.367000", "103516.370000", "103516.372000", "103516.375000", "103516.377000", "103516.380000", "103516.383000", "103516.385000", "103556.337000", "103556.339000", "103556.342000", "103556.345000", "103556.347000", "103556.350000", "103556.352000", "103556.355000", "103556.358000", "103556.360000", "103556.363000", "103556.365000", "103556.368000", "103556.370000", "103556.373000", "103556.376000", "103556.378000", "103556.381000", "103556.383000", "103556.386000", "103636.337000", "103636.339000", "103636.342000", "103636.345000", "103636.347000", "103636.350000", "103636.352000", "103636.355000", "103636.358000", "103636.360000", "103636.363000", "103636.366000", "103636.368000", "103636.371000", "103636.373000", "103636.376000", "103636.379000", "103636.381000", "103636.384000", "103636.386000", "103656.337000", "103656.340000", "103656.342000", "103656.345000", "103656.348000", "103656.350000", "103656.353000", "103656.355000", "103656.358000", "103656.360000", "103736.336000", "103736.338000", "103736.341000", "103736.344000", "103736.346000", "103736.349000", "103736.351000", "103736.354000", "103736.357000", "103736.359000", "103736.362000", "103736.364000", "103736.367000", "103736.370000", "103736.372000", "103736.375000", "103736.377000", "103736.380000", "103736.383000", "103736.385000", "103816.337000", "103816.339000", "103816.342000", "103816.345000", "103816.347000", "103816.350000", "103816.353000", "103816.355000", "103816.358000", "103816.360000", "103816.363000", "103816.365000", "103816.368000", "103816.371000", "103816.373000", "103816.376000", "103816.379000", "103816.381000", "103816.384000", "103816.386000", "103856.337000", "103856.340000", "103856.342000", "103856.345000", "103856.347000", "103856.350000", "103856.353000", "103856.355000", "103856.358000", "103856.360000", "103856.363000", "103856.366000", "103856.368000", "103856.371000", "103856.373000", "103856.376000", "103856.379000", "103856.381000", "103856.384000", "103856.386000", "103936.336000", "103936.339000", "103936.341000", "103936.344000", "103936.346000", "103936.349000", "103936.352000", "103936.354000", "103936.357000", "103936.359000", "103936.362000", "103936.365000", "103936.367000", "103936.370000", "103936.372000", "103936.375000", "103936.378000", "103936.380000", "103936.383000", "103936.386000", "103946.800000", "103946.802000", "103946.805000", "103946.808000", "103946.810000", "103946.813000"],
      "InstanceNumber": [1, 2, 3, 4, 5, 6, 7, 8, 9, 10, 11, 12, 13, 14, 15, 16, 17, 18, 19, 20, 21, 22, 23, 24, 25, 26, 27, 28, 29, 30, 31, 32, 33, 34, 35, 36, 37, 38, 39, 40, 41, 42, 43, 44, 45, 46, 47, 48, 49, 50, 51, 52, 53, 54, 55, 56, 57, 58, 59, 60, 61, 62, 63, 64, 65, 66, 67, 68, 69, 70, 71, 72, 73, 74, 75, 76, 77, 78, 79, 80, 81, 82, 83, 84, 85, 86, 87, 88, 89, 90, 91, 92, 93, 94, 95, 96, 97, 98, 99, 100, 101, 102, 103, 104, 105, 106, 107, 108, 109, 110, 111, 112, 113, 114, 115, 116, 117, 118, 119, 120, 121, 122, 123, 124, 125, 126, 127, 128, 129, 130, 131, 132, 133, 134, 135, 136, 137, 138, 139, 140, 141, 142, 143, 144, 145, 146, 147, 148, 149, 150, 151, 152, 153, 154, 155, 156, 157, 158, 159, 160, 161, 162, 163, 164, 165, 166, 167, 168, 169, 170, 171, 172, 173, 174, 175, 176, 177, 178, 179, 180, 181, 182, 183, 184, 185, 186, 187, 188, 189, 190, 191, 192, 193, 194, 195, 196, 197, 198, 199, 200],
      "LargestImagePixelValue": [2483, 2485, 2485, 2489, 2489, 2487, 2484, 2488, 2485, 2484, 2486, 2484, 2484, 2488, 2488, 2486, 2487, 2484, 2481, 2486, 2486, 2488, 2486, 2482, 2492, 2486, 2487, 2485, 2482, 2487, 2491, 2485, 2484, 2480, 2484, 2490, 2484, 2485, 2488, 2486, 2483, 2488, 2488, 2486, 2492, 2490, 2485, 2487, 2487, 2490, 2493, 2488, 2487, 2489, 2486, 2493, 2487, 2483, 2488, 2489, 2488, 2493, 2487, 2484, 2485, 2484, 2486, 2482, 2485, 2489, 2490, 2491, 2492, 2489, 2488, 2494, 2486, 2492, 2485, 2487, 2483, 2485, 2487, 2484, 2493, 2489, 2487, 2492, 2496, 2488, 2482, 2492, 2489, 2490, 2490, 2487, 2497, 2492, 2485, 2489, 2494, 2492, 2488, 2492, 2493, 2493, 2484, 2490, 2490, 2488, 2488, 2491, 2484, 2496, 2490, 2495, 2489, 2490, 2482, 2484, 2487, 2493, 2488, 2488, 2486, 2490, 2488, 2490, 2488, 2487, 2488, 2486, 2494, 2486, 2486, 2491, 2489, 2495, 2490, 2494, 2493, 2493, 2488, 2496, 2495, 2494, 2494, 2490, 2492, 2488, 2491, 2493, 2490, 2488, 2490, 2494, 2490, 2491, 2491, 2489, 2490, 2491, 2485, 2490, 2490, 2490, 2487, 2488, 2493, 2492, 2493, 2494, 2492, 2490, 2491, 2494, 2492, 2491, 2487, 2492, 2491, 2492, 2491, 2489, 2489, 2494, 2490, 2489, 2492, 2491, 2492, 2494, 2489, 2493, 2487, 2487, 2490, 2493, 2491, 2486],
      "WindowCenter": [988.0, 988.0, 988.0, 988.0, 988.0, 988.0, 988.0, 988.0, 988.0, 988.0, 988.0, 988.0, 988.0, 988.0, 988.0, 988.0, 988.0, 988.0, 988.0, 988.0, 988.0, 988.0, 988.0, 988.0, 988.0, 988.0, 988.0, 988.0, 988.0, 988.0, 988.0, 988.0, 988.0, 988.0, 988.0, 988.0, 988.0, 988.0, 988.0, 988.0, 988.0, 988.0, 988.0, 988.0, 988.0, 988.0, 988.0, 988.0, 988.0, 988.0, 988.0, 988.0, 988.0, 988.0, 988.0, 988.0, 988.0, 988.0, 988.0, 988.0, 988.0, 988.0, 988.0, 988.0, 988.0, 988.0, 988.0, 988.0, 988.0, 988.0, 988.0, 988.0, 988.0, 988.0, 988.0, 988.0, 988.0, 988.0, 988.0, 988.0, 988.0, 988.0, 988.0, 988.0, 988.0, 988.0, 988.0, 988.0, 988.0, 988.0, 988.0, 988.0, 988.0, 988.0, 988.0, 988.0, 988.0, 988.0, 988.0, 988.0, 988.0, 988.0, 988.0, 988.0, 988.0, 988.0, 988.0, 988.0, 988.0, 988.0, 988.0, 988.0, 988.0, 988.0, 988.0, 988.0, 988.0, 988.0, 988.0, 988.0, 988.0, 988.0, 988.0, 988.0, 988.0, 988.0, 988.0, 988.0, 988.0, 988.0, 988.0, 988.0, 988.0, 988.0, 988.0, 988.0, 988.0, 988.0, 988.0, 988.0, 988.0, 988.0, 988.0, 988.0, 988.0, 988.0, 988.0, 988.0, 988.0, 988.0, 988.0, 988.0, 988.0, 988.0, 988.0, 988.0, 988.0, 988.0, 988.0, 988.0, 988.0, 988.0, 988.0, 988.0, 988.0, 988.0, 988.0, 989.0, 988.0, 988.0, 988.0, 988.0, 989.0, 988.0, 988.0, 988.0, 988.0, 988.0, 988.0, 988.0, 988.0, 988.0, 988.0, 988.0, 988.0, 988.0, 988.0, 988.0, 988.0, 988.0, 988.0, 988.0, 988.0, 988.0, 988.0, 988.0, 988.0, 988.0, 988.0, 988.0],
      "WindowWidth": [2366.0, 2366.0, 2366.0, 2366.0, 2366.0, 2366.0, 2366.0, 2366.0, 2366.0, 2366.0, 2365.0, 2365.0, 2365.0, 2366.0, 2366.0, 2365.0, 2365.0, 2365.0, 2365.0, 2365.0, 2365.0, 2365.0, 2365.0, 2365.0, 2365.0, 2365.0, 2365.0, 2365.0, 2365.0, 2366.0, 2365.0, 2365.0, 2365.0, 2365.0, 2365.0, 2365.0, 2365.0, 2365.0, 2365.0, 2365.0, 2365.0, 2365.0, 2365.0, 2365.0, 2365.0, 2365.0, 2365.0, 2365.0, 2365.0, 2365.0, 2365.0, 2365.0, 2365.0, 2365.0, 2365.0, 2365.0, 2365.0, 2365.0, 2365.0, 2365.0, 2365.0, 2365.0, 2364.0, 2363.0, 2363.0, 2363.0, 2364.0, 2364.0, 2363.0, 2365.0, 2365.0, 2365.0, 2365.0, 2365.0, 2365.0, 2365.0, 2365.0, 2365.0, 2365.0, 2365.0, 2365.0, 2365.0, 2365.0, 2365.0, 2365.0, 2365.0, 2365.0, 2366.0, 2365.0, 2365.0, 2365.0, 2365.0, 2365.0, 2365.0, 2365.0, 2365.0, 2365.0, 2365.0, 2365.0, 2365.0, 2365.0, 2365.0, 2365.0, 2365.0, 2366.0, 2365.0, 2365.0, 2365.0, 2365.0, 2365.0, 2365.0, 2365.0, 2365.0, 2365.0, 2365.0, 2365.0, 2365.0, 2365.0, 2364.0, 2363.0, 2365.0, 2365.0, 2365.0, 2365.0, 2365.0, 2365.0, 2365.0, 2365.0, 2365.0, 2365.0, 2365.0, 2365.0, 2365.0, 2365.0, 2365.0, 2365.0, 2365.0, 2365.0, 2365.0, 2365.0, 2365.0, 2365.0, 2365.0, 2365.0, 2365.0, 2365.0, 2365.0, 2365.0, 2365.0, 2365.0, 2365.0, 2365.0, 2365.0, 2365.0, 2365.0, 2365.0, 2365.0, 2365.0, 2365.0, 2365.0, 2365.0, 2365.0, 2365.0, 2365.0, 2363.0, 2363.0, 2364.0, 2365.0, 2365.0, 2365.0, 2365.0, 2365.0, 2365.0, 2365.0, 2365.0, 2365.0, 2365.0, 2365.0, 2365.0, 2365.0, 2365.0, 2365.0, 2365.0, 2365.0, 2365.0, 2365.0, 2365.0, 2365.0, 2365.0, 2365.0, 2365.0, 2365.0, 2365.0, 2365.0, 2364.0, 2363.0, 2363.0, 2364.0, 2365.0, 2365.0]
    },
    "slices": {}
  }
}