{
  "AcquisitionMatrixPE": 80,
  "AcquisitionNumber": 1,
  "AcquisitionTime": "08:55:1.737500",
  "BandwidthPerPixelPhaseEncode": 48.077,
  "BaseResolution": 80,
  "BodyPartExamined": "BRAIN",
  "CoilCombinationMethod": "Sum of Squares",
  "ConsistencyInfo": "N4_VE11E_LATEST_20181129",
  "ConversionSoftware": "dcm2niix",
  "ConversionSoftwareVersion": "v1.0.20220720",
  "DerivedVendorReportedEchoSpacing": 0.000519999,
  "DeviceSerialNumber": "66112",
  "DwellTime": 2.7e-06,
  "EchoTime": 0.035,
  "EchoTrainLength": 39,
  "EffectiveEchoSpacing": 0.00026,
  "FlipAngle": 90,
  "HeudiconvVersion": "0.13.1",
  "ImageOrientationPatientDICOM": [0.999569, -0.0292229, 0.00268099, 0.0268729, 0.948223, 0.316467],
  "ImageOrientationText": "Tra>Cor(18.4)>Sag(0.7)",
  "ImageType": [
    "ORIGINAL",
    "PRIMARY",
    "M",
    "ND",
    "NORM",
    "MOSAIC"
],
  "ImagingFrequency": 123.252,
  "InPlanePhaseEncodingDirectionDICOM": "COL",
  "InstitutionAddress": "Maynard 3,Hanover,NH,US,03755",
  "InstitutionName": "Dartmouth College - PBS",
  "InstitutionalDepartmentName": "Department",
  "MRAcquisitionType": "2D",
  "MagneticFieldStrength": 3,
  "Manufacturer": "Siemens",
  "ManufacturersModelName": "Prisma",
  "MatrixCoilMode": "GRAPPA",
  "Modality": "MR",
  "NonlinearGradientCorrection": false,
  "ParallelReductionFactorInPlane": 2,
  "PartialFourier": 1,
  "PatientPosition": "HFS",
  "PercentPhaseFOV": 100,
  "PercentSampling": 100,
  "PhaseEncodingDirection": "j-",
  "PhaseEncodingSteps": 79,
  "PhaseResolution": 1,
  "PixelBandwidth": 2315,
  "ProcedureStepDescription": "dbic^QA",
  "ProtocolName": "func-bold_task-rest_acq-p2",
  "PulseSequenceDetails": "%SiemensSeq%\\ep2d_bold",
  "ReceiveCoilActiveElements": "HC1-7;NC1,2",
  "ReceiveCoilName": "HeadNeck_64",
  "ReconMatrixPE": 80,
  "RefLinesPE": 24,
  "RepetitionTime": 2,
  "SAR": 0.0408283,
  "ScanOptions": "FS",
  "ScanningSequence": "EP",
  "SequenceName": "*epfid2d1_80",
  "SequenceVariant": "SK",
  "SeriesDescription": "func-bold_task-rest_acq-p2",
  "SeriesNumber": 5,
  "ShimSetting": [4140, -7709, -7509, 122, -71, -205, -78, 80],
  "SliceThickness": 3.5,
  "SliceTiming": [0.99, 0, 1.055, 0.065, 1.12, 0.13, 1.1875, 0.1975, 1.2525, 0.2625, 1.32, 0.33, 1.385, 0.395, 1.45, 0.46, 1.5175, 0.5275, 1.5825, 0.5925, 1.65, 0.66, 1.715, 0.725, 1.78, 0.79, 1.8475, 0.8575, 1.9125, 0.9225],
  "SoftwareVersions": "syngo MR E11",
  "SpacingBetweenSlices": 3.99,
  "StationName": "AWP66112",
  "TaskName": "rest",
  "TotalReadoutTime": 0.02054,
  "TxRefAmp": 211.25,
  "dcmmeta_affine": [
    [-2.9987080097198486, 0.08061874657869339, 0.047043122351169586, 119.081787109375],
    [0.08766860514879227, 2.84466814994812, 1.2618732452392578, -121.15058898925781],
    [0.008042963221669197, -0.9494019150733948, 3.784912586212158, -24.77133560180664],
    [0.0, 0.0, 0.0, 1.0]
],
  "dcmmeta_reorient_transform": [
    [0.0, -1.0, 0.0, 79.0],
    [1.0, 0.0, 0.0, 0.0],
    [0.0, 0.0, 1.0, 0.0],
    [0.0, 0.0, 0.0, 1.0]
],
  "dcmmeta_shape": [80, 80, 30, 200],
  "dcmmeta_slice_dim": 2,
  "dcmmeta_version": 0.6,
  "global": {
    "const": {
      "AccessionNumber": "qa64",
      "AcquisitionMatrix": [80, 0, 0, 80],
      "AngioFlag": "N",
      "BitsAllocated": 16,
      "BitsStored": 12,
      "BodyPartExamined": "BRAIN",
      "Columns": 480,
      "EchoNumbers": 1,
      "EchoTime": 35.0,
      "EchoTrainLength": 39,
      "FlipAngle": 90.0,
      "HighBit": 11,
      "ImageOrientationPatient": [0.99956932536458, -0.0292228693941, 0.0026809876123, 0.02687291673651, 0.94822270184994, 0.31646730327551],
      "ImagePositionPatient": [-741.31601674695, -654.97809094276, -291.26306109572],
      "ImageType": [
        "ORIGINAL",
        "PRIMARY",
        "M",
        "ND",
        "NORM",
        "MOSAIC"
],
      "ImagedNucleus": "1H",
      "ImagingFrequency": 123.252364,
      "InPlanePhaseEncodingDirection": "COL",
      "MRAcquisitionType": "2D",
      "MagneticFieldStrength": 3.0,
      "Manufacturer": "SIEMENS",
      "ManufacturerModelName": "Prisma",
      "Modality": "MR",
      "NumberOfAverages": 1.0,
      "NumberOfPhaseEncodingSteps": 79,
      "PercentPhaseFieldOfView": 100.0,
      "PercentSampling": 100.0,
      "PerformedProcedureStepStartTime": "084844.744000",
      "PhotometricInterpretation": "MONOCHROME2",
      "PixelBandwidth": 2315.0,
      "PixelRepresentation": 0,
      "PixelSpacing": [3.0, 3.0],
      "ProtocolName": "func-bold_task-rest_acq-p2",
      "RepetitionTime": 2000.0,
      "Rows": 480,
      "SAR": 0.04082829779911,
      "SamplesPerPixel": 1,
      "ScanOptions": "FS",
      "ScanningSequence": "EP",
      "SequenceName": "*epfid2d1_80",
      "SequenceVariant": "SK",
      "SeriesDescription": "func-bold_task-rest_acq-p2",
      "SeriesNumber": 5,
      "SeriesTime": "085557.919000",
      "SliceLocation": -60.409034667594,
      "SliceThickness": 3.5,
      "SmallestImagePixelValue": 0,
      "SoftwareVersions": "syngo MR E11",
      "SpacingBetweenSlices": 3.9899999813365,
      "SpecificCharacterSet": "ISO_IR 100",
      "StudyID": "2",
      "StudyTime": "084844.673000",
      "TransmitCoilName": "Body",
      "VariableFlipAngleFlag": "N",
      "WindowCenterWidthExplanation": "Algo1"
    },
    "slices": {}
  },
  "time": {
    "samples": {
      "AcquisitionNumber": [1, 2, 3, 4, 5, 6, 7, 8, 9, 10, 11, 12, 13, 14, 15, 16, 17, 18, 19, 20, 21, 22, 23, 24, 25, 26, 27, 28, 29, 30, 31, 32, 33, 34, 35, 36, 37, 38, 39, 40, 41, 42, 43, 44, 45, 46, 47, 48, 49, 50, 51, 52, 53, 54, 55, 56, 57, 58, 59, 60, 61, 62, 63, 64, 65, 66, 67, 68, 69, 70, 71, 72, 73, 74, 75, 76, 77, 78, 79, 80, 81, 82, 83, 84, 85, 86, 87, 88, 89, 90, 91, 92, 93, 94, 95, 96, 97, 98, 99, 100, 101, 102, 103, 104, 105, 106, 107, 108, 109, 110, 111, 112, 113, 114, 115, 116, 117, 118, 119, 120, 121, 122, 123, 124, 125, 126, 127, 128, 129, 130, 131, 132, 133, 134, 135, 136, 137, 138, 139, 140, 141, 142, 143, 144, 145, 146, 147, 148, 149, 150, 151, 152, 153, 154, 155, 156, 157, 158, 159, 160, 161, 162, 163, 164, 165, 166, 167, 168, 169, 170, 171, 172, 173, 174, 175, 176, 177, 178, 179, 180, 181, 182, 183, 184, 185, 186, 187, 188, 189, 190, 191, 192, 193, 194, 195, 196, 197, 198, 199, 200],
      "AcquisitionTime": ["085501.737500", "085503.737500", "085505.737500", "085507.737500", "085509.737500", "085511.737500", "085513.737500", "085515.737500", "085517.737500", "085519.737500", "085521.737500", "085523.737500", "085525.737500", "085527.737500", "085529.737500", "085531.737500", "085533.737500", "085535.737500", "085537.737500", "085539.737500", "085541.737500", "085543.737500", "085545.737500", "085547.737500", "085549.737500", "085551.737500", "085553.737500", "085555.737500", "085557.737500", "085559.737500", "085601.737500", "085603.737500", "085605.737500", "085607.737500", "085609.737500", "085611.737500", "085613.737500", "085615.737500", "085617.737500", "085619.737500", "085621.737500", "085623.737500", "085625.737500", "085627.737500", "085629.737500", "085631.737500", "085633.737500", "085635.737500", "085637.737500", "085639.737500", "085641.737500", "085643.737500", "085645.737500", "085647.737500", "085649.737500", "085651.737500", "085653.737500", "085655.737500", "085657.737500", "085659.737500", "085701.737500", "085703.737500", "085705.737500", "085707.737500", "085709.737500", "085711.737500", "085713.737500", "085715.737500", "085717.737500", "085719.737500", "085721.737500", "085723.737500", "085725.737500", "085727.737500", "085729.737500", "085731.737500", "085733.737500", "085735.737500", "085737.737500", "085739.737500", "085741.737500", "085743.737500", "085745.737500", "085747.737500", "085749.737500", "085751.737500", "085753.737500", "085755.737500", "085757.737500", "085759.737500", "085801.737500", "085803.737500", "085805.737500", "085807.737500", "085809.737500", "085811.737500", "085813.737500", "085815.737500", "085817.737500", "085819.737500", "085821.737500", "085823.737500", "085825.737500", "085827.737500", "085829.737500", "085831.737500", "085833.737500", "085835.737500", "085837.737500", "085839.737500", "085841.737500", "085843.737500", "085845.737500", "085847.737500", "085849.737500", "085851.737500", "085853.737500", "085855.737500", "085857.737500", "085859.737500", "085901.737500", "085903.737500", "085905.737500", "085907.737500", "085909.737500", "085911.737500", "085913.737500", "085915.737500", "085917.737500", "085919.737500", "085921.737500", "085923.737500", "085925.737500", "085927.737500", "085929.737500", "085931.737500", "085933.737500", "085935.737500", "085937.737500", "085939.737500", "085941.737500", "085943.737500", "085945.737500", "085947.737500", "085949.737500", "085951.737500", "085953.737500", "085955.737500", "085957.737500", "085959.737500", "090001.737500", "090003.737500", "090005.737500", "090007.737500", "090009.737500", "090011.737500", "090013.737500", "090015.737500", "090017.737500", "090019.737500", "090021.737500", "090023.737500", "090025.737500", "090027.737500", "090029.737500", "090031.737500", "090033.737500", "090035.737500", "090037.737500", "090039.737500", "090041.737500", "090043.737500", "090045.737500", "090047.737500", "090049.737500", "090051.737500", "090053.737500", "090055.737500", "090057.737500", "090059.737500", "090101.737500", "090103.737500", "090105.737500", "090107.737500", "090109.737500", "090111.737500", "090113.737500", "090115.737500", "090117.737500", "090119.737500", "090121.737500", "090123.737500", "090125.737500", "090127.737500", "090129.737500", "090131.737500", "090133.737500", "090135.737500", "090137.737500", "090139.737500"],
      "ContentTime": ["085557.922000", "085557.925000", "085557.928000", "085557.930000", "085557.932000", "085557.935000", "085557.937000", "085557.939000", "085557.942000", "085557.944000", "085557.946000", "085557.949000", "085557.951000", "085557.953000", "085557.956000", "085557.958000", "085557.960000", "085557.963000", "085557.965000", "085557.967000", "085557.970000", "085557.972000", "085557.975000", "085557.977000", "085557.979000", "085557.982000", "085557.984000", "085557.986000", "085637.918000", "085637.921000", "085637.923000", "085637.925000", "085637.928000", "085637.930000", "085637.933000", "085637.935000", "085637.937000", "085637.940000", "085637.942000", "085637.944000", "085637.947000", "085637.949000", "085637.951000", "085637.954000", "085637.956000", "085637.958000", "085637.961000", "085637.963000", "085717.918000", "085717.921000", "085717.923000", "085717.925000", "085717.928000", "085717.930000", "085717.932000", "085717.935000", "085717.937000", "085717.939000", "085717.942000", "085717.944000", "085717.947000", "085717.949000", "085717.951000", "085717.953000", "085717.956000", "085717.958000", "085717.960000", "085717.963000", "085757.917000", "085757.920000", "085757.922000", "085757.925000", "085757.927000", "085757.929000", "085757.932000", "085757.934000", "085757.936000", "085757.939000", "085757.941000", "085757.943000", "085757.946000", "085757.948000", "085757.950000", "085757.953000", "085757.955000", "085757.957000", "085757.959000", "085757.962000", "085837.918000", "085837.921000", "085837.923000", "085837.925000", "085837.928000", "085837.930000", "085837.932000", "085837.935000", "085837.937000", "085837.939000", "085837.942000", "085837.944000", "085837.946000", "085837.972000", "085837.974000", "085837.976000", "085837.979000", "085837.981000", "085837.983000", "085837.986000", "085917.918000", "085917.921000", "085917.923000", "085917.926000", "085917.928000", "085917.930000", "085917.933000", "085917.935000", "085917.937000", "085917.940000", "085917.942000", "085917.944000", "085917.947000", "085917.949000", "085917.951000", "085917.954000", "085917.956000", "085917.958000", "085917.961000", "085917.963000", "085957.918000", "085957.921000", "085957.923000", "085957.925000", "085957.928000", "085957.930000", "085957.932000", "085957.935000", "085957.937000", "085957.939000", "085957.942000", "085957.944000", "085957.946000", "085957.949000", "085957.951000", "085957.953000", "085957.956000", "085957.958000", "085957.960000", "085957.963000", "090037.917000", "090037.920000", "090037.922000", "090037.924000", "090037.927000", "090037.929000", "090037.931000", "090037.934000", "090037.936000", "090037.938000", "090037.941000", "090037.943000", "090037.945000", "090037.948000", "090037.950000", "090037.952000", "090037.955000", "090037.957000", "090037.959000", "090037.962000", "090117.918000", "090117.921000", "090117.923000", "090117.926000", "090117.939000", "090117.941000", "090117.943000", "090117.946000", "090117.948000", "090117.950000", "090117.953000", "090117.955000", "090117.957000", "090117.960000", "090117.962000", "090117.964000", "090117.967000", "090117.969000", "090117.971000", "090117.974000", "090141.781000", "090141.788000", "090141.792000", "090141.794000", "090141.797000", "090141.801000", "090141.804000", "090141.806000", "090141.809000", "090141.811000", "090141.814000", "090141.818000"],
      "InstanceCreationTime": ["085557.922000", "085557.925000", "085557.928000", "085557.930000", "085557.932000", "085557.935000", "085557.937000", "085557.939000", "085557.942000", "085557.944000", "085557.946000", "085557.949000", "085557.951000", "085557.953000", "085557.956000", "085557.958000", "085557.960000", "085557.963000", "085557.965000", "085557.967000", "085557.970000", "085557.972000", "085557.975000", "085557.977000", "085557.979000", "085557.982000", "085557.984000", "085557.986000", "085637.918000", "085637.921000", "085637.923000", "085637.925000", "085637.928000", "085637.930000", "085637.933000", "085637.935000", "085637.937000", "085637.940000", "085637.942000", "085637.944000", "085637.947000", "085637.949000", "085637.951000", "085637.954000", "085637.956000", "085637.958000", "085637.961000", "085637.963000", "085717.918000", "085717.921000", "085717.923000", "085717.925000", "085717.928000", "085717.930000", "085717.932000", "085717.935000", "085717.937000", "085717.939000", "085717.942000", "085717.944000", "085717.947000", "085717.949000", "085717.951000", "085717.953000", "085717.956000", "085717.958000", "085717.960000", "085717.963000", "085757.917000", "085757.920000", "085757.922000", "085757.925000", "085757.927000", "085757.929000", "085757.932000", "085757.934000", "085757.936000", "085757.939000", "085757.941000", "085757.943000", "085757.946000", "085757.948000", "085757.950000", "085757.953000", "085757.955000", "085757.957000", "085757.959000", "085757.962000", "085837.918000", "085837.921000", "085837.923000", "085837.925000", "085837.928000", "085837.930000", "085837.932000", "085837.935000", "085837.937000", "085837.939000", "085837.942000", "085837.944000", "085837.946000", "085837.972000", "085837.974000", "085837.976000", "085837.979000", "085837.981000", "085837.983000", "085837.986000", "085917.918000", "085917.921000", "085917.923000", "085917.926000", "085917.928000", "085917.930000", "085917.933000", "085917.935000", "085917.937000", "085917.940000", "085917.942000", "085917.944000", "085917.947000", "085917.949000", "085917.951000", "085917.954000", "085917.956000", "085917.958000", "085917.961000", "085917.963000", "085957.918000", "085957.921000", "085957.923000", "085957.925000", "085957.928000", "085957.930000", "085957.932000", "085957.935000", "085957.937000", "085957.939000", "085957.942000", "085957.944000", "085957.946000", "085957.949000", "085957.951000", "085957.953000", "085957.956000", "085957.958000", "085957.960000", "085957.963000", "090037.917000", "090037.920000", "090037.922000", "090037.924000", "090037.927000", "090037.929000", "090037.931000", "090037.934000", "090037.936000", "090037.938000", "090037.941000", "090037.943000", "090037.945000", "090037.948000", "090037.950000", "090037.952000", "090037.955000", "090037.957000", "090037.959000", "090037.962000", "090117.918000", "090117.921000", "090117.923000", "090117.926000", "090117.939000", "090117.941000", "090117.943000", "090117.946000", "090117.948000", "090117.950000", "090117.953000", "090117.955000", "090117.957000", "090117.960000", "090117.962000", "090117.964000", "090117.967000", "090117.969000", "090117.971000", "090117.974000", "090141.781000", "090141.788000", "090141.792000", "090141.794000", "090141.797000", "090141.801000", "090141.804000", "090141.806000", "090141.809000", "090141.811000", "090141.814000", "090141.818000"],
      "InstanceNumber": [1, 2, 3, 4, 5, 6, 7, 8, 9, 10, 11, 12, 13, 14, 15, 16, 17, 18, 19, 20, 21, 22, 23, 24, 25, 26, 27, 28, 29, 30, 31, 32, 33, 34, 35, 36, 37, 38, 39, 40, 41, 42, 43, 44, 45, 46, 47, 48, 49, 50, 51, 52, 53, 54, 55, 56, 57, 58, 59, 60, 61, 62, 63, 64, 65, 66, 67, 68, 69, 70, 71, 72, 73, 74, 75, 76, 77, 78, 79, 80, 81, 82, 83, 84, 85, 86, 87, 88, 89, 90, 91, 92, 93, 94, 95, 96, 97, 98, 99, 100, 101, 102, 103, 104, 105, 106, 107, 108, 109, 110, 111, 112, 113, 114, 115, 116, 117, 118, 119, 120, 121, 122, 123, 124, 125, 126, 127, 128, 129, 130, 131, 132, 133, 134, 135, 136, 137, 138, 139, 140, 141, 142, 143, 144, 145, 146, 147, 148, 149, 150, 151, 152, 153, 154, 155, 156, 157, 158, 159, 160, 161, 162, 163, 164, 165, 166, 167, 168, 169, 170, 171, 172, 173, 174, 175, 176, 177, 178, 179, 180, 181, 182, 183, 184, 185, 186, 187, 188, 189, 190, 191, 192, 193, 194, 195, 196, 197, 198, 199, 200],
      "LargestImagePixelValue": [3621, 3628, 3625, 3633, 3626, 3619, 3618, 3617, 3627, 3616, 3623, 3621, 3622, 3619, 3624, 3630, 3631, 3611, 3614, 3618, 3621, 3629, 3619, 3631, 3632, 3617, 3633, 3626, 3625, 3611, 3623, 3624, 3611, 3628, 3612, 3615, 3619, 3624, 3615, 3617, 3625, 3624, 3615, 3628, 3620, 3621, 3621, 3627, 3603, 3613, 3627, 3626, 3619, 3619, 3632, 3618, 3607, 3613, 3618, 3614, 3629, 3614, 3614, 3618, 3606, 3597, 3622, 3625, 3613, 3612, 3618, 3615, 3613, 3610, 3623, 3626, 3614, 3621, 3617, 3615, 3623, 3621, 3620, 3613, 3611, 3609, 3621, 3621, 3616, 3606, 3627, 3603, 3625, 3616, 3613, 3617, 3610, 3603, 3615, 3610, 3620, 3607, 3623, 3621, 3599, 3626, 3623, 3626, 3616, 3613, 3611, 3610, 3609, 3619, 3613, 3607, 3617, 3606, 3613, 3600, 3608, 3599, 3609, 3612, 3617, 3608, 3630, 3621, 3615, 3610, 3615, 3616, 3617, 3613, 3607, 3607, 3620, 3616, 3622, 3616, 3627, 3610, 3616, 3614, 3612, 3608, 3614, 3614, 3608, 3623, 3605, 3606, 3602, 3628, 3605, 3618, 3610, 3607, 3609, 3606, 3626, 3612, 3616, 3618, 3620, 3591, 3593, 3596, 3614, 3598, 3619, 3604, 3614, 3607, 3604, 3604, 3608, 3608, 3610, 3608, 3611, 3603, 3608, 3613, 3614, 3602, 3609, 3602, 3603, 3610, 3598, 3605, 3609, 3608, 3619, 3608, 3603, 3602, 3609, 3611],
      "WindowCenter": [1355.0, 1353.0, 1353.0, 1353.0, 1353.0, 1353.0, 1353.0, 1353.0, 1353.0, 1352.0, 1353.0, 1353.0, 1353.0, 1354.0, 1353.0, 1353.0, 1353.0, 1353.0, 1353.0, 1353.0, 1353.0, 1353.0, 1353.0, 1353.0, 1353.0, 1353.0, 1353.0, 1353.0, 1353.0, 1353.0, 1353.0, 1353.0, 1353.0, 1352.0, 1352.0, 1353.0, 1352.0, 1352.0, 1353.0, 1353.0, 1353.0, 1353.0, 1352.0, 1352.0, 1353.0, 1352.0, 1353.0, 1352.0, 1353.0, 1352.0, 1353.0, 1353.0, 1353.0, 1352.0, 1352.0, 1352.0, 1353.0, 1353.0, 1352.0, 1353.0, 1353.0, 1353.0, 1353.0, 1353.0, 1353.0, 1352.0, 1353.0, 1352.0, 1352.0, 1352.0, 1352.0, 1352.0, 1352.0, 1352.0, 1352.0, 1353.0, 1353.0, 1353.0, 1353.0, 1352.0, 1352.0, 1353.0, 1353.0, 1353.0, 1352.0, 1353.0, 1352.0, 1352.0, 1353.0, 1352.0, 1353.0, 1352.0, 1351.0, 1353.0, 1352.0, 1352.0, 1352.0, 1352.0, 1352.0, 1352.0, 1352.0, 1352.0, 1352.0, 1352.0, 1353.0, 1352.0, 1351.0, 1352.0, 1352.0, 1352.0, 1353.0, 1352.0, 1352.0, 1352.0, 1352.0, 1352.0, 1352.0, 1352.0, 1352.0, 1352.0, 1352.0, 1352.0, 1352.0, 1353.0, 1352.0, 1352.0, 1351.0, 1352.0, 1352.0, 1351.0, 1352.0, 1352.0, 1352.0, 1352.0, 1352.0, 1352.0, 1352.0, 1352.0, 1352.0, 1352.0, 1352.0, 1352.0, 1352.0, 1352.0, 1352.0, 1352.0, 1351.0, 1352.0, 1351.0, 1351.0, 1352.0, 1351.0, 1352.0, 1351.0, 1352.0, 1352.0, 1351.0, 1351.0, 1351.0, 1352.0, 1351.0, 1352.0, 1351.0, 1352.0, 1352.0, 1351.0, 1351.0, 1351.0, 1352.0, 1352.0, 1351.0, 1352.0, 1351.0, 1351.0, 1352.0, 1352.0, 1352.0, 1351.0, 1351.0, 1352.0, 1352.0, 1351.0, 1352.0, 1351.0, 1351.0, 1351.0, 1353.0, 1352.0, 1352.0, 1351.0, 1351.0, 1352.0, 1352.0, 1351.0, 1352.0, 1352.0, 1351.0, 1352.0, 1352.0, 1352.0],
      "WindowWidth": [3179.0, 3178.0, 3178.0, 3178.0, 3178.0, 3178.0, 3178.0, 3178.0, 3178.0, 3178.0, 3178.0, 3178.0, 3178.0, 3178.0, 3178.0, 3178.0, 3178.0, 3178.0, 3178.0, 3178.0, 3178.0, 3178.0, 3178.0, 3178.0, 3177.0, 3178.0, 3178.0, 3178.0, 3178.0, 3178.0, 3177.0, 3178.0, 3177.0, 3178.0, 3178.0, 3178.0, 3178.0, 3178.0, 3178.0, 3177.0, 3177.0, 3177.0, 3178.0, 3178.0, 3178.0, 3178.0, 3178.0, 3178.0, 3178.0, 3178.0, 3177.0, 3178.0, 3177.0, 3178.0, 3178.0, 3178.0, 3177.0, 3177.0, 3178.0, 3177.0, 3178.0, 3178.0, 3178.0, 3178.0, 3178.0, 3178.0, 3177.0, 3178.0, 3178.0, 3178.0, 3178.0, 3178.0, 3178.0, 3178.0, 3178.0, 3177.0, 3177.0, 3177.0, 3177.0, 3178.0, 3178.0, 3177.0, 3177.0, 3177.0, 3178.0, 3177.0, 3178.0, 3178.0, 3177.0, 3178.0, 3177.0, 3178.0, 3178.0, 3177.0, 3178.0, 3178.0, 3178.0, 3178.0, 3178.0, 3178.0, 3178.0, 3178.0, 3178.0, 3178.0, 3177.0, 3178.0, 3178.0, 3178.0, 3178.0, 3178.0, 3177.0, 3178.0, 3178.0, 3178.0, 3178.0, 3178.0, 3178.0, 3178.0, 3178.0, 3178.0, 3177.0, 3178.0, 3178.0, 3177.0, 3177.0, 3178.0, 3178.0, 3178.0, 3178.0, 3177.0, 3178.0, 3178.0, 3177.0, 3178.0, 3178.0, 3178.0, 3177.0, 3177.0, 3178.0, 3178.0, 3178.0, 3178.0, 3178.0, 3178.0, 3178.0, 3177.0, 3177.0, 3178.0, 3178.0, 3178.0, 3178.0, 3178.0, 3178.0, 3177.0, 3177.0, 3177.0, 3177.0, 3177.0, 3178.0, 3177.0, 3177.0, 3178.0, 3177.0, 3177.0, 3178.0, 3177.0, 3177.0, 3177.0, 3177.0, 3177.0, 3177.0, 3177.0, 3177.0, 3177.0, 3177.0, 3177.0, 3177.0, 3177.0, 3177.0, 3177.0, 3177.0, 3177.0, 3177.0, 3177.0, 3177.0, 3177.0, 3177.0, 3177.0, 3177.0, 3177.0, 3177.0, 3177.0, 3177.0, 3177.0, 3176.0, 3177.0, 3177.0, 3176.0, 3177.0, 3177.0]
    },
    "slices": {}
  }
}