{
  "AcquisitionMatrixPE": 80,
  "AcquisitionNumber": 1,
  "AcquisitionTime": "09:01:52.502500",
  "BandwidthPerPixelPhaseEncode": 25,
  "BaseResolution": 80,
  "BodyPartExamined": "BRAIN",
  "CoilCombinationMethod": "Sum of Squares",
  "ConsistencyInfo": "N4_VE11E_LATEST_20181129",
  "ConversionSoftware": "dcm2niix",
  "ConversionSoftwareVersion": "v1.0.20220720",
  "DerivedVendorReportedEchoSpacing": 0.0005,
  "DeviceSerialNumber": "66112",
  "DwellTime": 2.7e-06,
  "EchoTime": 0.03,
  "EchoTrainLength": 80,
  "EffectiveEchoSpacing": 0.0005,
  "FlipAngle": 77,
  "HeudiconvVersion": "0.13.1",
  "ImageOrientationPatientDICOM": [0.999569, -0.0292229, 0.00268099, 0.0268729, 0.948223, 0.316467],
  "ImageOrientationText": "Tra>Cor(18.4)>Sag(0.7)",
  "ImageType": [
    "ORIGINAL",
    "PRIMARY",
    "M",
    "ND",
    "NORM",
    "MOSAIC"
],
  "ImagingFrequency": 123.252,
  "InPlanePhaseEncodingDirectionDICOM": "COL",
  "InstitutionAddress": "Maynard 3,Hanover,NH,US,03755",
  "InstitutionName": "Dartmouth College - PBS",
  "InstitutionalDepartmentName": "Department",
  "MRAcquisitionType": "2D",
  "MagneticFieldStrength": 3,
  "Manufacturer": "Siemens",
  "ManufacturersModelName": "Prisma",
  "MatrixCoilMode": "SENSE",
  "Modality": "MR",
  "NonlinearGradientCorrection": false,
  "PartialFourier": 1,
  "PatientPosition": "HFS",
  "PercentPhaseFOV": 100,
  "PercentSampling": 100,
  "PhaseEncodingDirection": "j-",
  "PhaseEncodingSteps": 80,
  "PhaseResolution": 1,
  "PixelBandwidth": 2315,
  "ProcedureStepDescription": "dbic^QA",
  "ProtocolName": "func-bold_fa-77",
  "PulseSequenceDetails": "%SiemensSeq%\\ep2d_bold",
  "ReceiveCoilActiveElements": "HC1-7;NC1,2",
  "ReceiveCoilName": "HeadNeck_64",
  "ReconMatrixPE": 80,
  "RepetitionTime": 2,
  "SAR": 0.0320849,
  "ScanOptions": "FS",
  "ScanningSequence": "EP",
  "SequenceName": "*epfid2d1_80",
  "SequenceVariant": "SK",
  "SeriesDescription": "func-bold_fa-77",
  "SeriesNumber": 7,
  "ShimSetting": [4140, -7709, -7510, 123, -71, -206, -78, 80],
  "SliceThickness": 3.5,
  "SliceTiming": [0.99, 0, 1.0575, 0.0675, 1.1225, 0.1325, 1.1875, 0.1975, 1.255, 0.265, 1.32, 0.33, 1.3875, 0.3975, 1.4525, 0.4625, 1.5175, 0.5275, 1.585, 0.595, 1.65, 0.66, 1.7175, 0.7275, 1.7825, 0.7925, 1.8475, 0.8575, 1.915, 0.925],
  "SoftwareVersions": "syngo MR E11",
  "SpacingBetweenSlices": 3.99,
  "StationName": "AWP66112",
  "TotalReadoutTime": 0.0395,
  "TxRefAmp": 211.25,
  "dcmmeta_affine": [
    [-2.9987080097198486, 0.08061874657869339, 0.047043122351169586, 117.2293701171875],
    [0.08766860514879227, 2.84466814994812, 1.2618732452392578, -118.86891174316406],
    [0.008042963221669197, -0.9494019150733948, 3.784912586212158, -24.161617279052734],
    [0.0, 0.0, 0.0, 1.0]
],
  "dcmmeta_reorient_transform": [
    [0.0, -1.0, 0.0, 79.0],
    [1.0, 0.0, 0.0, 0.0],
    [0.0, 0.0, 1.0, 0.0],
    [0.0, 0.0, 0.0, 1.0]
],
  "dcmmeta_shape": [80, 80, 30, 200],
  "dcmmeta_slice_dim": 2,
  "dcmmeta_version": 0.6,
  "global": {
    "const": {
      "AccessionNumber": "qa64",
      "AcquisitionMatrix": [80, 0, 0, 80],
      "AngioFlag": "N",
      "BitsAllocated": 16,
      "BitsStored": 12,
      "BodyPartExamined": "BRAIN",
      "Columns": 480,
      "EchoNumbers": 1,
      "EchoTime": 30.0,
      "EchoTrainLength": 80,
      "FlipAngle": 77.0,
      "HighBit": 11,
      "ImageOrientationPatient": [0.99956932536458, -0.0292228693941, 0.0026809876123, 0.02687291673651, 0.94822270184994, 0.31646730327551],
      "ImagePositionPatient": [-739.46360020179, -657.25977104988, -290.65334277296],
      "ImageType": [
        "ORIGINAL",
        "PRIMARY",
        "M",
        "ND",
        "NORM",
        "MOSAIC"
],
      "ImagedNucleus": "1H",
      "ImagingFrequency": 123.252364,
      "InPlanePhaseEncodingDirection": "COL",
      "MRAcquisitionType": "2D",
      "MagneticFieldStrength": 3.0,
      "Manufacturer": "SIEMENS",
      "ManufacturerModelName": "Prisma",
      "Modality": "MR",
      "NumberOfAverages": 1.0,
      "NumberOfPhaseEncodingSteps": 80,
      "PercentPhaseFieldOfView": 100.0,
      "PercentSampling": 100.0,
      "PerformedProcedureStepStartTime": "084844.744000",
      "PhotometricInterpretation": "MONOCHROME2",
      "PixelBandwidth": 2315.0,
      "PixelRepresentation": 0,
      "PixelSpacing": [3.0, 3.0],
      "ProtocolName": "func-bold_fa-77",
      "RepetitionTime": 2000.0,
      "Rows": 480,
      "SAR": 0.032084911981,
      "SamplesPerPixel": 1,
      "ScanOptions": "FS",
      "ScanningSequence": "EP",
      "SequenceName": "*epfid2d1_80",
      "SequenceVariant": "SK",
      "SeriesDescription": "func-bold_fa-77",
      "SeriesNumber": 7,
      "SeriesTime": "090238.004000",
      "SliceLocation": -59.13089477312,
      "SliceThickness": 3.5,
      "SmallestImagePixelValue": 0,
      "SoftwareVersions": "syngo MR E11",
      "SpacingBetweenSlices": 3.9899999917489,
      "SpecificCharacterSet": "ISO_IR 100",
      "StudyID": "2",
      "StudyTime": "084844.673000",
      "TransmitCoilName": "Body",
      "VariableFlipAngleFlag": "N",
      "WindowCenterWidthExplanation": "Algo1"
    },
    "slices": {}
  },
  "time": {
    "samples": {
      "AcquisitionNumber": [1, 2, 3, 4, 5, 6, 7, 8, 9, 10, 11, 12, 13, 14, 15, 16, 17, 18, 19, 20, 21, 22, 23, 24, 25, 26, 27, 28, 29, 30, 31, 32, 33, 34, 35, 36, 37, 38, 39, 40, 41, 42, 43, 44, 45, 46, 47, 48, 49, 50, 51, 52, 53, 54, 55, 56, 57, 58, 59, 60, 61, 62, 63, 64, 65, 66, 67, 68, 69, 70, 71, 72, 73, 74, 75, 76, 77, 78, 79, 80, 81, 82, 83, 84, 85, 86, 87, 88, 89, 90, 91, 92, 93, 94, 95, 96, 97, 98, 99, 100, 101, 102, 103, 104, 105, 106, 107, 108, 109, 110, 111, 112, 113, 114, 115, 116, 117, 118, 119, 120, 121, 122, 123, 124, 125, 126, 127, 128, 129, 130, 131, 132, 133, 134, 135, 136, 137, 138, 139, 140, 141, 142, 143, 144, 145, 146, 147, 148, 149, 150, 151, 152, 153, 154, 155, 156, 157, 158, 159, 160, 161, 162, 163, 164, 165, 166, 167, 168, 169, 170, 171, 172, 173, 174, 175, 176, 177, 178, 179, 180, 181, 182, 183, 184, 185, 186, 187, 188, 189, 190, 191, 192, 193, 194, 195, 196, 197, 198, 199, 200],
      "AcquisitionTime": ["090152.502500", "090154.502500", "090156.502500", "090158.502500", "090200.502500", "090202.502500", "090204.502500", "090206.502500", "090208.502500", "090210.502500", "090212.502500", "090214.502500", "090216.502500", "090218.502500", "090220.502500", "090222.502500", "090224.502500", "090226.502500", "090228.502500", "090230.502500", "090232.502500", "090234.502500", "090236.502500", "090238.502500", "090240.502500", "090242.502500", "090244.502500", "090246.502500", "090248.502500", "090250.502500", "090252.502500", "090254.502500", "090256.502500", "090258.502500", "090300.502500", "090302.502500", "090304.502500", "090306.502500", "090308.502500", "090310.502500", "090312.502500", "090314.502500", "090316.502500", "090318.502500", "090320.502500", "090322.502500", "090324.502500", "090326.502500", "090328.502500", "090330.502500", "090332.502500", "090334.502500", "090336.502500", "090338.502500", "090340.502500", "090342.502500", "090344.502500", "090346.502500", "090348.502500", "090350.502500", "090352.502500", "090354.502500", "090356.502500", "090358.502500", "090400.502500", "090402.502500", "090404.502500", "090406.502500", "090408.502500", "090410.502500", "090412.502500", "090414.502500", "090416.502500", "090418.502500", "090420.502500", "090422.502500", "090424.502500", "090426.502500", "090428.502500", "090430.502500", "090432.502500", "090434.502500", "090436.502500", "090438.502500", "090440.502500", "090442.502500", "090444.502500", "090446.502500", "090448.502500", "090450.502500", "090452.502500", "090454.502500", "090456.502500", "090458.502500", "090500.502500", "090502.502500", "090504.502500", "090506.502500", "090508.502500", "090510.502500", "090512.502500", "090514.502500", "090516.502500", "090518.502500", "090520.502500", "090522.502500", "090524.502500", "090526.502500", "090528.502500", "090530.502500", "090532.502500", "090534.502500", "090536.502500", "090538.502500", "090540.502500", "090542.502500", "090544.502500", "090546.502500", "090548.502500", "090550.502500", "090552.502500", "090554.502500", "090556.502500", "090558.502500", "090600.502500", "090602.502500", "090604.502500", "090606.502500", "090608.502500", "090610.502500", "090612.502500", "090614.502500", "090616.502500", "090618.502500", "090620.502500", "090622.502500", "090624.502500", "090626.502500", "090628.502500", "090630.502500", "090632.502500", "090634.502500", "090636.502500", "090638.502500", "090640.502500", "090642.502500", "090644.502500", "090646.502500", "090648.502500", "090650.502500", "090652.502500", "090654.502500", "090656.502500", "090658.502500", "090700.502500", "090702.502500", "090704.502500", "090706.502500", "090708.502500", "090710.502500", "090712.502500", "090714.502500", "090716.502500", "090718.502500", "090720.502500", "090722.502500", "090724.502500", "090726.502500", "090728.502500", "090730.502500", "090732.502500", "090734.502500", "090736.502500", "090738.502500", "090740.502500", "090742.502500", "090744.502500", "090746.502500", "090748.502500", "090750.502500", "090752.502500", "090754.502500", "090756.502500", "090758.502500", "090800.502500", "090802.502500", "090804.502500", "090806.502500", "090808.502500", "090810.502500", "090812.502500", "090814.502500", "090816.502500", "090818.502500", "090820.502500", "090822.502500", "090824.502500", "090826.502500", "090828.502500", "090830.502500"],
      "ContentTime": ["090238.008000", "090238.011000", "090238.013000", "090238.015000", "090238.018000", "090238.020000", "090238.022000", "090238.024000", "090238.027000", "090238.029000", "090238.031000", "090238.034000", "090238.036000", "090238.038000", "090238.046000", "090238.048000", "090238.050000", "090238.052000", "090238.055000", "090238.057000", "090238.059000", "090238.062000", "090258.003000", "090258.006000", "090258.008000", "090258.010000", "090258.013000", "090258.015000", "090258.017000", "090258.020000", "090258.022000", "090258.024000", "090338.004000", "090338.007000", "090338.009000", "090338.012000", "090338.014000", "090338.016000", "090338.018000", "090338.021000", "090338.023000", "090338.025000", "090338.028000", "090338.030000", "090338.032000", "090338.034000", "090338.037000", "090338.039000", "090338.041000", "090338.044000", "090338.046000", "090338.048000", "090418.004000", "090418.007000", "090418.009000", "090418.011000", "090418.014000", "090418.016000", "090418.018000", "090418.021000", "090418.023000", "090418.025000", "090418.030000", "090418.032000", "090418.034000", "090418.036000", "090418.039000", "090418.041000", "090418.043000", "090418.046000", "090418.048000", "090418.050000", "090458.003000", "090458.006000", "090458.008000", "090458.010000", "090458.022000", "090458.024000", "090458.027000", "090458.029000", "090458.031000", "090458.034000", "090458.036000", "090458.038000", "090458.040000", "090458.043000", "090458.045000", "090458.047000", "090458.050000", "090458.052000", "090458.054000", "090458.056000", "090538.004000", "090538.007000", "090538.009000", "090538.011000", "090538.014000", "090538.016000", "090538.018000", "090538.020000", "090538.030000", "090538.032000", "090538.034000", "090538.036000", "090538.039000", "090538.041000", "090538.043000", "090538.046000", "090538.048000", "090538.050000", "090538.053000", "090538.055000", "090618.004000", "090618.007000", "090618.009000", "090618.011000", "090618.014000", "090618.016000", "090618.018000", "090618.021000", "090618.023000", "090618.025000", "090618.028000", "090618.030000", "090618.032000", "090618.034000", "090618.037000", "090618.039000", "090618.041000", "090618.044000", "090618.046000", "090618.048000", "090658.004000", "090658.007000", "090658.009000", "090658.011000", "090658.014000", "090658.016000", "090658.018000", "090658.021000", "090658.023000", "090658.025000", "090658.028000", "090658.030000", "090658.032000", "090658.034000", "090658.037000", "090658.039000", "090658.041000", "090658.044000", "090658.046000", "090658.048000", "090738.003000", "090738.006000", "090738.008000", "090738.011000", "090738.013000", "090738.015000", "090738.017000", "090738.020000", "090738.022000", "090738.024000", "090738.027000", "090738.029000", "090738.031000", "090738.034000", "090738.036000", "090738.039000", "090738.041000", "090738.043000", "090738.057000", "090738.059000", "090818.004000", "090818.007000", "090818.009000", "090818.011000", "090818.014000", "090818.016000", "090818.018000", "090818.021000", "090818.023000", "090818.025000", "090818.028000", "090818.030000", "090818.032000", "090818.034000", "090818.037000", "090818.039000", "090818.041000", "090818.044000", "090818.046000", "090818.048000", "090832.345000", "090832.347000", "090832.350000", "090832.352000", "090832.354000", "090832.357000", "090832.359000", "090832.362000"],
      "InstanceCreationTime": ["090238.008000", "090238.011000", "090238.013000", "090238.015000", "090238.018000", "090238.020000", "090238.022000", "090238.024000", "090238.027000", "090238.029000", "090238.031000", "090238.034000", "090238.036000", "090238.038000", "090238.046000", "090238.048000", "090238.050000", "090238.052000", "090238.055000", "090238.057000", "090238.059000", "090238.062000", "090258.003000", "090258.006000", "090258.008000", "090258.010000", "090258.013000", "090258.015000", "090258.017000", "090258.020000", "090258.022000", "090258.024000", "090338.004000", "090338.007000", "090338.009000", "090338.012000", "090338.014000", "090338.016000", "090338.018000", "090338.021000", "090338.023000", "090338.025000", "090338.028000", "090338.030000", "090338.032000", "090338.034000", "090338.037000", "090338.039000", "090338.041000", "090338.044000", "090338.046000", "090338.048000", "090418.004000", "090418.007000", "090418.009000", "090418.011000", "090418.014000", "090418.016000", "090418.018000", "090418.021000", "090418.023000", "090418.025000", "090418.030000", "090418.032000", "090418.034000", "090418.036000", "090418.039000", "090418.041000", "090418.043000", "090418.046000", "090418.048000", "090418.050000", "090458.003000", "090458.006000", "090458.008000", "090458.010000", "090458.022000", "090458.024000", "090458.027000", "090458.029000", "090458.031000", "090458.034000", "090458.036000", "090458.038000", "090458.040000", "090458.043000", "090458.045000", "090458.047000", "090458.050000", "090458.052000", "090458.054000", "090458.056000", "090538.004000", "090538.007000", "090538.009000", "090538.011000", "090538.014000", "090538.016000", "090538.018000", "090538.020000", "090538.030000", "090538.032000", "090538.034000", "090538.036000", "090538.039000", "090538.041000", "090538.043000", "090538.046000", "090538.048000", "090538.050000", "090538.053000", "090538.055000", "090618.004000", "090618.007000", "090618.009000", "090618.011000", "090618.014000", "090618.016000", "090618.018000", "090618.021000", "090618.023000", "090618.025000", "090618.028000", "090618.030000", "090618.032000", "090618.034000", "090618.037000", "090618.039000", "090618.041000", "090618.044000", "090618.046000", "090618.048000", "090658.004000", "090658.007000", "090658.009000", "090658.011000", "090658.014000", "090658.016000", "090658.018000", "090658.021000", "090658.023000", "090658.025000", "090658.028000", "090658.030000", "090658.032000", "090658.034000", "090658.037000", "090658.039000", "090658.041000", "090658.044000", "090658.046000", "090658.048000", "090738.003000", "090738.006000", "090738.008000", "090738.011000", "090738.013000", "090738.015000", "090738.017000", "090738.020000", "090738.022000", "090738.024000", "090738.027000", "090738.029000", "090738.031000", "090738.034000", "090738.036000", "090738.039000", "090738.041000", "090738.043000", "090738.057000", "090738.059000", "090818.004000", "090818.007000", "090818.009000", "090818.011000", "090818.014000", "090818.016000", "090818.018000", "090818.021000", "090818.023000", "090818.025000", "090818.028000", "090818.030000", "090818.032000", "090818.034000", "090818.037000", "090818.039000", "090818.041000", "090818.044000", "090818.046000", "090818.048000", "090832.345000", "090832.347000", "090832.350000", "090832.352000", "090832.354000", "090832.357000", "090832.359000", "090832.362000"],
      "InstanceNumber": [1, 2, 3, 4, 5, 6, 7, 8, 9, 10, 11, 12, 13, 14, 15, 16, 17, 18, 19, 20, 21, 22, 23, 24, 25, 26, 27, 28, 29, 30, 31, 32, 33, 34, 35, 36, 37, 38, 39, 40, 41, 42, 43, 44, 45, 46, 47, 48, 49, 50, 51, 52, 53, 54, 55, 56, 57, 58, 59, 60, 61, 62, 63, 64, 65, 66, 67, 68, 69, 70, 71, 72, 73, 74, 75, 76, 77, 78, 79, 80, 81, 82, 83, 84, 85, 86, 87, 88, 89, 90, 91, 92, 93, 94, 95, 96, 97, 98, 99, 100, 101, 102, 103, 104, 105, 106, 107, 108, 109, 110, 111, 112, 113, 114, 115, 116, 117, 118, 119, 120, 121, 122, 123, 124, 125, 126, 127, 128, 129, 130, 131, 132, 133, 134, 135, 136, 137, 138, 139, 140, 141, 142, 143, 144, 145, 146, 147, 148, 149, 150, 151, 152, 153, 154, 155, 156, 157, 158, 159, 160, 161, 162, 163, 164, 165, 166, 167, 168, 169, 170, 171, 172, 173, 174, 175, 176, 177, 178, 179, 180, 181, 182, 183, 184, 185, 186, 187, 188, 189, 190, 191, 192, 193, 194, 195, 196, 197, 198, 199, 200],
      "LargestImagePixelValue": [3527, 3529, 3532, 3530, 3526, 3524, 3529, 3526, 3528, 3527, 3527, 3526, 3528, 3529, 3527, 3525, 3529, 3524, 3525, 3524, 3529, 3526, 3527, 3526, 3524, 3525, 3526, 3525, 3529, 3525, 3527, 3526, 3527, 3526, 3523, 3525, 3523, 3525, 3526, 3526, 3527, 3524, 3520, 3528, 3526, 3526, 3522, 3525, 3522, 3527, 3526, 3524, 3523, 3526, 3525, 3527, 3523, 3526, 3525, 3526, 3524, 3524, 3522, 3522, 3527, 3528, 3525, 3524, 3522, 3524, 3524, 3530, 3524, 3524, 3525, 3525, 3524, 3525, 3525, 3522, 3528, 3521, 3524, 3524, 3527, 3525, 3525, 3526, 3521, 3524, 3527, 3524, 3524, 3527, 3526, 3522, 3526, 3525, 3528, 3528, 3529, 3523, 3525, 3526, 3523, 3525, 3527, 3528, 3527, 3524, 3528, 3525, 3521, 3521, 3525, 3522, 3525, 3526, 3524, 3523, 3526, 3525, 3522, 3525, 3524, 3522, 3525, 3523, 3528, 3520, 3523, 3523, 3524, 3521, 3523, 3521, 3523, 3526, 3524, 3522, 3526, 3520, 3522, 3521, 3519, 3522, 3526, 3522, 3518, 3524, 3523, 3520, 3525, 3524, 3524, 3523, 3521, 3520, 3522, 3523, 3523, 3526, 3522, 3519, 3520, 3526, 3525, 3520, 3519, 3519, 3524, 3523, 3523, 3520, 3522, 3519, 3522, 3522, 3523, 3522, 3517, 3518, 3520, 3523, 3518, 3527, 3521, 3523, 3522, 3522, 3522, 3523, 3519, 3525, 3525, 3524, 3526, 3524, 3517, 3520],
      "WindowCenter": [1299.0, 1299.0, 1299.0, 1299.0, 1298.0, 1298.0, 1299.0, 1299.0, 1299.0, 1299.0, 1299.0, 1299.0, 1299.0, 1299.0, 1299.0, 1299.0, 1299.0, 1298.0, 1299.0, 1299.0, 1298.0, 1299.0, 1298.0, 1298.0, 1298.0, 1298.0, 1298.0, 1298.0, 1298.0, 1299.0, 1298.0, 1298.0, 1298.0, 1299.0, 1299.0, 1298.0, 1298.0, 1298.0, 1298.0, 1298.0, 1298.0, 1298.0, 1298.0, 1298.0, 1298.0, 1297.0, 1298.0, 1298.0, 1298.0, 1297.0, 1298.0, 1298.0, 1297.0, 1298.0, 1298.0, 1298.0, 1298.0, 1298.0, 1298.0, 1298.0, 1298.0, 1298.0, 1298.0, 1297.0, 1297.0, 1298.0, 1298.0, 1298.0, 1297.0, 1298.0, 1297.0, 1297.0, 1297.0, 1298.0, 1297.0, 1298.0, 1297.0, 1298.0, 1298.0, 1298.0, 1298.0, 1298.0, 1298.0, 1298.0, 1298.0, 1298.0, 1297.0, 1297.0, 1297.0, 1298.0, 1297.0, 1298.0, 1297.0, 1297.0, 1297.0, 1297.0, 1297.0, 1297.0, 1297.0, 1297.0, 1297.0, 1297.0, 1297.0, 1297.0, 1297.0, 1297.0, 1297.0, 1297.0, 1297.0, 1297.0, 1298.0, 1298.0, 1297.0, 1297.0, 1297.0, 1297.0, 1297.0, 1297.0, 1297.0, 1297.0, 1298.0, 1297.0, 1297.0, 1297.0, 1297.0, 1297.0, 1297.0, 1297.0, 1297.0, 1297.0, 1297.0, 1297.0, 1297.0, 1297.0, 1297.0, 1297.0, 1297.0, 1296.0, 1297.0, 1296.0, 1297.0, 1296.0, 1297.0, 1296.0, 1297.0, 1297.0, 1297.0, 1296.0, 1296.0, 1296.0, 1297.0, 1296.0, 1296.0, 1296.0, 1296.0, 1296.0, 1296.0, 1296.0, 1296.0, 1296.0, 1296.0, 1296.0, 1297.0, 1296.0, 1296.0, 1296.0, 1296.0, 1296.0, 1296.0, 1296.0, 1296.0, 1296.0, 1296.0, 1296.0, 1296.0, 1296.0, 1296.0, 1296.0, 1296.0, 1296.0, 1296.0, 1296.0, 1296.0, 1296.0, 1295.0, 1295.0, 1296.0, 1295.0, 1296.0, 1296.0, 1296.0, 1296.0, 1296.0, 1296.0, 1295.0, 1296.0, 1295.0, 1296.0, 1295.0, 1296.0],
      "WindowWidth": [3140.0, 3141.0, 3141.0, 3140.0, 3140.0, 3140.0, 3140.0, 3140.0, 3140.0, 3140.0, 3140.0, 3140.0, 3140.0, 3140.0, 3140.0, 3140.0, 3140.0, 3140.0, 3140.0, 3139.0, 3140.0, 3139.0, 3140.0, 3139.0, 3140.0, 3139.0, 3140.0, 3139.0, 3139.0, 3139.0, 3140.0, 3140.0, 3140.0, 3140.0, 3140.0, 3139.0, 3139.0, 3139.0, 3139.0, 3139.0, 3139.0, 3139.0, 3139.0, 3139.0, 3139.0, 3139.0, 3139.0, 3139.0, 3139.0, 3139.0, 3139.0, 3139.0, 3139.0, 3139.0, 3139.0, 3139.0, 3139.0, 3139.0, 3139.0, 3139.0, 3139.0, 3139.0, 3139.0, 3139.0, 3139.0, 3139.0, 3139.0, 3139.0, 3139.0, 3139.0, 3139.0, 3139.0, 3138.0, 3139.0, 3138.0, 3138.0, 3139.0, 3139.0, 3139.0, 3139.0, 3139.0, 3139.0, 3139.0, 3139.0, 3139.0, 3140.0, 3139.0, 3139.0, 3139.0, 3139.0, 3139.0, 3139.0, 3139.0, 3139.0, 3139.0, 3139.0, 3139.0, 3139.0, 3139.0, 3139.0, 3139.0, 3139.0, 3139.0, 3139.0, 3139.0, 3139.0, 3139.0, 3139.0, 3139.0, 3139.0, 3139.0, 3139.0, 3139.0, 3139.0, 3139.0, 3139.0, 3139.0, 3139.0, 3139.0, 3139.0, 3139.0, 3138.0, 3139.0, 3138.0, 3138.0, 3138.0, 3138.0, 3138.0, 3138.0, 3138.0, 3138.0, 3138.0, 3138.0, 3138.0, 3138.0, 3138.0, 3138.0, 3138.0, 3138.0, 3138.0, 3138.0, 3138.0, 3138.0, 3138.0, 3138.0, 3138.0, 3138.0, 3139.0, 3138.0, 3138.0, 3138.0, 3138.0, 3139.0, 3138.0, 3138.0, 3138.0, 3138.0, 3138.0, 3138.0, 3138.0, 3138.0, 3138.0, 3138.0, 3138.0, 3138.0, 3138.0, 3138.0, 3138.0, 3138.0, 3138.0, 3138.0, 3138.0, 3137.0, 3137.0, 3138.0, 3138.0, 3137.0, 3137.0, 3137.0, 3137.0, 3137.0, 3137.0, 3137.0, 3137.0, 3138.0, 3138.0, 3137.0, 3138.0, 3137.0, 3137.0, 3137.0, 3137.0, 3137.0, 3137.0, 3137.0, 3137.0, 3137.0, 3137.0, 3137.0, 3137.0]
    },
    "slices": {}
  }
}