{
  "AcquisitionMatrixPE": 80,
  "AcquisitionNumber": 1,
  "AcquisitionTime": "09:08:39.507500",
  "BandwidthPerPixelPhaseEncode": 25,
  "BaseResolution": 80,
  "BodyPartExamined": "BRAIN",
  "CoilCombinationMethod": "Sum of Squares",
  "ConsistencyInfo": "N4_VE11E_LATEST_20181129",
  "ConversionSoftware": "dcm2niix",
  "ConversionSoftwareVersion": "v1.0.20220720",
  "DerivedVendorReportedEchoSpacing": 0.0005,
  "DeviceSerialNumber": "66112",
  "DwellTime": 2.7e-06,
  "EchoTime": 0.03,
  "EchoTrainLength": 80,
  "EffectiveEchoSpacing": 0.0005,
  "FlipAngle": 10,
  "HeudiconvVersion": "0.13.1",
  "ImageOrientationPatientDICOM": [0.999569, -0.0292229, 0.00268099, 0.0268729, 0.948223, 0.316467],
  "ImageOrientationText": "Tra>Cor(18.4)>Sag(0.7)",
  "ImageType": [
    "ORIGINAL",
    "PRIMARY",
    "M",
    "ND",
    "NORM",
    "MOSAIC"
],
  "ImagingFrequency": 123.252,
  "InPlanePhaseEncodingDirectionDICOM": "COL",
  "InstitutionAddress": "Maynard 3,Hanover,NH,US,03755",
  "InstitutionName": "Dartmouth College - PBS",
  "InstitutionalDepartmentName": "Department",
  "MRAcquisitionType": "2D",
  "MagneticFieldStrength": 3,
  "Manufacturer": "Siemens",
  "ManufacturersModelName": "Prisma",
  "MatrixCoilMode": "SENSE",
  "Modality": "MR",
  "NonlinearGradientCorrection": false,
  "PartialFourier": 1,
  "PatientPosition": "HFS",
  "PercentPhaseFOV": 100,
  "PercentSampling": 100,
  "PhaseEncodingDirection": "j-",
  "PhaseEncodingSteps": 80,
  "PhaseResolution": 1,
  "PixelBandwidth": 2315,
  "ProcedureStepDescription": "dbic^QA",
  "ProtocolName": "func-bold_fa-10",
  "PulseSequenceDetails": "%SiemensSeq%\\ep2d_bold",
  "ReceiveCoilActiveElements": "HC1-7;NC1,2",
  "ReceiveCoilName": "HeadNeck_64",
  "ReconMatrixPE": 80,
  "RepetitionTime": 2,
  "SAR": 0.00860675,
  "ScanOptions": "FS",
  "ScanningSequence": "EP",
  "SequenceName": "*epfid2d1_80",
  "SequenceVariant": "SK",
  "SeriesDescription": "func-bold_fa-10",
  "SeriesNumber": 9,
  "ShimSetting": [4140, -7709, -7510, 123, -71, -206, -78, 80],
  "SliceThickness": 3.5,
  "SliceTiming": [0.99, 0, 1.055, 0.065, 1.1225, 0.1325, 1.1875, 0.1975, 1.2525, 0.2625, 1.32, 0.33, 1.385, 0.395, 1.4525, 0.4625, 1.5175, 0.5275, 1.5825, 0.5925, 1.65, 0.66, 1.715, 0.725, 1.7825, 0.7925, 1.8475, 0.8575, 1.9125, 0.9225],
  "SoftwareVersions": "syngo MR E11",
  "SpacingBetweenSlices": 3.99,
  "StationName": "AWP66112",
  "TotalReadoutTime": 0.0395,
  "TxRefAmp": 211.25,
  "dcmmeta_affine": [
    [-2.9987080097198486, 0.08061874657869339, 0.047043122351169586, 117.2293701171875],
    [0.08766860514879227, 2.84466814994812, 1.2618732452392578, -118.86891174316406],
    [0.008042963221669197, -0.9494019150733948, 3.784912586212158, -24.161617279052734],
    [0.0, 0.0, 0.0, 1.0]
],
  "dcmmeta_reorient_transform": [
    [0.0, -1.0, 0.0, 79.0],
    [1.0, 0.0, 0.0, 0.0],
    [0.0, 0.0, 1.0, 0.0],
    [0.0, 0.0, 0.0, 1.0]
],
  "dcmmeta_shape": [80, 80, 30, 200],
  "dcmmeta_slice_dim": 2,
  "dcmmeta_version": 0.6,
  "global": {
    "const": {
      "AccessionNumber": "qa64",
      "AcquisitionMatrix": [80, 0, 0, 80],
      "AngioFlag": "N",
      "BitsAllocated": 16,
      "BitsStored": 12,
      "BodyPartExamined": "BRAIN",
      "Columns": 480,
      "EchoNumbers": 1,
      "EchoTime": 30.0,
      "EchoTrainLength": 80,
      "FlipAngle": 10.0,
      "HighBit": 11,
      "ImageOrientationPatient": [0.99956932536458, -0.0292228693941, 0.0026809876123, 0.02687291673651, 0.94822270184994, 0.31646730327551],
      "ImagePositionPatient": [-739.46360020179, -657.25977104988, -290.65334277296],
      "ImageType": [
        "ORIGINAL",
        "PRIMARY",
        "M",
        "ND",
        "NORM",
        "MOSAIC"
],
      "ImagedNucleus": "1H",
      "ImagingFrequency": 123.252364,
      "InPlanePhaseEncodingDirection": "COL",
      "MRAcquisitionType": "2D",
      "MagneticFieldStrength": 3.0,
      "Manufacturer": "SIEMENS",
      "ManufacturerModelName": "Prisma",
      "Modality": "MR",
      "NumberOfAverages": 1.0,
      "NumberOfPhaseEncodingSteps": 80,
      "PercentPhaseFieldOfView": 100.0,
      "PercentSampling": 100.0,
      "PerformedProcedureStepStartTime": "084844.744000",
      "PhotometricInterpretation": "MONOCHROME2",
      "PixelBandwidth": 2315.0,
      "PixelRepresentation": 0,
      "PixelSpacing": [3.0, 3.0],
      "ProtocolName": "func-bold_fa-10",
      "RepetitionTime": 2000.0,
      "Rows": 480,
      "SAR": 0.00860674945764,
      "SamplesPerPixel": 1,
      "ScanOptions": "FS",
      "ScanningSequence": "EP",
      "SequenceName": "*epfid2d1_80",
      "SequenceVariant": "SK",
      "SeriesDescription": "func-bold_fa-10",
      "SeriesNumber": 9,
      "SeriesTime": "090937.824000",
      "SliceLocation": -59.13089477312,
      "SliceThickness": 3.5,
      "SmallestImagePixelValue": 0,
      "SoftwareVersions": "syngo MR E11",
      "SpacingBetweenSlices": 3.9899999917489,
      "SpecificCharacterSet": "ISO_IR 100",
      "StudyID": "2",
      "StudyTime": "084844.673000",
      "TransmitCoilName": "Body",
      "VariableFlipAngleFlag": "N",
      "WindowCenterWidthExplanation": "Algo1"
    },
    "slices": {}
  },
  "time": {
    "samples": {
      "AcquisitionNumber": [1, 2, 3, 4, 5, 6, 7, 8, 9, 10, 11, 12, 13, 14, 15, 16, 17, 18, 19, 20, 21, 22, 23, 24, 25, 26, 27, 28, 29, 30, 31, 32, 33, 34, 35, 36, 37, 38, 39, 40, 41, 42, 43, 44, 45, 46, 47, 48, 49, 50, 51, 52, 53, 54, 55, 56, 57, 58, 59, 60, 61, 62, 63, 64, 65, 66, 67, 68, 69, 70, 71, 72, 73, 74, 75, 76, 77, 78, 79, 80, 81, 82, 83, 84, 85, 86, 87, 88, 89, 90, 91, 92, 93, 94, 95, 96, 97, 98, 99, 100, 101, 102, 103, 104, 105, 106, 107, 108, 109, 110, 111, 112, 113, 114, 115, 116, 117, 118, 119, 120, 121, 122, 123, 124, 125, 126, 127, 128, 129, 130, 131, 132, 133, 134, 135, 136, 137, 138, 139, 140, 141, 142, 143, 144, 145, 146, 147, 148, 149, 150, 151, 152, 153, 154, 155, 156, 157, 158, 159, 160, 161, 162, 163, 164, 165, 166, 167, 168, 169, 170, 171, 172, 173, 174, 175, 176, 177, 178, 179, 180, 181, 182, 183, 184, 185, 186, 187, 188, 189, 190, 191, 192, 193, 194, 195, 196, 197, 198, 199, 200],
      "AcquisitionTime": ["090839.507500", "090841.507500", "090843.507500", "090845.507500", "090847.507500", "090849.507500", "090851.507500", "090853.507500", "090855.507500", "090857.507500", "090859.507500", "090901.507500", "090903.507500", "090905.507500", "090907.507500", "090909.507500", "090911.507500", "090913.507500", "090915.507500", "090917.507500", "090919.507500", "090921.507500", "090923.507500", "090925.507500", "090927.507500", "090929.507500", "090931.507500", "090933.507500", "090935.507500", "090937.507500", "090939.507500", "090941.507500", "090943.507500", "090945.507500", "090947.507500", "090949.507500", "090951.507500", "090953.507500", "090955.507500", "090957.507500", "090959.507500", "091001.507500", "091003.507500", "091005.507500", "091007.507500", "091009.507500", "091011.507500", "091013.507500", "091015.507500", "091017.507500", "091019.507500", "091021.507500", "091023.507500", "091025.507500", "091027.507500", "091029.507500", "091031.507500", "091033.507500", "091035.507500", "091037.507500", "091039.507500", "091041.507500", "091043.507500", "091045.507500", "091047.507500", "091049.507500", "091051.507500", "091053.507500", "091055.507500", "091057.507500", "091059.507500", "091101.507500", "091103.507500", "091105.507500", "091107.507500", "091109.507500", "091111.507500", "091113.507500", "091115.507500", "091117.507500", "091119.507500", "091121.507500", "091123.507500", "091125.507500", "091127.507500", "091129.507500", "091131.507500", "091133.507500", "091135.507500", "091137.507500", "091139.507500", "091141.507500", "091143.507500", "091145.507500", "091147.507500", "091149.507500", "091151.507500", "091153.507500", "091155.507500", "091157.507500", "091159.507500", "091201.507500", "091203.507500", "091205.507500", "091207.507500", "091209.507500", "091211.507500", "091213.507500", "091215.507500", "091217.507500", "091219.507500", "091221.507500", "091223.507500", "091225.507500", "091227.507500", "091229.507500", "091231.507500", "091233.507500", "091235.507500", "091237.507500", "091239.507500", "091241.507500", "091243.507500", "091245.507500", "091247.507500", "091249.507500", "091251.507500", "091253.507500", "091255.507500", "091257.507500", "091259.507500", "091301.507500", "091303.507500", "091305.507500", "091307.507500", "091309.507500", "091311.507500", "091313.507500", "091315.507500", "091317.507500", "091319.507500", "091321.507500", "091323.507500", "091325.507500", "091327.507500", "091329.507500", "091331.507500", "091333.507500", "091335.507500", "091337.507500", "091339.507500", "091341.507500", "091343.507500", "091345.507500", "091347.507500", "091349.507500", "091351.507500", "091353.507500", "091355.507500", "091357.507500", "091359.507500", "091401.507500", "091403.507500", "091405.507500", "091407.507500", "091409.507500", "091411.507500", "091413.507500", "091415.507500", "091417.507500", "091419.507500", "091421.507500", "091423.507500", "091425.507500", "091427.507500", "091429.507500", "091431.507500", "091433.507500", "091435.507500", "091437.507500", "091439.507500", "091441.507500", "091443.507500", "091445.507500", "091447.507500", "091449.507500", "091451.507500", "091453.507500", "091455.507500", "091457.507500", "091459.507500", "091501.507500", "091503.507500", "091505.507500", "091507.507500", "091509.507500", "091511.507500", "091513.507500", "091515.507500", "091517.507500"],
      "ContentTime": ["090937.828000", "090937.831000", "090937.833000", "090937.836000", "090937.838000", "090937.840000", "090937.843000", "090937.845000", "090937.847000", "090937.849000", "090937.852000", "090937.854000", "090937.856000", "090937.866000", "090937.868000", "090937.870000", "090937.872000", "090937.875000", "090937.877000", "090937.880000", "090937.882000", "090937.884000", "090937.887000", "090937.889000", "090937.891000", "090937.894000", "090937.896000", "090937.898000", "090937.900000", "091017.824000", "091017.827000", "091017.829000", "091017.833000", "091017.835000", "091017.838000", "091017.840000", "091017.842000", "091017.845000", "091017.847000", "091017.849000", "091017.851000", "091017.854000", "091017.856000", "091017.858000", "091017.860000", "091017.863000", "091017.865000", "091017.867000", "091017.870000", "091057.824000", "091057.827000", "091057.829000", "091057.832000", "091057.834000", "091057.836000", "091057.839000", "091057.841000", "091057.843000", "091057.845000", "091057.848000", "091057.850000", "091057.852000", "091057.855000", "091057.857000", "091057.859000", "091057.861000", "091057.864000", "091057.866000", "091057.868000", "091137.824000", "091137.827000", "091137.829000", "091137.832000", "091137.834000", "091137.836000", "091137.839000", "091137.841000", "091137.843000", "091137.846000", "091137.848000", "091137.850000", "091137.852000", "091137.855000", "091137.857000", "091137.859000", "091137.861000", "091137.864000", "091137.866000", "091137.868000", "091217.823000", "091217.826000", "091217.828000", "091217.831000", "091217.833000", "091217.835000", "091217.838000", "091217.840000", "091217.842000", "091217.844000", "091217.847000", "091217.849000", "091217.851000", "091217.854000", "091217.856000", "091217.858000", "091217.860000", "091217.863000", "091217.865000", "091217.867000", "091257.824000", "091257.827000", "091257.829000", "091257.832000", "091257.834000", "091257.837000", "091257.839000", "091257.841000", "091257.844000", "091257.846000", "091257.848000", "091257.851000", "091257.853000", "091257.855000", "091257.857000", "091257.860000", "091257.862000", "091257.864000", "091257.867000", "091257.869000", "091337.824000", "091337.827000", "091337.830000", "091337.832000", "091337.834000", "091337.837000", "091337.839000", "091337.841000", "091337.844000", "091337.846000", "091337.848000", "091337.851000", "091337.853000", "091337.855000", "091337.858000", "091337.860000", "091337.862000", "091337.865000", "091337.867000", "091337.869000", "091417.823000", "091417.826000", "091417.828000", "091417.831000", "091417.833000", "091417.835000", "091417.838000", "091417.840000", "091417.843000", "091417.845000", "091417.847000", "091417.849000", "091417.852000", "091417.854000", "091417.856000", "091417.859000", "091417.861000", "091417.863000", "091417.866000", "091417.868000", "091457.824000", "091457.827000", "091457.830000", "091457.832000", "091457.834000", "091457.837000", "091457.839000", "091457.841000", "091457.844000", "091457.846000", "091457.848000", "091457.851000", "091457.853000", "091457.855000", "091457.857000", "091457.860000", "091457.862000", "091457.864000", "091457.867000", "091457.869000", "091518.818000", "091518.821000", "091518.823000", "091518.825000", "091518.828000", "091518.830000", "091518.833000", "091518.835000", "091518.837000", "091518.840000", "091518.842000"],
      "InstanceCreationTime": ["090937.828000", "090937.831000", "090937.833000", "090937.836000", "090937.838000", "090937.840000", "090937.843000", "090937.845000", "090937.847000", "090937.849000", "090937.852000", "090937.854000", "090937.856000", "090937.866000", "090937.868000", "090937.870000", "090937.872000", "090937.875000", "090937.877000", "090937.880000", "090937.882000", "090937.884000", "090937.887000", "090937.889000", "090937.891000", "090937.894000", "090937.896000", "090937.898000", "090937.900000", "091017.824000", "091017.827000", "091017.829000", "091017.833000", "091017.835000", "091017.838000", "091017.840000", "091017.842000", "091017.845000", "091017.847000", "091017.849000", "091017.851000", "091017.854000", "091017.856000", "091017.858000", "091017.860000", "091017.863000", "091017.865000", "091017.867000", "091017.870000", "091057.824000", "091057.827000", "091057.829000", "091057.832000", "091057.834000", "091057.836000", "091057.839000", "091057.841000", "091057.843000", "091057.845000", "091057.848000", "091057.850000", "091057.852000", "091057.855000", "091057.857000", "091057.859000", "091057.861000", "091057.864000", "091057.866000", "091057.868000", "091137.824000", "091137.827000", "091137.829000", "091137.832000", "091137.834000", "091137.836000", "091137.839000", "091137.841000", "091137.843000", "091137.846000", "091137.848000", "091137.850000", "091137.852000", "091137.855000", "091137.857000", "091137.859000", "091137.861000", "091137.864000", "091137.866000", "091137.868000", "091217.823000", "091217.826000", "091217.828000", "091217.831000", "091217.833000", "091217.835000", "091217.838000", "091217.840000", "091217.842000", "091217.844000", "091217.847000", "091217.849000", "091217.851000", "091217.854000", "091217.856000", "091217.858000", "091217.860000", "091217.863000", "091217.865000", "091217.867000", "091257.824000", "091257.827000", "091257.829000", "091257.832000", "091257.834000", "091257.837000", "091257.839000", "091257.841000", "091257.844000", "091257.846000", "091257.848000", "091257.851000", "091257.853000", "091257.855000", "091257.857000", "091257.860000", "091257.862000", "091257.864000", "091257.867000", "091257.869000", "091337.824000", "091337.827000", "091337.830000", "091337.832000", "091337.834000", "091337.837000", "091337.839000", "091337.841000", "091337.844000", "091337.846000", "091337.848000", "091337.851000", "091337.853000", "091337.855000", "091337.858000", "091337.860000", "091337.862000", "091337.865000", "091337.867000", "091337.869000", "091417.823000", "091417.826000", "091417.828000", "091417.831000", "091417.833000", "091417.835000", "091417.838000", "091417.840000", "091417.843000", "091417.845000", "091417.847000", "091417.849000", "091417.852000", "091417.854000", "091417.856000", "091417.859000", "091417.861000", "091417.863000", "091417.866000", "091417.868000", "091457.824000", "091457.827000", "091457.830000", "091457.832000", "091457.834000", "091457.837000", "091457.839000", "091457.841000", "091457.844000", "091457.846000", "091457.848000", "091457.851000", "091457.853000", "091457.855000", "091457.857000", "091457.860000", "091457.862000", "091457.864000", "091457.867000", "091457.869000", "091518.818000", "091518.821000", "091518.823000", "091518.825000", "091518.828000", "091518.830000", "091518.833000", "091518.835000", "091518.837000", "091518.840000", "091518.842000"],
      "InstanceNumber": [1, 2, 3, 4, 5, 6, 7, 8, 9, 10, 11, 12, 13, 14, 15, 16, 17, 18, 19, 20, 21, 22, 23, 24, 25, 26, 27, 28, 29, 30, 31, 32, 33, 34, 35, 36, 37, 38, 39, 40, 41, 42, 43, 44, 45, 46, 47, 48, 49, 50, 51, 52, 53, 54, 55, 56, 57, 58, 59, 60, 61, 62, 63, 64, 65, 66, 67, 68, 69, 70, 71, 72, 73, 74, 75, 76, 77, 78, 79, 80, 81, 82, 83, 84, 85, 86, 87, 88, 89, 90, 91, 92, 93, 94, 95, 96, 97, 98, 99, 100, 101, 102, 103, 104, 105, 106, 107, 108, 109, 110, 111, 112, 113, 114, 115, 116, 117, 118, 119, 120, 121, 122, 123, 124, 125, 126, 127, 128, 129, 130, 131, 132, 133, 134, 135, 136, 137, 138, 139, 140, 141, 142, 143, 144, 145, 146, 147, 148, 149, 150, 151, 152, 153, 154, 155, 156, 157, 158, 159, 160, 161, 162, 163, 164, 165, 166, 167, 168, 169, 170, 171, 172, 173, 174, 175, 176, 177, 178, 179, 180, 181, 182, 183, 184, 185, 186, 187, 188, 189, 190, 191, 192, 193, 194, 195, 196, 197, 198, 199, 200],
      "LargestImagePixelValue": [583, 583, 584, 583, 584, 585, 585, 581, 580, 582, 583, 580, 584, 584, 585, 582, 579, 581, 583, 582, 584, 584, 583, 581, 581, 581, 579, 582, 580, 583, 586, 583, 584, 583, 581, 581, 581, 583, 581, 581, 583, 585, 580, 584, 582, 583, 583, 581, 580, 584, 582, 579, 581, 583, 580, 580, 584, 582, 583, 582, 581, 581, 583, 582, 581, 582, 581, 582, 581, 581, 580, 583, 579, 584, 583, 583, 584, 581, 580, 582, 581, 583, 584, 582, 579, 580, 581, 583, 583, 583, 585, 582, 581, 581, 582, 581, 583, 582, 581, 583, 580, 582, 583, 582, 582, 581, 584, 582, 584, 583, 583, 580, 581, 584, 584, 582, 582, 582, 584, 580, 580, 579, 580, 583, 583, 583, 581, 584, 583, 582, 583, 579, 582, 580, 580, 579, 580, 582, 580, 578, 580, 582, 582, 578, 581, 580, 582, 581, 582, 585, 582, 582, 582, 578, 582, 580, 584, 584, 581, 580, 582, 581, 582, 580, 582, 582, 580, 582, 583, 584, 581, 580, 584, 582, 583, 583, 583, 582, 582, 579, 578, 581, 579, 581, 580, 584, 581, 584, 581, 581, 582, 580, 580, 585, 578, 582, 580, 583, 582, 581],
      "WindowCenter": [426.0, 426.0, 426.0, 426.0, 426.0, 426.0, 426.0, 426.0, 426.0, 426.0, 426.0, 426.0, 426.0, 426.0, 426.0, 426.0, 426.0, 426.0, 426.0, 426.0, 426.0, 426.0, 426.0, 426.0, 426.0, 426.0, 426.0, 426.0, 426.0, 426.0, 426.0, 426.0, 426.0, 426.0, 426.0, 426.0, 426.0, 426.0, 426.0, 426.0, 426.0, 426.0, 426.0, 426.0, 426.0, 426.0, 426.0, 426.0, 426.0, 426.0, 426.0, 426.0, 426.0, 426.0, 426.0, 426.0, 426.0, 426.0, 425.0, 426.0, 426.0, 426.0, 425.0, 426.0, 426.0, 426.0, 425.0, 425.0, 425.0, 426.0, 425.0, 426.0, 426.0, 426.0, 425.0, 426.0, 426.0, 426.0, 425.0, 426.0, 426.0, 426.0, 425.0, 425.0, 425.0, 426.0, 425.0, 426.0, 426.0, 426.0, 425.0, 426.0, 426.0, 426.0, 425.0, 425.0, 425.0, 426.0, 425.0, 425.0, 426.0, 426.0, 426.0, 425.0, 426.0, 426.0, 426.0, 426.0, 426.0, 426.0, 426.0, 426.0, 426.0, 426.0, 426.0, 425.0, 426.0, 425.0, 426.0, 425.0, 425.0, 425.0, 426.0, 425.0, 425.0, 425.0, 426.0, 425.0, 426.0, 425.0, 426.0, 425.0, 426.0, 425.0, 426.0, 425.0, 426.0, 425.0, 426.0, 425.0, 426.0, 425.0, 426.0, 425.0, 425.0, 425.0, 425.0, 425.0, 425.0, 425.0, 426.0, 426.0, 425.0, 426.0, 425.0, 425.0, 425.0, 425.0, 425.0, 426.0, 425.0, 425.0, 425.0, 426.0, 425.0, 425.0, 425.0, 425.0, 425.0, 426.0, 425.0, 426.0, 425.0, 426.0, 425.0, 426.0, 425.0, 426.0, 425.0, 426.0, 425.0, 426.0, 425.0, 425.0, 425.0, 426.0, 425.0, 425.0, 425.0, 426.0, 425.0, 426.0, 425.0, 425.0, 425.0, 426.0, 425.0, 425.0, 425.0, 425.0],
      "WindowWidth": [891.0, 890.0, 891.0, 890.0, 890.0, 890.0, 890.0, 890.0, 891.0, 890.0, 891.0, 890.0, 891.0, 890.0, 891.0, 890.0, 890.0, 890.0, 890.0, 890.0, 890.0, 890.0, 890.0, 890.0, 890.0, 890.0, 890.0, 890.0, 890.0, 890.0, 890.0, 890.0, 890.0, 890.0, 890.0, 890.0, 890.0, 890.0, 890.0, 890.0, 890.0, 890.0, 890.0, 890.0, 890.0, 890.0, 890.0, 890.0, 890.0, 890.0, 890.0, 890.0, 890.0, 890.0, 890.0, 890.0, 890.0, 890.0, 889.0, 890.0, 890.0, 890.0, 889.0, 890.0, 890.0, 890.0, 889.0, 889.0, 889.0, 890.0, 889.0, 890.0, 890.0, 890.0, 889.0, 890.0, 890.0, 890.0, 889.0, 890.0, 890.0, 890.0, 889.0, 889.0, 889.0, 890.0, 889.0, 890.0, 890.0, 890.0, 889.0, 890.0, 890.0, 890.0, 889.0, 889.0, 889.0, 890.0, 889.0, 889.0, 890.0, 890.0, 890.0, 889.0, 890.0, 890.0, 890.0, 890.0, 890.0, 890.0, 890.0, 890.0, 890.0, 890.0, 890.0, 889.0, 890.0, 889.0, 890.0, 889.0, 889.0, 889.0, 890.0, 889.0, 889.0, 889.0, 890.0, 890.0, 890.0, 889.0, 890.0, 889.0, 890.0, 889.0, 890.0, 889.0, 890.0, 889.0, 890.0, 889.0, 890.0, 889.0, 890.0, 889.0, 889.0, 889.0, 890.0, 890.0, 889.0, 889.0, 890.0, 890.0, 889.0, 890.0, 889.0, 889.0, 889.0, 889.0, 889.0, 890.0, 889.0, 889.0, 889.0, 890.0, 889.0, 889.0, 889.0, 889.0, 889.0, 890.0, 889.0, 890.0, 889.0, 890.0, 889.0, 890.0, 889.0, 890.0, 889.0, 890.0, 889.0, 890.0, 889.0, 889.0, 889.0, 890.0, 889.0, 889.0, 889.0, 890.0, 889.0, 890.0, 889.0, 889.0, 889.0, 890.0, 889.0, 889.0, 889.0, 889.0]
    },
    "slices": {}
  }
}