{
  "AcquisitionMatrixPE": 80,
  "AcquisitionNumber": 1,
  "AcquisitionTime": "10:06:27.415000",
  "BandwidthPerPixelPhaseEncode": 25,
  "BaseResolution": 80,
  "BodyPartExamined": "BRAIN",
  "CoilCombinationMethod": "Sum of Squares",
  "ConsistencyInfo": "N4_VE11E_LATEST_20181129",
  "ConversionSoftware": "dcm2niix",
  "ConversionSoftwareVersion": "v1.0.20220720",
  "DerivedVendorReportedEchoSpacing": 0.0005,
  "DeviceSerialNumber": "66112",
  "DwellTime": 2.7e-06,
  "EchoTime": 0.03,
  "EchoTrainLength": 80,
  "EffectiveEchoSpacing": 0.0005,
  "FlipAngle": 77,
  "HeudiconvVersion": "0.13.1",
  "ImageOrientationPatientDICOM": [0.988362, 0.152042, 0.00495112, -0.146477, 0.942399, 0.300715],
  "ImageOrientationText": "Tra>Cor(17.3)>Sag(-2.4)",
  "ImageType": [
    "ORIGINAL",
    "PRIMARY",
    "M",
    "ND",
    "NORM",
    "MOSAIC"
],
  "ImagingFrequency": 123.259,
  "InPlanePhaseEncodingDirectionDICOM": "COL",
  "InstitutionAddress": "Maynard 3,Hanover,NH,US,03755",
  "InstitutionName": "Dartmouth College - PBS",
  "InstitutionalDepartmentName": "Department",
  "MRAcquisitionType": "2D",
  "MagneticFieldStrength": 3,
  "Manufacturer": "Siemens",
  "ManufacturersModelName": "Prisma",
  "MatrixCoilMode": "SENSE",
  "Modality": "MR",
  "NonlinearGradientCorrection": false,
  "PartialFourier": 1,
  "PatientPosition": "HFS",
  "PercentPhaseFOV": 100,
  "PercentSampling": 100,
  "PhaseEncodingDirection": "j-",
  "PhaseEncodingSteps": 80,
  "PhaseResolution": 1,
  "PixelBandwidth": 2315,
  "ProcedureStepDescription": "dbic^QA",
  "ProtocolName": "func-bold_fa-77",
  "PulseSequenceDetails": "%SiemensSeq%\\ep2d_bold",
  "ReceiveCoilActiveElements": "HEA;HEP",
  "ReceiveCoilName": "Head_32",
  "ReconMatrixPE": 80,
  "RepetitionTime": 2,
  "SAR": 0.0642703,
  "ScanOptions": "FS",
  "ScanningSequence": "EP",
  "SequenceName": "*epfid2d1_80",
  "SequenceVariant": "SK",
  "SeriesDescription": "func-bold_fa-77",
  "SeriesNumber": 8,
  "ShimSetting": [4228, -7730, -7480, 4, -130, -21, -12, 95],
  "SliceThickness": 3.5,
  "SliceTiming": [0.99, 0, 1.0575, 0.0675, 1.1225, 0.1325, 1.1875, 0.1975, 1.255, 0.265, 1.32, 0.33, 1.3875, 0.3975, 1.4525, 0.4625, 1.5175, 0.5275, 1.585, 0.595, 1.65, 0.66, 1.715, 0.7275, 1.7825, 0.7925, 1.8475, 0.8575, 1.915, 0.925],
  "SoftwareVersions": "syngo MR E11",
  "SpacingBetweenSlices": 3.99,
  "StationName": "AWP66112",
  "TotalReadoutTime": 0.0395,
  "TxRefAmp": 230.829,
  "dcmmeta_affine": [
    [-2.965085029602051, -0.4394323229789734, -0.16381040215492249, 138.95538330078125],
    [-0.4561249017715454, 2.827195644378662, 1.1887813806533813, -110.4933090209961],
    [0.014853366650640965, -0.9021443724632263, 3.8052680492401123, -9.918737411499023],
    [0.0, 0.0, 0.0, 1.0]
],
  "dcmmeta_reorient_transform": [
    [0.0, -1.0, 0.0, 79.0],
    [1.0, 0.0, 0.0, 0.0],
    [0.0, 0.0, 1.0, 0.0],
    [0.0, 0.0, 0.0, 1.0]
],
  "dcmmeta_shape": [80, 80, 30, 200],
  "dcmmeta_slice_dim": 2,
  "dcmmeta_version": 0.6,
  "global": {
    "const": {
      "AccessionNumber": "qa",
      "AcquisitionMatrix": [80, 0, 0, 80],
      "AngioFlag": "N",
      "BitsAllocated": 16,
      "BitsStored": 12,
      "BodyPartExamined": "BRAIN",
      "Columns": 480,
      "EchoNumbers": 1,
      "EchoTime": 30.0,
      "EchoTrainLength": 80,
      "FlipAngle": 77.0,
      "HighBit": 11,
      "ImageOrientationPatient": [0.98836168816145, 0.15204163825062, 0.00495112236844, -0.1464774413085, 0.9423985240229, 0.30071478365248],
      "ImagePositionPatient": [-609.37078503627, -769.51924044533, -264.58768445176],
      "ImageType": [
        "ORIGINAL",
        "PRIMARY",
        "M",
        "ND",
        "NORM",
        "MOSAIC"
],
      "ImagedNucleus": "1H",
      "ImagingFrequency": 123.259243,
      "InPlanePhaseEncodingDirection": "COL",
      "MRAcquisitionType": "2D",
      "MagneticFieldStrength": 3.0,
      "Manufacturer": "SIEMENS",
      "ManufacturerModelName": "Prisma",
      "Modality": "MR",
      "NumberOfAverages": 1.0,
      "NumberOfPhaseEncodingSteps": 80,
      "PercentPhaseFieldOfView": 100.0,
      "PercentSampling": 100.0,
      "PerformedProcedureStepStartTime": "094828.357000",
      "PhotometricInterpretation": "MONOCHROME2",
      "PixelBandwidth": 2315.0,
      "PixelRepresentation": 0,
      "PixelSpacing": [3.0, 3.0],
      "ProtocolName": "func-bold_fa-77",
      "RepetitionTime": 2000.0,
      "Rows": 480,
      "SAR": 0.06427031467612,
      "SamplesPerPixel": 1,
      "ScanOptions": "FS",
      "ScanningSequence": "EP",
      "SequenceName": "*epfid2d1_80",
      "SequenceVariant": "SK",
      "SeriesDescription": "func-bold_fa-77",
      "SeriesNumber": 8,
      "SeriesTime": "100721.687000",
      "SliceLocation": -48.084756670652,
      "SliceThickness": 3.5,
      "SmallestImagePixelValue": 0,
      "SoftwareVersions": "syngo MR E11",
      "SpacingBetweenSlices": 3.9900000592519,
      "SpecificCharacterSet": "ISO_IR 100",
      "StudyID": "11",
      "StudyTime": "094828.313000",
      "TransmitCoilName": "Body",
      "VariableFlipAngleFlag": "N",
      "WindowCenterWidthExplanation": "Algo1"
    },
    "slices": {}
  },
  "time": {
    "samples": {
      "AcquisitionNumber": [1, 2, 3, 4, 5, 6, 7, 8, 9, 10, 11, 12, 13, 14, 15, 16, 17, 18, 19, 20, 21, 22, 23, 24, 25, 26, 27, 28, 29, 30, 31, 32, 33, 34, 35, 36, 37, 38, 39, 40, 41, 42, 43, 44, 45, 46, 47, 48, 49, 50, 51, 52, 53, 54, 55, 56, 57, 58, 59, 60, 61, 62, 63, 64, 65, 66, 67, 68, 69, 70, 71, 72, 73, 74, 75, 76, 77, 78, 79, 80, 81, 82, 83, 84, 85, 86, 87, 88, 89, 90, 91, 92, 93, 94, 95, 96, 97, 98, 99, 100, 101, 102, 103, 104, 105, 106, 107, 108, 109, 110, 111, 112, 113, 114, 115, 116, 117, 118, 119, 120, 121, 122, 123, 124, 125, 126, 127, 128, 129, 130, 131, 132, 133, 134, 135, 136, 137, 138, 139, 140, 141, 142, 143, 144, 145, 146, 147, 148, 149, 150, 151, 152, 153, 154, 155, 156, 157, 158, 159, 160, 161, 162, 163, 164, 165, 166, 167, 168, 169, 170, 171, 172, 173, 174, 175, 176, 177, 178, 179, 180, 181, 182, 183, 184, 185, 186, 187, 188, 189, 190, 191, 192, 193, 194, 195, 196, 197, 198, 199, 200],
      "AcquisitionTime": ["100627.415000", "100629.415000", "100631.415000", "100633.415000", "100635.415000", "100637.415000", "100639.415000", "100641.415000", "100643.415000", "100645.415000", "100647.415000", "100649.415000", "100651.415000", "100653.415000", "100655.415000", "100657.415000", "100659.415000", "100701.415000", "100703.415000", "100705.415000", "100707.415000", "100709.415000", "100711.415000", "100713.415000", "100715.415000", "100717.415000", "100719.415000", "100721.415000", "100723.415000", "100725.415000", "100727.415000", "100729.415000", "100731.415000", "100733.415000", "100735.415000", "100737.415000", "100739.415000", "100741.415000", "100743.415000", "100745.415000", "100747.415000", "100749.415000", "100751.415000", "100753.415000", "100755.415000", "100757.415000", "100759.415000", "100801.415000", "100803.415000", "100805.415000", "100807.415000", "100809.415000", "100811.415000", "100813.415000", "100815.415000", "100817.415000", "100819.415000", "100821.415000", "100823.415000", "100825.415000", "100827.415000", "100829.415000", "100831.415000", "100833.415000", "100835.415000", "100837.415000", "100839.415000", "100841.415000", "100843.415000", "100845.415000", "100847.415000", "100849.415000", "100851.415000", "100853.415000", "100855.415000", "100857.415000", "100859.415000", "100901.415000", "100903.415000", "100905.415000", "100907.415000", "100909.415000", "100911.415000", "100913.415000", "100915.415000", "100917.415000", "100919.415000", "100921.415000", "100923.415000", "100925.415000", "100927.415000", "100929.415000", "100931.415000", "100933.415000", "100935.415000", "100937.415000", "100939.415000", "100941.415000", "100943.415000", "100945.415000", "100947.415000", "100949.415000", "100951.415000", "100953.415000", "100955.415000", "100957.415000", "100959.415000", "101001.415000", "101003.415000", "101005.415000", "101007.415000", "101009.415000", "101011.415000", "101013.415000", "101015.415000", "101017.415000", "101019.415000", "101021.415000", "101023.415000", "101025.415000", "101027.415000", "101029.415000", "101031.415000", "101033.415000", "101035.415000", "101037.415000", "101039.415000", "101041.415000", "101043.415000", "101045.415000", "101047.415000", "101049.415000", "101051.415000", "101053.415000", "101055.415000", "101057.415000", "101059.415000", "101101.415000", "101103.415000", "101105.415000", "101107.415000", "101109.415000", "101111.415000", "101113.415000", "101115.415000", "101117.415000", "101119.415000", "101121.415000", "101123.415000", "101125.415000", "101127.415000", "101129.415000", "101131.415000", "101133.415000", "101135.415000", "101137.415000", "101139.415000", "101141.415000", "101143.415000", "101145.415000", "101147.415000", "101149.415000", "101151.415000", "101153.415000", "101155.415000", "101157.415000", "101159.415000", "101201.415000", "101203.415000", "101205.415000", "101207.415000", "101209.415000", "101211.415000", "101213.415000", "101215.415000", "101217.415000", "101219.415000", "101221.415000", "101223.415000", "101225.415000", "101227.415000", "101229.415000", "101231.415000", "101233.415000", "101235.415000", "101237.415000", "101239.415000", "101241.415000", "101243.415000", "101245.415000", "101247.415000", "101249.415000", "101251.415000", "101253.415000", "101255.415000", "101257.415000", "101259.415000", "101301.415000", "101303.415000", "101305.415000"],
      "ContentTime": ["100721.690000", "100721.693000", "100721.695000", "100721.698000", "100721.700000", "100721.702000", "100721.704000", "100721.707000", "100721.709000", "100721.711000", "100721.713000", "100721.716000", "100721.718000", "100721.720000", "100721.722000", "100721.725000", "100721.727000", "100721.729000", "100721.732000", "100721.734000", "100721.736000", "100721.738000", "100721.741000", "100721.743000", "100721.745000", "100721.747000", "100721.750000", "100801.685000", "100801.688000", "100801.690000", "100801.692000", "100801.694000", "100801.697000", "100801.699000", "100801.709000", "100801.711000", "100801.714000", "100801.716000", "100801.718000", "100801.721000", "100801.723000", "100801.725000", "100801.727000", "100801.730000", "100801.732000", "100801.734000", "100801.736000", "100841.684000", "100841.687000", "100841.689000", "100841.691000", "100841.693000", "100841.696000", "100841.698000", "100841.700000", "100841.702000", "100841.705000", "100841.707000", "100841.709000", "100841.712000", "100841.714000", "100841.716000", "100841.719000", "100841.721000", "100841.723000", "100841.725000", "100841.728000", "100921.685000", "100921.688000", "100921.690000", "100921.692000", "100921.694000", "100921.697000", "100921.699000", "100921.701000", "100921.704000", "100921.706000", "100921.708000", "100921.710000", "100921.713000", "100921.715000", "100921.717000", "100921.720000", "100921.722000", "100921.724000", "100921.726000", "100921.729000", "101001.685000", "101001.688000", "101001.690000", "101001.692000", "101001.694000", "101001.697000", "101001.699000", "101001.701000", "101001.704000", "101001.706000", "101001.708000", "101001.711000", "101001.713000", "101001.715000", "101001.717000", "101001.720000", "101001.722000", "101001.724000", "101001.727000", "101001.729000", "101041.685000", "101041.688000", "101041.690000", "101041.692000", "101041.695000", "101041.697000", "101041.699000", "101041.701000", "101041.704000", "101041.706000", "101041.708000", "101041.711000", "101041.713000", "101041.715000", "101041.718000", "101041.720000", "101041.722000", "101041.724000", "101041.727000", "101041.729000", "101101.684000", "101101.687000", "101101.689000", "101101.691000", "101101.694000", "101101.701000", "101101.703000", "101101.706000", "101101.708000", "101101.710000", "101141.685000", "101141.688000", "101141.690000", "101141.693000", "101141.695000", "101141.697000", "101141.700000", "101141.702000", "101141.704000", "101141.706000", "101141.709000", "101141.711000", "101141.713000", "101141.716000", "101141.718000", "101141.720000", "101141.722000", "101141.725000", "101141.727000", "101141.729000", "101221.685000", "101221.688000", "101221.690000", "101221.692000", "101221.695000", "101221.697000", "101221.699000", "101221.702000", "101221.704000", "101221.706000", "101221.708000", "101221.711000", "101221.713000", "101221.715000", "101221.718000", "101221.720000", "101221.722000", "101221.724000", "101221.727000", "101221.729000", "101301.685000", "101301.688000", "101301.690000", "101301.692000", "101301.695000", "101301.697000", "101301.699000", "101301.715000", "101301.717000", "101301.720000", "101301.722000", "101301.724000", "101301.727000", "101301.729000", "101301.731000", "101301.734000", "101301.736000", "101301.739000", "101301.741000", "101301.743000", "101307.173000", "101307.176000", "101307.178000"],
      "InstanceCreationTime": ["100721.690000", "100721.693000", "100721.695000", "100721.698000", "100721.700000", "100721.702000", "100721.704000", "100721.707000", "100721.709000", "100721.711000", "100721.713000", "100721.716000", "100721.718000", "100721.720000", "100721.722000", "100721.725000", "100721.727000", "100721.729000", "100721.732000", "100721.734000", "100721.736000", "100721.738000", "100721.741000", "100721.743000", "100721.745000", "100721.747000", "100721.750000", "100801.685000", "100801.688000", "100801.690000", "100801.692000", "100801.694000", "100801.697000", "100801.699000", "100801.709000", "100801.711000", "100801.714000", "100801.716000", "100801.718000", "100801.721000", "100801.723000", "100801.725000", "100801.727000", "100801.730000", "100801.732000", "100801.734000", "100801.736000", "100841.684000", "100841.687000", "100841.689000", "100841.691000", "100841.693000", "100841.696000", "100841.698000", "100841.700000", "100841.702000", "100841.705000", "100841.707000", "100841.709000", "100841.712000", "100841.714000", "100841.716000", "100841.719000", "100841.721000", "100841.723000", "100841.725000", "100841.728000", "100921.685000", "100921.688000", "100921.690000", "100921.692000", "100921.694000", "100921.697000", "100921.699000", "100921.701000", "100921.704000", "100921.706000", "100921.708000", "100921.710000", "100921.713000", "100921.715000", "100921.717000", "100921.720000", "100921.722000", "100921.724000", "100921.726000", "100921.729000", "101001.685000", "101001.688000", "101001.690000", "101001.692000", "101001.694000", "101001.697000", "101001.699000", "101001.701000", "101001.704000", "101001.706000", "101001.708000", "101001.711000", "101001.713000", "101001.715000", "101001.717000", "101001.720000", "101001.722000", "101001.724000", "101001.727000", "101001.729000", "101041.685000", "101041.688000", "101041.690000", "101041.692000", "101041.695000", "101041.697000", "101041.699000", "101041.701000", "101041.704000", "101041.706000", "101041.708000", "101041.711000", "101041.713000", "101041.715000", "101041.718000", "101041.720000", "101041.722000", "101041.724000", "101041.727000", "101041.729000", "101101.684000", "101101.687000", "101101.689000", "101101.691000", "101101.694000", "101101.701000", "101101.703000", "101101.706000", "101101.708000", "101101.710000", "101141.685000", "101141.688000", "101141.690000", "101141.693000", "101141.695000", "101141.697000", "101141.700000", "101141.702000", "101141.704000", "101141.706000", "101141.709000", "101141.711000", "101141.713000", "101141.716000", "101141.718000", "101141.720000", "101141.722000", "101141.725000", "101141.727000", "101141.729000", "101221.685000", "101221.688000", "101221.690000", "101221.692000", "101221.695000", "101221.697000", "101221.699000", "101221.702000", "101221.704000", "101221.706000", "101221.708000", "101221.711000", "101221.713000", "101221.715000", "101221.718000", "101221.720000", "101221.722000", "101221.724000", "101221.727000", "101221.729000", "101301.685000", "101301.688000", "101301.690000", "101301.692000", "101301.695000", "101301.697000", "101301.699000", "101301.715000", "101301.717000", "101301.720000", "101301.722000", "101301.724000", "101301.727000", "101301.729000", "101301.731000", "101301.734000", "101301.736000", "101301.739000", "101301.741000", "101301.743000", "101307.173000", "101307.176000", "101307.178000"],
      "InstanceNumber": [1, 2, 3, 4, 5, 6, 7, 8, 9, 10, 11, 12, 13, 14, 15, 16, 17, 18, 19, 20, 21, 22, 23, 24, 25, 26, 27, 28, 29, 30, 31, 32, 33, 34, 35, 36, 37, 38, 39, 40, 41, 42, 43, 44, 45, 46, 47, 48, 49, 50, 51, 52, 53, 54, 55, 56, 57, 58, 59, 60, 61, 62, 63, 64, 65, 66, 67, 68, 69, 70, 71, 72, 73, 74, 75, 76, 77, 78, 79, 80, 81, 82, 83, 84, 85, 86, 87, 88, 89, 90, 91, 92, 93, 94, 95, 96, 97, 98, 99, 100, 101, 102, 103, 104, 105, 106, 107, 108, 109, 110, 111, 112, 113, 114, 115, 116, 117, 118, 119, 120, 121, 122, 123, 124, 125, 126, 127, 128, 129, 130, 131, 132, 133, 134, 135, 136, 137, 138, 139, 140, 141, 142, 143, 144, 145, 146, 147, 148, 149, 150, 151, 152, 153, 154, 155, 156, 157, 158, 159, 160, 161, 162, 163, 164, 165, 166, 167, 168, 169, 170, 171, 172, 173, 174, 175, 176, 177, 178, 179, 180, 181, 182, 183, 184, 185, 186, 187, 188, 189, 190, 191, 192, 193, 194, 195, 196, 197, 198, 199, 200],
      "LargestImagePixelValue": [2254, 2254, 2255, 2256, 2254, 2256, 2255, 2255, 2255, 2254, 2256, 2253, 2253, 2254, 2252, 2253, 2252, 2253, 2254, 2253, 2254, 2251, 2255, 2252, 2251, 2252, 2253, 2253, 2253, 2253, 2255, 2255, 2254, 2253, 2255, 2255, 2252, 2256, 2254, 2255, 2253, 2254, 2254, 2254, 2250, 2254, 2251, 2252, 2253, 2252, 2251, 2254, 2253, 2253, 2252, 2253, 2252, 2253, 2250, 2252, 2251, 2253, 2253, 2255, 2257, 2254, 2253, 2252, 2249, 2249, 2248, 2251, 2251, 2251, 2251, 2251, 2253, 2251, 2252, 2253, 2254, 2252, 2254, 2252, 2253, 2252, 2253, 2252, 2251, 2250, 2252, 2249, 2251, 2253, 2251, 2253, 2252, 2252, 2253, 2252, 2256, 2254, 2252, 2251, 2252, 2251, 2252, 2254, 2252, 2251, 2249, 2250, 2246, 2247, 2248, 2253, 2252, 2253, 2256, 2254, 2256, 2257, 2258, 2260, 2259, 2261, 2258, 2256, 2254, 2255, 2256, 2256, 2256, 2257, 2258, 2254, 2256, 2255, 2255, 2255, 2253, 2252, 2253, 2254, 2252, 2248, 2249, 2251, 2250, 2250, 2252, 2253, 2251, 2251, 2254, 2253, 2257, 2256, 2257, 2257, 2257, 2261, 2259, 2259, 2255, 2254, 2255, 2255, 2255, 2254, 2255, 2256, 2254, 2254, 2254, 2256, 2253, 2255, 2253, 2253, 2253, 2253, 2252, 2252, 2249, 2251, 2252, 2252, 2253, 2254, 2255, 2256, 2255, 2258, 2259, 2260, 2258, 2259, 2259, 2258],
      "WindowCenter": [1037.0, 1038.0, 1037.0, 1037.0, 1037.0, 1037.0, 1037.0, 1037.0, 1037.0, 1037.0, 1037.0, 1037.0, 1037.0, 1037.0, 1037.0, 1037.0, 1037.0, 1037.0, 1037.0, 1037.0, 1037.0, 1037.0, 1037.0, 1037.0, 1037.0, 1037.0, 1037.0, 1037.0, 1037.0, 1037.0, 1037.0, 1037.0, 1037.0, 1037.0, 1037.0, 1036.0, 1037.0, 1037.0, 1037.0, 1037.0, 1037.0, 1038.0, 1037.0, 1037.0, 1037.0, 1038.0, 1037.0, 1037.0, 1037.0, 1037.0, 1036.0, 1037.0, 1037.0, 1037.0, 1037.0, 1037.0, 1037.0, 1037.0, 1037.0, 1038.0, 1037.0, 1037.0, 1037.0, 1037.0, 1037.0, 1037.0, 1037.0, 1037.0, 1036.0, 1036.0, 1036.0, 1036.0, 1036.0, 1036.0, 1036.0, 1036.0, 1036.0, 1036.0, 1036.0, 1036.0, 1036.0, 1036.0, 1036.0, 1036.0, 1036.0, 1036.0, 1036.0, 1036.0, 1036.0, 1036.0, 1036.0, 1036.0, 1036.0, 1036.0, 1036.0, 1036.0, 1036.0, 1036.0, 1036.0, 1036.0, 1036.0, 1036.0, 1036.0, 1036.0, 1036.0, 1036.0, 1036.0, 1036.0, 1036.0, 1036.0, 1036.0, 1036.0, 1036.0, 1036.0, 1037.0, 1036.0, 1037.0, 1036.0, 1036.0, 1036.0, 1036.0, 1036.0, 1036.0, 1036.0, 1036.0, 1036.0, 1036.0, 1036.0, 1036.0, 1036.0, 1036.0, 1036.0, 1036.0, 1036.0, 1036.0, 1036.0, 1037.0, 1036.0, 1036.0, 1036.0, 1036.0, 1037.0, 1036.0, 1036.0, 1037.0, 1036.0, 1036.0, 1036.0, 1036.0, 1036.0, 1036.0, 1036.0, 1036.0, 1036.0, 1036.0, 1036.0, 1036.0, 1036.0, 1036.0, 1036.0, 1036.0, 1036.0, 1036.0, 1035.0, 1035.0, 1036.0, 1036.0, 1036.0, 1036.0, 1035.0, 1035.0, 1036.0, 1035.0, 1035.0, 1036.0, 1037.0, 1036.0, 1036.0, 1035.0, 1037.0, 1036.0, 1036.0, 1036.0, 1036.0, 1035.0, 1035.0, 1036.0, 1035.0, 1035.0, 1035.0, 1035.0, 1035.0, 1035.0, 1035.0, 1035.0, 1035.0, 1035.0, 1035.0, 1035.0, 1035.0],
      "WindowWidth": [2332.0, 2333.0, 2332.0, 2333.0, 2332.0, 2333.0, 2332.0, 2332.0, 2332.0, 2332.0, 2333.0, 2332.0, 2332.0, 2332.0, 2332.0, 2332.0, 2332.0, 2332.0, 2332.0, 2332.0, 2332.0, 2332.0, 2332.0, 2332.0, 2332.0, 2332.0, 2332.0, 2332.0, 2332.0, 2332.0, 2332.0, 2332.0, 2332.0, 2332.0, 2332.0, 2331.0, 2332.0, 2332.0, 2332.0, 2332.0, 2332.0, 2332.0, 2331.0, 2332.0, 2332.0, 2332.0, 2332.0, 2331.0, 2331.0, 2331.0, 2331.0, 2331.0, 2331.0, 2331.0, 2331.0, 2331.0, 2331.0, 2331.0, 2331.0, 2332.0, 2331.0, 2331.0, 2331.0, 2331.0, 2331.0, 2331.0, 2331.0, 2331.0, 2331.0, 2331.0, 2331.0, 2331.0, 2331.0, 2331.0, 2331.0, 2331.0, 2331.0, 2331.0, 2331.0, 2331.0, 2331.0, 2331.0, 2331.0, 2331.0, 2331.0, 2331.0, 2331.0, 2331.0, 2331.0, 2331.0, 2331.0, 2330.0, 2331.0, 2331.0, 2330.0, 2330.0, 2330.0, 2331.0, 2331.0, 2330.0, 2330.0, 2330.0, 2330.0, 2330.0, 2330.0, 2330.0, 2330.0, 2330.0, 2330.0, 2330.0, 2330.0, 2330.0, 2330.0, 2330.0, 2331.0, 2330.0, 2331.0, 2330.0, 2330.0, 2330.0, 2330.0, 2330.0, 2330.0, 2330.0, 2330.0, 2330.0, 2330.0, 2330.0, 2330.0, 2330.0, 2330.0, 2330.0, 2330.0, 2330.0, 2330.0, 2330.0, 2330.0, 2330.0, 2329.0, 2329.0, 2329.0, 2330.0, 2329.0, 2329.0, 2330.0, 2329.0, 2329.0, 2329.0, 2329.0, 2329.0, 2329.0, 2329.0, 2329.0, 2329.0, 2329.0, 2329.0, 2329.0, 2329.0, 2329.0, 2330.0, 2329.0, 2329.0, 2329.0, 2329.0, 2329.0, 2329.0, 2329.0, 2329.0, 2329.0, 2328.0, 2329.0, 2329.0, 2329.0, 2329.0, 2329.0, 2329.0, 2329.0, 2329.0, 2329.0, 2329.0, 2329.0, 2329.0, 2329.0, 2329.0, 2329.0, 2329.0, 2329.0, 2329.0, 2329.0, 2328.0, 2329.0, 2328.0, 2328.0, 2328.0, 2328.0, 2328.0, 2328.0, 2328.0, 2328.0, 2328.0]
    },
    "slices": {}
  }
}