{
  "AcquisitionMatrixPE": 80,
  "AcquisitionNumber": 1,
  "AcquisitionTime": "09:52:43.770000",
  "BandwidthPerPixelPhaseEncode": 48.077,
  "BaseResolution": 80,
  "BodyPartExamined": "BRAIN",
  "CoilCombinationMethod": "Sum of Squares",
  "ConsistencyInfo": "N4_VE11E_LATEST_20181129",
  "ConversionSoftware": "dcm2niix",
  "ConversionSoftwareVersion": "v1.0.20220720",
  "DerivedVendorReportedEchoSpacing": 0.000519999,
  "DeviceSerialNumber": "66112",
  "DwellTime": 2.7e-06,
  "EchoTime": 0.035,
  "EchoTrainLength": 39,
  "EffectiveEchoSpacing": 0.00026,
  "FlipAngle": 90,
  "HeudiconvVersion": "0.13.1",
  "ImageOrientationPatientDICOM": [0.988362, 0.152042, 0.00495112, -0.146477, 0.942399, 0.300715],
  "ImageOrientationText": "Tra>Cor(17.3)>Sag(-2.4)",
  "ImageType": [
    "ORIGINAL",
    "PRIMARY",
    "M",
    "ND",
    "NORM",
    "MOSAIC"
],
  "ImagingFrequency": 123.259,
  "InPlanePhaseEncodingDirectionDICOM": "COL",
  "InstitutionAddress": "Maynard 3,Hanover,NH,US,03755",
  "InstitutionName": "Dartmouth College - PBS",
  "InstitutionalDepartmentName": "Department",
  "MRAcquisitionType": "2D",
  "MagneticFieldStrength": 3,
  "Manufacturer": "Siemens",
  "ManufacturersModelName": "Prisma",
  "MatrixCoilMode": "GRAPPA",
  "Modality": "MR",
  "NonlinearGradientCorrection": false,
  "ParallelReductionFactorInPlane": 2,
  "PartialFourier": 1,
  "PatientPosition": "HFS",
  "PercentPhaseFOV": 100,
  "PercentSampling": 100,
  "PhaseEncodingDirection": "j-",
  "PhaseEncodingSteps": 79,
  "PhaseResolution": 1,
  "PixelBandwidth": 2315,
  "ProcedureStepDescription": "dbic^QA",
  "ProtocolName": "func-bold_task-rest_acq-p2",
  "PulseSequenceDetails": "%SiemensSeq%\\ep2d_bold",
  "ReceiveCoilActiveElements": "HEA;HEP",
  "ReceiveCoilName": "Head_32",
  "ReconMatrixPE": 80,
  "RefLinesPE": 24,
  "RepetitionTime": 2,
  "SAR": 0.0817845,
  "ScanOptions": "FS",
  "ScanningSequence": "EP",
  "SequenceName": "*epfid2d1_80",
  "SequenceVariant": "SK",
  "SeriesDescription": "func-bold_task-rest_acq-p2",
  "SeriesNumber": 5,
  "ShimSetting": [4228, -7731, -7481, 4, -136, -24, -14, 97],
  "SliceThickness": 3.5,
  "SliceTiming": [0.99, 0, 1.055, 0.065, 1.12, 0.1325, 1.1875, 0.1975, 1.2525, 0.2625, 1.32, 0.33, 1.385, 0.395, 1.45, 0.4625, 1.5175, 0.5275, 1.5825, 0.5925, 1.65, 0.66, 1.715, 0.725, 1.78, 0.7925, 1.8475, 0.8575, 1.9125, 0.9225],
  "SoftwareVersions": "syngo MR E11",
  "SpacingBetweenSlices": 3.99,
  "StationName": "AWP66112",
  "TaskName": "rest",
  "TotalReadoutTime": 0.02054,
  "TxRefAmp": 230.829,
  "dcmmeta_affine": [
    [-2.965085029602051, -0.4394323229789734, -0.16381040215492249, 139.2067108154297],
    [-0.4561249017715454, 2.827195644378662, 1.1887813806533813, -112.24011993408203],
    [0.014853366650640965, -0.9021443724632263, 3.8052680492401123, -13.392206192016602],
    [0.0, 0.0, 0.0, 1.0]
],
  "dcmmeta_reorient_transform": [
    [0.0, -1.0, 0.0, 79.0],
    [1.0, 0.0, 0.0, 0.0],
    [0.0, 0.0, 1.0, 0.0],
    [0.0, 0.0, 0.0, 1.0]
],
  "dcmmeta_shape": [80, 80, 30, 200],
  "dcmmeta_slice_dim": 2,
  "dcmmeta_version": 0.6,
  "global": {
    "const": {
      "AccessionNumber": "qa",
      "AcquisitionMatrix": [80, 0, 0, 80],
      "AngioFlag": "N",
      "BitsAllocated": 16,
      "BitsStored": 12,
      "BodyPartExamined": "BRAIN",
      "Columns": 480,
      "EchoNumbers": 1,
      "EchoTime": 35.0,
      "EchoTrainLength": 39,
      "FlipAngle": 90.0,
      "HighBit": 11,
      "ImageOrientationPatient": [0.98836168816145, 0.15204163825062, 0.00495112236844, -0.1464774413085, 0.9423985240229, 0.30071478365248],
      "ImagePositionPatient": [-609.62210492152, -767.7724276249, -268.06115323228],
      "ImageType": [
        "ORIGINAL",
        "PRIMARY",
        "M",
        "ND",
        "NORM",
        "MOSAIC"
],
      "ImagedNucleus": "1H",
      "ImagingFrequency": 123.259245,
      "InPlanePhaseEncodingDirection": "COL",
      "MRAcquisitionType": "2D",
      "MagneticFieldStrength": 3.0,
      "Manufacturer": "SIEMENS",
      "ManufacturerModelName": "Prisma",
      "Modality": "MR",
      "NumberOfAverages": 1.0,
      "NumberOfPhaseEncodingSteps": 79,
      "PercentPhaseFieldOfView": 100.0,
      "PercentSampling": 100.0,
      "PerformedProcedureStepStartTime": "094828.357000",
      "PhotometricInterpretation": "MONOCHROME2",
      "PixelBandwidth": 2315.0,
      "PixelRepresentation": 0,
      "PixelSpacing": [3.0, 3.0],
      "ProtocolName": "func-bold_task-rest_acq-p2",
      "RepetitionTime": 2000.0,
      "Rows": 480,
      "SAR": 0.08178446545447,
      "SamplesPerPixel": 1,
      "ScanOptions": "FS",
      "ScanningSequence": "EP",
      "SequenceName": "*epfid2d1_80",
      "SequenceVariant": "SK",
      "SeriesDescription": "func-bold_task-rest_acq-p2",
      "SeriesNumber": 5,
      "SeriesTime": "095341.506000",
      "SliceLocation": -51.92817200193,
      "SliceThickness": 3.5,
      "SmallestImagePixelValue": 0,
      "SoftwareVersions": "syngo MR E11",
      "SpacingBetweenSlices": 3.9899999535653,
      "SpecificCharacterSet": "ISO_IR 100",
      "StudyID": "11",
      "StudyTime": "094828.313000",
      "TransmitCoilName": "Body",
      "VariableFlipAngleFlag": "N",
      "WindowCenterWidthExplanation": "Algo1"
    },
    "slices": {}
  },
  "time": {
    "samples": {
      "AcquisitionNumber": [1, 2, 3, 4, 5, 6, 7, 8, 9, 10, 11, 12, 13, 14, 15, 16, 17, 18, 19, 20, 21, 22, 23, 24, 25, 26, 27, 28, 29, 30, 31, 32, 33, 34, 35, 36, 37, 38, 39, 40, 41, 42, 43, 44, 45, 46, 47, 48, 49, 50, 51, 52, 53, 54, 55, 56, 57, 58, 59, 60, 61, 62, 63, 64, 65, 66, 67, 68, 69, 70, 71, 72, 73, 74, 75, 76, 77, 78, 79, 80, 81, 82, 83, 84, 85, 86, 87, 88, 89, 90, 91, 92, 93, 94, 95, 96, 97, 98, 99, 100, 101, 102, 103, 104, 105, 106, 107, 108, 109, 110, 111, 112, 113, 114, 115, 116, 117, 118, 119, 120, 121, 122, 123, 124, 125, 126, 127, 128, 129, 130, 131, 132, 133, 134, 135, 136, 137, 138, 139, 140, 141, 142, 143, 144, 145, 146, 147, 148, 149, 150, 151, 152, 153, 154, 155, 156, 157, 158, 159, 160, 161, 162, 163, 164, 165, 166, 167, 168, 169, 170, 171, 172, 173, 174, 175, 176, 177, 178, 179, 180, 181, 182, 183, 184, 185, 186, 187, 188, 189, 190, 191, 192, 193, 194, 195, 196, 197, 198, 199, 200],
      "AcquisitionTime": ["095243.770000", "095245.770000", "095247.770000", "095249.770000", "095251.770000", "095253.770000", "095255.770000", "095257.770000", "095259.770000", "095301.770000", "095303.770000", "095305.770000", "095307.770000", "095309.770000", "095311.770000", "095313.770000", "095315.770000", "095317.770000", "095319.770000", "095321.770000", "095323.770000", "095325.770000", "095327.770000", "095329.770000", "095331.770000", "095333.770000", "095335.770000", "095337.770000", "095339.770000", "095341.770000", "095343.770000", "095345.770000", "095347.770000", "095349.770000", "095351.770000", "095353.770000", "095355.770000", "095357.770000", "095359.770000", "095401.770000", "095403.770000", "095405.770000", "095407.770000", "095409.770000", "095411.770000", "095413.770000", "095415.770000", "095417.770000", "095419.770000", "095421.770000", "095423.770000", "095425.770000", "095427.770000", "095429.770000", "095431.770000", "095433.770000", "095435.770000", "095437.770000", "095439.770000", "095441.770000", "095443.770000", "095445.770000", "095447.770000", "095449.770000", "095451.770000", "095453.770000", "095455.770000", "095457.770000", "095459.770000", "095501.770000", "095503.770000", "095505.770000", "095507.770000", "095509.770000", "095511.770000", "095513.770000", "095515.770000", "095517.770000", "095519.770000", "095521.770000", "095523.770000", "095525.770000", "095527.770000", "095529.770000", "095531.770000", "095533.770000", "095535.770000", "095537.770000", "095539.770000", "095541.770000", "095543.770000", "095545.770000", "095547.770000", "095549.770000", "095551.770000", "095553.770000", "095555.770000", "095557.770000", "095559.770000", "095601.770000", "095603.770000", "095605.770000", "095607.770000", "095609.770000", "095611.770000", "095613.770000", "095615.770000", "095617.770000", "095619.770000", "095621.770000", "095623.770000", "095625.770000", "095627.770000", "095629.770000", "095631.770000", "095633.770000", "095635.770000", "095637.770000", "095639.770000", "095641.770000", "095643.770000", "095645.770000", "095647.770000", "095649.770000", "095651.770000", "095653.770000", "095655.770000", "095657.770000", "095659.770000", "095701.770000", "095703.770000", "095705.770000", "095707.770000", "095709.770000", "095711.770000", "095713.770000", "095715.770000", "095717.770000", "095719.770000", "095721.770000", "095723.770000", "095725.770000", "095727.770000", "095729.770000", "095731.770000", "095733.770000", "095735.770000", "095737.770000", "095739.770000", "095741.770000", "095743.770000", "095745.770000", "095747.770000", "095749.770000", "095751.770000", "095753.770000", "095755.770000", "095757.770000", "095759.770000", "095801.770000", "095803.770000", "095805.770000", "095807.770000", "095809.770000", "095811.770000", "095813.770000", "095815.770000", "095817.770000", "095819.770000", "095821.770000", "095823.770000", "095825.770000", "095827.770000", "095829.770000", "095831.770000", "095833.770000", "095835.770000", "095837.770000", "095839.770000", "095841.770000", "095843.770000", "095845.770000", "095847.770000", "095849.770000", "095851.770000", "095853.770000", "095855.770000", "095857.770000", "095859.770000", "095901.770000", "095903.770000", "095905.770000", "095907.770000", "095909.770000", "095911.770000", "095913.770000", "095915.770000", "095917.770000", "095919.770000", "095921.770000"],
      "ContentTime": ["095341.509000", "095341.515000", "095341.517000", "095341.519000", "095341.522000", "095341.524000", "095341.526000", "095341.529000", "095341.531000", "095341.533000", "095341.536000", "095341.538000", "095341.540000", "095341.543000", "095341.545000", "095341.547000", "095341.550000", "095341.552000", "095341.554000", "095341.557000", "095341.559000", "095341.561000", "095341.564000", "095341.566000", "095341.568000", "095341.571000", "095341.573000", "095341.575000", "095341.578000", "095421.504000", "095421.507000", "095421.509000", "095421.511000", "095421.514000", "095421.516000", "095421.518000", "095421.520000", "095421.523000", "095421.525000", "095421.527000", "095421.530000", "095421.532000", "095421.534000", "095421.536000", "095421.539000", "095421.541000", "095421.543000", "095421.546000", "095421.548000", "095501.503000", "095501.506000", "095501.508000", "095501.510000", "095501.513000", "095501.515000", "095501.517000", "095501.520000", "095501.522000", "095501.524000", "095501.527000", "095501.529000", "095501.531000", "095501.533000", "095501.536000", "095501.538000", "095501.540000", "095501.543000", "095501.545000", "095501.547000", "095541.504000", "095541.507000", "095541.509000", "095541.511000", "095541.514000", "095541.516000", "095541.518000", "095541.520000", "095541.523000", "095541.525000", "095541.528000", "095541.530000", "095541.532000", "095541.534000", "095541.537000", "095541.539000", "095541.541000", "095541.544000", "095541.546000", "095541.548000", "095621.504000", "095621.507000", "095621.509000", "095621.511000", "095621.514000", "095621.516000", "095621.518000", "095621.521000", "095621.523000", "095621.525000", "095621.528000", "095621.530000", "095621.532000", "095621.535000", "095621.537000", "095621.539000", "095621.542000", "095621.544000", "095621.546000", "095621.549000", "095701.504000", "095701.507000", "095701.509000", "095701.511000", "095701.514000", "095701.516000", "095701.518000", "095701.521000", "095701.523000", "095701.525000", "095701.527000", "095701.530000", "095701.532000", "095701.534000", "095701.537000", "095701.539000", "095701.541000", "095701.544000", "095701.546000", "095701.548000", "095741.503000", "095741.506000", "095741.508000", "095741.510000", "095741.513000", "095741.515000", "095741.517000", "095741.520000", "095741.522000", "095741.524000", "095741.526000", "095741.529000", "095741.531000", "095741.533000", "095741.536000", "095741.538000", "095741.540000", "095741.542000", "095741.545000", "095741.547000", "095821.504000", "095821.507000", "095821.509000", "095821.511000", "095821.514000", "095821.516000", "095821.518000", "095821.521000", "095821.523000", "095821.525000", "095821.527000", "095821.530000", "095821.532000", "095821.534000", "095821.537000", "095821.539000", "095821.541000", "095821.544000", "095821.546000", "095821.548000", "095901.504000", "095901.507000", "095901.509000", "095901.511000", "095901.514000", "095901.516000", "095901.518000", "095901.521000", "095901.523000", "095901.525000", "095901.528000", "095901.530000", "095901.532000", "095901.535000", "095901.537000", "095901.539000", "095901.542000", "095901.544000", "095901.546000", "095901.549000", "095923.244000", "095923.249000", "095923.253000", "095923.256000", "095923.259000", "095923.261000", "095923.264000", "095923.268000", "095923.270000", "095923.274000", "095923.276000"],
      "InstanceCreationTime": ["095341.509000", "095341.515000", "095341.517000", "095341.519000", "095341.522000", "095341.524000", "095341.526000", "095341.529000", "095341.531000", "095341.533000", "095341.536000", "095341.538000", "095341.540000", "095341.543000", "095341.545000", "095341.547000", "095341.550000", "095341.552000", "095341.554000", "095341.557000", "095341.559000", "095341.561000", "095341.564000", "095341.566000", "095341.568000", "095341.571000", "095341.573000", "095341.575000", "095341.578000", "095421.504000", "095421.507000", "095421.509000", "095421.511000", "095421.514000", "095421.516000", "095421.518000", "095421.520000", "095421.523000", "095421.525000", "095421.527000", "095421.530000", "095421.532000", "095421.534000", "095421.536000", "095421.539000", "095421.541000", "095421.543000", "095421.546000", "095421.548000", "095501.503000", "095501.506000", "095501.508000", "095501.510000", "095501.513000", "095501.515000", "095501.517000", "095501.520000", "095501.522000", "095501.524000", "095501.527000", "095501.529000", "095501.531000", "095501.533000", "095501.536000", "095501.538000", "095501.540000", "095501.543000", "095501.545000", "095501.547000", "095541.504000", "095541.507000", "095541.509000", "095541.511000", "095541.514000", "095541.516000", "095541.518000", "095541.520000", "095541.523000", "095541.525000", "095541.528000", "095541.530000", "095541.532000", "095541.534000", "095541.537000", "095541.539000", "095541.541000", "095541.544000", "095541.546000", "095541.548000", "095621.504000", "095621.507000", "095621.509000", "095621.511000", "095621.514000", "095621.516000", "095621.518000", "095621.521000", "095621.523000", "095621.525000", "095621.528000", "095621.530000", "095621.532000", "095621.535000", "095621.537000", "095621.539000", "095621.542000", "095621.544000", "095621.546000", "095621.549000", "095701.504000", "095701.507000", "095701.509000", "095701.511000", "095701.514000", "095701.516000", "095701.518000", "095701.521000", "095701.523000", "095701.525000", "095701.527000", "095701.530000", "095701.532000", "095701.534000", "095701.537000", "095701.539000", "095701.541000", "095701.544000", "095701.546000", "095701.548000", "095741.503000", "095741.506000", "095741.508000", "095741.510000", "095741.513000", "095741.515000", "095741.517000", "095741.520000", "095741.522000", "095741.524000", "095741.526000", "095741.529000", "095741.531000", "095741.533000", "095741.536000", "095741.538000", "095741.540000", "095741.542000", "095741.545000", "095741.547000", "095821.504000", "095821.507000", "095821.509000", "095821.511000", "095821.514000", "095821.516000", "095821.518000", "095821.521000", "095821.523000", "095821.525000", "095821.527000", "095821.530000", "095821.532000", "095821.534000", "095821.537000", "095821.539000", "095821.541000", "095821.544000", "095821.546000", "095821.548000", "095901.504000", "095901.507000", "095901.509000", "095901.511000", "095901.514000", "095901.516000", "095901.518000", "095901.521000", "095901.523000", "095901.525000", "095901.528000", "095901.530000", "095901.532000", "095901.535000", "095901.537000", "095901.539000", "095901.542000", "095901.544000", "095901.546000", "095901.549000", "095923.244000", "095923.249000", "095923.253000", "095923.256000", "095923.259000", "095923.261000", "095923.264000", "095923.268000", "095923.270000", "095923.274000", "095923.276000"],
      "InstanceNumber": [1, 2, 3, 4, 5, 6, 7, 8, 9, 10, 11, 12, 13, 14, 15, 16, 17, 18, 19, 20, 21, 22, 23, 24, 25, 26, 27, 28, 29, 30, 31, 32, 33, 34, 35, 36, 37, 38, 39, 40, 41, 42, 43, 44, 45, 46, 47, 48, 49, 50, 51, 52, 53, 54, 55, 56, 57, 58, 59, 60, 61, 62, 63, 64, 65, 66, 67, 68, 69, 70, 71, 72, 73, 74, 75, 76, 77, 78, 79, 80, 81, 82, 83, 84, 85, 86, 87, 88, 89, 90, 91, 92, 93, 94, 95, 96, 97, 98, 99, 100, 101, 102, 103, 104, 105, 106, 107, 108, 109, 110, 111, 112, 113, 114, 115, 116, 117, 118, 119, 120, 121, 122, 123, 124, 125, 126, 127, 128, 129, 130, 131, 132, 133, 134, 135, 136, 137, 138, 139, 140, 141, 142, 143, 144, 145, 146, 147, 148, 149, 150, 151, 152, 153, 154, 155, 156, 157, 158, 159, 160, 161, 162, 163, 164, 165, 166, 167, 168, 169, 170, 171, 172, 173, 174, 175, 176, 177, 178, 179, 180, 181, 182, 183, 184, 185, 186, 187, 188, 189, 190, 191, 192, 193, 194, 195, 196, 197, 198, 199, 200],
      "LargestImagePixelValue": [2271, 2259, 2263, 2265, 2269, 2279, 2272, 2275, 2268, 2266, 2272, 2269, 2264, 2269, 2274, 2272, 2273, 2267, 2260, 2260, 2265, 2263, 2264, 2263, 2258, 2256, 2261, 2261, 2261, 2261, 2257, 2257, 2270, 2260, 2260, 2260, 2262, 2267, 2263, 2260, 2265, 2261, 2267, 2269, 2267, 2276, 2266, 2264, 2276, 2275, 2269, 2273, 2265, 2259, 2264, 2261, 2261, 2258, 2251, 2263, 2263, 2263, 2261, 2258, 2273, 2267, 2264, 2265, 2270, 2275, 2272, 2274, 2268, 2264, 2263, 2268, 2268, 2273, 2268, 2257, 2273, 2266, 2269, 2263, 2270, 2268, 2272, 2267, 2272, 2275, 2271, 2270, 2277, 2278, 2267, 2276, 2278, 2268, 2273, 2268, 2276, 2271, 2281, 2282, 2274, 2279, 2264, 2281, 2275, 2278, 2278, 2277, 2276, 2271, 2281, 2273, 2268, 2275, 2280, 2271, 2274, 2275, 2275, 2277, 2278, 2270, 2274, 2266, 2271, 2273, 2265, 2271, 2276, 2271, 2276, 2276, 2268, 2278, 2269, 2273, 2270, 2267, 2270, 2265, 2269, 2273, 2269, 2271, 2270, 2271, 2274, 2275, 2269, 2266, 2272, 2267, 2266, 2266, 2274, 2272, 2276, 2274, 2275, 2271, 2265, 2271, 2270, 2267, 2264, 2277, 2264, 2263, 2264, 2270, 2269, 2274, 2268, 2265, 2270, 2269, 2277, 2273, 2271, 2269, 2269, 2265, 2271, 2268, 2265, 2269, 2270, 2265, 2262, 2271, 2271, 2267, 2266, 2265, 2269, 2276],
      "WindowCenter": [1053.0, 1053.0, 1053.0, 1052.0, 1052.0, 1052.0, 1052.0, 1053.0, 1052.0, 1052.0, 1053.0, 1052.0, 1052.0, 1052.0, 1052.0, 1052.0, 1052.0, 1052.0, 1052.0, 1053.0, 1052.0, 1052.0, 1052.0, 1052.0, 1052.0, 1053.0, 1052.0, 1052.0, 1052.0, 1052.0, 1052.0, 1052.0, 1052.0, 1052.0, 1052.0, 1052.0, 1052.0, 1052.0, 1053.0, 1053.0, 1052.0, 1053.0, 1052.0, 1053.0, 1052.0, 1052.0, 1052.0, 1053.0, 1052.0, 1052.0, 1052.0, 1052.0, 1053.0, 1052.0, 1053.0, 1052.0, 1052.0, 1052.0, 1052.0, 1053.0, 1052.0, 1052.0, 1052.0, 1052.0, 1053.0, 1052.0, 1052.0, 1052.0, 1052.0, 1053.0, 1052.0, 1052.0, 1052.0, 1052.0, 1051.0, 1051.0, 1052.0, 1051.0, 1051.0, 1051.0, 1051.0, 1051.0, 1051.0, 1052.0, 1051.0, 1051.0, 1051.0, 1051.0, 1051.0, 1051.0, 1051.0, 1051.0, 1051.0, 1051.0, 1052.0, 1051.0, 1051.0, 1051.0, 1052.0, 1051.0, 1051.0, 1051.0, 1051.0, 1051.0, 1051.0, 1051.0, 1051.0, 1051.0, 1051.0, 1051.0, 1052.0, 1051.0, 1051.0, 1051.0, 1051.0, 1052.0, 1051.0, 1051.0, 1051.0, 1051.0, 1051.0, 1051.0, 1051.0, 1051.0, 1051.0, 1051.0, 1052.0, 1051.0, 1051.0, 1051.0, 1051.0, 1051.0, 1051.0, 1052.0, 1051.0, 1051.0, 1051.0, 1052.0, 1051.0, 1051.0, 1051.0, 1051.0, 1052.0, 1051.0, 1051.0, 1051.0, 1052.0, 1051.0, 1051.0, 1051.0, 1051.0, 1052.0, 1051.0, 1052.0, 1051.0, 1052.0, 1051.0, 1051.0, 1051.0, 1051.0, 1051.0, 1051.0, 1051.0, 1051.0, 1051.0, 1052.0, 1051.0, 1051.0, 1051.0, 1051.0, 1052.0, 1051.0, 1051.0, 1051.0, 1051.0, 1051.0, 1051.0, 1051.0, 1051.0, 1051.0, 1052.0, 1051.0, 1051.0, 1051.0, 1051.0, 1052.0, 1052.0, 1052.0, 1051.0, 1051.0, 1051.0, 1051.0, 1051.0, 1051.0, 1051.0, 1051.0, 1051.0, 1050.0, 1051.0, 1051.0],
      "WindowWidth": [2357.0, 2356.0, 2356.0, 2356.0, 2356.0, 2356.0, 2356.0, 2356.0, 2356.0, 2356.0, 2356.0, 2356.0, 2356.0, 2356.0, 2356.0, 2356.0, 2356.0, 2356.0, 2356.0, 2356.0, 2356.0, 2356.0, 2355.0, 2355.0, 2356.0, 2357.0, 2355.0, 2356.0, 2356.0, 2356.0, 2355.0, 2355.0, 2356.0, 2355.0, 2356.0, 2356.0, 2355.0, 2355.0, 2356.0, 2356.0, 2356.0, 2356.0, 2355.0, 2356.0, 2355.0, 2355.0, 2355.0, 2356.0, 2355.0, 2355.0, 2354.0, 2355.0, 2356.0, 2355.0, 2355.0, 2355.0, 2354.0, 2354.0, 2354.0, 2355.0, 2355.0, 2354.0, 2354.0, 2354.0, 2355.0, 2354.0, 2354.0, 2354.0, 2354.0, 2355.0, 2354.0, 2354.0, 2354.0, 2354.0, 2354.0, 2354.0, 2354.0, 2354.0, 2354.0, 2354.0, 2354.0, 2354.0, 2354.0, 2353.0, 2354.0, 2354.0, 2353.0, 2354.0, 2354.0, 2354.0, 2353.0, 2353.0, 2354.0, 2354.0, 2354.0, 2354.0, 2353.0, 2353.0, 2354.0, 2353.0, 2353.0, 2354.0, 2354.0, 2353.0, 2354.0, 2353.0, 2353.0, 2353.0, 2353.0, 2353.0, 2354.0, 2353.0, 2353.0, 2353.0, 2353.0, 2354.0, 2353.0, 2353.0, 2353.0, 2353.0, 2353.0, 2353.0, 2353.0, 2353.0, 2353.0, 2353.0, 2354.0, 2353.0, 2353.0, 2353.0, 2353.0, 2353.0, 2352.0, 2353.0, 2353.0, 2352.0, 2353.0, 2353.0, 2352.0, 2352.0, 2352.0, 2352.0, 2353.0, 2353.0, 2352.0, 2353.0, 2353.0, 2352.0, 2352.0, 2352.0, 2352.0, 2353.0, 2352.0, 2353.0, 2352.0, 2353.0, 2352.0, 2352.0, 2352.0, 2352.0, 2352.0, 2352.0, 2352.0, 2352.0, 2352.0, 2353.0, 2352.0, 2351.0, 2351.0, 2352.0, 2353.0, 2352.0, 2352.0, 2352.0, 2352.0, 2352.0, 2351.0, 2352.0, 2352.0, 2352.0, 2352.0, 2352.0, 2352.0, 2352.0, 2352.0, 2352.0, 2352.0, 2352.0, 2352.0, 2352.0, 2352.0, 2352.0, 2351.0, 2351.0, 2351.0, 2351.0, 2351.0, 2352.0, 2351.0, 2352.0]
    },
    "slices": {}
  }
}