{
  "AcquisitionMatrixPE": 80,
  "AcquisitionNumber": 1,
  "AcquisitionTime": "10:13:13.455000",
  "BandwidthPerPixelPhaseEncode": 25,
  "BaseResolution": 80,
  "BodyPartExamined": "BRAIN",
  "CoilCombinationMethod": "Sum of Squares",
  "ConsistencyInfo": "N4_VE11E_LATEST_20181129",
  "ConversionSoftware": "dcm2niix",
  "ConversionSoftwareVersion": "v1.0.20220720",
  "DerivedVendorReportedEchoSpacing": 0.0005,
  "DeviceSerialNumber": "66112",
  "DwellTime": 2.7e-06,
  "EchoTime": 0.03,
  "EchoTrainLength": 80,
  "EffectiveEchoSpacing": 0.0005,
  "FlipAngle": 10,
  "HeudiconvVersion": "0.13.1",
  "ImageOrientationPatientDICOM": [0.988362, 0.152042, 0.00495112, -0.146477, 0.942399, 0.300715],
  "ImageOrientationText": "Tra>Cor(17.3)>Sag(-2.4)",
  "ImageType": [
    "ORIGINAL",
    "PRIMARY",
    "M",
    "ND",
    "NORM",
    "MOSAIC"
],
  "ImagingFrequency": 123.259,
  "InPlanePhaseEncodingDirectionDICOM": "COL",
  "InstitutionAddress": "Maynard 3,Hanover,NH,US,03755",
  "InstitutionName": "Dartmouth College - PBS",
  "InstitutionalDepartmentName": "Department",
  "MRAcquisitionType": "2D",
  "MagneticFieldStrength": 3,
  "Manufacturer": "Siemens",
  "ManufacturersModelName": "Prisma",
  "MatrixCoilMode": "SENSE",
  "Modality": "MR",
  "NonlinearGradientCorrection": false,
  "PartialFourier": 1,
  "PatientPosition": "HFS",
  "PercentPhaseFOV": 100,
  "PercentSampling": 100,
  "PhaseEncodingDirection": "j-",
  "PhaseEncodingSteps": 80,
  "PhaseResolution": 1,
  "PixelBandwidth": 2315,
  "ProcedureStepDescription": "dbic^QA",
  "ProtocolName": "func-bold_fa-10",
  "PulseSequenceDetails": "%SiemensSeq%\\ep2d_bold",
  "ReceiveCoilActiveElements": "HEA;HEP",
  "ReceiveCoilName": "Head_32",
  "ReconMatrixPE": 80,
  "RepetitionTime": 2,
  "SAR": 0.0172405,
  "ScanOptions": "FS",
  "ScanningSequence": "EP",
  "SequenceName": "*epfid2d1_80",
  "SequenceVariant": "SK",
  "SeriesDescription": "func-bold_fa-10",
  "SeriesNumber": 10,
  "ShimSetting": [4228, -7730, -7480, 4, -130, -21, -12, 95],
  "SliceThickness": 3.5,
  "SliceTiming": [0.99, 0, 1.0575, 0.0675, 1.1225, 0.1325, 1.19, 0.2, 1.255, 0.265, 1.32, 0.33, 1.3875, 0.3975, 1.4525, 0.4625, 1.52, 0.53, 1.585, 0.595, 1.65, 0.66, 1.7175, 0.7275, 1.7825, 0.7925, 1.85, 0.86, 1.915, 0.925],
  "SoftwareVersions": "syngo MR E11",
  "SpacingBetweenSlices": 3.99,
  "StationName": "AWP66112",
  "TotalReadoutTime": 0.0395,
  "TxRefAmp": 230.829,
  "dcmmeta_affine": [
    [-2.965085029602051, -0.4394323229789734, -0.16381040215492249, 138.95538330078125],
    [-0.4561249017715454, 2.827195644378662, 1.1887813806533813, -110.4933090209961],
    [0.014853366650640965, -0.9021443724632263, 3.8052680492401123, -9.918737411499023],
    [0.0, 0.0, 0.0, 1.0]
],
  "dcmmeta_reorient_transform": [
    [0.0, -1.0, 0.0, 79.0],
    [1.0, 0.0, 0.0, 0.0],
    [0.0, 0.0, 1.0, 0.0],
    [0.0, 0.0, 0.0, 1.0]
],
  "dcmmeta_shape": [80, 80, 30, 200],
  "dcmmeta_slice_dim": 2,
  "dcmmeta_version": 0.6,
  "global": {
    "const": {
      "AccessionNumber": "qa",
      "AcquisitionMatrix": [80, 0, 0, 80],
      "AngioFlag": "N",
      "BitsAllocated": 16,
      "BitsStored": 12,
      "BodyPartExamined": "BRAIN",
      "Columns": 480,
      "EchoNumbers": 1,
      "EchoTime": 30.0,
      "EchoTrainLength": 80,
      "FlipAngle": 10.0,
      "HighBit": 11,
      "ImageOrientationPatient": [0.98836168816145, 0.15204163825062, 0.00495112236844, -0.1464774413085, 0.9423985240229, 0.30071478365248],
      "ImagePositionPatient": [-609.37078503627, -769.51924044533, -264.58768445176],
      "ImageType": [
        "ORIGINAL",
        "PRIMARY",
        "M",
        "ND",
        "NORM",
        "MOSAIC"
],
      "ImagedNucleus": "1H",
      "ImagingFrequency": 123.259245,
      "InPlanePhaseEncodingDirection": "COL",
      "MRAcquisitionType": "2D",
      "MagneticFieldStrength": 3.0,
      "Manufacturer": "SIEMENS",
      "ManufacturerModelName": "Prisma",
      "Modality": "MR",
      "NumberOfAverages": 1.0,
      "NumberOfPhaseEncodingSteps": 80,
      "PercentPhaseFieldOfView": 100.0,
      "PercentSampling": 100.0,
      "PerformedProcedureStepStartTime": "094828.357000",
      "PhotometricInterpretation": "MONOCHROME2",
      "PixelBandwidth": 2315.0,
      "PixelRepresentation": 0,
      "PixelSpacing": [3.0, 3.0],
      "ProtocolName": "func-bold_fa-10",
      "RepetitionTime": 2000.0,
      "Rows": 480,
      "SAR": 0.01724045411981,
      "SamplesPerPixel": 1,
      "ScanOptions": "FS",
      "ScanningSequence": "EP",
      "SequenceName": "*epfid2d1_80",
      "SequenceVariant": "SK",
      "SeriesDescription": "func-bold_fa-10",
      "SeriesNumber": 10,
      "SeriesTime": "101401.506000",
      "SliceLocation": -48.084756670652,
      "SliceThickness": 3.5,
      "SmallestImagePixelValue": 0,
      "SoftwareVersions": "syngo MR E11",
      "SpacingBetweenSlices": 3.9900000592519,
      "SpecificCharacterSet": "ISO_IR 100",
      "StudyID": "11",
      "StudyTime": "094828.313000",
      "TransmitCoilName": "Body",
      "VariableFlipAngleFlag": "N",
      "WindowCenterWidthExplanation": "Algo1"
    },
    "slices": {}
  },
  "time": {
    "samples": {
      "AcquisitionNumber": [1, 2, 3, 4, 5, 6, 7, 8, 9, 10, 11, 12, 13, 14, 15, 16, 17, 18, 19, 20, 21, 22, 23, 24, 25, 26, 27, 28, 29, 30, 31, 32, 33, 34, 35, 36, 37, 38, 39, 40, 41, 42, 43, 44, 45, 46, 47, 48, 49, 50, 51, 52, 53, 54, 55, 56, 57, 58, 59, 60, 61, 62, 63, 64, 65, 66, 67, 68, 69, 70, 71, 72, 73, 74, 75, 76, 77, 78, 79, 80, 81, 82, 83, 84, 85, 86, 87, 88, 89, 90, 91, 92, 93, 94, 95, 96, 97, 98, 99, 100, 101, 102, 103, 104, 105, 106, 107, 108, 109, 110, 111, 112, 113, 114, 115, 116, 117, 118, 119, 120, 121, 122, 123, 124, 125, 126, 127, 128, 129, 130, 131, 132, 133, 134, 135, 136, 137, 138, 139, 140, 141, 142, 143, 144, 145, 146, 147, 148, 149, 150, 151, 152, 153, 154, 155, 156, 157, 158, 159, 160, 161, 162, 163, 164, 165, 166, 167, 168, 169, 170, 171, 172, 173, 174, 175, 176, 177, 178, 179, 180, 181, 182, 183, 184, 185, 186, 187, 188, 189, 190, 191, 192, 193, 194, 195, 196, 197, 198, 199, 200],
      "AcquisitionTime": ["101313.455000", "101315.455000", "101317.455000", "101319.455000", "101321.455000", "101323.455000", "101325.455000", "101327.455000", "101329.455000", "101331.455000", "101333.455000", "101335.455000", "101337.455000", "101339.455000", "101341.455000", "101343.455000", "101345.455000", "101347.455000", "101349.455000", "101351.455000", "101353.455000", "101355.455000", "101357.455000", "101359.455000", "101401.455000", "101403.455000", "101405.455000", "101407.455000", "101409.455000", "101411.455000", "101413.455000", "101415.455000", "101417.455000", "101419.455000", "101421.455000", "101423.455000", "101425.455000", "101427.455000", "101429.455000", "101431.455000", "101433.455000", "101435.455000", "101437.455000", "101439.455000", "101441.455000", "101443.455000", "101445.455000", "101447.455000", "101449.455000", "101451.455000", "101453.455000", "101455.455000", "101457.455000", "101459.455000", "101501.455000", "101503.455000", "101505.455000", "101507.455000", "101509.455000", "101511.455000", "101513.455000", "101515.455000", "101517.455000", "101519.455000", "101521.455000", "101523.455000", "101525.455000", "101527.455000", "101529.455000", "101531.455000", "101533.455000", "101535.455000", "101537.455000", "101539.455000", "101541.455000", "101543.455000", "101545.455000", "101547.455000", "101549.455000", "101551.455000", "101553.455000", "101555.455000", "101557.455000", "101559.455000", "101601.455000", "101603.455000", "101605.455000", "101607.455000", "101609.455000", "101611.455000", "101613.455000", "101615.455000", "101617.455000", "101619.455000", "101621.455000", "101623.455000", "101625.455000", "101627.455000", "101629.455000", "101631.455000", "101633.455000", "101635.455000", "101637.455000", "101639.455000", "101641.455000", "101643.455000", "101645.455000", "101647.455000", "101649.455000", "101651.455000", "101653.455000", "101655.455000", "101657.455000", "101659.455000", "101701.455000", "101703.455000", "101705.455000", "101707.455000", "101709.455000", "101711.455000", "101713.455000", "101715.455000", "101717.455000", "101719.455000", "101721.455000", "101723.455000", "101725.455000", "101727.455000", "101729.455000", "101731.455000", "101733.455000", "101735.455000", "101737.455000", "101739.455000", "101741.455000", "101743.455000", "101745.455000", "101747.455000", "101749.455000", "101751.455000", "101753.455000", "101755.455000", "101757.455000", "101759.455000", "101801.455000", "101803.455000", "101805.455000", "101807.455000", "101809.455000", "101811.455000", "101813.455000", "101815.455000", "101817.455000", "101819.455000", "101821.455000", "101823.455000", "101825.455000", "101827.455000", "101829.455000", "101831.455000", "101833.455000", "101835.455000", "101837.455000", "101839.455000", "101841.455000", "101843.455000", "101845.455000", "101847.455000", "101849.455000", "101851.455000", "101853.455000", "101855.455000", "101857.455000", "101859.455000", "101901.455000", "101903.455000", "101905.455000", "101907.455000", "101909.455000", "101911.455000", "101913.455000", "101915.455000", "101917.455000", "101919.455000", "101921.455000", "101923.455000", "101925.455000", "101927.455000", "101929.455000", "101931.455000", "101933.455000", "101935.455000", "101937.455000", "101939.455000", "101941.455000", "101943.455000", "101945.455000", "101947.455000", "101949.455000", "101951.455000"],
      "ContentTime": ["101401.509000", "101401.512000", "101401.514000", "101401.516000", "101401.519000", "101401.521000", "101401.523000", "101401.526000", "101401.528000", "101401.530000", "101401.532000", "101401.535000", "101401.537000", "101401.539000", "101401.541000", "101401.544000", "101401.546000", "101401.548000", "101401.550000", "101401.553000", "101401.584000", "101401.586000", "101401.588000", "101401.591000", "101441.504000", "101441.507000", "101441.509000", "101441.515000", "101441.517000", "101441.519000", "101441.521000", "101441.524000", "101441.526000", "101441.528000", "101441.531000", "101441.533000", "101441.535000", "101441.537000", "101441.540000", "101441.542000", "101441.544000", "101441.546000", "101441.549000", "101441.551000", "101521.504000", "101521.507000", "101521.509000", "101521.511000", "101521.513000", "101521.539000", "101521.542000", "101521.544000", "101521.546000", "101521.549000", "101521.551000", "101521.553000", "101521.555000", "101521.558000", "101521.560000", "101521.562000", "101521.564000", "101521.567000", "101521.569000", "101521.571000", "101601.503000", "101601.506000", "101601.508000", "101601.510000", "101601.513000", "101601.515000", "101601.517000", "101601.519000", "101601.522000", "101601.524000", "101601.526000", "101601.529000", "101601.531000", "101601.533000", "101601.535000", "101601.538000", "101601.540000", "101601.542000", "101601.544000", "101601.547000", "101641.504000", "101641.507000", "101641.509000", "101641.511000", "101641.514000", "101641.516000", "101641.518000", "101641.520000", "101641.523000", "101641.555000", "101641.557000", "101641.559000", "101641.561000", "101641.564000", "101641.566000", "101641.568000", "101641.570000", "101641.573000", "101641.575000", "101641.577000", "101721.504000", "101721.507000", "101721.509000", "101721.511000", "101721.513000", "101721.516000", "101721.518000", "101721.520000", "101721.523000", "101721.525000", "101721.527000", "101721.529000", "101721.532000", "101721.534000", "101721.536000", "101721.538000", "101721.541000", "101721.543000", "101721.545000", "101721.547000", "101801.503000", "101801.506000", "101801.508000", "101801.510000", "101801.512000", "101801.515000", "101801.517000", "101801.519000", "101801.522000", "101801.524000", "101801.526000", "101801.528000", "101801.531000", "101801.533000", "101801.535000", "101801.537000", "101801.540000", "101801.542000", "101801.544000", "101801.547000", "101841.504000", "101841.507000", "101841.509000", "101841.511000", "101841.514000", "101841.516000", "101841.518000", "101841.520000", "101841.523000", "101841.525000", "101841.527000", "101841.529000", "101841.532000", "101841.534000", "101841.536000", "101841.538000", "101841.541000", "101841.543000", "101841.545000", "101841.548000", "101921.504000", "101921.507000", "101921.509000", "101921.511000", "101921.514000", "101921.516000", "101921.518000", "101921.520000", "101921.523000", "101921.525000", "101921.527000", "101921.530000", "101921.532000", "101921.534000", "101921.536000", "101921.539000", "101921.541000", "101921.543000", "101921.546000", "101921.548000", "101953.355000", "101953.358000", "101953.360000", "101953.362000", "101953.365000", "101953.367000", "101953.369000", "101953.372000", "101953.374000", "101953.376000", "101953.378000", "101953.381000", "101953.383000", "101953.386000", "101953.396000", "101953.401000"],
      "InstanceCreationTime": ["101401.509000", "101401.512000", "101401.514000", "101401.516000", "101401.519000", "101401.521000", "101401.523000", "101401.526000", "101401.528000", "101401.530000", "101401.532000", "101401.535000", "101401.537000", "101401.539000", "101401.541000", "101401.544000", "101401.546000", "101401.548000", "101401.550000", "101401.553000", "101401.584000", "101401.586000", "101401.588000", "101401.591000", "101441.504000", "101441.507000", "101441.509000", "101441.515000", "101441.517000", "101441.519000", "101441.521000", "101441.524000", "101441.526000", "101441.528000", "101441.531000", "101441.533000", "101441.535000", "101441.537000", "101441.540000", "101441.542000", "101441.544000", "101441.546000", "101441.549000", "101441.551000", "101521.504000", "101521.507000", "101521.509000", "101521.511000", "101521.513000", "101521.539000", "101521.542000", "101521.544000", "101521.546000", "101521.549000", "101521.551000", "101521.553000", "101521.555000", "101521.558000", "101521.560000", "101521.562000", "101521.564000", "101521.567000", "101521.569000", "101521.571000", "101601.503000", "101601.506000", "101601.508000", "101601.510000", "101601.513000", "101601.515000", "101601.517000", "101601.519000", "101601.522000", "101601.524000", "101601.526000", "101601.529000", "101601.531000", "101601.533000", "101601.535000", "101601.538000", "101601.540000", "101601.542000", "101601.544000", "101601.547000", "101641.504000", "101641.507000", "101641.509000", "101641.511000", "101641.514000", "101641.516000", "101641.518000", "101641.520000", "101641.523000", "101641.555000", "101641.557000", "101641.559000", "101641.561000", "101641.564000", "101641.566000", "101641.568000", "101641.570000", "101641.573000", "101641.575000", "101641.577000", "101721.504000", "101721.507000", "101721.509000", "101721.511000", "101721.513000", "101721.516000", "101721.518000", "101721.520000", "101721.523000", "101721.525000", "101721.527000", "101721.529000", "101721.532000", "101721.534000", "101721.536000", "101721.538000", "101721.541000", "101721.543000", "101721.545000", "101721.547000", "101801.503000", "101801.506000", "101801.508000", "101801.510000", "101801.512000", "101801.515000", "101801.517000", "101801.519000", "101801.522000", "101801.524000", "101801.526000", "101801.528000", "101801.531000", "101801.533000", "101801.535000", "101801.537000", "101801.540000", "101801.542000", "101801.544000", "101801.547000", "101841.504000", "101841.507000", "101841.509000", "101841.511000", "101841.514000", "101841.516000", "101841.518000", "101841.520000", "101841.523000", "101841.525000", "101841.527000", "101841.529000", "101841.532000", "101841.534000", "101841.536000", "101841.538000", "101841.541000", "101841.543000", "101841.545000", "101841.548000", "101921.504000", "101921.507000", "101921.509000", "101921.511000", "101921.514000", "101921.516000", "101921.518000", "101921.520000", "101921.523000", "101921.525000", "101921.527000", "101921.530000", "101921.532000", "101921.534000", "101921.536000", "101921.539000", "101921.541000", "101921.543000", "101921.546000", "101921.548000", "101953.355000", "101953.358000", "101953.360000", "101953.362000", "101953.365000", "101953.367000", "101953.369000", "101953.372000", "101953.374000", "101953.376000", "101953.378000", "101953.381000", "101953.383000", "101953.386000", "101953.396000", "101953.401000"],
      "InstanceNumber": [1, 2, 3, 4, 5, 6, 7, 8, 9, 10, 11, 12, 13, 14, 15, 16, 17, 18, 19, 20, 21, 22, 23, 24, 25, 26, 27, 28, 29, 30, 31, 32, 33, 34, 35, 36, 37, 38, 39, 40, 41, 42, 43, 44, 45, 46, 47, 48, 49, 50, 51, 52, 53, 54, 55, 56, 57, 58, 59, 60, 61, 62, 63, 64, 65, 66, 67, 68, 69, 70, 71, 72, 73, 74, 75, 76, 77, 78, 79, 80, 81, 82, 83, 84, 85, 86, 87, 88, 89, 90, 91, 92, 93, 94, 95, 96, 97, 98, 99, 100, 101, 102, 103, 104, 105, 106, 107, 108, 109, 110, 111, 112, 113, 114, 115, 116, 117, 118, 119, 120, 121, 122, 123, 124, 125, 126, 127, 128, 129, 130, 131, 132, 133, 134, 135, 136, 137, 138, 139, 140, 141, 142, 143, 144, 145, 146, 147, 148, 149, 150, 151, 152, 153, 154, 155, 156, 157, 158, 159, 160, 161, 162, 163, 164, 165, 166, 167, 168, 169, 170, 171, 172, 173, 174, 175, 176, 177, 178, 179, 180, 181, 182, 183, 184, 185, 186, 187, 188, 189, 190, 191, 192, 193, 194, 195, 196, 197, 198, 199, 200],
      "LargestImagePixelValue": [392, 390, 389, 391, 389, 391, 389, 389, 390, 390, 390, 390, 391, 389, 388, 388, 389, 387, 387, 389, 390, 389, 390, 391, 389, 392, 392, 390, 391, 392, 389, 390, 390, 389, 391, 392, 389, 388, 389, 390, 388, 391, 390, 390, 389, 392, 390, 386, 392, 389, 388, 390, 387, 389, 390, 391, 390, 389, 390, 389, 391, 391, 390, 392, 390, 391, 388, 389, 391, 389, 389, 391, 387, 389, 390, 392, 387, 390, 390, 387, 387, 390, 390, 387, 392, 389, 388, 389, 390, 389, 388, 390, 389, 389, 390, 391, 390, 391, 392, 391, 393, 390, 388, 388, 389, 387, 388, 389, 390, 389, 390, 391, 391, 390, 390, 389, 389, 390, 391, 388, 391, 388, 388, 392, 390, 388, 388, 390, 391, 388, 391, 389, 388, 391, 390, 388, 388, 391, 388, 391, 389, 390, 389, 389, 391, 388, 391, 391, 389, 392, 391, 389, 388, 390, 389, 389, 391, 390, 390, 389, 391, 387, 390, 389, 392, 386, 389, 389, 389, 390, 388, 387, 388, 388, 391, 389, 393, 391, 392, 392, 390, 391, 391, 387, 387, 388, 391, 391, 388, 390, 389, 387, 390, 388, 388, 390, 388, 387, 389, 391],
      "WindowCenter": [312.0, 312.0, 311.0, 312.0, 311.0, 311.0, 311.0, 311.0, 311.0, 312.0, 311.0, 312.0, 311.0, 311.0, 311.0, 311.0, 311.0, 311.0, 311.0, 311.0, 312.0, 311.0, 312.0, 311.0, 310.0, 311.0, 311.0, 312.0, 312.0, 312.0, 311.0, 312.0, 312.0, 311.0, 312.0, 311.0, 311.0, 311.0, 310.0, 311.0, 311.0, 311.0, 311.0, 311.0, 311.0, 312.0, 312.0, 311.0, 312.0, 311.0, 311.0, 311.0, 311.0, 311.0, 311.0, 311.0, 312.0, 310.0, 312.0, 311.0, 312.0, 311.0, 312.0, 311.0, 311.0, 311.0, 311.0, 310.0, 311.0, 311.0, 311.0, 311.0, 311.0, 311.0, 311.0, 312.0, 310.0, 311.0, 312.0, 310.0, 310.0, 312.0, 312.0, 310.0, 311.0, 311.0, 310.0, 310.0, 311.0, 310.0, 310.0, 311.0, 311.0, 310.0, 311.0, 311.0, 311.0, 311.0, 312.0, 311.0, 311.0, 311.0, 310.0, 310.0, 310.0, 311.0, 310.0, 310.0, 311.0, 310.0, 311.0, 311.0, 311.0, 311.0, 311.0, 310.0, 310.0, 311.0, 311.0, 310.0, 311.0, 310.0, 310.0, 311.0, 311.0, 310.0, 310.0, 311.0, 311.0, 310.0, 311.0, 310.0, 310.0, 311.0, 311.0, 310.0, 310.0, 311.0, 310.0, 311.0, 310.0, 311.0, 310.0, 310.0, 311.0, 310.0, 310.0, 311.0, 310.0, 311.0, 311.0, 310.0, 310.0, 311.0, 310.0, 310.0, 311.0, 311.0, 311.0, 310.0, 311.0, 310.0, 311.0, 310.0, 311.0, 310.0, 310.0, 310.0, 310.0, 311.0, 310.0, 310.0, 310.0, 310.0, 311.0, 310.0, 310.0, 311.0, 311.0, 311.0, 311.0, 311.0, 311.0, 310.0, 310.0, 310.0, 311.0, 311.0, 310.0, 311.0, 310.0, 310.0, 311.0, 310.0, 310.0, 311.0, 310.0, 310.0, 310.0, 311.0],
      "WindowWidth": [673.0, 672.0, 672.0, 673.0, 672.0, 672.0, 672.0, 671.0, 672.0, 673.0, 672.0, 672.0, 672.0, 672.0, 671.0, 671.0, 672.0, 672.0, 671.0, 671.0, 673.0, 672.0, 672.0, 672.0, 671.0, 672.0, 672.0, 672.0, 672.0, 673.0, 671.0, 672.0, 673.0, 672.0, 673.0, 672.0, 672.0, 671.0, 670.0, 672.0, 671.0, 672.0, 672.0, 672.0, 671.0, 672.0, 672.0, 671.0, 672.0, 672.0, 671.0, 672.0, 672.0, 672.0, 672.0, 672.0, 673.0, 671.0, 672.0, 672.0, 672.0, 671.0, 672.0, 672.0, 671.0, 672.0, 671.0, 670.0, 672.0, 672.0, 671.0, 672.0, 671.0, 672.0, 672.0, 672.0, 671.0, 671.0, 673.0, 670.0, 670.0, 672.0, 672.0, 670.0, 671.0, 671.0, 670.0, 670.0, 672.0, 671.0, 670.0, 671.0, 671.0, 670.0, 671.0, 671.0, 671.0, 671.0, 672.0, 671.0, 671.0, 671.0, 670.0, 671.0, 670.0, 671.0, 670.0, 671.0, 672.0, 670.0, 671.0, 672.0, 671.0, 671.0, 671.0, 670.0, 670.0, 671.0, 671.0, 670.0, 671.0, 671.0, 670.0, 671.0, 672.0, 671.0, 670.0, 671.0, 671.0, 670.0, 671.0, 670.0, 670.0, 671.0, 671.0, 670.0, 670.0, 671.0, 670.0, 671.0, 670.0, 671.0, 670.0, 670.0, 671.0, 670.0, 671.0, 671.0, 671.0, 671.0, 671.0, 670.0, 670.0, 671.0, 670.0, 670.0, 671.0, 671.0, 671.0, 670.0, 671.0, 670.0, 671.0, 670.0, 671.0, 670.0, 670.0, 670.0, 670.0, 671.0, 670.0, 670.0, 670.0, 670.0, 671.0, 670.0, 671.0, 671.0, 671.0, 671.0, 671.0, 671.0, 671.0, 670.0, 670.0, 670.0, 671.0, 671.0, 670.0, 671.0, 670.0, 670.0, 671.0, 670.0, 670.0, 671.0, 670.0, 670.0, 670.0, 671.0]
    },
    "slices": {}
  }
}