{
  "AcquisitionMatrixPE": 80,
  "AcquisitionNumber": 1,
  "AcquisitionTime": "09:59:38.105000",
  "BandwidthPerPixelPhaseEncode": 46.296,
  "BaseResolution": 80,
  "BodyPartExamined": "BRAIN",
  "CoilCombinationMethod": "Sum of Squares",
  "ConsistencyInfo": "N4_VE11E_LATEST_20181129",
  "ConversionSoftware": "dcm2niix",
  "ConversionSoftwareVersion": "v1.0.20220720",
  "DerivedVendorReportedEchoSpacing": 0.000540003,
  "DeviceSerialNumber": "66112",
  "DwellTime": 2.7e-06,
  "EchoTime": 0.035,
  "EchoTrainLength": 39,
  "EffectiveEchoSpacing": 0.000270002,
  "FlipAngle": 90,
  "HeudiconvVersion": "0.13.1",
  "ImageOrientationPatientDICOM": [0.988362, 0.152042, 0.00495112, -0.146477, 0.942399, 0.300715],
  "ImageOrientationText": "Tra>Cor(17.3)>Sag(-2.4)",
  "ImageType": [
    "ORIGINAL",
    "PRIMARY",
    "M",
    "ND",
    "NORM",
    "MOSAIC"
],
  "ImagingFrequency": 123.259,
  "InPlanePhaseEncodingDirectionDICOM": "COL",
  "InstitutionAddress": "Maynard 3,Hanover,NH,US,03755",
  "InstitutionName": "Dartmouth College - PBS",
  "InstitutionalDepartmentName": "Department",
  "MRAcquisitionType": "2D",
  "MagneticFieldStrength": 3,
  "Manufacturer": "Siemens",
  "ManufacturersModelName": "Prisma",
  "Modality": "MR",
  "MultibandAccelerationFactor": 4,
  "NonlinearGradientCorrection": false,
  "ParallelReductionFactorInPlane": 2,
  "PartialFourier": 1,
  "PatientPosition": "HFS",
  "PercentPhaseFOV": 100,
  "PercentSampling": 100,
  "PhaseEncodingDirection": "j-",
  "PhaseEncodingSteps": 79,
  "PhaseResolution": 1,
  "PixelBandwidth": 2315,
  "ProcedureStepDescription": "dbic^QA",
  "ProtocolName": "func-bold_task-rest_acq-p2-s4-3.5mm",
  "PulseSequenceDetails": "%SiemensSeq%\\ep2d_bold",
  "ReceiveCoilActiveElements": "HEA;HEP",
  "ReceiveCoilName": "Head_32",
  "ReconMatrixPE": 80,
  "RefLinesPE": 24,
  "RepetitionTime": 2,
  "SAR": 0.0307553,
  "ScanOptions": "FS",
  "ScanningSequence": "EP",
  "SequenceName": "*epfid2d1_80",
  "SequenceVariant": "SK",
  "SeriesDescription": "func-bold_task-rest_acq-p2-s4-3.5mm",
  "SeriesNumber": 7,
  "ShimSetting": [4228, -7731, -7481, 5, -133, -25, -13, 96],
  "SliceThickness": 3.5,
  "SliceTiming": [1.485, 0, 0.99, 0.2475, 1.2375, 0.7425, 1.7325, 0.495, 1.485, 0, 0.99, 0.2475, 1.2375, 0.7425, 1.7325, 0.495, 1.485, 0, 0.99, 0.2475, 1.2375, 0.7425, 1.7325, 0.495, 1.485, 0, 0.99, 0.2475, 1.2375, 0.7425, 1.7325, 0.495],
  "SoftwareVersions": "syngo MR E11",
  "SpacingBetweenSlices": 3.99,
  "StationName": "AWP66112",
  "TaskName": "rest",
  "TotalReadoutTime": 0.0213301,
  "TxRefAmp": 230.829,
  "dcmmeta_affine": [
    [-2.965085029602051, -0.4394323229789734, -0.16381040215492249, 139.37051391601562],
    [-0.4561249017715454, 2.827195644378662, 1.1887813806533813, -113.42890167236328],
    [0.014853366650640965, -0.9021443724632263, 3.8052680492401123, -17.197473526000977],
    [0.0, 0.0, 0.0, 1.0]
],
  "dcmmeta_reorient_transform": [
    [0.0, -1.0, 0.0, 79.0],
    [1.0, 0.0, 0.0, 0.0],
    [0.0, 0.0, 1.0, 0.0],
    [0.0, 0.0, 0.0, 1.0]
],
  "dcmmeta_shape": [80, 80, 32, 200],
  "dcmmeta_slice_dim": 2,
  "dcmmeta_version": 0.6,
  "global": {
    "const": {
      "AccessionNumber": "qa",
      "AcquisitionMatrix": [80, 0, 0, 80],
      "AngioFlag": "N",
      "BitsAllocated": 16,
      "BitsStored": 12,
      "BodyPartExamined": "BRAIN",
      "Columns": 480,
      "EchoNumbers": 1,
      "EchoTime": 35.0,
      "EchoTrainLength": 39,
      "FlipAngle": 90.0,
      "HighBit": 11,
      "ImageOrientationPatient": [0.98836168816145, 0.15204163825062, 0.00495112236844, -0.1464774413085, 0.9423985240229, 0.30071478365248],
      "ImagePositionPatient": [-609.78591517466, -766.58364779397, -271.86642056626],
      "ImageType": [
        "ORIGINAL",
        "PRIMARY",
        "M",
        "ND",
        "NORM",
        "MOSAIC"
],
      "ImagedNucleus": "1H",
      "ImagingFrequency": 123.259245,
      "InPlanePhaseEncodingDirection": "COL",
      "MRAcquisitionType": "2D",
      "MagneticFieldStrength": 3.0,
      "Manufacturer": "SIEMENS",
      "ManufacturerModelName": "Prisma",
      "Modality": "MR",
      "NumberOfAverages": 1.0,
      "NumberOfPhaseEncodingSteps": 79,
      "PercentPhaseFieldOfView": 100.0,
      "PercentSampling": 100.0,
      "PerformedProcedureStepStartTime": "094828.357000",
      "PhotometricInterpretation": "MONOCHROME2",
      "PixelBandwidth": 2315.0,
      "PixelRepresentation": 0,
      "PixelSpacing": [3.0, 3.0],
      "ProtocolName": "func-bold_task-rest_acq-p2-s4-3.5mm",
      "RepetitionTime": 2000.0,
      "Rows": 480,
      "SAR": 0.03075532013733,
      "SamplesPerPixel": 1,
      "ScanOptions": "FS",
      "ScanningSequence": "EP",
      "SequenceName": "*epfid2d1_80",
      "SequenceVariant": "SK",
      "SeriesDescription": "func-bold_task-rest_acq-p2-s4-3.5mm",
      "SeriesNumber": 7,
      "SeriesTime": "100021.599000",
      "SliceLocation": -55.918170845107,
      "SliceThickness": 3.5,
      "SmallestImagePixelValue": 0,
      "SoftwareVersions": "syngo MR E11",
      "SpacingBetweenSlices": 3.989999891251,
      "SpecificCharacterSet": "ISO_IR 100",
      "StudyID": "11",
      "StudyTime": "094828.313000",
      "TransmitCoilName": "Body",
      "VariableFlipAngleFlag": "N",
      "WindowCenterWidthExplanation": "Algo1"
    },
    "slices": {}
  },
  "time": {
    "samples": {
      "AcquisitionNumber": [1, 2, 3, 4, 5, 6, 7, 8, 9, 10, 11, 12, 13, 14, 15, 16, 17, 18, 19, 20, 21, 22, 23, 24, 25, 26, 27, 28, 29, 30, 31, 32, 33, 34, 35, 36, 37, 38, 39, 40, 41, 42, 43, 44, 45, 46, 47, 48, 49, 50, 51, 52, 53, 54, 55, 56, 57, 58, 59, 60, 61, 62, 63, 64, 65, 66, 67, 68, 69, 70, 71, 72, 73, 74, 75, 76, 77, 78, 79, 80, 81, 82, 83, 84, 85, 86, 87, 88, 89, 90, 91, 92, 93, 94, 95, 96, 97, 98, 99, 100, 101, 102, 103, 104, 105, 106, 107, 108, 109, 110, 111, 112, 113, 114, 115, 116, 117, 118, 119, 120, 121, 122, 123, 124, 125, 126, 127, 128, 129, 130, 131, 132, 133, 134, 135, 136, 137, 138, 139, 140, 141, 142, 143, 144, 145, 146, 147, 148, 149, 150, 151, 152, 153, 154, 155, 156, 157, 158, 159, 160, 161, 162, 163, 164, 165, 166, 167, 168, 169, 170, 171, 172, 173, 174, 175, 176, 177, 178, 179, 180, 181, 182, 183, 184, 185, 186, 187, 188, 189, 190, 191, 192, 193, 194, 195, 196, 197, 198, 199, 200],
      "AcquisitionTime": ["095938.105000", "095940.105000", "095942.105000", "095944.105000", "095946.105000", "095948.105000", "095950.105000", "095952.105000", "095954.105000", "095956.105000", "095958.105000", "100000.105000", "100002.105000", "100004.105000", "100006.105000", "100008.105000", "100010.105000", "100012.105000", "100014.105000", "100016.105000", "100018.105000", "100020.105000", "100022.105000", "100024.105000", "100026.105000", "100028.105000", "100030.105000", "100032.105000", "100034.105000", "100036.105000", "100038.105000", "100040.105000", "100042.105000", "100044.105000", "100046.105000", "100048.105000", "100050.105000", "100052.105000", "100054.105000", "100056.105000", "100058.105000", "100100.105000", "100102.105000", "100104.105000", "100106.105000", "100108.105000", "100110.105000", "100112.105000", "100114.105000", "100116.105000", "100118.105000", "100120.105000", "100122.105000", "100124.105000", "100126.105000", "100128.105000", "100130.105000", "100132.105000", "100134.105000", "100136.105000", "100138.105000", "100140.105000", "100142.105000", "100144.105000", "100146.105000", "100148.105000", "100150.105000", "100152.105000", "100154.105000", "100156.105000", "100158.105000", "100200.105000", "100202.105000", "100204.105000", "100206.105000", "100208.105000", "100210.105000", "100212.105000", "100214.105000", "100216.105000", "100218.105000", "100220.105000", "100222.105000", "100224.105000", "100226.105000", "100228.105000", "100230.105000", "100232.105000", "100234.105000", "100236.105000", "100238.105000", "100240.105000", "100242.105000", "100244.105000", "100246.105000", "100248.105000", "100250.105000", "100252.105000", "100254.105000", "100256.105000", "100258.105000", "100300.105000", "100302.105000", "100304.105000", "100306.105000", "100308.105000", "100310.105000", "100312.105000", "100314.105000", "100316.105000", "100318.105000", "100320.105000", "100322.105000", "100324.105000", "100326.105000", "100328.105000", "100330.105000", "100332.105000", "100334.105000", "100336.105000", "100338.105000", "100340.105000", "100342.105000", "100344.105000", "100346.105000", "100348.105000", "100350.105000", "100352.105000", "100354.105000", "100356.105000", "100358.105000", "100400.105000", "100402.105000", "100404.105000", "100406.105000", "100408.105000", "100410.105000", "100412.105000", "100414.105000", "100416.105000", "100418.105000", "100420.105000", "100422.105000", "100424.105000", "100426.105000", "100428.105000", "100430.105000", "100432.105000", "100434.105000", "100436.105000", "100438.105000", "100440.105000", "100442.105000", "100444.105000", "100446.105000", "100448.105000", "100450.105000", "100452.105000", "100454.105000", "100456.105000", "100458.105000", "100500.105000", "100502.105000", "100504.105000", "100506.105000", "100508.105000", "100510.105000", "100512.105000", "100514.105000", "100516.105000", "100518.105000", "100520.105000", "100522.105000", "100524.105000", "100526.105000", "100528.105000", "100530.105000", "100532.105000", "100534.105000", "100536.105000", "100538.105000", "100540.105000", "100542.105000", "100544.105000", "100546.105000", "100548.105000", "100550.105000", "100552.105000", "100554.105000", "100556.105000", "100558.105000", "100600.105000", "100602.105000", "100604.105000", "100606.105000", "100608.105000", "100610.105000", "100612.105000", "100614.105000", "100616.105000"],
      "ContentTime": ["100021.602000", "100021.605000", "100021.608000", "100021.610000", "100021.612000", "100021.615000", "100021.617000", "100021.619000", "100021.622000", "100021.624000", "100021.626000", "100021.628000", "100021.637000", "100021.643000", "100021.645000", "100021.648000", "100021.657000", "100021.659000", "100021.662000", "100021.664000", "100021.666000", "100021.669000", "100101.598000", "100101.600000", "100101.603000", "100101.605000", "100101.607000", "100101.610000", "100101.612000", "100101.614000", "100101.617000", "100101.619000", "100101.621000", "100101.623000", "100101.626000", "100101.628000", "100101.630000", "100101.633000", "100101.635000", "100101.637000", "100101.640000", "100101.649000", "100141.607000", "100141.614000", "100141.616000", "100141.618000", "100141.620000", "100141.623000", "100141.625000", "100141.627000", "100141.630000", "100141.632000", "100141.634000", "100141.636000", "100141.639000", "100141.641000", "100141.643000", "100141.646000", "100141.648000", "100141.650000", "100141.652000", "100141.655000", "100221.596000", "100221.599000", "100221.601000", "100221.604000", "100221.606000", "100221.608000", "100221.610000", "100221.613000", "100221.615000", "100221.617000", "100221.620000", "100221.622000", "100221.624000", "100221.627000", "100221.629000", "100221.631000", "100221.633000", "100221.636000", "100221.638000", "100221.640000", "100301.597000", "100301.600000", "100301.602000", "100301.605000", "100301.607000", "100301.609000", "100301.612000", "100301.614000", "100301.616000", "100301.619000", "100301.621000", "100301.623000", "100301.625000", "100301.628000", "100301.630000", "100301.632000", "100301.635000", "100301.637000", "100301.639000", "100301.642000", "100341.597000", "100341.600000", "100341.602000", "100341.605000", "100341.607000", "100341.609000", "100341.612000", "100341.614000", "100341.616000", "100341.619000", "100341.621000", "100341.623000", "100341.635000", "100341.637000", "100341.639000", "100341.642000", "100341.644000", "100341.646000", "100341.649000", "100341.651000", "100421.596000", "100421.599000", "100421.601000", "100421.604000", "100421.606000", "100421.609000", "100421.611000", "100421.613000", "100421.616000", "100421.618000", "100421.620000", "100421.623000", "100421.625000", "100421.628000", "100421.630000", "100421.632000", "100421.635000", "100421.637000", "100421.640000", "100421.642000", "100501.597000", "100501.600000", "100501.602000", "100501.605000", "100501.607000", "100501.609000", "100501.612000", "100501.614000", "100501.616000", "100501.619000", "100501.621000", "100501.623000", "100501.626000", "100501.628000", "100501.630000", "100501.633000", "100501.635000", "100501.637000", "100501.640000", "100501.642000", "100541.597000", "100541.600000", "100541.607000", "100541.610000", "100541.612000", "100541.614000", "100541.617000", "100541.619000", "100541.621000", "100541.624000", "100541.626000", "100541.628000", "100541.631000", "100541.633000", "100541.635000", "100541.638000", "100541.640000", "100541.642000", "100541.645000", "100541.647000", "100617.080000", "100617.083000", "100617.086000", "100617.089000", "100617.091000", "100617.093000", "100617.096000", "100617.098000", "100617.100000", "100617.103000", "100617.105000", "100617.108000", "100617.110000", "100617.112000", "100617.115000", "100617.117000", "100617.119000", "100617.122000"],
      "InstanceCreationTime": ["100021.602000", "100021.605000", "100021.608000", "100021.610000", "100021.612000", "100021.615000", "100021.617000", "100021.619000", "100021.622000", "100021.624000", "100021.626000", "100021.628000", "100021.637000", "100021.643000", "100021.645000", "100021.648000", "100021.657000", "100021.659000", "100021.662000", "100021.664000", "100021.666000", "100021.669000", "100101.598000", "100101.600000", "100101.603000", "100101.605000", "100101.607000", "100101.610000", "100101.612000", "100101.614000", "100101.617000", "100101.619000", "100101.621000", "100101.623000", "100101.626000", "100101.628000", "100101.630000", "100101.633000", "100101.635000", "100101.637000", "100101.640000", "100101.649000", "100141.607000", "100141.614000", "100141.616000", "100141.618000", "100141.620000", "100141.623000", "100141.625000", "100141.627000", "100141.630000", "100141.632000", "100141.634000", "100141.636000", "100141.639000", "100141.641000", "100141.643000", "100141.646000", "100141.648000", "100141.650000", "100141.652000", "100141.655000", "100221.596000", "100221.599000", "100221.601000", "100221.604000", "100221.606000", "100221.608000", "100221.610000", "100221.613000", "100221.615000", "100221.617000", "100221.620000", "100221.622000", "100221.624000", "100221.627000", "100221.629000", "100221.631000", "100221.633000", "100221.636000", "100221.638000", "100221.640000", "100301.597000", "100301.600000", "100301.602000", "100301.605000", "100301.607000", "100301.609000", "100301.612000", "100301.614000", "100301.616000", "100301.619000", "100301.621000", "100301.623000", "100301.625000", "100301.628000", "100301.630000", "100301.632000", "100301.635000", "100301.637000", "100301.639000", "100301.642000", "100341.597000", "100341.600000", "100341.602000", "100341.605000", "100341.607000", "100341.609000", "100341.612000", "100341.614000", "100341.616000", "100341.619000", "100341.621000", "100341.623000", "100341.635000", "100341.637000", "100341.639000", "100341.642000", "100341.644000", "100341.646000", "100341.649000", "100341.651000", "100421.596000", "100421.599000", "100421.601000", "100421.604000", "100421.606000", "100421.609000", "100421.611000", "100421.613000", "100421.616000", "100421.618000", "100421.620000", "100421.623000", "100421.625000", "100421.628000", "100421.630000", "100421.632000", "100421.635000", "100421.637000", "100421.640000", "100421.642000", "100501.597000", "100501.600000", "100501.602000", "100501.605000", "100501.607000", "100501.609000", "100501.612000", "100501.614000", "100501.616000", "100501.619000", "100501.621000", "100501.623000", "100501.626000", "100501.628000", "100501.630000", "100501.633000", "100501.635000", "100501.637000", "100501.640000", "100501.642000", "100541.597000", "100541.600000", "100541.607000", "100541.610000", "100541.612000", "100541.614000", "100541.617000", "100541.619000", "100541.621000", "100541.624000", "100541.626000", "100541.628000", "100541.631000", "100541.633000", "100541.635000", "100541.638000", "100541.640000", "100541.642000", "100541.645000", "100541.647000", "100617.080000", "100617.083000", "100617.086000", "100617.089000", "100617.091000", "100617.093000", "100617.096000", "100617.098000", "100617.100000", "100617.103000", "100617.105000", "100617.108000", "100617.110000", "100617.112000", "100617.115000", "100617.117000", "100617.119000", "100617.122000"],
      "InstanceNumber": [1, 2, 3, 4, 5, 6, 7, 8, 9, 10, 11, 12, 13, 14, 15, 16, 17, 18, 19, 20, 21, 22, 23, 24, 25, 26, 27, 28, 29, 30, 31, 32, 33, 34, 35, 36, 37, 38, 39, 40, 41, 42, 43, 44, 45, 46, 47, 48, 49, 50, 51, 52, 53, 54, 55, 56, 57, 58, 59, 60, 61, 62, 63, 64, 65, 66, 67, 68, 69, 70, 71, 72, 73, 74, 75, 76, 77, 78, 79, 80, 81, 82, 83, 84, 85, 86, 87, 88, 89, 90, 91, 92, 93, 94, 95, 96, 97, 98, 99, 100, 101, 102, 103, 104, 105, 106, 107, 108, 109, 110, 111, 112, 113, 114, 115, 116, 117, 118, 119, 120, 121, 122, 123, 124, 125, 126, 127, 128, 129, 130, 131, 132, 133, 134, 135, 136, 137, 138, 139, 140, 141, 142, 143, 144, 145, 146, 147, 148, 149, 150, 151, 152, 153, 154, 155, 156, 157, 158, 159, 160, 161, 162, 163, 164, 165, 166, 167, 168, 169, 170, 171, 172, 173, 174, 175, 176, 177, 178, 179, 180, 181, 182, 183, 184, 185, 186, 187, 188, 189, 190, 191, 192, 193, 194, 195, 196, 197, 198, 199, 200],
      "LargestImagePixelValue": [2285, 2289, 2286, 2285, 2288, 2288, 2289, 2286, 2285, 2289, 2286, 2288, 2283, 2286, 2291, 2291, 2290, 2288, 2289, 2288, 2294, 2290, 2287, 2286, 2284, 2290, 2291, 2284, 2290, 2292, 2294, 2290, 2285, 2288, 2292, 2291, 2285, 2290, 2288, 2296, 2290, 2287, 2285, 2290, 2287, 2287, 2287, 2293, 2293, 2293, 2289, 2290, 2293, 2290, 2291, 2286, 2289, 2293, 2294, 2288, 2291, 2293, 2294, 2292, 2294, 2290, 2293, 2290, 2289, 2289, 2289, 2296, 2293, 2294, 2291, 2294, 2290, 2292, 2286, 2291, 2295, 2295, 2293, 2290, 2288, 2296, 2289, 2292, 2292, 2294, 2295, 2290, 2289, 2291, 2292, 2293, 2287, 2291, 2293, 2295, 2292, 2291, 2289, 2294, 2293, 2291, 2294, 2294, 2291, 2297, 2291, 2286, 2295, 2295, 2294, 2294, 2289, 2291, 2293, 2289, 2289, 2295, 2293, 2291, 2290, 2288, 2294, 2294, 2290, 2293, 2290, 2295, 2292, 2288, 2286, 2290, 2290, 2290, 2289, 2289, 2288, 2292, 2289, 2288, 2289, 2293, 2290, 2289, 2291, 2292, 2294, 2292, 2294, 2290, 2298, 2289, 2291, 2290, 2287, 2296, 2291, 2288, 2290, 2288, 2290, 2291, 2287, 2288, 2293, 2289, 2289, 2289, 2291, 2296, 2290, 2286, 2290, 2292, 2291, 2292, 2293, 2290, 2293, 2289, 2289, 2289, 2290, 2292, 2293, 2289, 2289, 2292, 2296, 2289, 2288, 2289, 2292, 2292, 2289, 2287],
      "WindowCenter": [980.0, 978.0, 978.0, 978.0, 980.0, 980.0, 979.0, 978.0, 978.0, 980.0, 978.0, 978.0, 979.0, 980.0, 979.0, 980.0, 979.0, 980.0, 978.0, 978.0, 979.0, 979.0, 979.0, 978.0, 978.0, 980.0, 979.0, 979.0, 980.0, 980.0, 980.0, 980.0, 980.0, 980.0, 981.0, 979.0, 979.0, 979.0, 979.0, 978.0, 980.0, 979.0, 979.0, 980.0, 979.0, 979.0, 981.0, 980.0, 978.0, 980.0, 979.0, 979.0, 979.0, 980.0, 979.0, 980.0, 979.0, 980.0, 979.0, 980.0, 978.0, 978.0, 980.0, 980.0, 979.0, 979.0, 980.0, 979.0, 980.0, 979.0, 980.0, 979.0, 979.0, 979.0, 980.0, 981.0, 979.0, 978.0, 979.0, 979.0, 979.0, 981.0, 980.0, 980.0, 979.0, 980.0, 981.0, 980.0, 979.0, 980.0, 979.0, 979.0, 979.0, 980.0, 979.0, 980.0, 980.0, 980.0, 979.0, 981.0, 978.0, 980.0, 980.0, 978.0, 979.0, 979.0, 980.0, 980.0, 979.0, 979.0, 978.0, 979.0, 980.0, 980.0, 979.0, 981.0, 980.0, 979.0, 978.0, 980.0, 978.0, 980.0, 981.0, 979.0, 979.0, 981.0, 980.0, 978.0, 980.0, 979.0, 978.0, 978.0, 980.0, 979.0, 979.0, 979.0, 980.0, 980.0, 979.0, 980.0, 979.0, 978.0, 978.0, 981.0, 980.0, 980.0, 980.0, 980.0, 978.0, 980.0, 979.0, 978.0, 979.0, 979.0, 980.0, 981.0, 979.0, 978.0, 979.0, 978.0, 978.0, 978.0, 980.0, 978.0, 979.0, 979.0, 978.0, 979.0, 979.0, 980.0, 978.0, 979.0, 978.0, 978.0, 978.0, 979.0, 979.0, 980.0, 979.0, 978.0, 980.0, 980.0, 980.0, 981.0, 979.0, 979.0, 980.0, 980.0, 978.0, 981.0, 980.0, 981.0, 978.0, 979.0, 979.0, 978.0, 979.0, 980.0, 980.0, 980.0],
      "WindowWidth": [2328.0, 2327.0, 2327.0, 2327.0, 2328.0, 2328.0, 2327.0, 2327.0, 2327.0, 2328.0, 2326.0, 2327.0, 2327.0, 2328.0, 2327.0, 2329.0, 2328.0, 2328.0, 2327.0, 2327.0, 2327.0, 2328.0, 2327.0, 2326.0, 2326.0, 2328.0, 2327.0, 2327.0, 2328.0, 2328.0, 2328.0, 2328.0, 2328.0, 2328.0, 2329.0, 2327.0, 2327.0, 2327.0, 2328.0, 2326.0, 2328.0, 2327.0, 2327.0, 2328.0, 2327.0, 2327.0, 2329.0, 2328.0, 2326.0, 2328.0, 2327.0, 2327.0, 2327.0, 2328.0, 2327.0, 2328.0, 2327.0, 2328.0, 2327.0, 2328.0, 2326.0, 2326.0, 2328.0, 2328.0, 2327.0, 2327.0, 2328.0, 2327.0, 2328.0, 2327.0, 2328.0, 2327.0, 2327.0, 2327.0, 2328.0, 2328.0, 2327.0, 2326.0, 2327.0, 2327.0, 2327.0, 2329.0, 2328.0, 2328.0, 2326.0, 2328.0, 2329.0, 2328.0, 2327.0, 2327.0, 2326.0, 2327.0, 2326.0, 2327.0, 2327.0, 2328.0, 2327.0, 2327.0, 2326.0, 2328.0, 2326.0, 2327.0, 2327.0, 2326.0, 2327.0, 2326.0, 2327.0, 2327.0, 2327.0, 2327.0, 2326.0, 2326.0, 2327.0, 2328.0, 2326.0, 2328.0, 2327.0, 2326.0, 2325.0, 2327.0, 2325.0, 2327.0, 2328.0, 2326.0, 2326.0, 2328.0, 2328.0, 2325.0, 2327.0, 2326.0, 2325.0, 2325.0, 2327.0, 2326.0, 2326.0, 2326.0, 2327.0, 2327.0, 2326.0, 2327.0, 2326.0, 2325.0, 2326.0, 2328.0, 2327.0, 2327.0, 2327.0, 2326.0, 2325.0, 2327.0, 2326.0, 2325.0, 2326.0, 2326.0, 2327.0, 2328.0, 2326.0, 2325.0, 2326.0, 2325.0, 2325.0, 2325.0, 2326.0, 2325.0, 2326.0, 2326.0, 2325.0, 2326.0, 2326.0, 2327.0, 2325.0, 2325.0, 2325.0, 2325.0, 2325.0, 2326.0, 2325.0, 2327.0, 2326.0, 2325.0, 2326.0, 2326.0, 2327.0, 2328.0, 2326.0, 2326.0, 2327.0, 2326.0, 2325.0, 2328.0, 2326.0, 2328.0, 2325.0, 2326.0, 2325.0, 2325.0, 2325.0, 2326.0, 2326.0, 2326.0]
    },
    "slices": {}
  }
}