{
  "AcquisitionMatrixPE": 80,
  "AcquisitionNumber": 1,
  "AcquisitionTime": "10:59:43.407500",
  "BandwidthPerPixelPhaseEncode": 25,
  "BaseResolution": 80,
  "BodyPartExamined": "BRAIN",
  "CoilCombinationMethod": "Sum of Squares",
  "ConsistencyInfo": "N4_VE11E_LATEST_20181129",
  "ConversionSoftware": "dcm2niix",
  "ConversionSoftwareVersion": "v1.0.20220720",
  "DerivedVendorReportedEchoSpacing": 0.0005,
  "DeviceSerialNumber": "66112",
  "DwellTime": 2.7e-06,
  "EchoTime": 0.03,
  "EchoTrainLength": 80,
  "EffectiveEchoSpacing": 0.0005,
  "FlipAngle": 77,
  "HeudiconvVersion": "0.13.1",
  "ImageOrientationPatientDICOM": [0.990908, 0.134415, 0.00577381, -0.129752, 0.943421, 0.305157],
  "ImageOrientationText": "Tra>Cor(17.7)>Sag(-2.0)",
  "ImageType": [
    "ORIGINAL",
    "PRIMARY",
    "M",
    "ND",
    "NORM",
    "MOSAIC"
],
  "ImagingFrequency": 123.261,
  "InPlanePhaseEncodingDirectionDICOM": "COL",
  "InstitutionAddress": "Maynard 3,Hanover,NH,US,03755",
  "InstitutionName": "Dartmouth College - PBS",
  "InstitutionalDepartmentName": "Department",
  "MRAcquisitionType": "2D",
  "MagneticFieldStrength": 3,
  "Manufacturer": "Siemens",
  "ManufacturersModelName": "Prisma",
  "MatrixCoilMode": "SENSE",
  "Modality": "MR",
  "NonlinearGradientCorrection": false,
  "PartialFourier": 1,
  "PatientPosition": "HFS",
  "PercentPhaseFOV": 100,
  "PercentSampling": 100,
  "PhaseEncodingDirection": "j-",
  "PhaseEncodingSteps": 80,
  "PhaseResolution": 1,
  "PixelBandwidth": 2315,
  "ProcedureStepDescription": "dbic^QA",
  "ProtocolName": "func-bold_fa-77",
  "PulseSequenceDetails": "%SiemensSeq%\\ep2d_bold",
  "ReceiveCoilActiveElements": "HEA;HEP",
  "ReceiveCoilName": "Head_32",
  "ReconMatrixPE": 80,
  "RepetitionTime": 2,
  "SAR": 0.0369052,
  "ScanOptions": "FS",
  "ScanningSequence": "EP",
  "SequenceName": "*epfid2d1_80",
  "SequenceVariant": "SK",
  "SeriesDescription": "func-bold_fa-77",
  "SeriesNumber": 7,
  "ShimSetting": [4247, -7732, -7484, -18, -181, -56, -4, 76],
  "SliceThickness": 3.5,
  "SliceTiming": [0.99, 0, 1.055, 0.065, 1.12, 0.1325, 1.1875, 0.1975, 1.2525, 0.2625, 1.32, 0.33, 1.385, 0.395, 1.45, 0.4625, 1.5175, 0.5275, 1.5825, 0.5925, 1.65, 0.66, 1.715, 0.725, 1.78, 0.7925, 1.8475, 0.8575, 1.9125, 0.9225],
  "SoftwareVersions": "syngo MR E11",
  "SpacingBetweenSlices": 3.99,
  "StationName": "AWP66112",
  "TotalReadoutTime": 0.0395,
  "TxRefAmp": 222.953,
  "dcmmeta_affine": [
    [-2.9727249145507812, -0.38925546407699585, -0.14192689955234528, 136.2367401123047],
    [-0.40324586629867554, 2.830263614654541, 1.209496259689331, -108.74072265625],
    [0.01732143759727478, -0.9154714345932007, 3.7996153831481934, -19.582439422607422],
    [0.0, 0.0, 0.0, 1.0]
],
  "dcmmeta_reorient_transform": [
    [0.0, -1.0, 0.0, 79.0],
    [1.0, 0.0, 0.0, 0.0],
    [0.0, 0.0, 1.0, 0.0],
    [0.0, 0.0, 0.0, 1.0]
],
  "dcmmeta_shape": [80, 80, 30, 200],
  "dcmmeta_slice_dim": 2,
  "dcmmeta_version": 0.6,
  "global": {
    "const": {
      "AccessionNumber": "qa",
      "AcquisitionMatrix": [80, 0, 0, 80],
      "AngioFlag": "N",
      "BitsAllocated": 16,
      "BitsStored": 12,
      "BodyPartExamined": "BRAIN",
      "Columns": 480,
      "EchoNumbers": 1,
      "EchoTime": 30.0,
      "EchoTrainLength": 80,
      "FlipAngle": 77.0,
      "HighBit": 11,
      "ImageOrientationPatient": [0.99090826650231, 0.1344152910561, 0.00577381223247, -0.1297518257537, 0.94342121116297, 0.30515714319243],
      "ImagePositionPatient": [-622.17942021402, -761.55200526106, -278.46325589299],
      "ImageType": [
        "ORIGINAL",
        "PRIMARY",
        "M",
        "ND",
        "NORM",
        "MOSAIC"
],
      "ImagedNucleus": "1H",
      "ImagingFrequency": 123.261266,
      "InPlanePhaseEncodingDirection": "COL",
      "MRAcquisitionType": "2D",
      "MagneticFieldStrength": 3.0,
      "Manufacturer": "SIEMENS",
      "ManufacturerModelName": "Prisma",
      "Modality": "MR",
      "NumberOfAverages": 1.0,
      "NumberOfPhaseEncodingSteps": 80,
      "PercentPhaseFieldOfView": 100.0,
      "PercentSampling": 100.0,
      "PerformedProcedureStepStartTime": "103622.365000",
      "PhotometricInterpretation": "MONOCHROME2",
      "PixelBandwidth": 2315.0,
      "PixelRepresentation": 0,
      "PixelSpacing": [3.0, 3.0],
      "ProtocolName": "func-bold_fa-77",
      "RepetitionTime": 2000.0,
      "Rows": 480,
      "SAR": 0.03690524053826,
      "SamplesPerPixel": 1,
      "ScanOptions": "FS",
      "ScanningSequence": "EP",
      "SequenceName": "*epfid2d1_80",
      "SequenceVariant": "SK",
      "SeriesDescription": "func-bold_fa-77",
      "SeriesNumber": 7,
      "SeriesTime": "110015.671000",
      "SliceLocation": -56.456865005974,
      "SliceThickness": 3.5,
      "SmallestImagePixelValue": 0,
      "SoftwareVersions": "syngo MR E11",
      "SpacingBetweenSlices": 3.9900001011241,
      "SpecificCharacterSet": "ISO_IR 100",
      "StudyID": "33",
      "StudyTime": "103622.305000",
      "TransmitCoilName": "Body",
      "VariableFlipAngleFlag": "N",
      "WindowCenterWidthExplanation": "Algo1"
    },
    "slices": {}
  },
  "time": {
    "samples": {
      "AcquisitionNumber": [1, 2, 3, 4, 5, 6, 7, 8, 9, 10, 11, 12, 13, 14, 15, 16, 17, 18, 19, 20, 21, 22, 23, 24, 25, 26, 27, 28, 29, 30, 31, 32, 33, 34, 35, 36, 37, 38, 39, 40, 41, 42, 43, 44, 45, 46, 47, 48, 49, 50, 51, 52, 53, 54, 55, 56, 57, 58, 59, 60, 61, 62, 63, 64, 65, 66, 67, 68, 69, 70, 71, 72, 73, 74, 75, 76, 77, 78, 79, 80, 81, 82, 83, 84, 85, 86, 87, 88, 89, 90, 91, 92, 93, 94, 95, 96, 97, 98, 99, 100, 101, 102, 103, 104, 105, 106, 107, 108, 109, 110, 111, 112, 113, 114, 115, 116, 117, 118, 119, 120, 121, 122, 123, 124, 125, 126, 127, 128, 129, 130, 131, 132, 133, 134, 135, 136, 137, 138, 139, 140, 141, 142, 143, 144, 145, 146, 147, 148, 149, 150, 151, 152, 153, 154, 155, 156, 157, 158, 159, 160, 161, 162, 163, 164, 165, 166, 167, 168, 169, 170, 171, 172, 173, 174, 175, 176, 177, 178, 179, 180, 181, 182, 183, 184, 185, 186, 187, 188, 189, 190, 191, 192, 193, 194, 195, 196, 197, 198, 199, 200],
      "AcquisitionTime": ["105943.407500", "105945.407500", "105947.407500", "105949.407500", "105951.407500", "105953.407500", "105955.407500", "105957.407500", "105959.407500", "110001.407500", "110003.407500", "110005.407500", "110007.407500", "110009.407500", "110011.407500", "110013.407500", "110015.407500", "110017.407500", "110019.407500", "110021.407500", "110023.407500", "110025.407500", "110027.407500", "110029.407500", "110031.407500", "110033.407500", "110035.407500", "110037.407500", "110039.407500", "110041.407500", "110043.407500", "110045.407500", "110047.407500", "110049.407500", "110051.407500", "110053.407500", "110055.407500", "110057.407500", "110059.407500", "110101.407500", "110103.407500", "110105.407500", "110107.407500", "110109.407500", "110111.407500", "110113.407500", "110115.407500", "110117.407500", "110119.407500", "110121.407500", "110123.407500", "110125.407500", "110127.407500", "110129.407500", "110131.407500", "110133.407500", "110135.407500", "110137.407500", "110139.407500", "110141.407500", "110143.407500", "110145.407500", "110147.407500", "110149.407500", "110151.407500", "110153.407500", "110155.407500", "110157.407500", "110159.407500", "110201.407500", "110203.407500", "110205.407500", "110207.407500", "110209.407500", "110211.407500", "110213.407500", "110215.407500", "110217.407500", "110219.407500", "110221.407500", "110223.407500", "110225.407500", "110227.407500", "110229.407500", "110231.407500", "110233.407500", "110235.407500", "110237.407500", "110239.407500", "110241.407500", "110243.407500", "110245.407500", "110247.407500", "110249.407500", "110251.407500", "110253.407500", "110255.407500", "110257.407500", "110259.407500", "110301.407500", "110303.407500", "110305.407500", "110307.407500", "110309.407500", "110311.407500", "110313.407500", "110315.407500", "110317.407500", "110319.407500", "110321.407500", "110323.407500", "110325.407500", "110327.407500", "110329.407500", "110331.407500", "110333.407500", "110335.407500", "110337.407500", "110339.407500", "110341.407500", "110343.407500", "110345.407500", "110347.407500", "110349.407500", "110351.407500", "110353.407500", "110355.407500", "110357.407500", "110359.407500", "110401.407500", "110403.407500", "110405.407500", "110407.407500", "110409.407500", "110411.407500", "110413.407500", "110415.407500", "110417.407500", "110419.407500", "110421.407500", "110423.407500", "110425.407500", "110427.407500", "110429.407500", "110431.407500", "110433.407500", "110435.407500", "110437.407500", "110439.407500", "110441.407500", "110443.407500", "110445.407500", "110447.407500", "110449.407500", "110451.407500", "110453.407500", "110455.407500", "110457.407500", "110459.407500", "110501.407500", "110503.407500", "110505.407500", "110507.407500", "110509.407500", "110511.407500", "110513.407500", "110515.407500", "110517.407500", "110519.407500", "110521.407500", "110523.407500", "110525.407500", "110527.407500", "110529.407500", "110531.407500", "110533.407500", "110535.407500", "110537.407500", "110539.407500", "110541.407500", "110543.407500", "110545.407500", "110547.407500", "110549.407500", "110551.407500", "110553.407500", "110555.407500", "110557.407500", "110559.407500", "110601.407500", "110603.407500", "110605.407500", "110607.407500", "110609.407500", "110611.407500", "110613.407500", "110615.407500", "110617.407500", "110619.407500", "110621.407500"],
      "ContentTime": ["110015.675000", "110015.678000", "110015.680000", "110015.682000", "110015.685000", "110015.687000", "110015.689000", "110015.691000", "110015.694000", "110015.696000", "110015.698000", "110015.701000", "110015.703000", "110015.705000", "110015.707000", "110015.710000", "110055.670000", "110055.673000", "110055.675000", "110055.677000", "110055.679000", "110055.682000", "110055.684000", "110055.686000", "110055.689000", "110055.691000", "110055.693000", "110055.696000", "110055.698000", "110055.700000", "110055.702000", "110055.705000", "110055.707000", "110055.709000", "110055.711000", "110055.714000", "110135.669000", "110135.672000", "110135.674000", "110135.676000", "110135.679000", "110135.681000", "110135.683000", "110135.685000", "110135.688000", "110135.690000", "110135.692000", "110135.695000", "110135.697000", "110135.699000", "110135.701000", "110135.704000", "110135.706000", "110135.708000", "110135.711000", "110135.713000", "110215.670000", "110215.672000", "110215.675000", "110215.677000", "110215.679000", "110215.682000", "110215.684000", "110215.686000", "110215.688000", "110215.691000", "110215.693000", "110215.695000", "110215.698000", "110215.700000", "110215.702000", "110215.704000", "110215.707000", "110215.709000", "110215.711000", "110215.714000", "110255.670000", "110255.673000", "110255.675000", "110255.677000", "110255.679000", "110255.682000", "110255.684000", "110255.686000", "110255.689000", "110255.691000", "110255.693000", "110255.695000", "110255.698000", "110255.700000", "110255.702000", "110255.704000", "110255.707000", "110255.709000", "110255.711000", "110255.714000", "110335.670000", "110335.673000", "110335.675000", "110335.677000", "110335.680000", "110335.682000", "110335.684000", "110335.687000", "110335.689000", "110335.691000", "110335.693000", "110335.696000", "110335.698000", "110335.700000", "110335.703000", "110335.705000", "110335.707000", "110335.709000", "110335.712000", "110335.714000", "110415.670000", "110415.673000", "110415.675000", "110415.677000", "110415.680000", "110415.682000", "110415.684000", "110415.686000", "110415.689000", "110415.691000", "110415.693000", "110415.696000", "110415.698000", "110415.700000", "110415.702000", "110415.705000", "110415.707000", "110415.709000", "110415.711000", "110415.714000", "110455.670000", "110455.673000", "110455.675000", "110455.677000", "110455.680000", "110455.682000", "110455.684000", "110455.687000", "110455.689000", "110455.691000", "110455.693000", "110455.696000", "110455.698000", "110455.700000", "110455.703000", "110455.705000", "110455.707000", "110455.709000", "110455.712000", "110455.714000", "110535.670000", "110535.673000", "110535.675000", "110535.677000", "110535.679000", "110535.682000", "110535.684000", "110535.686000", "110535.689000", "110535.691000", "110535.693000", "110535.696000", "110535.698000", "110535.700000", "110535.702000", "110535.705000", "110535.707000", "110535.709000", "110535.712000", "110535.714000", "110615.669000", "110615.672000", "110615.674000", "110615.676000", "110615.679000", "110615.681000", "110615.683000", "110615.685000", "110615.688000", "110615.690000", "110615.692000", "110615.695000", "110615.697000", "110615.699000", "110615.701000", "110615.704000", "110615.706000", "110615.708000", "110615.710000", "110615.713000", "110623.445000", "110623.447000", "110623.450000", "110623.453000"],
      "InstanceCreationTime": ["110015.675000", "110015.678000", "110015.680000", "110015.682000", "110015.685000", "110015.687000", "110015.689000", "110015.691000", "110015.694000", "110015.696000", "110015.698000", "110015.701000", "110015.703000", "110015.705000", "110015.707000", "110015.710000", "110055.670000", "110055.673000", "110055.675000", "110055.677000", "110055.679000", "110055.682000", "110055.684000", "110055.686000", "110055.689000", "110055.691000", "110055.693000", "110055.696000", "110055.698000", "110055.700000", "110055.702000", "110055.705000", "110055.707000", "110055.709000", "110055.711000", "110055.714000", "110135.669000", "110135.672000", "110135.674000", "110135.676000", "110135.679000", "110135.681000", "110135.683000", "110135.685000", "110135.688000", "110135.690000", "110135.692000", "110135.695000", "110135.697000", "110135.699000", "110135.701000", "110135.704000", "110135.706000", "110135.708000", "110135.711000", "110135.713000", "110215.670000", "110215.672000", "110215.675000", "110215.677000", "110215.679000", "110215.682000", "110215.684000", "110215.686000", "110215.688000", "110215.691000", "110215.693000", "110215.695000", "110215.698000", "110215.700000", "110215.702000", "110215.704000", "110215.707000", "110215.709000", "110215.711000", "110215.714000", "110255.670000", "110255.673000", "110255.675000", "110255.677000", "110255.679000", "110255.682000", "110255.684000", "110255.686000", "110255.689000", "110255.691000", "110255.693000", "110255.695000", "110255.698000", "110255.700000", "110255.702000", "110255.704000", "110255.707000", "110255.709000", "110255.711000", "110255.714000", "110335.670000", "110335.673000", "110335.675000", "110335.677000", "110335.680000", "110335.682000", "110335.684000", "110335.687000", "110335.689000", "110335.691000", "110335.693000", "110335.696000", "110335.698000", "110335.700000", "110335.703000", "110335.705000", "110335.707000", "110335.709000", "110335.712000", "110335.714000", "110415.670000", "110415.673000", "110415.675000", "110415.677000", "110415.680000", "110415.682000", "110415.684000", "110415.686000", "110415.689000", "110415.691000", "110415.693000", "110415.696000", "110415.698000", "110415.700000", "110415.702000", "110415.705000", "110415.707000", "110415.709000", "110415.711000", "110415.714000", "110455.670000", "110455.673000", "110455.675000", "110455.677000", "110455.680000", "110455.682000", "110455.684000", "110455.687000", "110455.689000", "110455.691000", "110455.693000", "110455.696000", "110455.698000", "110455.700000", "110455.703000", "110455.705000", "110455.707000", "110455.709000", "110455.712000", "110455.714000", "110535.670000", "110535.673000", "110535.675000", "110535.677000", "110535.679000", "110535.682000", "110535.684000", "110535.686000", "110535.689000", "110535.691000", "110535.693000", "110535.696000", "110535.698000", "110535.700000", "110535.702000", "110535.705000", "110535.707000", "110535.709000", "110535.712000", "110535.714000", "110615.669000", "110615.672000", "110615.674000", "110615.676000", "110615.679000", "110615.681000", "110615.683000", "110615.685000", "110615.688000", "110615.690000", "110615.692000", "110615.695000", "110615.697000", "110615.699000", "110615.701000", "110615.704000", "110615.706000", "110615.708000", "110615.710000", "110615.713000", "110623.445000", "110623.447000", "110623.450000", "110623.453000"],
      "InstanceNumber": [1, 2, 3, 4, 5, 6, 7, 8, 9, 10, 11, 12, 13, 14, 15, 16, 17, 18, 19, 20, 21, 22, 23, 24, 25, 26, 27, 28, 29, 30, 31, 32, 33, 34, 35, 36, 37, 38, 39, 40, 41, 42, 43, 44, 45, 46, 47, 48, 49, 50, 51, 52, 53, 54, 55, 56, 57, 58, 59, 60, 61, 62, 63, 64, 65, 66, 67, 68, 69, 70, 71, 72, 73, 74, 75, 76, 77, 78, 79, 80, 81, 82, 83, 84, 85, 86, 87, 88, 89, 90, 91, 92, 93, 94, 95, 96, 97, 98, 99, 100, 101, 102, 103, 104, 105, 106, 107, 108, 109, 110, 111, 112, 113, 114, 115, 116, 117, 118, 119, 120, 121, 122, 123, 124, 125, 126, 127, 128, 129, 130, 131, 132, 133, 134, 135, 136, 137, 138, 139, 140, 141, 142, 143, 144, 145, 146, 147, 148, 149, 150, 151, 152, 153, 154, 155, 156, 157, 158, 159, 160, 161, 162, 163, 164, 165, 166, 167, 168, 169, 170, 171, 172, 173, 174, 175, 176, 177, 178, 179, 180, 181, 182, 183, 184, 185, 186, 187, 188, 189, 190, 191, 192, 193, 194, 195, 196, 197, 198, 199, 200],
      "LargestImagePixelValue": [2173, 2170, 2172, 2173, 2171, 2172, 2170, 2170, 2171, 2172, 2171, 2170, 2171, 2171, 2171, 2172, 2173, 2170, 2174, 2170, 2173, 2174, 2172, 2171, 2172, 2173, 2170, 2171, 2170, 2170, 2170, 2170, 2171, 2172, 2170, 2172, 2172, 2172, 2172, 2173, 2172, 2171, 2173, 2171, 2173, 2174, 2172, 2172, 2171, 2173, 2172, 2174, 2171, 2173, 2173, 2173, 2171, 2171, 2173, 2172, 2171, 2173, 2171, 2172, 2171, 2172, 2173, 2171, 2172, 2173, 2172, 2174, 2172, 2174, 2174, 2173, 2171, 2173, 2173, 2173, 2174, 2174, 2173, 2172, 2170, 2170, 2173, 2171, 2173, 2172, 2171, 2172, 2172, 2172, 2172, 2171, 2173, 2173, 2171, 2171, 2171, 2173, 2171, 2172, 2172, 2171, 2171, 2173, 2173, 2171, 2173, 2172, 2173, 2172, 2172, 2173, 2173, 2173, 2174, 2171, 2171, 2172, 2170, 2173, 2173, 2171, 2173, 2173, 2173, 2174, 2172, 2172, 2171, 2173, 2173, 2173, 2172, 2175, 2172, 2173, 2170, 2172, 2174, 2171, 2173, 2174, 2172, 2172, 2173, 2173, 2170, 2173, 2173, 2173, 2171, 2173, 2172, 2174, 2173, 2172, 2171, 2174, 2174, 2171, 2172, 2173, 2176, 2172, 2172, 2172, 2174, 2173, 2172, 2174, 2173, 2172, 2171, 2173, 2173, 2172, 2174, 2172, 2172, 2174, 2174, 2173, 2175, 2174, 2172, 2170, 2171, 2173, 2173, 2175, 2174, 2172, 2173, 2173, 2174, 2172],
      "WindowCenter": [1013.0, 1013.0, 1013.0, 1011.0, 1014.0, 1013.0, 1013.0, 1012.0, 1012.0, 1013.0, 1013.0, 1012.0, 1013.0, 1012.0, 1013.0, 1013.0, 1013.0, 1013.0, 1012.0, 1012.0, 1012.0, 1013.0, 1012.0, 1012.0, 1012.0, 1012.0, 1012.0, 1012.0, 1011.0, 1013.0, 1012.0, 1012.0, 1012.0, 1012.0, 1011.0, 1011.0, 1012.0, 1012.0, 1012.0, 1013.0, 1011.0, 1012.0, 1011.0, 1013.0, 1011.0, 1012.0, 1011.0, 1013.0, 1012.0, 1012.0, 1012.0, 1012.0, 1011.0, 1011.0, 1012.0, 1010.0, 1013.0, 1012.0, 1013.0, 1013.0, 1013.0, 1011.0, 1012.0, 1012.0, 1012.0, 1010.0, 1011.0, 1011.0, 1013.0, 1012.0, 1011.0, 1012.0, 1012.0, 1012.0, 1011.0, 1012.0, 1012.0, 1014.0, 1012.0, 1010.0, 1013.0, 1012.0, 1012.0, 1013.0, 1011.0, 1012.0, 1013.0, 1012.0, 1012.0, 1012.0, 1012.0, 1012.0, 1011.0, 1011.0, 1012.0, 1011.0, 1012.0, 1011.0, 1013.0, 1011.0, 1012.0, 1011.0, 1011.0, 1011.0, 1011.0, 1011.0, 1011.0, 1012.0, 1010.0, 1011.0, 1011.0, 1011.0, 1010.0, 1011.0, 1011.0, 1011.0, 1010.0, 1010.0, 1010.0, 1011.0, 1011.0, 1010.0, 1011.0, 1011.0, 1011.0, 1011.0, 1011.0, 1011.0, 1011.0, 1012.0, 1011.0, 1011.0, 1012.0, 1012.0, 1011.0, 1011.0, 1011.0, 1010.0, 1010.0, 1010.0, 1010.0, 1010.0, 1011.0, 1011.0, 1011.0, 1011.0, 1011.0, 1011.0, 1011.0, 1011.0, 1010.0, 1010.0, 1009.0, 1011.0, 1010.0, 1010.0, 1010.0, 1011.0, 1010.0, 1011.0, 1011.0, 1011.0, 1012.0, 1010.0, 1011.0, 1012.0, 1011.0, 1010.0, 1010.0, 1011.0, 1011.0, 1011.0, 1010.0, 1010.0, 1011.0, 1012.0, 1011.0, 1011.0, 1009.0, 1012.0, 1009.0, 1012.0, 1011.0, 1011.0, 1011.0, 1012.0, 1011.0, 1011.0, 1012.0, 1011.0, 1012.0, 1012.0, 1010.0, 1010.0, 1010.0, 1010.0, 1011.0, 1011.0, 1011.0, 1010.0],
      "WindowWidth": [2258.0, 2258.0, 2258.0, 2256.0, 2258.0, 2258.0, 2258.0, 2257.0, 2257.0, 2259.0, 2257.0, 2257.0, 2257.0, 2257.0, 2257.0, 2258.0, 2257.0, 2258.0, 2257.0, 2257.0, 2257.0, 2258.0, 2257.0, 2257.0, 2257.0, 2257.0, 2257.0, 2257.0, 2256.0, 2258.0, 2257.0, 2257.0, 2257.0, 2257.0, 2256.0, 2256.0, 2257.0, 2257.0, 2257.0, 2258.0, 2256.0, 2257.0, 2256.0, 2258.0, 2256.0, 2257.0, 2256.0, 2258.0, 2256.0, 2256.0, 2257.0, 2257.0, 2256.0, 2256.0, 2257.0, 2255.0, 2257.0, 2257.0, 2257.0, 2257.0, 2257.0, 2255.0, 2256.0, 2256.0, 2256.0, 2255.0, 2255.0, 2255.0, 2257.0, 2256.0, 2255.0, 2256.0, 2256.0, 2256.0, 2255.0, 2256.0, 2256.0, 2257.0, 2256.0, 2254.0, 2257.0, 2256.0, 2256.0, 2257.0, 2255.0, 2256.0, 2257.0, 2256.0, 2256.0, 2256.0, 2256.0, 2256.0, 2255.0, 2255.0, 2256.0, 2255.0, 2256.0, 2256.0, 2257.0, 2256.0, 2256.0, 2255.0, 2255.0, 2255.0, 2256.0, 2256.0, 2255.0, 2255.0, 2255.0, 2256.0, 2255.0, 2255.0, 2255.0, 2255.0, 2255.0, 2255.0, 2255.0, 2255.0, 2255.0, 2255.0, 2255.0, 2254.0, 2255.0, 2255.0, 2255.0, 2255.0, 2255.0, 2255.0, 2255.0, 2255.0, 2255.0, 2255.0, 2255.0, 2255.0, 2255.0, 2255.0, 2255.0, 2254.0, 2254.0, 2254.0, 2254.0, 2254.0, 2255.0, 2255.0, 2255.0, 2255.0, 2255.0, 2255.0, 2255.0, 2255.0, 2254.0, 2254.0, 2253.0, 2254.0, 2254.0, 2254.0, 2254.0, 2254.0, 2254.0, 2254.0, 2254.0, 2254.0, 2255.0, 2254.0, 2254.0, 2255.0, 2254.0, 2254.0, 2254.0, 2254.0, 2254.0, 2254.0, 2254.0, 2254.0, 2254.0, 2255.0, 2254.0, 2254.0, 2253.0, 2255.0, 2253.0, 2255.0, 2254.0, 2254.0, 2254.0, 2255.0, 2254.0, 2254.0, 2254.0, 2254.0, 2255.0, 2255.0, 2253.0, 2253.0, 2253.0, 2253.0, 2254.0, 2254.0, 2254.0, 2253.0]
    },
    "slices": {}
  }
}