{
  "AcquisitionMatrixPE": 80,
  "AcquisitionNumber": 1,
  "AcquisitionTime": "10:52:54.085000",
  "BandwidthPerPixelPhaseEncode": 46.296,
  "BaseResolution": 80,
  "BodyPartExamined": "BRAIN",
  "CoilCombinationMethod": "Sum of Squares",
  "ConsistencyInfo": "N4_VE11E_LATEST_20181129",
  "ConversionSoftware": "dcm2niix",
  "ConversionSoftwareVersion": "v1.0.20220720",
  "DerivedVendorReportedEchoSpacing": 0.000540003,
  "DeviceSerialNumber": "66112",
  "DwellTime": 2.7e-06,
  "EchoTime": 0.035,
  "EchoTrainLength": 39,
  "EffectiveEchoSpacing": 0.000270002,
  "FlipAngle": 90,
  "HeudiconvVersion": "0.13.1",
  "ImageOrientationPatientDICOM": [0.990908, 0.134415, 0.00577381, -0.129752, 0.943421, 0.305157],
  "ImageOrientationText": "Tra>Cor(17.7)>Sag(-2.0)",
  "ImageType": [
    "ORIGINAL",
    "PRIMARY",
    "M",
    "ND",
    "NORM",
    "MOSAIC"
],
  "ImagingFrequency": 123.261,
  "InPlanePhaseEncodingDirectionDICOM": "COL",
  "InstitutionAddress": "Maynard 3,Hanover,NH,US,03755",
  "InstitutionName": "Dartmouth College - PBS",
  "InstitutionalDepartmentName": "Department",
  "MRAcquisitionType": "2D",
  "MagneticFieldStrength": 3,
  "Manufacturer": "Siemens",
  "ManufacturersModelName": "Prisma",
  "Modality": "MR",
  "MultibandAccelerationFactor": 4,
  "NonlinearGradientCorrection": false,
  "ParallelReductionFactorInPlane": 2,
  "PartialFourier": 1,
  "PatientPosition": "HFS",
  "PercentPhaseFOV": 100,
  "PercentSampling": 100,
  "PhaseEncodingDirection": "j-",
  "PhaseEncodingSteps": 79,
  "PhaseResolution": 1,
  "PixelBandwidth": 2315,
  "ProcedureStepDescription": "dbic^QA",
  "ProtocolName": "func-bold_task-rest_acq-p2-s4-3.5mm",
  "PulseSequenceDetails": "%SiemensSeq%\\ep2d_bold",
  "ReceiveCoilActiveElements": "HEA;HEP",
  "ReceiveCoilName": "Head_32",
  "ReconMatrixPE": 80,
  "RefLinesPE": 24,
  "RepetitionTime": 2,
  "SAR": 0.0176603,
  "ScanOptions": "FS",
  "ScanningSequence": "EP",
  "SequenceName": "*epfid2d1_80",
  "SequenceVariant": "SK",
  "SeriesDescription": "func-bold_task-rest_acq-p2-s4-3.5mm",
  "SeriesNumber": 6,
  "ShimSetting": [4247, -7733, -7484, -18, -182, -60, -5, 77],
  "SliceThickness": 3.5,
  "SliceTiming": [1.485, 0, 0.99, 0.2475, 1.2375, 0.7425, 1.7325, 0.495, 1.485, 0, 0.99, 0.2475, 1.2375, 0.7425, 1.7325, 0.495, 1.485, 0, 0.99, 0.2475, 1.2375, 0.7425, 1.7325, 0.495, 1.485, 0, 0.99, 0.2475, 1.2375, 0.7425, 1.7325, 0.495],
  "SoftwareVersions": "syngo MR E11",
  "SpacingBetweenSlices": 3.99,
  "StationName": "AWP66112",
  "TaskName": "rest",
  "TotalReadoutTime": 0.0213301,
  "TxRefAmp": 222.953,
  "dcmmeta_affine": [
    [-2.9727249145507812, -0.38925546407699585, -0.14192688465118408, 136.10430908203125],
    [-0.40324586629867554, 2.830263614654541, 1.209496259689331, -112.80381774902344],
    [0.01732143759727478, -0.9154714345932007, 3.7996151447296143, -26.068527221679688],
    [0.0, 0.0, 0.0, 1.0]
],
  "dcmmeta_reorient_transform": [
    [0.0, -1.0, 0.0, 79.0],
    [1.0, 0.0, 0.0, 0.0],
    [0.0, 0.0, 1.0, 0.0],
    [0.0, 0.0, 0.0, 1.0]
],
  "dcmmeta_shape": [80, 80, 32, 200],
  "dcmmeta_slice_dim": 2,
  "dcmmeta_version": 0.6,
  "global": {
    "const": {
      "AccessionNumber": "qa",
      "AcquisitionMatrix": [80, 0, 0, 80],
      "AngioFlag": "N",
      "BitsAllocated": 16,
      "BitsStored": 12,
      "BodyPartExamined": "BRAIN",
      "Columns": 480,
      "EchoNumbers": 1,
      "EchoTime": 35.0,
      "EchoTrainLength": 39,
      "FlipAngle": 90.0,
      "HighBit": 11,
      "ImageOrientationPatient": [0.99090826650231, 0.1344152910561, 0.00577381223247, -0.1297518257537, 0.94342121116297, 0.30515714319243],
      "ImagePositionPatient": [-622.04698703798, -757.48891207564, -284.94934369206],
      "ImageType": [
        "ORIGINAL",
        "PRIMARY",
        "M",
        "ND",
        "NORM",
        "MOSAIC"
],
      "ImagedNucleus": "1H",
      "ImagingFrequency": 123.261267,
      "InPlanePhaseEncodingDirection": "COL",
      "MRAcquisitionType": "2D",
      "MagneticFieldStrength": 3.0,
      "Manufacturer": "SIEMENS",
      "ManufacturerModelName": "Prisma",
      "Modality": "MR",
      "NumberOfAverages": 1.0,
      "NumberOfPhaseEncodingSteps": 79,
      "PercentPhaseFieldOfView": 100.0,
      "PercentSampling": 100.0,
      "PerformedProcedureStepStartTime": "103622.365000",
      "PhotometricInterpretation": "MONOCHROME2",
      "PixelBandwidth": 2315.0,
      "PixelRepresentation": 0,
      "PixelSpacing": [3.0, 3.0],
      "ProtocolName": "func-bold_task-rest_acq-p2-s4-3.5mm",
      "RepetitionTime": 2000.0,
      "Rows": 480,
      "SAR": 0.01766029129359,
      "SamplesPerPixel": 1,
      "ScanOptions": "FS",
      "ScanningSequence": "EP",
      "SequenceName": "*epfid2d1_80",
      "SequenceVariant": "SK",
      "SeriesDescription": "func-bold_task-rest_acq-p2-s4-3.5mm",
      "SeriesNumber": 6,
      "SeriesTime": "105335.574000",
      "SliceLocation": -63.860408340732,
      "SliceThickness": 3.5,
      "SmallestImagePixelValue": 0,
      "SoftwareVersions": "syngo MR E11",
      "SpacingBetweenSlices": 3.9900000050097,
      "SpecificCharacterSet": "ISO_IR 100",
      "StudyID": "33",
      "StudyTime": "103622.305000",
      "TransmitCoilName": "Body",
      "VariableFlipAngleFlag": "N",
      "WindowCenterWidthExplanation": "Algo1"
    },
    "slices": {}
  },
  "time": {
    "samples": {
      "AcquisitionNumber": [1, 2, 3, 4, 5, 6, 7, 8, 9, 10, 11, 12, 13, 14, 15, 16, 17, 18, 19, 20, 21, 22, 23, 24, 25, 26, 27, 28, 29, 30, 31, 32, 33, 34, 35, 36, 37, 38, 39, 40, 41, 42, 43, 44, 45, 46, 47, 48, 49, 50, 51, 52, 53, 54, 55, 56, 57, 58, 59, 60, 61, 62, 63, 64, 65, 66, 67, 68, 69, 70, 71, 72, 73, 74, 75, 76, 77, 78, 79, 80, 81, 82, 83, 84, 85, 86, 87, 88, 89, 90, 91, 92, 93, 94, 95, 96, 97, 98, 99, 100, 101, 102, 103, 104, 105, 106, 107, 108, 109, 110, 111, 112, 113, 114, 115, 116, 117, 118, 119, 120, 121, 122, 123, 124, 125, 126, 127, 128, 129, 130, 131, 132, 133, 134, 135, 136, 137, 138, 139, 140, 141, 142, 143, 144, 145, 146, 147, 148, 149, 150, 151, 152, 153, 154, 155, 156, 157, 158, 159, 160, 161, 162, 163, 164, 165, 166, 167, 168, 169, 170, 171, 172, 173, 174, 175, 176, 177, 178, 179, 180, 181, 182, 183, 184, 185, 186, 187, 188, 189, 190, 191, 192, 193, 194, 195, 196, 197, 198, 199, 200],
      "AcquisitionTime": ["105254.085000", "105256.085000", "105258.085000", "105300.085000", "105302.085000", "105304.085000", "105306.085000", "105308.085000", "105310.085000", "105312.085000", "105314.085000", "105316.085000", "105318.085000", "105320.085000", "105322.085000", "105324.085000", "105326.085000", "105328.085000", "105330.085000", "105332.085000", "105334.085000", "105336.085000", "105338.085000", "105340.085000", "105342.085000", "105344.085000", "105346.085000", "105348.085000", "105350.085000", "105352.085000", "105354.085000", "105356.085000", "105358.085000", "105400.085000", "105402.085000", "105404.085000", "105406.085000", "105408.085000", "105410.085000", "105412.085000", "105414.085000", "105416.085000", "105418.085000", "105420.085000", "105422.085000", "105424.085000", "105426.085000", "105428.085000", "105430.085000", "105432.085000", "105434.085000", "105436.085000", "105438.085000", "105440.085000", "105442.085000", "105444.085000", "105446.085000", "105448.085000", "105450.085000", "105452.085000", "105454.085000", "105456.085000", "105458.085000", "105500.085000", "105502.085000", "105504.085000", "105506.085000", "105508.085000", "105510.085000", "105512.085000", "105514.085000", "105516.085000", "105518.085000", "105520.085000", "105522.085000", "105524.085000", "105526.085000", "105528.085000", "105530.085000", "105532.085000", "105534.085000", "105536.085000", "105538.085000", "105540.085000", "105542.085000", "105544.085000", "105546.085000", "105548.085000", "105550.085000", "105552.085000", "105554.085000", "105556.085000", "105558.085000", "105600.085000", "105602.085000", "105604.085000", "105606.085000", "105608.085000", "105610.085000", "105612.085000", "105614.085000", "105616.085000", "105618.085000", "105620.085000", "105622.085000", "105624.085000", "105626.085000", "105628.085000", "105630.085000", "105632.085000", "105634.085000", "105636.085000", "105638.085000", "105640.085000", "105642.085000", "105644.085000", "105646.085000", "105648.085000", "105650.085000", "105652.085000", "105654.085000", "105656.085000", "105658.085000", "105700.085000", "105702.085000", "105704.085000", "105706.085000", "105708.085000", "105710.085000", "105712.085000", "105714.085000", "105716.085000", "105718.085000", "105720.085000", "105722.085000", "105724.085000", "105726.085000", "105728.085000", "105730.085000", "105732.085000", "105734.085000", "105736.085000", "105738.085000", "105740.085000", "105742.085000", "105744.085000", "105746.085000", "105748.085000", "105750.085000", "105752.085000", "105754.085000", "105756.085000", "105758.085000", "105800.085000", "105802.085000", "105804.085000", "105806.085000", "105808.085000", "105810.085000", "105812.085000", "105814.085000", "105816.085000", "105818.085000", "105820.085000", "105822.085000", "105824.085000", "105826.085000", "105828.085000", "105830.085000", "105832.085000", "105834.085000", "105836.085000", "105838.085000", "105840.085000", "105842.085000", "105844.085000", "105846.085000", "105848.085000", "105850.085000", "105852.085000", "105854.085000", "105856.085000", "105858.085000", "105900.085000", "105902.085000", "105904.085000", "105906.085000", "105908.085000", "105910.085000", "105912.085000", "105914.085000", "105916.085000", "105918.085000", "105920.085000", "105922.085000", "105924.085000", "105926.085000", "105928.085000", "105930.085000", "105932.085000"],
      "ContentTime": ["105335.577000", "105335.580000", "105335.582000", "105335.584000", "105335.587000", "105335.589000", "105335.591000", "105335.594000", "105335.596000", "105335.598000", "105335.601000", "105335.603000", "105335.605000", "105335.608000", "105335.610000", "105335.612000", "105335.614000", "105335.617000", "105335.619000", "105335.621000", "105415.572000", "105415.575000", "105415.577000", "105415.580000", "105415.582000", "105415.584000", "105415.587000", "105415.589000", "105415.591000", "105415.594000", "105415.596000", "105415.598000", "105415.601000", "105415.603000", "105415.605000", "105415.608000", "105415.610000", "105415.612000", "105415.614000", "105415.617000", "105455.573000", "105455.575000", "105455.578000", "105455.580000", "105455.582000", "105455.585000", "105455.587000", "105455.589000", "105455.592000", "105455.594000", "105455.596000", "105455.599000", "105455.601000", "105455.603000", "105455.605000", "105455.608000", "105455.610000", "105455.612000", "105455.615000", "105455.617000", "105535.572000", "105535.575000", "105535.577000", "105535.580000", "105535.582000", "105535.584000", "105535.587000", "105535.589000", "105535.591000", "105535.594000", "105535.596000", "105535.598000", "105535.601000", "105535.603000", "105535.605000", "105535.607000", "105535.610000", "105535.612000", "105535.614000", "105535.617000", "105615.572000", "105615.575000", "105615.577000", "105615.580000", "105615.582000", "105615.585000", "105615.587000", "105615.590000", "105615.592000", "105615.594000", "105615.597000", "105615.599000", "105615.601000", "105615.604000", "105615.606000", "105615.608000", "105615.610000", "105615.613000", "105615.615000", "105615.617000", "105615.620000", "105655.571000", "105655.574000", "105655.576000", "105655.578000", "105655.581000", "105655.583000", "105655.585000", "105655.588000", "105655.590000", "105655.592000", "105655.595000", "105655.597000", "105655.599000", "105655.601000", "105655.604000", "105655.606000", "105655.608000", "105655.611000", "105655.613000", "105655.615000", "105755.572000", "105755.575000", "105755.577000", "105755.579000", "105755.582000", "105755.584000", "105755.586000", "105755.589000", "105755.591000", "105755.593000", "105755.596000", "105755.598000", "105755.600000", "105755.603000", "105755.605000", "105755.608000", "105755.610000", "105755.612000", "105755.614000", "105755.617000", "105755.619000", "105755.621000", "105755.624000", "105755.626000", "105755.628000", "105755.631000", "105755.633000", "105755.635000", "105755.638000", "105835.572000", "105835.575000", "105835.577000", "105835.579000", "105835.582000", "105835.584000", "105835.586000", "105835.589000", "105835.591000", "105835.593000", "105835.596000", "105835.598000", "105835.600000", "105835.603000", "105835.605000", "105835.607000", "105835.610000", "105835.612000", "105835.614000", "105835.617000", "105835.619000", "105933.528000", "105933.531000", "105933.534000", "105933.536000", "105933.539000", "105933.541000", "105933.544000", "105933.547000", "105933.550000", "105933.553000", "105933.556000", "105933.558000", "105933.561000", "105933.563000", "105933.566000", "105933.568000", "105933.571000", "105933.573000", "105933.576000", "105933.578000", "105933.581000", "105933.584000", "105933.587000", "105933.590000", "105933.593000", "105933.595000", "105933.598000", "105933.601000", "105933.603000"],
      "InstanceCreationTime": ["105335.577000", "105335.580000", "105335.582000", "105335.584000", "105335.587000", "105335.589000", "105335.591000", "105335.594000", "105335.596000", "105335.598000", "105335.601000", "105335.603000", "105335.605000", "105335.608000", "105335.610000", "105335.612000", "105335.614000", "105335.617000", "105335.619000", "105335.621000", "105415.572000", "105415.575000", "105415.577000", "105415.580000", "105415.582000", "105415.584000", "105415.587000", "105415.589000", "105415.591000", "105415.594000", "105415.596000", "105415.598000", "105415.601000", "105415.603000", "105415.605000", "105415.608000", "105415.610000", "105415.612000", "105415.614000", "105415.617000", "105455.573000", "105455.575000", "105455.578000", "105455.580000", "105455.582000", "105455.585000", "105455.587000", "105455.589000", "105455.592000", "105455.594000", "105455.596000", "105455.599000", "105455.601000", "105455.603000", "105455.605000", "105455.608000", "105455.610000", "105455.612000", "105455.615000", "105455.617000", "105535.572000", "105535.575000", "105535.577000", "105535.580000", "105535.582000", "105535.584000", "105535.587000", "105535.589000", "105535.591000", "105535.594000", "105535.596000", "105535.598000", "105535.601000", "105535.603000", "105535.605000", "105535.607000", "105535.610000", "105535.612000", "105535.614000", "105535.617000", "105615.572000", "105615.575000", "105615.577000", "105615.580000", "105615.582000", "105615.585000", "105615.587000", "105615.590000", "105615.592000", "105615.594000", "105615.597000", "105615.599000", "105615.601000", "105615.604000", "105615.606000", "105615.608000", "105615.610000", "105615.613000", "105615.615000", "105615.617000", "105615.620000", "105655.571000", "105655.574000", "105655.576000", "105655.578000", "105655.581000", "105655.583000", "105655.585000", "105655.588000", "105655.590000", "105655.592000", "105655.595000", "105655.597000", "105655.599000", "105655.601000", "105655.604000", "105655.606000", "105655.608000", "105655.611000", "105655.613000", "105655.615000", "105755.572000", "105755.575000", "105755.577000", "105755.579000", "105755.582000", "105755.584000", "105755.586000", "105755.589000", "105755.591000", "105755.593000", "105755.596000", "105755.598000", "105755.600000", "105755.603000", "105755.605000", "105755.608000", "105755.610000", "105755.612000", "105755.614000", "105755.617000", "105755.619000", "105755.621000", "105755.624000", "105755.626000", "105755.628000", "105755.631000", "105755.633000", "105755.635000", "105755.638000", "105835.572000", "105835.575000", "105835.577000", "105835.579000", "105835.582000", "105835.584000", "105835.586000", "105835.589000", "105835.591000", "105835.593000", "105835.596000", "105835.598000", "105835.600000", "105835.603000", "105835.605000", "105835.607000", "105835.610000", "105835.612000", "105835.614000", "105835.617000", "105835.619000", "105933.528000", "105933.531000", "105933.534000", "105933.536000", "105933.539000", "105933.541000", "105933.544000", "105933.547000", "105933.550000", "105933.553000", "105933.556000", "105933.558000", "105933.561000", "105933.563000", "105933.566000", "105933.568000", "105933.571000", "105933.573000", "105933.576000", "105933.578000", "105933.581000", "105933.584000", "105933.587000", "105933.590000", "105933.593000", "105933.595000", "105933.598000", "105933.601000", "105933.603000"],
      "InstanceNumber": [1, 2, 3, 4, 5, 6, 7, 8, 9, 10, 11, 12, 13, 14, 15, 16, 17, 18, 19, 20, 21, 22, 23, 24, 25, 26, 27, 28, 29, 30, 31, 32, 33, 34, 35, 36, 37, 38, 39, 40, 41, 42, 43, 44, 45, 46, 47, 48, 49, 50, 51, 52, 53, 54, 55, 56, 57, 58, 59, 60, 61, 62, 63, 64, 65, 66, 67, 68, 69, 70, 71, 72, 73, 74, 75, 76, 77, 78, 79, 80, 81, 82, 83, 84, 85, 86, 87, 88, 89, 90, 91, 92, 93, 94, 95, 96, 97, 98, 99, 100, 101, 102, 103, 104, 105, 106, 107, 108, 109, 110, 111, 112, 113, 114, 115, 116, 117, 118, 119, 120, 121, 122, 123, 124, 125, 126, 127, 128, 129, 130, 131, 132, 133, 134, 135, 136, 137, 138, 139, 140, 141, 142, 143, 144, 145, 146, 147, 148, 149, 150, 151, 152, 153, 154, 155, 156, 157, 158, 159, 160, 161, 162, 163, 164, 165, 166, 167, 168, 169, 170, 171, 172, 173, 174, 175, 176, 177, 178, 179, 180, 181, 182, 183, 184, 185, 186, 187, 188, 189, 190, 191, 192, 193, 194, 195, 196, 197, 198, 199, 200],
      "LargestImagePixelValue": [2213, 2210, 2214, 2208, 2210, 2214, 2206, 2214, 2208, 2210, 2216, 2210, 2208, 2210, 2210, 2212, 2210, 2209, 2209, 2209, 2210, 2210, 2209, 2211, 2211, 2210, 2211, 2211, 2215, 2210, 2215, 2213, 2208, 2210, 2207, 2211, 2212, 2211, 2214, 2217, 2210, 2214, 2214, 2212, 2209, 2216, 2210, 2208, 2214, 2210, 2210, 2210, 2216, 2209, 2215, 2214, 2212, 2217, 2212, 2212, 2209, 2209, 2215, 2215, 2214, 2211, 2214, 2210, 2213, 2212, 2210, 2211, 2215, 2218, 2210, 2212, 2212, 2210, 2211, 2206, 2217, 2211, 2212, 2212, 2209, 2213, 2212, 2210, 2211, 2212, 2207, 2214, 2215, 2216, 2212, 2215, 2215, 2210, 2207, 2213, 2212, 2211, 2209, 2217, 2211, 2212, 2213, 2215, 2207, 2215, 2213, 2218, 2212, 2210, 2214, 2208, 2212, 2211, 2208, 2218, 2211, 2214, 2213, 2215, 2213, 2209, 2212, 2213, 2211, 2213, 2215, 2216, 2215, 2209, 2214, 2217, 2209, 2213, 2214, 2212, 2217, 2213, 2212, 2212, 2207, 2214, 2206, 2206, 2215, 2212, 2212, 2211, 2211, 2213, 2215, 2211, 2207, 2211, 2213, 2209, 2211, 2211, 2213, 2210, 2215, 2209, 2212, 2210, 2212, 2216, 2214, 2210, 2209, 2212, 2216, 2212, 2214, 2208, 2208, 2212, 2211, 2216, 2211, 2205, 2215, 2208, 2214, 2210, 2209, 2214, 2210, 2212, 2217, 2209, 2209, 2212, 2215, 2210, 2210, 2213],
      "WindowCenter": [962.0, 959.0, 960.0, 961.0, 959.0, 960.0, 959.0, 960.0, 960.0, 960.0, 962.0, 960.0, 959.0, 960.0, 960.0, 961.0, 960.0, 960.0, 959.0, 959.0, 960.0, 959.0, 960.0, 960.0, 960.0, 962.0, 960.0, 959.0, 960.0, 959.0, 961.0, 959.0, 960.0, 961.0, 958.0, 961.0, 960.0, 960.0, 962.0, 961.0, 960.0, 959.0, 960.0, 961.0, 961.0, 961.0, 961.0, 960.0, 959.0, 959.0, 962.0, 960.0, 962.0, 962.0, 961.0, 960.0, 960.0, 960.0, 960.0, 959.0, 960.0, 960.0, 961.0, 960.0, 961.0, 960.0, 960.0, 961.0, 961.0, 959.0, 959.0, 960.0, 960.0, 959.0, 960.0, 959.0, 960.0, 960.0, 960.0, 959.0, 960.0, 959.0, 960.0, 961.0, 961.0, 960.0, 960.0, 960.0, 960.0, 960.0, 960.0, 959.0, 961.0, 959.0, 959.0, 960.0, 960.0, 960.0, 959.0, 961.0, 961.0, 959.0, 960.0, 960.0, 961.0, 959.0, 960.0, 960.0, 960.0, 960.0, 961.0, 961.0, 959.0, 960.0, 960.0, 960.0, 962.0, 959.0, 959.0, 960.0, 961.0, 960.0, 961.0, 960.0, 960.0, 962.0, 959.0, 961.0, 960.0, 960.0, 959.0, 960.0, 960.0, 960.0, 960.0, 959.0, 961.0, 959.0, 960.0, 959.0, 960.0, 961.0, 960.0, 960.0, 960.0, 959.0, 959.0, 961.0, 960.0, 961.0, 959.0, 959.0, 960.0, 961.0, 960.0, 960.0, 960.0, 960.0, 960.0, 960.0, 959.0, 960.0, 960.0, 960.0, 961.0, 960.0, 960.0, 960.0, 959.0, 960.0, 960.0, 959.0, 960.0, 959.0, 960.0, 961.0, 959.0, 961.0, 959.0, 959.0, 959.0, 960.0, 959.0, 960.0, 961.0, 960.0, 960.0, 960.0, 960.0, 960.0, 960.0, 960.0, 961.0, 960.0, 960.0, 959.0, 960.0, 961.0, 961.0, 960.0],
      "WindowWidth": [2264.0, 2261.0, 2262.0, 2263.0, 2261.0, 2263.0, 2261.0, 2262.0, 2262.0, 2263.0, 2264.0, 2263.0, 2261.0, 2262.0, 2263.0, 2263.0, 2263.0, 2263.0, 2261.0, 2262.0, 2263.0, 2262.0, 2262.0, 2262.0, 2262.0, 2264.0, 2262.0, 2262.0, 2263.0, 2262.0, 2263.0, 2261.0, 2263.0, 2264.0, 2261.0, 2264.0, 2263.0, 2263.0, 2264.0, 2264.0, 2263.0, 2262.0, 2262.0, 2264.0, 2263.0, 2264.0, 2264.0, 2263.0, 2262.0, 2261.0, 2265.0, 2263.0, 2264.0, 2264.0, 2264.0, 2263.0, 2263.0, 2262.0, 2263.0, 2262.0, 2263.0, 2263.0, 2264.0, 2263.0, 2264.0, 2262.0, 2263.0, 2263.0, 2264.0, 2262.0, 2261.0, 2263.0, 2263.0, 2261.0, 2263.0, 2262.0, 2262.0, 2263.0, 2263.0, 2262.0, 2263.0, 2262.0, 2263.0, 2263.0, 2264.0, 2262.0, 2263.0, 2263.0, 2262.0, 2263.0, 2262.0, 2261.0, 2263.0, 2262.0, 2262.0, 2263.0, 2262.0, 2263.0, 2262.0, 2263.0, 2264.0, 2261.0, 2263.0, 2262.0, 2263.0, 2261.0, 2262.0, 2262.0, 2263.0, 2262.0, 2263.0, 2263.0, 2261.0, 2263.0, 2262.0, 2262.0, 2264.0, 2261.0, 2261.0, 2262.0, 2263.0, 2263.0, 2264.0, 2263.0, 2263.0, 2264.0, 2262.0, 2263.0, 2263.0, 2262.0, 2261.0, 2262.0, 2263.0, 2262.0, 2262.0, 2261.0, 2264.0, 2262.0, 2262.0, 2262.0, 2263.0, 2263.0, 2263.0, 2262.0, 2262.0, 2261.0, 2261.0, 2263.0, 2262.0, 2264.0, 2262.0, 2261.0, 2263.0, 2263.0, 2262.0, 2262.0, 2262.0, 2263.0, 2262.0, 2262.0, 2261.0, 2262.0, 2262.0, 2262.0, 2263.0, 2262.0, 2262.0, 2262.0, 2261.0, 2262.0, 2262.0, 2261.0, 2262.0, 2262.0, 2262.0, 2264.0, 2261.0, 2263.0, 2261.0, 2261.0, 2261.0, 2262.0, 2261.0, 2262.0, 2263.0, 2262.0, 2262.0, 2262.0, 2262.0, 2262.0, 2262.0, 2262.0, 2263.0, 2262.0, 2262.0, 2261.0, 2262.0, 2263.0, 2263.0, 2262.0]
    },
    "slices": {}
  }
}