{
  "AcquisitionMatrixPE": 80,
  "AcquisitionNumber": 1,
  "AcquisitionTime": "08:56:20.537500",
  "BandwidthPerPixelPhaseEncode": 25,
  "BaseResolution": 80,
  "BodyPartExamined": "BRAIN",
  "CoilCombinationMethod": "Sum of Squares",
  "ConsistencyInfo": "N4_VE11C_LATEST_20160120",
  "ConversionSoftware": "dcm2niix",
  "ConversionSoftwareVersion": "v1.0.20220720",
  "DerivedVendorReportedEchoSpacing": 0.0005,
  "DeviceSerialNumber": "66112",
  "DwellTime": 2.7e-06,
  "EchoTime": 0.03,
  "EchoTrainLength": 80,
  "EffectiveEchoSpacing": 0.0005,
  "FlipAngle": 77,
  "HeudiconvVersion": "0.13.1",
  "ImageOrientationPatientDICOM": [0.999923, 0.0115234, 0.00461154, -0.0123915, 0.948097, 0.317741],
  "ImageOrientationText": "Tra>Cor(18.5)>Sag(0.0)",
  "ImageType": [
    "ORIGINAL",
    "PRIMARY",
    "M",
    "ND",
    "NORM",
    "MOSAIC"
],
  "ImagingFrequency": 123.252,
  "InPlanePhaseEncodingDirectionDICOM": "COL",
  "InstitutionAddress": "Maynard 3,Hanover,NH,US,03755",
  "InstitutionName": "Dartmouth College - PBS",
  "InstitutionalDepartmentName": "Department",
  "MRAcquisitionType": "2D",
  "MagneticFieldStrength": 3,
  "Manufacturer": "Siemens",
  "ManufacturersModelName": "Prisma",
  "MatrixCoilMode": "SENSE",
  "Modality": "MR",
  "NonlinearGradientCorrection": false,
  "PartialFourier": 1,
  "PatientPosition": "HFS",
  "PercentPhaseFOV": 100,
  "PercentSampling": 100,
  "PhaseEncodingDirection": "j-",
  "PhaseEncodingSteps": 80,
  "PhaseResolution": 1,
  "PixelBandwidth": 2315,
  "ProcedureStepDescription": "dbic^QA",
  "ProtocolName": "func-bold_fa-77",
  "PulseSequenceDetails": "%SiemensSeq%\\ep2d_bold",
  "ReceiveCoilActiveElements": "HC1-7;NC1,2",
  "ReceiveCoilName": "HeadNeck_64",
  "ReconMatrixPE": 80,
  "RepetitionTime": 2,
  "SAR": 0.0322712,
  "ScanOptions": "FS",
  "ScanningSequence": "EP",
  "SequenceName": "*epfid2d1_80",
  "SequenceVariant": "SK",
  "SeriesDescription": "func-bold_fa-77",
  "SeriesNumber": 7,
  "ShimSetting": [4139, -7719, -7512, 136, -65, -282, -47, 93],
  "SliceThickness": 3.5,
  "SliceTiming": [0.99, 0, 1.055, 0.065, 1.12, 0.13, 1.1875, 0.1975, 1.2525, 0.2625, 1.32, 0.33, 1.385, 0.395, 1.45, 0.46, 1.5175, 0.5275, 1.5825, 0.5925, 1.6475, 0.66, 1.715, 0.725, 1.78, 0.79, 1.8475, 0.8575, 1.9125, 0.9225],
  "SoftwareVersions": "syngo MR E11",
  "SpacingBetweenSlices": 3.99,
  "StationName": "AWP66112",
  "TotalReadoutTime": 0.0395,
  "TxRefAmp": 215.72,
  "dcmmeta_affine": [
    [-2.9997689723968506, -0.0371745266020298, 0.002835828112438321, 121.17180633544922],
    [-0.03457015007734299, 2.844290018081665, 1.267915964126587, -106.72705078125],
    [0.01383461058139801, -0.9532223343849182, 3.7831838130950928, -4.702489852905273],
    [0.0, 0.0, 0.0, 1.0]
],
  "dcmmeta_reorient_transform": [
    [0.0, -1.0, 0.0, 79.0],
    [1.0, 0.0, 0.0, 0.0],
    [0.0, 0.0, 1.0, 0.0],
    [0.0, 0.0, 0.0, 1.0]
],
  "dcmmeta_shape": [80, 80, 30, 200],
  "dcmmeta_slice_dim": 2,
  "dcmmeta_version": 0.6,
  "global": {
    "const": {
      "AccessionNumber": "qa64",
      "AcquisitionMatrix": [80, 0, 0, 80],
      "AngioFlag": "N",
      "BitsAllocated": 16,
      "BitsStored": 12,
      "BodyPartExamined": "BRAIN",
      "Columns": 480,
      "EchoNumbers": 1,
      "EchoTime": 30.0,
      "EchoTrainLength": 80,
      "FlipAngle": 77.0,
      "HighBit": 11,
      "ImageOrientationPatient": [0.99992296971658, 0.01152338326698, 0.00461153675647, -0.0123915088089, 0.94809664750149, 0.31774077092164],
      "ImagePositionPatient": [-710.75389844417, -693.74387148458, -273.41843722404],
      "ImageType": [
        "ORIGINAL",
        "PRIMARY",
        "M",
        "ND",
        "NORM",
        "MOSAIC"
],
      "ImagedNucleus": "1H",
      "ImagingFrequency": 123.252334,
      "InPlanePhaseEncodingDirection": "COL",
      "MRAcquisitionType": "2D",
      "MagneticFieldStrength": 3.0,
      "Manufacturer": "SIEMENS",
      "ManufacturerModelName": "Prisma",
      "Modality": "MR",
      "NumberOfAverages": 1.0,
      "NumberOfPhaseEncodingSteps": 80,
      "PercentPhaseFieldOfView": 100.0,
      "PercentSampling": 100.0,
      "PerformedProcedureStepStartTime": "082123.563000",
      "PhotometricInterpretation": "MONOCHROME2",
      "PixelBandwidth": 2315.0,
      "PixelRepresentation": 0,
      "PixelSpacing": [3.0, 3.0],
      "ProtocolName": "func-bold_fa-77",
      "RepetitionTime": 2000.0,
      "Rows": 480,
      "SAR": 0.03227119446562,
      "SamplesPerPixel": 1,
      "ScanOptions": "FS",
      "ScanningSequence": "EP",
      "SequenceName": "*epfid2d1_80",
      "SequenceVariant": "SK",
      "SeriesDescription": "func-bold_fa-77",
      "SeriesNumber": 7,
      "SeriesTime": "085705.646000",
      "SliceLocation": -38.287644558791,
      "SliceThickness": 3.5,
      "SmallestImagePixelValue": 0,
      "SoftwareVersions": "syngo MR E11",
      "SpacingBetweenSlices": 3.9899999485712,
      "SpecificCharacterSet": "ISO_IR 100",
      "StudyID": "1",
      "StudyTime": "082123.496000",
      "TransmitCoilName": "Body",
      "VariableFlipAngleFlag": "N",
      "WindowCenterWidthExplanation": "Algo1",
      "dBdt": 0.0},
    "slices": {}
  },
  "time": {
    "samples": {
      "AcquisitionNumber": [1, 2, 3, 4, 5, 6, 7, 8, 9, 10, 11, 12, 13, 14, 15, 16, 17, 18, 19, 20, 21, 22, 23, 24, 25, 26, 27, 28, 29, 30, 31, 32, 33, 34, 35, 36, 37, 38, 39, 40, 41, 42, 43, 44, 45, 46, 47, 48, 49, 50, 51, 52, 53, 54, 55, 56, 57, 58, 59, 60, 61, 62, 63, 64, 65, 66, 67, 68, 69, 70, 71, 72, 73, 74, 75, 76, 77, 78, 79, 80, 81, 82, 83, 84, 85, 86, 87, 88, 89, 90, 91, 92, 93, 94, 95, 96, 97, 98, 99, 100, 101, 102, 103, 104, 105, 106, 107, 108, 109, 110, 111, 112, 113, 114, 115, 116, 117, 118, 119, 120, 121, 122, 123, 124, 125, 126, 127, 128, 129, 130, 131, 132, 133, 134, 135, 136, 137, 138, 139, 140, 141, 142, 143, 144, 145, 146, 147, 148, 149, 150, 151, 152, 153, 154, 155, 156, 157, 158, 159, 160, 161, 162, 163, 164, 165, 166, 167, 168, 169, 170, 171, 172, 173, 174, 175, 176, 177, 178, 179, 180, 181, 182, 183, 184, 185, 186, 187, 188, 189, 190, 191, 192, 193, 194, 195, 196, 197, 198, 199, 200],
      "AcquisitionTime": ["085620.537500", "085622.537500", "085624.537500", "085626.537500", "085628.537500", "085630.537500", "085632.537500", "085634.537500", "085636.537500", "085638.537500", "085640.537500", "085642.537500", "085644.537500", "085646.537500", "085648.537500", "085650.537500", "085652.537500", "085654.537500", "085656.537500", "085658.537500", "085700.537500", "085702.537500", "085704.537500", "085706.537500", "085708.537500", "085710.537500", "085712.537500", "085714.537500", "085716.537500", "085718.537500", "085720.537500", "085722.537500", "085724.537500", "085726.537500", "085728.537500", "085730.537500", "085732.537500", "085734.537500", "085736.537500", "085738.537500", "085740.537500", "085742.537500", "085744.537500", "085746.537500", "085748.537500", "085750.537500", "085752.537500", "085754.537500", "085756.537500", "085758.537500", "085800.537500", "085802.537500", "085804.537500", "085806.537500", "085808.537500", "085810.537500", "085812.537500", "085814.537500", "085816.537500", "085818.537500", "085820.537500", "085822.537500", "085824.537500", "085826.537500", "085828.537500", "085830.537500", "085832.537500", "085834.537500", "085836.537500", "085838.537500", "085840.537500", "085842.537500", "085844.537500", "085846.537500", "085848.537500", "085850.537500", "085852.537500", "085854.537500", "085856.537500", "085858.537500", "085900.537500", "085902.537500", "085904.537500", "085906.537500", "085908.537500", "085910.537500", "085912.537500", "085914.537500", "085916.537500", "085918.537500", "085920.537500", "085922.537500", "085924.537500", "085926.537500", "085928.537500", "085930.537500", "085932.537500", "085934.537500", "085936.537500", "085938.537500", "085940.537500", "085942.537500", "085944.537500", "085946.537500", "085948.537500", "085950.537500", "085952.537500", "085954.537500", "085956.537500", "085958.537500", "090000.537500", "090002.537500", "090004.537500", "090006.537500", "090008.537500", "090010.537500", "090012.537500", "090014.537500", "090016.537500", "090018.537500", "090020.537500", "090022.537500", "090024.537500", "090026.537500", "090028.537500", "090030.537500", "090032.537500", "090034.537500", "090036.537500", "090038.537500", "090040.537500", "090042.537500", "090044.537500", "090046.537500", "090048.537500", "090050.537500", "090052.537500", "090054.537500", "090056.537500", "090058.537500", "090100.537500", "090102.537500", "090104.537500", "090106.537500", "090108.537500", "090110.537500", "090112.537500", "090114.537500", "090116.537500", "090118.537500", "090120.537500", "090122.537500", "090124.537500", "090126.537500", "090128.537500", "090130.537500", "090132.537500", "090134.537500", "090136.537500", "090138.537500", "090140.537500", "090142.537500", "090144.537500", "090146.537500", "090148.537500", "090150.537500", "090152.537500", "090154.537500", "090156.537500", "090158.537500", "090200.537500", "090202.537500", "090204.537500", "090206.537500", "090208.537500", "090210.537500", "090212.537500", "090214.537500", "090216.537500", "090218.537500", "090220.537500", "090222.537500", "090224.537500", "090226.537500", "090228.537500", "090230.537500", "090232.537500", "090234.537500", "090236.537500", "090238.537500", "090240.537500", "090242.537500", "090244.537500", "090246.537500", "090248.537500", "090250.537500", "090252.537500", "090254.537500", "090256.537500", "090258.537500"],
      "ContentTime": ["085705.649000", "085705.653000", "085705.655000", "085705.658000", "085705.660000", "085705.663000", "085705.672000", "085705.675000", "085705.677000", "085705.680000", "085705.683000", "085705.685000", "085705.688000", "085705.690000", "085705.695000", "085705.698000", "085705.700000", "085705.703000", "085705.705000", "085705.708000", "085705.710000", "085705.713000", "085745.643000", "085745.646000", "085745.649000", "085745.652000", "085745.654000", "085745.657000", "085745.660000", "085745.662000", "085745.673000", "085745.676000", "085745.678000", "085745.681000", "085745.683000", "085745.686000", "085745.688000", "085745.691000", "085745.694000", "085745.696000", "085745.699000", "085745.702000", "085825.645000", "085825.648000", "085825.650000", "085825.653000", "085825.662000", "085825.665000", "085825.667000", "085825.670000", "085825.673000", "085825.675000", "085825.678000", "085825.680000", "085825.683000", "085825.685000", "085825.688000", "085825.690000", "085825.693000", "085825.695000", "085825.698000", "085825.701000", "085845.644000", "085845.647000", "085845.650000", "085845.653000", "085845.655000", "085845.658000", "085845.660000", "085845.663000", "085845.665000", "085845.668000", "085925.645000", "085925.647000", "085925.650000", "085925.653000", "085925.655000", "085925.658000", "085925.660000", "085925.663000", "085925.666000", "085925.668000", "085925.671000", "085925.673000", "085925.676000", "085925.679000", "085925.681000", "085925.684000", "085925.687000", "085925.689000", "085925.692000", "085925.694000", "090005.643000", "090005.646000", "090005.649000", "090005.652000", "090005.654000", "090005.657000", "090005.659000", "090005.662000", "090005.664000", "090005.667000", "090005.670000", "090005.672000", "090005.675000", "090005.677000", "090005.680000", "090005.682000", "090005.685000", "090005.688000", "090005.690000", "090005.693000", "090045.644000", "090045.647000", "090045.650000", "090045.652000", "090045.655000", "090045.657000", "090045.660000", "090045.663000", "090045.665000", "090045.668000", "090045.670000", "090045.673000", "090045.676000", "090045.678000", "090045.681000", "090045.683000", "090045.686000", "090045.689000", "090045.691000", "090045.694000", "090125.645000", "090125.647000", "090125.650000", "090125.652000", "090125.655000", "090125.658000", "090125.660000", "090125.663000", "090125.666000", "090125.668000", "090125.671000", "090125.674000", "090125.688000", "090125.691000", "090125.693000", "090125.696000", "090125.699000", "090125.701000", "090125.704000", "090125.706000", "090205.643000", "090205.646000", "090205.649000", "090205.652000", "090205.654000", "090205.657000", "090205.659000", "090205.662000", "090205.664000", "090205.667000", "090205.670000", "090205.672000", "090205.675000", "090205.677000", "090205.680000", "090205.682000", "090205.685000", "090205.688000", "090205.690000", "090205.693000", "090245.645000", "090245.647000", "090245.650000", "090245.653000", "090245.655000", "090245.658000", "090245.660000", "090245.663000", "090245.665000", "090245.668000", "090245.671000", "090245.673000", "090245.676000", "090245.679000", "090245.681000", "090245.684000", "090245.694000", "090245.696000", "090245.699000", "090245.701000", "090259.936000", "090259.939000", "090259.942000", "090259.944000", "090259.947000", "090259.950000", "090259.953000", "090259.955000"],
      "InstanceCreationTime": ["085705.649000", "085705.653000", "085705.655000", "085705.658000", "085705.660000", "085705.663000", "085705.672000", "085705.675000", "085705.677000", "085705.680000", "085705.683000", "085705.685000", "085705.688000", "085705.690000", "085705.695000", "085705.698000", "085705.700000", "085705.703000", "085705.705000", "085705.708000", "085705.710000", "085705.713000", "085745.643000", "085745.646000", "085745.649000", "085745.652000", "085745.654000", "085745.657000", "085745.660000", "085745.662000", "085745.673000", "085745.676000", "085745.678000", "085745.681000", "085745.683000", "085745.686000", "085745.688000", "085745.691000", "085745.694000", "085745.696000", "085745.699000", "085745.702000", "085825.645000", "085825.648000", "085825.650000", "085825.653000", "085825.662000", "085825.665000", "085825.667000", "085825.670000", "085825.673000", "085825.675000", "085825.678000", "085825.680000", "085825.683000", "085825.685000", "085825.688000", "085825.690000", "085825.693000", "085825.695000", "085825.698000", "085825.701000", "085845.644000", "085845.647000", "085845.650000", "085845.653000", "085845.655000", "085845.658000", "085845.660000", "085845.663000", "085845.665000", "085845.668000", "085925.645000", "085925.647000", "085925.650000", "085925.653000", "085925.655000", "085925.658000", "085925.660000", "085925.663000", "085925.666000", "085925.668000", "085925.671000", "085925.673000", "085925.676000", "085925.679000", "085925.681000", "085925.684000", "085925.687000", "085925.689000", "085925.692000", "085925.694000", "090005.643000", "090005.646000", "090005.649000", "090005.652000", "090005.654000", "090005.657000", "090005.659000", "090005.662000", "090005.664000", "090005.667000", "090005.670000", "090005.672000", "090005.675000", "090005.677000", "090005.680000", "090005.682000", "090005.685000", "090005.688000", "090005.690000", "090005.693000", "090045.644000", "090045.647000", "090045.650000", "090045.652000", "090045.655000", "090045.657000", "090045.660000", "090045.663000", "090045.665000", "090045.668000", "090045.670000", "090045.673000", "090045.676000", "090045.678000", "090045.681000", "090045.683000", "090045.686000", "090045.689000", "090045.691000", "090045.694000", "090125.645000", "090125.647000", "090125.650000", "090125.652000", "090125.655000", "090125.658000", "090125.660000", "090125.663000", "090125.666000", "090125.668000", "090125.671000", "090125.674000", "090125.688000", "090125.691000", "090125.693000", "090125.696000", "090125.699000", "090125.701000", "090125.704000", "090125.706000", "090205.643000", "090205.646000", "090205.649000", "090205.652000", "090205.654000", "090205.657000", "090205.659000", "090205.662000", "090205.664000", "090205.667000", "090205.670000", "090205.672000", "090205.675000", "090205.677000", "090205.680000", "090205.682000", "090205.685000", "090205.688000", "090205.690000", "090205.693000", "090245.645000", "090245.647000", "090245.650000", "090245.653000", "090245.655000", "090245.658000", "090245.660000", "090245.663000", "090245.665000", "090245.668000", "090245.671000", "090245.673000", "090245.676000", "090245.679000", "090245.681000", "090245.684000", "090245.694000", "090245.696000", "090245.699000", "090245.701000", "090259.936000", "090259.939000", "090259.942000", "090259.944000", "090259.947000", "090259.950000", "090259.953000", "090259.955000"],
      "InstanceNumber": [1, 2, 3, 4, 5, 6, 7, 8, 9, 10, 11, 12, 13, 14, 15, 16, 17, 18, 19, 20, 21, 22, 23, 24, 25, 26, 27, 28, 29, 30, 31, 32, 33, 34, 35, 36, 37, 38, 39, 40, 41, 42, 43, 44, 45, 46, 47, 48, 49, 50, 51, 52, 53, 54, 55, 56, 57, 58, 59, 60, 61, 62, 63, 64, 65, 66, 67, 68, 69, 70, 71, 72, 73, 74, 75, 76, 77, 78, 79, 80, 81, 82, 83, 84, 85, 86, 87, 88, 89, 90, 91, 92, 93, 94, 95, 96, 97, 98, 99, 100, 101, 102, 103, 104, 105, 106, 107, 108, 109, 110, 111, 112, 113, 114, 115, 116, 117, 118, 119, 120, 121, 122, 123, 124, 125, 126, 127, 128, 129, 130, 131, 132, 133, 134, 135, 136, 137, 138, 139, 140, 141, 142, 143, 144, 145, 146, 147, 148, 149, 150, 151, 152, 153, 154, 155, 156, 157, 158, 159, 160, 161, 162, 163, 164, 165, 166, 167, 168, 169, 170, 171, 172, 173, 174, 175, 176, 177, 178, 179, 180, 181, 182, 183, 184, 185, 186, 187, 188, 189, 190, 191, 192, 193, 194, 195, 196, 197, 198, 199, 200],
      "LargestImagePixelValue": [3742, 3743, 3739, 3737, 3731, 3731, 3732, 3734, 3731, 3735, 3737, 3736, 3736, 3734, 3733, 3733, 3735, 3741, 3735, 3736, 3731, 3735, 3736, 3738, 3736, 3730, 3737, 3731, 3731, 3734, 3728, 3734, 3731, 3730, 3734, 3730, 3734, 3732, 3731, 3733, 3732, 3735, 3737, 3738, 3737, 3736, 3735, 3732, 3733, 3733, 3731, 3734, 3732, 3730, 3736, 3733, 3737, 3734, 3732, 3734, 3732, 3724, 3725, 3725, 3730, 3733, 3732, 3729, 3733, 3729, 3728, 3727, 3726, 3729, 3729, 3734, 3727, 3731, 3731, 3729, 3734, 3730, 3730, 3732, 3732, 3728, 3728, 3729, 3728, 3730, 3730, 3730, 3730, 3729, 3726, 3727, 3726, 3731, 3728, 3729, 3727, 3734, 3734, 3735, 3731, 3732, 3728, 3727, 3724, 3729, 3728, 3726, 3726, 3733, 3729, 3727, 3729, 3731, 3728, 3727, 3728, 3727, 3729, 3727, 3731, 3728, 3730, 3729, 3729, 3730, 3728, 3727, 3727, 3728, 3726, 3724, 3725, 3725, 3728, 3731, 3729, 3728, 3726, 3725, 3727, 3728, 3727, 3726, 3726, 3729, 3726, 3725, 3728, 3726, 3729, 3731, 3727, 3724, 3731, 3725, 3732, 3726, 3727, 3731, 3726, 3726, 3724, 3724, 3723, 3725, 3732, 3726, 3724, 3727, 3728, 3727, 3725, 3725, 3725, 3727, 3726, 3727, 3731, 3728, 3730, 3731, 3729, 3723, 3727, 3728, 3730, 3733, 3727, 3729, 3732, 3728, 3730, 3734, 3734, 3726],
      "WindowCenter": [1319.0, 1318.0, 1319.0, 1319.0, 1318.0, 1318.0, 1319.0, 1319.0, 1319.0, 1318.0, 1318.0, 1318.0, 1319.0, 1318.0, 1318.0, 1318.0, 1318.0, 1318.0, 1318.0, 1318.0, 1318.0, 1318.0, 1319.0, 1318.0, 1318.0, 1318.0, 1318.0, 1318.0, 1318.0, 1318.0, 1317.0, 1318.0, 1318.0, 1317.0, 1317.0, 1318.0, 1318.0, 1318.0, 1317.0, 1318.0, 1318.0, 1317.0, 1318.0, 1318.0, 1317.0, 1317.0, 1318.0, 1317.0, 1318.0, 1317.0, 1318.0, 1317.0, 1317.0, 1318.0, 1317.0, 1318.0, 1317.0, 1317.0, 1318.0, 1318.0, 1318.0, 1317.0, 1317.0, 1317.0, 1317.0, 1317.0, 1317.0, 1317.0, 1317.0, 1317.0, 1317.0, 1317.0, 1317.0, 1317.0, 1317.0, 1316.0, 1317.0, 1316.0, 1317.0, 1317.0, 1317.0, 1317.0, 1317.0, 1317.0, 1317.0, 1317.0, 1317.0, 1317.0, 1317.0, 1317.0, 1317.0, 1317.0, 1317.0, 1317.0, 1317.0, 1317.0, 1317.0, 1317.0, 1317.0, 1317.0, 1316.0, 1316.0, 1317.0, 1317.0, 1316.0, 1316.0, 1316.0, 1317.0, 1316.0, 1316.0, 1317.0, 1316.0, 1316.0, 1316.0, 1316.0, 1316.0, 1316.0, 1316.0, 1317.0, 1316.0, 1317.0, 1317.0, 1316.0, 1317.0, 1316.0, 1316.0, 1316.0, 1316.0, 1316.0, 1315.0, 1315.0, 1316.0, 1316.0, 1316.0, 1316.0, 1316.0, 1316.0, 1316.0, 1316.0, 1316.0, 1316.0, 1316.0, 1316.0, 1316.0, 1316.0, 1316.0, 1317.0, 1316.0, 1316.0, 1316.0, 1316.0, 1316.0, 1316.0, 1316.0, 1316.0, 1315.0, 1316.0, 1315.0, 1316.0, 1315.0, 1316.0, 1316.0, 1315.0, 1316.0, 1316.0, 1315.0, 1316.0, 1316.0, 1315.0, 1315.0, 1315.0, 1316.0, 1316.0, 1316.0, 1316.0, 1316.0, 1315.0, 1316.0, 1316.0, 1316.0, 1315.0, 1316.0, 1316.0, 1315.0, 1315.0, 1315.0, 1315.0, 1316.0, 1315.0, 1315.0, 1315.0, 1316.0, 1315.0, 1316.0, 1315.0, 1315.0, 1315.0, 1315.0, 1315.0, 1315.0],
      "WindowWidth": [3181.0, 3182.0, 3181.0, 3181.0, 3181.0, 3182.0, 3181.0, 3181.0, 3181.0, 3181.0, 3181.0, 3181.0, 3181.0, 3181.0, 3181.0, 3181.0, 3181.0, 3181.0, 3181.0, 3181.0, 3181.0, 3181.0, 3181.0, 3181.0, 3181.0, 3181.0, 3181.0, 3181.0, 3181.0, 3181.0, 3181.0, 3181.0, 3181.0, 3181.0, 3181.0, 3180.0, 3181.0, 3180.0, 3181.0, 3180.0, 3180.0, 3181.0, 3180.0, 3180.0, 3181.0, 3181.0, 3180.0, 3181.0, 3180.0, 3180.0, 3180.0, 3181.0, 3181.0, 3180.0, 3181.0, 3181.0, 3181.0, 3181.0, 3180.0, 3180.0, 3180.0, 3180.0, 3180.0, 3180.0, 3180.0, 3180.0, 3180.0, 3180.0, 3180.0, 3180.0, 3180.0, 3180.0, 3180.0, 3180.0, 3180.0, 3180.0, 3179.0, 3180.0, 3179.0, 3179.0, 3179.0, 3179.0, 3179.0, 3179.0, 3179.0, 3179.0, 3179.0, 3179.0, 3179.0, 3179.0, 3179.0, 3179.0, 3179.0, 3179.0, 3179.0, 3179.0, 3179.0, 3179.0, 3179.0, 3179.0, 3179.0, 3179.0, 3179.0, 3179.0, 3179.0, 3179.0, 3179.0, 3179.0, 3179.0, 3179.0, 3179.0, 3179.0, 3179.0, 3179.0, 3179.0, 3179.0, 3179.0, 3179.0, 3179.0, 3179.0, 3179.0, 3179.0, 3179.0, 3179.0, 3179.0, 3179.0, 3178.0, 3178.0, 3178.0, 3179.0, 3179.0, 3179.0, 3178.0, 3178.0, 3178.0, 3178.0, 3179.0, 3178.0, 3178.0, 3179.0, 3178.0, 3178.0, 3178.0, 3178.0, 3178.0, 3178.0, 3178.0, 3178.0, 3178.0, 3178.0, 3178.0, 3178.0, 3178.0, 3178.0, 3178.0, 3178.0, 3178.0, 3178.0, 3178.0, 3178.0, 3178.0, 3178.0, 3178.0, 3178.0, 3178.0, 3178.0, 3178.0, 3178.0, 3178.0, 3178.0, 3178.0, 3178.0, 3178.0, 3178.0, 3178.0, 3178.0, 3178.0, 3178.0, 3178.0, 3178.0, 3178.0, 3178.0, 3178.0, 3178.0, 3177.0, 3178.0, 3178.0, 3178.0, 3177.0, 3178.0, 3177.0, 3178.0, 3178.0, 3178.0, 3177.0, 3177.0, 3177.0, 3177.0, 3177.0, 3177.0]
    },
    "slices": {}
  }
}