{
  "AcquisitionMatrixPE": 80,
  "AcquisitionNumber": 1,
  "AcquisitionTime": "09:20:43.747500",
  "BandwidthPerPixelPhaseEncode": 48.077,
  "BaseResolution": 80,
  "BodyPartExamined": "BRAIN",
  "CoilCombinationMethod": "Sum of Squares",
  "ConsistencyInfo": "N4_VE11E_LATEST_20181129",
  "ConversionSoftware": "dcm2niix",
  "ConversionSoftwareVersion": "v1.0.20220720",
  "DerivedVendorReportedEchoSpacing": 0.000519999,
  "DeviceSerialNumber": "66112",
  "DwellTime": 2.7e-06,
  "EchoTime": 0.035,
  "EchoTrainLength": 39,
  "EffectiveEchoSpacing": 0.00026,
  "FlipAngle": 90,
  "HeudiconvVersion": "0.13.1",
  "ImageOrientationPatientDICOM": [0.999927, 0.011228, 0.00440367, -0.0120425, 0.949551, 0.313382],
  "ImageOrientationText": "Tra>Cor(18.3)>Sag(0.0)",
  "ImageType": [
    "ORIGINAL",
    "PRIMARY",
    "M",
    "ND",
    "NORM",
    "MOSAIC"
],
  "ImagingFrequency": 123.261,
  "InPlanePhaseEncodingDirectionDICOM": "COL",
  "InstitutionAddress": "Maynard 3,Hanover,NH,US,03755",
  "InstitutionName": "Dartmouth College - PBS",
  "InstitutionalDepartmentName": "Department",
  "MRAcquisitionType": "2D",
  "MagneticFieldStrength": 3,
  "Manufacturer": "Siemens",
  "ManufacturersModelName": "Prisma",
  "MatrixCoilMode": "GRAPPA",
  "Modality": "MR",
  "NonlinearGradientCorrection": false,
  "ParallelReductionFactorInPlane": 2,
  "PartialFourier": 1,
  "PatientPosition": "HFS",
  "PercentPhaseFOV": 100,
  "PercentSampling": 100,
  "PhaseEncodingDirection": "j-",
  "PhaseEncodingSteps": 79,
  "PhaseResolution": 1,
  "PixelBandwidth": 2315,
  "ProcedureStepDescription": "dbic^QA",
  "ProtocolName": "func-bold_task-rest_acq-p2",
  "PulseSequenceDetails": "%SiemensSeq%\\ep2d_bold",
  "ReceiveCoilActiveElements": "HC1-7;NC1,2",
  "ReceiveCoilName": "HeadNeck_64",
  "ReconMatrixPE": 80,
  "RefLinesPE": 24,
  "RepetitionTime": 2,
  "SAR": 0.0358007,
  "ScanOptions": "FS",
  "ScanningSequence": "EP",
  "SequenceName": "*epfid2d1_80",
  "SequenceVariant": "SK",
  "SeriesDescription": "func-bold_task-rest_acq-p2",
  "SeriesNumber": 5,
  "ShimSetting": [4238, -7735, -7472, -153, -184, -320, -61, 127],
  "SliceThickness": 3.5,
  "SliceTiming": [0.99, 0, 1.0575, 0.0675, 1.1225, 0.1325, 1.1875, 0.1975, 1.255, 0.265, 1.32, 0.33, 1.3875, 0.3975, 1.4525, 0.4625, 1.5175, 0.5275, 1.585, 0.595, 1.65, 0.66, 1.7175, 0.7275, 1.7825, 0.7925, 1.8475, 0.8575, 1.915, 0.925],
  "SoftwareVersions": "syngo MR E11",
  "SpacingBetweenSlices": 3.99,
  "StationName": "AWP66112",
  "TaskName": "rest",
  "TotalReadoutTime": 0.02054,
  "TxRefAmp": 208.853,
  "dcmmeta_affine": [
    [-2.999781847000122, -0.03612745925784111, 0.002644752850756049, 123.23770904541016],
    [-0.03368407487869263, 2.8486523628234863, 1.2505148649215698, -112.89446258544922],
    [0.013211003504693508, -0.9401459693908691, 3.7889716625213623, -20.79254913330078],
    [0.0, 0.0, 0.0, 1.0]
],
  "dcmmeta_reorient_transform": [
    [0.0, -1.0, 0.0, 79.0],
    [1.0, 0.0, 0.0, 0.0],
    [0.0, 0.0, 1.0, 0.0],
    [0.0, 0.0, 0.0, 1.0]
],
  "dcmmeta_shape": [80, 80, 30, 200],
  "dcmmeta_slice_dim": 2,
  "dcmmeta_version": 0.6,
  "global": {
    "const": {
      "AccessionNumber": "qa64",
      "AcquisitionMatrix": [80, 0, 0, 80],
      "AngioFlag": "N",
      "BitsAllocated": 16,
      "BitsStored": 12,
      "BodyPartExamined": "BRAIN",
      "Columns": 480,
      "EchoNumbers": 1,
      "EchoTime": 35.0,
      "EchoTrainLength": 39,
      "FlipAngle": 90.0,
      "HighBit": 11,
      "ImageOrientationPatient": [0.99992726693741, 0.01122802499997, 0.00440366775389, -0.0120424860866, 0.9495507908943, 0.31338199380448],
      "ImagePositionPatient": [-713.11450582994, -688.61636329813, -285.73547826294],
      "ImageType": [
        "ORIGINAL",
        "PRIMARY",
        "M",
        "ND",
        "NORM",
        "MOSAIC"
],
      "ImagedNucleus": "1H",
      "ImagingFrequency": 123.261277,
      "InPlanePhaseEncodingDirection": "COL",
      "MRAcquisitionType": "2D",
      "MagneticFieldStrength": 3.0,
      "Manufacturer": "SIEMENS",
      "ManufacturerModelName": "Prisma",
      "Modality": "MR",
      "NumberOfAverages": 1.0,
      "NumberOfPhaseEncodingSteps": 79,
      "PercentPhaseFieldOfView": 100.0,
      "PercentSampling": 100.0,
      "PerformedProcedureStepStartTime": "091728.248000",
      "PhotometricInterpretation": "MONOCHROME2",
      "PixelBandwidth": 2315.0,
      "PixelRepresentation": 0,
      "PixelSpacing": [3.0, 3.0],
      "ProtocolName": "func-bold_task-rest_acq-p2",
      "RepetitionTime": 2000.0,
      "Rows": 480,
      "SAR": 0.0358007021305,
      "SamplesPerPixel": 1,
      "ScanOptions": "FS",
      "ScanningSequence": "EP",
      "SequenceName": "*epfid2d1_80",
      "SequenceVariant": "SK",
      "SeriesDescription": "func-bold_task-rest_acq-p2",
      "SeriesNumber": 5,
      "SeriesTime": "092126.820000",
      "SliceLocation": -55.045774840134,
      "SliceThickness": 3.5,
      "SmallestImagePixelValue": 0,
      "SoftwareVersions": "syngo MR E11",
      "SpacingBetweenSlices": 3.9900000037094,
      "SpecificCharacterSet": "ISO_IR 100",
      "StudyID": "17",
      "StudyTime": "091728.162000",
      "TransmitCoilName": "Body",
      "VariableFlipAngleFlag": "N",
      "WindowCenterWidthExplanation": "Algo1"
    },
    "slices": {}
  },
  "time": {
    "samples": {
      "AcquisitionNumber": [1, 2, 3, 4, 5, 6, 7, 8, 9, 10, 11, 12, 13, 14, 15, 16, 17, 18, 19, 20, 21, 22, 23, 24, 25, 26, 27, 28, 29, 30, 31, 32, 33, 34, 35, 36, 37, 38, 39, 40, 41, 42, 43, 44, 45, 46, 47, 48, 49, 50, 51, 52, 53, 54, 55, 56, 57, 58, 59, 60, 61, 62, 63, 64, 65, 66, 67, 68, 69, 70, 71, 72, 73, 74, 75, 76, 77, 78, 79, 80, 81, 82, 83, 84, 85, 86, 87, 88, 89, 90, 91, 92, 93, 94, 95, 96, 97, 98, 99, 100, 101, 102, 103, 104, 105, 106, 107, 108, 109, 110, 111, 112, 113, 114, 115, 116, 117, 118, 119, 120, 121, 122, 123, 124, 125, 126, 127, 128, 129, 130, 131, 132, 133, 134, 135, 136, 137, 138, 139, 140, 141, 142, 143, 144, 145, 146, 147, 148, 149, 150, 151, 152, 153, 154, 155, 156, 157, 158, 159, 160, 161, 162, 163, 164, 165, 166, 167, 168, 169, 170, 171, 172, 173, 174, 175, 176, 177, 178, 179, 180, 181, 182, 183, 184, 185, 186, 187, 188, 189, 190, 191, 192, 193, 194, 195, 196, 197, 198, 199, 200],
      "AcquisitionTime": ["092043.747500", "092045.747500", "092047.747500", "092049.747500", "092051.747500", "092053.747500", "092055.747500", "092057.747500", "092059.747500", "092101.747500", "092103.747500", "092105.747500", "092107.747500", "092109.747500", "092111.747500", "092113.747500", "092115.747500", "092117.747500", "092119.747500", "092121.747500", "092123.747500", "092125.747500", "092127.747500", "092129.747500", "092131.747500", "092133.747500", "092135.747500", "092137.747500", "092139.747500", "092141.747500", "092143.747500", "092145.747500", "092147.747500", "092149.747500", "092151.747500", "092153.747500", "092155.747500", "092157.747500", "092159.747500", "092201.747500", "092203.747500", "092205.747500", "092207.747500", "092209.747500", "092211.747500", "092213.747500", "092215.747500", "092217.747500", "092219.747500", "092221.747500", "092223.747500", "092225.747500", "092227.747500", "092229.747500", "092231.747500", "092233.747500", "092235.747500", "092237.747500", "092239.747500", "092241.747500", "092243.747500", "092245.747500", "092247.747500", "092249.747500", "092251.747500", "092253.747500", "092255.747500", "092257.747500", "092259.747500", "092301.747500", "092303.747500", "092305.747500", "092307.747500", "092309.747500", "092311.747500", "092313.747500", "092315.747500", "092317.747500", "092319.747500", "092321.747500", "092323.747500", "092325.747500", "092327.747500", "092329.747500", "092331.747500", "092333.747500", "092335.747500", "092337.747500", "092339.747500", "092341.747500", "092343.747500", "092345.747500", "092347.747500", "092349.747500", "092351.747500", "092353.747500", "092355.747500", "092357.747500", "092359.747500", "092401.747500", "092403.747500", "092405.747500", "092407.747500", "092409.747500", "092411.747500", "092413.747500", "092415.747500", "092417.747500", "092419.747500", "092421.747500", "092423.747500", "092425.747500", "092427.747500", "092429.747500", "092431.747500", "092433.747500", "092435.747500", "092437.747500", "092439.747500", "092441.747500", "092443.747500", "092445.747500", "092447.747500", "092449.747500", "092451.747500", "092453.747500", "092455.747500", "092457.747500", "092459.747500", "092501.747500", "092503.747500", "092505.747500", "092507.747500", "092509.747500", "092511.747500", "092513.747500", "092515.747500", "092517.747500", "092519.747500", "092521.747500", "092523.747500", "092525.747500", "092527.747500", "092529.747500", "092531.747500", "092533.747500", "092535.747500", "092537.747500", "092539.747500", "092541.747500", "092543.747500", "092545.747500", "092547.747500", "092549.747500", "092551.747500", "092553.747500", "092555.747500", "092557.747500", "092559.747500", "092601.747500", "092603.747500", "092605.747500", "092607.747500", "092609.747500", "092611.747500", "092613.747500", "092615.747500", "092617.747500", "092619.747500", "092621.747500", "092623.747500", "092625.747500", "092627.747500", "092629.747500", "092631.747500", "092633.747500", "092635.747500", "092637.747500", "092639.747500", "092641.747500", "092643.747500", "092645.747500", "092647.747500", "092649.747500", "092651.747500", "092653.747500", "092655.747500", "092657.747500", "092659.747500", "092701.747500", "092703.747500", "092705.747500", "092707.747500", "092709.747500", "092711.747500", "092713.747500", "092715.747500", "092717.747500", "092719.747500", "092721.747500"],
      "ContentTime": ["092126.824000", "092126.827000", "092126.835000", "092126.844000", "092126.846000", "092126.849000", "092126.851000", "092126.853000", "092126.856000", "092126.858000", "092126.860000", "092126.863000", "092126.865000", "092126.867000", "092126.870000", "092126.872000", "092126.874000", "092126.877000", "092126.879000", "092126.881000", "092126.884000", "092206.819000", "092206.821000", "092206.823000", "092206.826000", "092206.828000", "092206.831000", "092206.833000", "092206.835000", "092206.838000", "092206.840000", "092206.842000", "092206.845000", "092206.847000", "092206.850000", "092206.852000", "092206.855000", "092206.857000", "092206.859000", "092206.862000", "092206.864000", "092246.818000", "092246.821000", "092246.829000", "092246.832000", "092246.834000", "092246.836000", "092246.838000", "092246.841000", "092246.843000", "092246.845000", "092246.848000", "092246.850000", "092246.852000", "092246.855000", "092246.857000", "092246.859000", "092246.862000", "092246.864000", "092246.866000", "092246.869000", "092326.818000", "092326.821000", "092326.823000", "092326.826000", "092326.828000", "092326.830000", "092326.833000", "092326.839000", "092326.841000", "092326.843000", "092326.846000", "092326.848000", "092326.851000", "092326.853000", "092326.855000", "092326.858000", "092326.860000", "092326.862000", "092326.865000", "092326.867000", "092406.818000", "092406.821000", "092406.823000", "092406.826000", "092406.828000", "092406.830000", "092406.832000", "092406.835000", "092406.837000", "092406.839000", "092406.842000", "092406.844000", "092406.846000", "092406.849000", "092406.851000", "092406.853000", "092406.856000", "092406.858000", "092406.860000", "092406.863000", "092446.818000", "092446.821000", "092446.823000", "092446.826000", "092446.828000", "092446.830000", "092446.832000", "092446.835000", "092446.837000", "092446.839000", "092446.842000", "092446.844000", "092446.846000", "092446.849000", "092446.851000", "092446.854000", "092446.856000", "092446.858000", "092446.861000", "092446.863000", "092526.819000", "092526.822000", "092526.824000", "092526.826000", "092526.829000", "092526.831000", "092526.839000", "092526.841000", "092526.844000", "092526.846000", "092526.848000", "092526.851000", "092526.853000", "092526.855000", "092526.858000", "092526.860000", "092526.862000", "092526.865000", "092526.867000", "092526.869000", "092606.818000", "092606.821000", "092606.823000", "092606.825000", "092606.828000", "092606.830000", "092606.832000", "092606.835000", "092606.837000", "092606.839000", "092606.842000", "092606.844000", "092606.846000", "092606.849000", "092606.851000", "092606.853000", "092606.856000", "092606.858000", "092606.860000", "092606.863000", "092646.818000", "092646.895000", "092646.897000", "092646.900000", "092646.902000", "092646.905000", "092646.907000", "092646.909000", "092646.911000", "092646.914000", "092646.916000", "092646.918000", "092646.921000", "092646.923000", "092646.925000", "092646.928000", "092646.930000", "092646.932000", "092646.935000", "092646.937000", "092723.239000", "092723.242000", "092723.245000", "092723.247000", "092723.249000", "092723.252000", "092723.254000", "092723.257000", "092723.259000", "092723.261000", "092723.264000", "092723.266000", "092723.269000", "092723.274000", "092723.277000", "092723.280000", "092723.282000", "092723.285000", "092723.288000"],
      "InstanceCreationTime": ["092126.824000", "092126.827000", "092126.835000", "092126.844000", "092126.846000", "092126.849000", "092126.851000", "092126.853000", "092126.856000", "092126.858000", "092126.860000", "092126.863000", "092126.865000", "092126.867000", "092126.870000", "092126.872000", "092126.874000", "092126.877000", "092126.879000", "092126.881000", "092126.884000", "092206.819000", "092206.821000", "092206.823000", "092206.826000", "092206.828000", "092206.831000", "092206.833000", "092206.835000", "092206.838000", "092206.840000", "092206.842000", "092206.845000", "092206.847000", "092206.850000", "092206.852000", "092206.855000", "092206.857000", "092206.859000", "092206.862000", "092206.864000", "092246.818000", "092246.821000", "092246.829000", "092246.832000", "092246.834000", "092246.836000", "092246.838000", "092246.841000", "092246.843000", "092246.845000", "092246.848000", "092246.850000", "092246.852000", "092246.855000", "092246.857000", "092246.859000", "092246.862000", "092246.864000", "092246.866000", "092246.869000", "092326.818000", "092326.821000", "092326.823000", "092326.826000", "092326.828000", "092326.830000", "092326.833000", "092326.839000", "092326.841000", "092326.843000", "092326.846000", "092326.848000", "092326.851000", "092326.853000", "092326.855000", "092326.858000", "092326.860000", "092326.862000", "092326.865000", "092326.867000", "092406.818000", "092406.821000", "092406.823000", "092406.826000", "092406.828000", "092406.830000", "092406.832000", "092406.835000", "092406.837000", "092406.839000", "092406.842000", "092406.844000", "092406.846000", "092406.849000", "092406.851000", "092406.853000", "092406.856000", "092406.858000", "092406.860000", "092406.863000", "092446.818000", "092446.821000", "092446.823000", "092446.826000", "092446.828000", "092446.830000", "092446.832000", "092446.835000", "092446.837000", "092446.839000", "092446.842000", "092446.844000", "092446.846000", "092446.849000", "092446.851000", "092446.854000", "092446.856000", "092446.858000", "092446.861000", "092446.863000", "092526.819000", "092526.822000", "092526.824000", "092526.826000", "092526.829000", "092526.831000", "092526.839000", "092526.841000", "092526.844000", "092526.846000", "092526.848000", "092526.851000", "092526.853000", "092526.855000", "092526.858000", "092526.860000", "092526.862000", "092526.865000", "092526.867000", "092526.869000", "092606.818000", "092606.821000", "092606.823000", "092606.825000", "092606.828000", "092606.830000", "092606.832000", "092606.835000", "092606.837000", "092606.839000", "092606.842000", "092606.844000", "092606.846000", "092606.849000", "092606.851000", "092606.853000", "092606.856000", "092606.858000", "092606.860000", "092606.863000", "092646.818000", "092646.895000", "092646.897000", "092646.900000", "092646.902000", "092646.905000", "092646.907000", "092646.909000", "092646.911000", "092646.914000", "092646.916000", "092646.918000", "092646.921000", "092646.923000", "092646.925000", "092646.928000", "092646.930000", "092646.932000", "092646.935000", "092646.937000", "092723.239000", "092723.242000", "092723.245000", "092723.247000", "092723.249000", "092723.252000", "092723.254000", "092723.257000", "092723.259000", "092723.261000", "092723.264000", "092723.266000", "092723.269000", "092723.274000", "092723.277000", "092723.280000", "092723.282000", "092723.285000", "092723.288000"],
      "InstanceNumber": [1, 2, 3, 4, 5, 6, 7, 8, 9, 10, 11, 12, 13, 14, 15, 16, 17, 18, 19, 20, 21, 22, 23, 24, 25, 26, 27, 28, 29, 30, 31, 32, 33, 34, 35, 36, 37, 38, 39, 40, 41, 42, 43, 44, 45, 46, 47, 48, 49, 50, 51, 52, 53, 54, 55, 56, 57, 58, 59, 60, 61, 62, 63, 64, 65, 66, 67, 68, 69, 70, 71, 72, 73, 74, 75, 76, 77, 78, 79, 80, 81, 82, 83, 84, 85, 86, 87, 88, 89, 90, 91, 92, 93, 94, 95, 96, 97, 98, 99, 100, 101, 102, 103, 104, 105, 106, 107, 108, 109, 110, 111, 112, 113, 114, 115, 116, 117, 118, 119, 120, 121, 122, 123, 124, 125, 126, 127, 128, 129, 130, 131, 132, 133, 134, 135, 136, 137, 138, 139, 140, 141, 142, 143, 144, 145, 146, 147, 148, 149, 150, 151, 152, 153, 154, 155, 156, 157, 158, 159, 160, 161, 162, 163, 164, 165, 166, 167, 168, 169, 170, 171, 172, 173, 174, 175, 176, 177, 178, 179, 180, 181, 182, 183, 184, 185, 186, 187, 188, 189, 190, 191, 192, 193, 194, 195, 196, 197, 198, 199, 200],
      "LargestImagePixelValue": [4021, 4023, 4015, 4024, 4010, 4021, 4011, 4009, 4025, 4022, 4022, 4017, 4019, 4017, 4013, 4007, 4021, 4017, 4009, 4011, 4008, 4010, 4016, 4017, 4001, 4013, 4012, 4009, 4020, 4018, 4013, 4008, 4011, 4015, 4004, 4021, 4026, 4009, 4011, 4008, 4014, 4024, 3998, 4011, 4000, 4019, 3994, 4026, 4012, 4017, 4004, 4013, 4005, 4032, 4015, 4006, 4022, 4007, 4019, 4007, 4004, 4012, 4011, 4016, 4007, 4017, 4012, 4012, 4008, 4002, 4011, 4013, 3997, 4020, 4013, 4016, 4008, 4006, 4013, 4011, 4014, 4014, 4003, 3999, 4005, 4003, 4016, 4008, 4006, 4014, 4005, 4012, 4011, 4007, 4010, 4015, 4008, 4012, 4010, 4002, 4003, 4014, 4006, 4008, 3997, 4010, 3996, 4012, 4006, 3994, 4003, 4011, 4007, 4011, 4010, 4017, 4007, 4004, 4002, 4002, 4008, 4014, 3999, 4005, 4015, 4011, 4011, 4013, 4006, 4004, 4003, 4020, 3996, 3990, 3999, 3999, 4008, 3997, 4012, 4008, 3988, 4001, 4001, 4001, 4004, 4017, 4018, 4008, 4012, 3996, 3998, 4002, 4002, 4004, 4006, 4007, 3991, 4010, 3998, 4001, 4016, 4005, 4003, 4006, 4002, 4007, 4008, 4002, 4008, 4006, 4017, 3999, 3998, 4010, 4000, 4004, 4005, 4015, 3999, 3991, 4001, 4017, 3998, 3998, 3998, 3987, 4003, 4008, 4009, 3991, 4009, 3998, 4017, 4009, 3996, 3997, 3996, 3999, 4004, 4001],
      "WindowCenter": [1451.0, 1450.0, 1450.0, 1451.0, 1450.0, 1450.0, 1450.0, 1449.0, 1449.0, 1450.0, 1449.0, 1449.0, 1449.0, 1450.0, 1449.0, 1449.0, 1450.0, 1450.0, 1449.0, 1448.0, 1448.0, 1448.0, 1449.0, 1448.0, 1448.0, 1448.0, 1449.0, 1448.0, 1449.0, 1448.0, 1448.0, 1448.0, 1448.0, 1448.0, 1448.0, 1448.0, 1447.0, 1448.0, 1447.0, 1447.0, 1448.0, 1447.0, 1448.0, 1448.0, 1447.0, 1447.0, 1448.0, 1447.0, 1447.0, 1447.0, 1448.0, 1448.0, 1448.0, 1447.0, 1448.0, 1448.0, 1447.0, 1447.0, 1447.0, 1448.0, 1447.0, 1447.0, 1447.0, 1448.0, 1447.0, 1447.0, 1446.0, 1447.0, 1448.0, 1448.0, 1447.0, 1447.0, 1447.0, 1448.0, 1447.0, 1447.0, 1447.0, 1448.0, 1447.0, 1447.0, 1447.0, 1448.0, 1447.0, 1447.0, 1447.0, 1447.0, 1448.0, 1447.0, 1447.0, 1447.0, 1447.0, 1446.0, 1446.0, 1447.0, 1447.0, 1448.0, 1447.0, 1447.0, 1446.0, 1446.0, 1446.0, 1447.0, 1446.0, 1446.0, 1446.0, 1445.0, 1446.0, 1446.0, 1445.0, 1445.0, 1446.0, 1445.0, 1446.0, 1446.0, 1446.0, 1446.0, 1445.0, 1445.0, 1445.0, 1445.0, 1445.0, 1446.0, 1445.0, 1445.0, 1445.0, 1445.0, 1445.0, 1445.0, 1445.0, 1444.0, 1445.0, 1444.0, 1445.0, 1445.0, 1445.0, 1444.0, 1444.0, 1444.0, 1444.0, 1445.0, 1443.0, 1444.0, 1444.0, 1443.0, 1445.0, 1444.0, 1444.0, 1445.0, 1445.0, 1444.0, 1444.0, 1444.0, 1444.0, 1445.0, 1444.0, 1444.0, 1444.0, 1444.0, 1444.0, 1444.0, 1443.0, 1443.0, 1443.0, 1445.0, 1444.0, 1444.0, 1444.0, 1443.0, 1444.0, 1443.0, 1443.0, 1444.0, 1444.0, 1443.0, 1444.0, 1445.0, 1443.0, 1443.0, 1444.0, 1444.0, 1443.0, 1444.0, 1444.0, 1444.0, 1444.0, 1443.0, 1444.0, 1444.0, 1443.0, 1443.0, 1443.0, 1443.0, 1443.0, 1443.0, 1443.0, 1443.0, 1443.0, 1443.0, 1443.0, 1443.0],
      "WindowWidth": [3344.0, 3344.0, 3344.0, 3343.0, 3343.0, 3343.0, 3343.0, 3343.0, 3343.0, 3342.0, 3343.0, 3343.0, 3343.0, 3342.0, 3343.0, 3343.0, 3342.0, 3342.0, 3342.0, 3342.0, 3342.0, 3342.0, 3342.0, 3342.0, 3342.0, 3342.0, 3342.0, 3342.0, 3342.0, 3342.0, 3342.0, 3342.0, 3342.0, 3342.0, 3342.0, 3342.0, 3341.0, 3341.0, 3341.0, 3341.0, 3341.0, 3341.0, 3341.0, 3341.0, 3341.0, 3341.0, 3340.0, 3341.0, 3341.0, 3341.0, 3342.0, 3342.0, 3342.0, 3342.0, 3342.0, 3341.0, 3342.0, 3342.0, 3342.0, 3342.0, 3342.0, 3342.0, 3342.0, 3341.0, 3341.0, 3342.0, 3342.0, 3341.0, 3341.0, 3341.0, 3341.0, 3341.0, 3341.0, 3341.0, 3341.0, 3341.0, 3341.0, 3341.0, 3341.0, 3341.0, 3341.0, 3341.0, 3341.0, 3341.0, 3341.0, 3341.0, 3340.0, 3340.0, 3340.0, 3340.0, 3340.0, 3341.0, 3341.0, 3340.0, 3340.0, 3340.0, 3340.0, 3339.0, 3339.0, 3339.0, 3339.0, 3338.0, 3339.0, 3339.0, 3338.0, 3338.0, 3339.0, 3338.0, 3338.0, 3338.0, 3339.0, 3339.0, 3339.0, 3339.0, 3339.0, 3339.0, 3339.0, 3339.0, 3339.0, 3339.0, 3339.0, 3339.0, 3339.0, 3339.0, 3339.0, 3339.0, 3339.0, 3339.0, 3339.0, 3339.0, 3338.0, 3339.0, 3338.0, 3338.0, 3338.0, 3338.0, 3338.0, 3338.0, 3338.0, 3338.0, 3338.0, 3338.0, 3337.0, 3338.0, 3338.0, 3338.0, 3337.0, 3337.0, 3338.0, 3337.0, 3337.0, 3338.0, 3338.0, 3337.0, 3337.0, 3337.0, 3337.0, 3337.0, 3337.0, 3337.0, 3337.0, 3337.0, 3338.0, 3337.0, 3337.0, 3337.0, 3337.0, 3337.0, 3337.0, 3337.0, 3337.0, 3337.0, 3337.0, 3337.0, 3337.0, 3336.0, 3337.0, 3337.0, 3337.0, 3337.0, 3337.0, 3337.0, 3337.0, 3337.0, 3337.0, 3337.0, 3337.0, 3337.0, 3337.0, 3337.0, 3337.0, 3337.0, 3337.0, 3337.0, 3337.0, 3337.0, 3337.0, 3337.0, 3337.0, 3337.0]
    },
    "slices": {}
  }
}