{
  "AcquisitionMatrixPE": 122,
  "AcquisitionNumber": 1,
  "AcquisitionTime": "09:44:58.477500",
  "BandwidthPerPixelPhaseEncode": 27.785,
  "BaseResolution": 122,
  "BodyPartExamined": "BRAIN",
  "CoilCombinationMethod": "Adaptive Combine",
  "ConsistencyInfo": "N4_VE11C_LATEST_20160120",
  "ConversionSoftware": "dcm2niix",
  "ConversionSoftwareVersion": "v1.0.20220720",
  "DerivedVendorReportedEchoSpacing": 0.000590011,
  "DeviceSerialNumber": "66112",
  "DiffusionScheme": "Monopolar",
  "DwellTime": 2e-06,
  "EchoTime": 0.068,
  "EchoTrainLength": 61,
  "EffectiveEchoSpacing": 0.000295005,
  "FlipAngle": 90,
  "HeudiconvVersion": "0.13.1",
  "ImageOrientationPatientDICOM": [0.988003, -0.154432, 0.00065641, 0.146953, 0.941445, 0.303458],
  "ImageOrientationText": "Tra>Cor(17.5)>Sag(2.7)",
  "ImageType": [
    "ORIGINAL",
    "PRIMARY",
    "DIFFUSION",
    "NONE",
    "ND",
    "NORM"
],
  "ImagingFrequency": 123.252,
  "InPlanePhaseEncodingDirectionDICOM": "COL",
  "InstitutionAddress": "Maynard 3,Hanover,NH,US,03755",
  "InstitutionName": "Dartmouth College - PBS",
  "InstitutionalDepartmentName": "Department",
  "MRAcquisitionType": "2D",
  "MagneticFieldStrength": 3,
  "Manufacturer": "Siemens",
  "ManufacturersModelName": "Prisma",
  "Modality": "MR",
  "MultibandAccelerationFactor": 4,
  "NonlinearGradientCorrection": false,
  "ParallelReductionFactorInPlane": 2,
  "PartialFourier": 1,
  "PatientPosition": "HFS",
  "PercentPhaseFOV": 100,
  "PercentSampling": 100,
  "PhaseEncodingDirection": "j-",
  "PhaseEncodingSteps": 122,
  "PhaseResolution": 1,
  "PixelBandwidth": 2050,
  "ProcedureStepDescription": "dbic^QA",
  "ProtocolName": "dwi_acq-DTI-30-p2-s4",
  "PulseSequenceDetails": "%SiemensSeq%\\ep2d_diff",
  "ReceiveCoilActiveElements": "HEA;HEP",
  "ReceiveCoilName": "Head_32",
  "ReconMatrixPE": 122,
  "RefLinesPE": 38,
  "RepetitionTime": 3.6,
  "SAR": 0.138784,
  "ScanOptions": "FS",
  "ScanningSequence": "EP",
  "SequenceName": "*ep_b0",
  "SequenceVariant": "SK\\SP",
  "SeriesDescription": "dwi_acq-DTI-30-p2-s4",
  "SeriesNumber": 13,
  "ShimSetting": [4158, -7694, -7545, 266, -1, -82, -32, 133],
  "SliceThickness": 2,
  "SliceTiming": [2.58594, 0, 1.78906, 0.20312, 1.99219, 0.39844, 2.1875, 0.59375, 2.39062, 0.99219, 2.78125, 1.19531, 2.98438, 1.39062, 3.17969, 1.59375, 3.38281, 0.79688, 2.58594, 0, 1.78906, 0.20312, 1.99219, 0.39844, 2.1875, 0.59375, 2.39062, 0.99219, 2.78125, 1.19531, 2.98438, 1.39062, 3.17969, 1.59375, 3.38281, 0.79688, 2.58594, 0, 1.78906, 0.20312, 1.99219, 0.39844, 2.1875, 0.59375, 2.39062, 0.99219, 2.78125, 1.19531, 2.98438, 1.39062, 3.17969, 1.59375, 3.38281, 0.79688, 2.58594, 0, 1.78906, 0.20312, 1.99219, 0.39844, 2.1875, 0.59375, 2.39062, 0.99219, 2.78125, 1.19531, 2.98438, 1.39062, 3.17969, 1.59375, 3.38281, 0.79688],
  "SoftwareVersions": "syngo MR E11",
  "SpacingBetweenSlices": 2,
  "SpoilingState": true,
  "StationName": "AWP66112",
  "TotalReadoutTime": 0.0356956,
  "TxRefAmp": 217.85,
  "dcmmeta_affine": [
    [-1.9436129331588745, 0.28908780217170715, 0.09496307373046875, 95.048583984375],
    [0.30380064249038696, 1.852022647857666, 0.5994415283203125, -151.09507751464844],
    [0.0012912980746477842, -0.5969656109809875, 1.9056892395019531, -43.874324798583984],
    [0.0, 0.0, 0.0, 1.0]
],
  "dcmmeta_reorient_transform": [
    [0.0, -1.0, 0.0, 121.0],
    [1.0, 0.0, 0.0, 0.0],
    [0.0, 0.0, -1.0, 71.0],
    [0.0, 0.0, 0.0, 1.0]
],
  "dcmmeta_shape": [122, 122, 72, 31],
  "dcmmeta_slice_dim": 2,
  "dcmmeta_version": 0.6,
  "global": {
    "const": {
      "AccessionNumber": "qa",
      "AcquisitionMatrix": [122, 0, 0, 122],
      "AngioFlag": "N",
      "BitsAllocated": 16,
      "BitsStored": 12,
      "BodyPartExamined": "BRAIN",
      "Columns": 122,
      "EchoNumbers": 1,
      "EchoTime": 68.0,
      "EchoTrainLength": 61,
      "FlipAngle": 90.0,
      "HighBit": 11,
      "ImageOrientationPatient": [0.98800320356235, -0.1544319878673, 0.0006564098362, 0.14695296782488, 0.94144482303858, 0.30345752655241],
      "ImageType": [
        "ORIGINAL",
        "PRIMARY",
        "DIFFUSION",
        "NONE",
        "ND",
        "NORM"
],
      "ImagedNucleus": "1H",
      "ImagingFrequency": 123.252347,
      "InPlanePhaseEncodingDirection": "COL",
      "MRAcquisitionType": "2D",
      "MagneticFieldStrength": 3.0,
      "Manufacturer": "SIEMENS",
      "ManufacturerModelName": "Prisma",
      "Modality": "MR",
      "NumberOfAverages": 1.0,
      "NumberOfPhaseEncodingSteps": 122,
      "PercentPhaseFieldOfView": 100.0,
      "PercentSampling": 100.0,
      "PerformedProcedureStepStartTime": "090758.840000",
      "PhotometricInterpretation": "MONOCHROME2",
      "PixelBandwidth": 2050.0,
      "PixelRepresentation": 0,
      "PixelSpacing": [1.9672131538391, 1.9672131538391],
      "ProtocolName": "dwi_acq-DTI-30-p2-s4",
      "RepetitionTime": 3600.0,
      "Rows": 122,
      "SAR": 0.13878439592128,
      "SamplesPerPixel": 1,
      "ScanOptions": "FS",
      "ScanningSequence": "EP",
      "SequenceVariant": [
        "SK",
        "SP"
],
      "SeriesDescription": "dwi_acq-DTI-30-p2-s4",
      "SeriesNumber": 13,
      "SeriesTime": "094507.785000",
      "SliceThickness": 2.0,
      "SmallestImagePixelValue": 0,
      "SoftwareVersions": "syngo MR E11",
      "SpacingBetweenSlices": 2.0,
      "SpecificCharacterSet": "ISO_IR 100",
      "StudyID": "47",
      "StudyTime": "090758.791000",
      "TransmitCoilName": "Body",
      "VariableFlipAngleFlag": "N",
      "WindowCenterWidthExplanation": "Algo1",
      "dBdt": 0.0},
    "slices": {
      "AcquisitionTime": ["094458.477500", "094455.892500", "094457.682500", "094456.090000", "094457.880000", "094456.290000", "094458.080000", "094456.487500", "094458.277500", "094456.885000", "094458.675000", "094457.085000", "094458.875000", "094457.282500", "094459.072500", "094457.482500", "094459.272500", "094456.687500", "094458.477500", "094455.892500", "094457.682500", "094456.090000", "094457.880000", "094456.290000", "094458.080000", "094456.487500", "094458.277500", "094456.885000", "094458.675000", "094457.085000", "094458.875000", "094457.282500", "094459.072500", "094457.482500", "094459.272500", "094456.687500", "094458.477500", "094455.892500", "094457.682500", "094456.090000", "094457.880000", "094456.290000", "094458.080000", "094456.487500", "094458.277500", "094456.885000", "094458.675000", "094457.085000", "094458.875000", "094457.282500", "094459.072500", "094457.482500", "094459.272500", "094456.687500", "094458.477500", "094455.892500", "094457.682500", "094456.090000", "094457.880000", "094456.290000", "094458.080000", "094456.487500", "094458.277500", "094456.885000", "094458.675000", "094457.085000", "094458.875000", "094457.282500", "094459.072500", "094457.482500", "094459.272500", "094456.687500", "094502.077500", "094459.492500", "094501.282500", "094459.690000", "094501.480000", "094459.890000", "094501.680000", "094500.087500", "094501.877500", "094500.485000", "094502.275000", "094500.685000", "094502.475000", "094500.882500", "094502.672500", "094501.082500", "094502.872500", "094500.287500", "094502.077500", "094459.492500", "094501.282500", "094459.690000", "094501.480000", "094459.890000", "094501.680000", "094500.087500", "094501.877500", "094500.485000", "094502.275000", "094500.685000", "094502.475000", "094500.882500", "094502.672500", "094501.082500", "094502.872500", "094500.287500", "094502.077500", "094459.492500", "094501.282500", "094459.690000", "094501.480000", "094459.890000", "094501.680000", "094500.087500", "094501.877500", "094500.485000", "094502.275000", "094500.685000", "094502.475000", "094500.882500", "094502.672500", "094501.082500", "094502.872500", "094500.287500", "094502.077500", "094459.492500", "094501.282500", "094459.690000", "094501.480000", "094459.890000", "094501.680000", "094500.087500", "094501.877500", "094500.485000", "094502.275000", "094500.685000", "094502.475000", "094500.882500", "094502.672500", "094501.082500", "094502.872500", "094500.287500", "094505.677500", "094503.092500", "094504.882500", "094503.290000", "094505.080000", "094503.490000", "094505.280000", "094503.687500", "094505.477500", "094504.085000", "094505.875000", "094504.285000", "094506.075000", "094504.482500", "094506.272500", "094504.682500", "094506.472500", "094503.887500", "094505.677500", "094503.092500", "094504.882500", "094503.290000", "094505.080000", "094503.490000", "094505.280000", "094503.687500", "094505.477500", "094504.085000", "094505.875000", "094504.285000", "094506.075000", "094504.482500", "094506.272500", "094504.682500", "094506.472500", "094503.887500", "094505.677500", "094503.092500", "094504.882500", "094503.290000", "094505.080000", "094503.490000", "094505.280000", "094503.687500", "094505.477500", "094504.085000", "094505.875000", "094504.285000", "094506.075000", "094504.482500", "094506.272500", "094504.682500", "094506.472500", "094503.887500", "094505.677500", "094503.092500", "094504.882500", "094503.290000", "094505.080000", "094503.490000", "094505.280000", "094503.687500", "094505.477500", "094504.085000", "094505.875000", "094504.285000", "094506.075000", "094504.482500", "094506.272500", "094504.682500", "094506.472500", "094503.887500", "094509.277500", "094506.692500", "094508.482500", "094506.890000", "094508.680000", "094507.090000", "094508.880000", "094507.287500", "094509.077500", "094507.685000", "094509.475000", "094507.885000", "094509.675000", "094508.082500", "094509.872500", "094508.282500", "094510.072500", "094507.487500", "094509.277500", "094506.692500", "094508.482500", "094506.890000", "094508.680000", "094507.090000", "094508.880000", "094507.287500", "094509.077500", "094507.685000", "094509.475000", "094507.885000", "094509.675000", "094508.082500", "094509.872500", "094508.282500", "094510.072500", "094507.487500", "094509.277500", "094506.692500", "094508.482500", "094506.890000", "094508.680000", "094507.090000", "094508.880000", "094507.287500", "094509.077500", "094507.685000", "094509.475000", "094507.885000", "094509.675000", "094508.082500", "094509.872500", "094508.282500", "094510.072500", "094507.487500", "094509.277500", "094506.692500", "094508.482500", "094506.890000", "094508.680000", "094507.090000", "094508.880000", "094507.287500", "094509.077500", "094507.685000", "094509.475000", "094507.885000", "094509.675000", "094508.082500", "094509.872500", "094508.282500", "094510.072500", "094507.487500", "094512.877500", "094510.292500", "094512.082500", "094510.490000", "094512.280000", "094510.690000", "094512.480000", "094510.887500", "094512.677500", "094511.285000", "094513.075000", "094511.485000", "094513.275000", "094511.682500", "094513.472500", "094511.882500", "094513.672500", "094511.087500", "094512.877500", "094510.292500", "094512.082500", "094510.490000", "094512.280000", "094510.690000", "094512.480000", "094510.887500", "094512.677500", "094511.285000", "094513.075000", "094511.485000", "094513.275000", "094511.682500", "094513.472500", "094511.882500", "094513.672500", "094511.087500", "094512.877500", "094510.292500", "094512.082500", "094510.490000", "094512.280000", "094510.690000", "094512.480000", "094510.887500", "094512.677500", "094511.285000", "094513.075000", "094511.485000", "094513.275000", "094511.682500", "094513.472500", "094511.882500", "094513.672500", "094511.087500", "094512.877500", "094510.292500", "094512.082500", "094510.490000", "094512.280000", "094510.690000", "094512.480000", "094510.887500", "094512.677500", "094511.285000", "094513.075000", "094511.485000", "094513.275000", "094511.682500", "094513.472500", "094511.882500", "094513.672500", "094511.087500", "094516.477500", "094513.892500", "094515.682500", "094514.090000", "094515.880000", "094514.290000", "094516.080000", "094514.487500", "094516.277500", "094514.885000", "094516.675000", "094515.085000", "094516.875000", "094515.282500", "094517.072500", "094515.482500", "094517.272500", "094514.687500", "094516.477500", "094513.892500", "094515.682500", "094514.090000", "094515.880000", "094514.290000", "094516.080000", "094514.487500", "094516.277500", "094514.885000", "094516.675000", "094515.085000", "094516.875000", "094515.282500", "094517.072500", "094515.482500", "094517.272500", "094514.687500", "094516.477500", "094513.892500", "094515.682500", "094514.090000", "094515.880000", "094514.290000", "094516.080000", "094514.487500", "094516.277500", "094514.885000", "094516.675000", "094515.085000", "094516.875000", "094515.282500", "094517.072500", "094515.482500", "094517.272500", "094514.687500", "094516.477500", "094513.892500", "094515.682500", "094514.090000", "094515.880000", "094514.290000", "094516.080000", "094514.487500", "094516.277500", "094514.885000", "094516.675000", "094515.085000", "094516.875000", "094515.282500", "094517.072500", "094515.482500", "094517.272500", "094514.687500", "094520.077500", "094517.492500", "094519.282500", "094517.690000", "094519.480000", "094517.890000", "094519.680000", "094518.087500", "094519.877500", "094518.485000", "094520.275000", "094518.685000", "094520.475000", "094518.882500", "094520.672500", "094519.082500", "094520.872500", "094518.287500", "094520.077500", "094517.492500", "094519.282500", "094517.690000", "094519.480000", "094517.890000", "094519.680000", "094518.087500", "094519.877500", "094518.485000", "094520.275000", "094518.685000", "094520.475000", "094518.882500", "094520.672500", "094519.082500", "094520.872500", "094518.287500", "094520.077500", "094517.492500", "094519.282500", "094517.690000", "094519.480000", "094517.890000", "094519.680000", "094518.087500", "094519.877500", "094518.485000", "094520.275000", "094518.685000", "094520.475000", "094518.882500", "094520.672500", "094519.082500", "094520.872500", "094518.287500", "094520.077500", "094517.492500", "094519.282500", "094517.690000", "094519.480000", "094517.890000", "094519.680000", "094518.087500", "094519.877500", "094518.485000", "094520.275000", "094518.685000", "094520.475000", "094518.882500", "094520.672500", "094519.082500", "094520.872500", "094518.287500", "094523.677500", "094521.092500", "094522.882500", "094521.290000", "094523.080000", "094521.490000", "094523.280000", "094521.687500", "094523.477500", "094522.085000", "094523.875000", "094522.285000", "094524.075000", "094522.482500", "094524.272500", "094522.682500", "094524.472500", "094521.887500", "094523.677500", "094521.092500", "094522.882500", "094521.290000", "094523.080000", "094521.490000", "094523.280000", "094521.687500", "094523.477500", "094522.085000", "094523.875000", "094522.285000", "094524.075000", "094522.482500", "094524.272500", "094522.682500", "094524.472500", "094521.887500", "094523.677500", "094521.092500", "094522.882500", "094521.290000", "094523.080000", "094521.490000", "094523.280000", "094521.687500", "094523.477500", "094522.085000", "094523.875000", "094522.285000", "094524.075000", "094522.482500", "094524.272500", "094522.682500", "094524.472500", "094521.887500", "094523.677500", "094521.092500", "094522.882500", "094521.290000", "094523.080000", "094521.490000", "094523.280000", "094521.687500", "094523.477500", "094522.085000", "094523.875000", "094522.285000", "094524.075000", "094522.482500", "094524.272500", "094522.682500", "094524.472500", "094521.887500", "094527.277500", "094524.692500", "094526.482500", "094524.890000", "094526.680000", "094525.090000", "094526.880000", "094525.287500", "094527.077500", "094525.685000", "094527.475000", "094525.885000", "094527.675000", "094526.082500", "094527.872500", "094526.282500", "094528.072500", "094525.487500", "094527.277500", "094524.692500", "094526.482500", "094524.890000", "094526.680000", "094525.090000", "094526.880000", "094525.287500", "094527.077500", "094525.685000", "094527.475000", "094525.885000", "094527.675000", "094526.082500", "094527.872500", "094526.282500", "094528.072500", "094525.487500", "094527.277500", "094524.692500", "094526.482500", "094524.890000", "094526.680000", "094525.090000", "094526.880000", "094525.287500", "094527.077500", "094525.685000", "094527.475000", "094525.885000", "094527.675000", "094526.082500", "094527.872500", "094526.282500", "094528.072500", "094525.487500", "094527.277500", "094524.692500", "094526.482500", "094524.890000", "094526.680000", "094525.090000", "094526.880000", "094525.287500", "094527.077500", "094525.685000", "094527.475000", "094525.885000", "094527.675000", "094526.082500", "094527.872500", "094526.282500", "094528.072500", "094525.487500", "094530.877500", "094528.292500", "094530.082500", "094528.490000", "094530.280000", "094528.690000", "094530.480000", "094528.887500", "094530.677500", "094529.285000", "094531.075000", "094529.485000", "094531.275000", "094529.682500", "094531.472500", "094529.882500", "094531.672500", "094529.087500", "094530.877500", "094528.292500", "094530.082500", "094528.490000", "094530.280000", "094528.690000", "094530.480000", "094528.887500", "094530.677500", "094529.285000", "094531.075000", "094529.485000", "094531.275000", "094529.682500", "094531.472500", "094529.882500", "094531.672500", "094529.087500", "094530.877500", "094528.292500", "094530.082500", "094528.490000", "094530.280000", "094528.690000", "094530.480000", "094528.887500", "094530.677500", "094529.285000", "094531.075000", "094529.485000", "094531.275000", "094529.682500", "094531.472500", "094529.882500", "094531.672500", "094529.087500", "094530.877500", "094528.292500", "094530.082500", "094528.490000", "094530.280000", "094528.690000", "094530.480000", "094528.887500", "094530.677500", "094529.285000", "094531.075000", "094529.485000", "094531.275000", "094529.682500", "094531.472500", "094529.882500", "094531.672500", "094529.087500", "094534.477500", "094531.892500", "094533.682500", "094532.090000", "094533.880000", "094532.290000", "094534.080000", "094532.487500", "094534.277500", "094532.885000", "094534.675000", "094533.085000", "094534.875000", "094533.282500", "094535.072500", "094533.482500", "094535.272500", "094532.687500", "094534.477500", "094531.892500", "094533.682500", "094532.090000", "094533.880000", "094532.290000", "094534.080000", "094532.487500", "094534.277500", "094532.885000", "094534.675000", "094533.085000", "094534.875000", "094533.282500", "094535.072500", "094533.482500", "094535.272500", "094532.687500", "094534.477500", "094531.892500", "094533.682500", "094532.090000", "094533.880000", "094532.290000", "094534.080000", "094532.487500", "094534.277500", "094532.885000", "094534.675000", "094533.085000", "094534.875000", "094533.282500", "094535.072500", "094533.482500", "094535.272500", "094532.687500", "094534.477500", "094531.892500", "094533.682500", "094532.090000", "094533.880000", "094532.290000", "094534.080000", "094532.487500", "094534.277500", "094532.885000", "094534.675000", "094533.085000", "094534.875000", "094533.282500", "094535.072500", "094533.482500", "094535.272500", "094532.687500", "094538.077500", "094535.492500", "094537.282500", "094535.690000", "094537.480000", "094535.890000", "094537.680000", "094536.087500", "094537.877500", "094536.485000", "094538.275000", "094536.685000", "094538.475000", "094536.882500", "094538.672500", "094537.082500", "094538.872500", "094536.287500", "094538.077500", "094535.492500", "094537.282500", "094535.690000", "094537.480000", "094535.890000", "094537.680000", "094536.087500", "094537.877500", "094536.485000", "094538.275000", "094536.685000", "094538.475000", "094536.882500", "094538.672500", "094537.082500", "094538.872500", "094536.287500", "094538.077500", "094535.492500", "094537.282500", "094535.690000", "094537.480000", "094535.890000", "094537.680000", "094536.087500", "094537.877500", "094536.485000", "094538.275000", "094536.685000", "094538.475000", "094536.882500", "094538.672500", "094537.082500", "094538.872500", "094536.287500", "094538.077500", "094535.492500", "094537.282500", "094535.690000", "094537.480000", "094535.890000", "094537.680000", "094536.087500", "094537.877500", "094536.485000", "094538.275000", "094536.685000", "094538.475000", "094536.882500", "094538.672500", "094537.082500", "094538.872500", "094536.287500", "094541.677500", "094539.092500", "094540.882500", "094539.290000", "094541.080000", "094539.490000", "094541.280000", "094539.687500", "094541.477500", "094540.085000", "094541.875000", "094540.285000", "094542.075000", "094540.482500", "094542.272500", "094540.682500", "094542.472500", "094539.887500", "094541.677500", "094539.092500", "094540.882500", "094539.290000", "094541.080000", "094539.490000", "094541.280000", "094539.687500", "094541.477500", "094540.085000", "094541.875000", "094540.285000", "094542.075000", "094540.482500", "094542.272500", "094540.682500", "094542.472500", "094539.887500", "094541.677500", "094539.092500", "094540.882500", "094539.290000", "094541.080000", "094539.490000", "094541.280000", "094539.687500", "094541.477500", "094540.085000", "094541.875000", "094540.285000", "094542.075000", "094540.482500", "094542.272500", "094540.682500", "094542.472500", "094539.887500", "094541.677500", "094539.092500", "094540.882500", "094539.290000", "094541.080000", "094539.490000", "094541.280000", "094539.687500", "094541.477500", "094540.085000", "094541.875000", "094540.285000", "094542.075000", "094540.482500", "094542.272500", "094540.682500", "094542.472500", "094539.887500", "094545.277500", "094542.692500", "094544.482500", "094542.890000", "094544.680000", "094543.090000", "094544.880000", "094543.287500", "094545.077500", "094543.685000", "094545.475000", "094543.885000", "094545.675000", "094544.082500", "094545.872500", "094544.282500", "094546.072500", "094543.487500", "094545.277500", "094542.692500", "094544.482500", "094542.890000", "094544.680000", "094543.090000", "094544.880000", "094543.287500", "094545.077500", "094543.685000", "094545.475000", "094543.885000", "094545.675000", "094544.082500", "094545.872500", "094544.282500", "094546.072500", "094543.487500", "094545.277500", "094542.692500", "094544.482500", "094542.890000", "094544.680000", "094543.090000", "094544.880000", "094543.287500", "094545.077500", "094543.685000", "094545.475000", "094543.885000", "094545.675000", "094544.082500", "094545.872500", "094544.282500", "094546.072500", "094543.487500", "094545.277500", "094542.692500", "094544.482500", "094542.890000", "094544.680000", "094543.090000", "094544.880000", "094543.287500", "094545.077500", "094543.685000", "094545.475000", "094543.885000", "094545.675000", "094544.082500", "094545.872500", "094544.282500", "094546.072500", "094543.487500", "094548.877500", "094546.292500", "094548.082500", "094546.490000", "094548.280000", "094546.690000", "094548.480000", "094546.887500", "094548.677500", "094547.285000", "094549.075000", "094547.485000", "094549.275000", "094547.682500", "094549.472500", "094547.882500", "094549.672500", "094547.087500", "094548.877500", "094546.292500", "094548.082500", "094546.490000", "094548.280000", "094546.690000", "094548.480000", "094546.887500", "094548.677500", "094547.285000", "094549.075000", "094547.485000", "094549.275000", "094547.682500", "094549.472500", "094547.882500", "094549.672500", "094547.087500", "094548.877500", "094546.292500", "094548.082500", "094546.490000", "094548.280000", "094546.690000", "094548.480000", "094546.887500", "094548.677500", "094547.285000", "094549.075000", "094547.485000", "094549.275000", "094547.682500", "094549.472500", "094547.882500", "094549.672500", "094547.087500", "094548.877500", "094546.292500", "094548.082500", "094546.490000", "094548.280000", "094546.690000", "094548.480000", "094546.887500", "094548.677500", "094547.285000", "094549.075000", "094547.485000", "094549.275000", "094547.682500", "094549.472500", "094547.882500", "094549.672500", "094547.087500", "094552.477500", "094549.892500", "094551.682500", "094550.090000", "094551.880000", "094550.290000", "094552.080000", "094550.487500", "094552.277500", "094550.885000", "094552.675000", "094551.085000", "094552.875000", "094551.282500", "094553.072500", "094551.482500", "094553.272500", "094550.687500", "094552.477500", "094549.892500", "094551.682500", "094550.090000", "094551.880000", "094550.290000", "094552.080000", "094550.487500", "094552.277500", "094550.885000", "094552.675000", "094551.085000", "094552.875000", "094551.282500", "094553.072500", "094551.482500", "094553.272500", "094550.687500", "094552.477500", "094549.892500", "094551.682500", "094550.090000", "094551.880000", "094550.290000", "094552.080000", "094550.487500", "094552.277500", "094550.885000", "094552.675000", "094551.085000", "094552.875000", "094551.282500", "094553.072500", "094551.482500", "094553.272500", "094550.687500", "094552.477500", "094549.892500", "094551.682500", "094550.090000", "094551.880000", "094550.290000", "094552.080000", "094550.487500", "094552.277500", "094550.885000", "094552.675000", "094551.085000", "094552.875000", "094551.282500", "094553.072500", "094551.482500", "094553.272500", "094550.687500", "094556.077500", "094553.492500", "094555.282500", "094553.690000", "094555.480000", "094553.890000", "094555.680000", "094554.087500", "094555.877500", "094554.485000", "094556.275000", "094554.685000", "094556.475000", "094554.882500", "094556.672500", "094555.082500", "094556.872500", "094554.287500", "094556.077500", "094553.492500", "094555.282500", "094553.690000", "094555.480000", "094553.890000", "094555.680000", "094554.087500", "094555.877500", "094554.485000", "094556.275000", "094554.685000", "094556.475000", "094554.882500", "094556.672500", "094555.082500", "094556.872500", "094554.287500", "094556.077500", "094553.492500", "094555.282500", "094553.690000", "094555.480000", "094553.890000", "094555.680000", "094554.087500", "094555.877500", "094554.485000", "094556.275000", "094554.685000", "094556.475000", "094554.882500", "094556.672500", "094555.082500", "094556.872500", "094554.287500", "094556.077500", "094553.492500", "094555.282500", "094553.690000", "094555.480000", "094553.890000", "094555.680000", "094554.087500", "094555.877500", "094554.485000", "094556.275000", "094554.685000", "094556.475000", "094554.882500", "094556.672500", "094555.082500", "094556.872500", "094554.287500", "094559.677500", "094557.092500", "094558.882500", "094557.290000", "094559.080000", "094557.490000", "094559.280000", "094557.687500", "094559.477500", "094558.085000", "094559.875000", "094558.285000", "094600.075000", "094558.482500", "094600.272500", "094558.682500", "094600.472500", "094557.887500", "094559.677500", "094557.092500", "094558.882500", "094557.290000", "094559.080000", "094557.490000", "094559.280000", "094557.687500", "094559.477500", "094558.085000", "094559.875000", "094558.285000", "094600.075000", "094558.482500", "094600.272500", "094558.682500", "094600.472500", "094557.887500", "094559.677500", "094557.092500", "094558.882500", "094557.290000", "094559.080000", "094557.490000", "094559.280000", "094557.687500", "094559.477500", "094558.085000", "094559.875000", "094558.285000", "094600.075000", "094558.482500", "094600.272500", "094558.682500", "094600.472500", "094557.887500", "094559.677500", "094557.092500", "094558.882500", "094557.290000", "094559.080000", "094557.490000", "094559.280000", "094557.687500", "094559.477500", "094558.085000", "094559.875000", "094558.285000", "094600.075000", "094558.482500", "094600.272500", "094558.682500", "094600.472500", "094557.887500", "094603.277500", "094600.692500", "094602.482500", "094600.890000", "094602.680000", "094601.090000", "094602.880000", "094601.287500", "094603.077500", "094601.685000", "094603.475000", "094601.885000", "094603.675000", "094602.082500", "094603.872500", "094602.282500", "094604.072500", "094601.487500", "094603.277500", "094600.692500", "094602.482500", "094600.890000", "094602.680000", "094601.090000", "094602.880000", "094601.287500", "094603.077500", "094601.685000", "094603.475000", "094601.885000", "094603.675000", "094602.082500", "094603.872500", "094602.282500", "094604.072500", "094601.487500", "094603.277500", "094600.692500", "094602.482500", "094600.890000", "094602.680000", "094601.090000", "094602.880000", "094601.287500", "094603.077500", "094601.685000", "094603.475000", "094601.885000", "094603.675000", "094602.082500", "094603.872500", "094602.282500", "094604.072500", "094601.487500", "094603.277500", "094600.692500", "094602.482500", "094600.890000", "094602.680000", "094601.090000", "094602.880000", "094601.287500", "094603.077500", "094601.685000", "094603.475000", "094601.885000", "094603.675000", "094602.082500", "094603.872500", "094602.282500", "094604.072500", "094601.487500", "094606.877500", "094604.292500", "094606.082500", "094604.490000", "094606.280000", "094604.690000", "094606.480000", "094604.887500", "094606.677500", "094605.285000", "094607.075000", "094605.485000", "094607.275000", "094605.682500", "094607.472500", "094605.882500", "094607.672500", "094605.087500", "094606.877500", "094604.292500", "094606.082500", "094604.490000", "094606.280000", "094604.690000", "094606.480000", "094604.887500", "094606.677500", "094605.285000", "094607.075000", "094605.485000", "094607.275000", "094605.682500", "094607.472500", "094605.882500", "094607.672500", "094605.087500", "094606.877500", "094604.292500", "094606.082500", "094604.490000", "094606.280000", "094604.690000", "094606.480000", "094604.887500", "094606.677500", "094605.285000", "094607.075000", "094605.485000", "094607.275000", "094605.682500", "094607.472500", "094605.882500", "094607.672500", "094605.087500", "094606.877500", "094604.292500", "094606.082500", "094604.490000", "094606.280000", "094604.690000", "094606.480000", "094604.887500", "094606.677500", "094605.285000", "094607.075000", "0946