{
  "AcquisitionMatrixPE": 80,
  "AcquisitionNumber": 1,
  "AcquisitionTime": "09:37:10.960000",
  "BandwidthPerPixelPhaseEncode": 48.077,
  "BaseResolution": 80,
  "BodyPartExamined": "BRAIN",
  "CoilCombinationMethod": "Sum of Squares",
  "ConsistencyInfo": "N4_VE11E_LATEST_20181129",
  "ConversionSoftware": "dcm2niix",
  "ConversionSoftwareVersion": "v1.0.20220720",
  "DerivedVendorReportedEchoSpacing": 0.000519999,
  "DeviceSerialNumber": "66112",
  "DwellTime": 2.7e-06,
  "EchoTime": 0.035,
  "EchoTrainLength": 39,
  "EffectiveEchoSpacing": 0.00026,
  "FlipAngle": 90,
  "HeudiconvVersion": "0.13.1",
  "ImageOrientationPatientDICOM": [0.999944, 0.00867624, 0.00611145, -0.0101227, 0.952706, 0.303725],
  "ImageOrientationText": "Tra>Cor(17.7)>Sag(0.2)",
  "ImageType": [
    "ORIGINAL",
    "PRIMARY",
    "M",
    "ND",
    "NORM",
    "MOSAIC"
],
  "ImagingFrequency": 123.259,
  "InPlanePhaseEncodingDirectionDICOM": "COL",
  "InstitutionAddress": "Maynard 3,Hanover,NH,US,03755",
  "InstitutionName": "Dartmouth College - PBS",
  "InstitutionalDepartmentName": "Department",
  "MRAcquisitionType": "2D",
  "MagneticFieldStrength": 3,
  "Manufacturer": "Siemens",
  "ManufacturersModelName": "Prisma",
  "MatrixCoilMode": "GRAPPA",
  "Modality": "MR",
  "NonlinearGradientCorrection": false,
  "ParallelReductionFactorInPlane": 2,
  "PartialFourier": 1,
  "PatientPosition": "HFS",
  "PercentPhaseFOV": 100,
  "PercentSampling": 100,
  "PhaseEncodingDirection": "j-",
  "PhaseEncodingSteps": 79,
  "PhaseResolution": 1,
  "PixelBandwidth": 2315,
  "ProcedureStepDescription": "dbic^QA",
  "ProtocolName": "func-bold_task-rest_acq-p2",
  "PulseSequenceDetails": "%SiemensSeq%\\ep2d_bold",
  "ReceiveCoilActiveElements": "HEA;HEP",
  "ReceiveCoilName": "Head_32",
  "ReconMatrixPE": 80,
  "RefLinesPE": 24,
  "RepetitionTime": 2,
  "SAR": 0.0468165,
  "ScanOptions": "FS",
  "ScanningSequence": "EP",
  "SequenceName": "*epfid2d1_80",
  "SequenceVariant": "SK",
  "SeriesDescription": "func-bold_task-rest_acq-p2",
  "SeriesNumber": 5,
  "ShimSetting": [4219, -7734, -7495, -38, -160, -74, -8, 77],
  "SliceThickness": 3.5,
  "SliceTiming": [0.99, 0, 1.055, 0.065, 1.12, 0.13, 1.1875, 0.1975, 1.2525, 0.2625, 1.3175, 0.33, 1.385, 0.395, 1.45, 0.46, 1.5175, 0.5275, 1.5825, 0.5925, 1.6475, 0.66, 1.715, 0.725, 1.78, 0.79, 1.8475, 0.8575, 1.9125, 0.9225],
  "SoftwareVersions": "syngo MR E11",
  "SpacingBetweenSlices": 3.99,
  "StationName": "AWP66112",
  "TaskName": "rest",
  "TotalReadoutTime": 0.02054,
  "TxRefAmp": 225.683,
  "dcmmeta_affine": [
    [-2.999830961227417, -0.0303680207580328, 0.01271702628582716, 122.6081771850586],
    [-0.026028713211417198, 2.8581180572509766, 1.2120410203933716, -125.56491088867188],
    [0.018334347754716873, -0.9111747741699219, 3.8014333248138428, -27.38295555114746],
    [0.0, 0.0, 0.0, 1.0]
],
  "dcmmeta_reorient_transform": [
    [0.0, -1.0, 0.0, 79.0],
    [1.0, 0.0, 0.0, 0.0],
    [0.0, 0.0, 1.0, 0.0],
    [0.0, 0.0, 0.0, 1.0]
],
  "dcmmeta_shape": [80, 80, 30, 200],
  "dcmmeta_slice_dim": 2,
  "dcmmeta_version": 0.6,
  "global": {
    "const": {
      "AccessionNumber": "qa",
      "AcquisitionMatrix": [80, 0, 0, 80],
      "AngioFlag": "N",
      "BitsAllocated": 16,
      "BitsStored": 12,
      "BodyPartExamined": "BRAIN",
      "Columns": 480,
      "EchoNumbers": 1,
      "EchoTime": 35.0,
      "EchoTrainLength": 39,
      "FlipAngle": 90.0,
      "HighBit": 11,
      "ImageOrientationPatient": [0.9999436849558, 0.00867623799743, 0.00611144919181, -0.0101226733887, 0.95270599082011, 0.30372491919325],
      "ImagePositionPatient": [-714.10171252061, -677.05574990701, -285.26758333905],
      "ImageType": [
        "ORIGINAL",
        "PRIMARY",
        "M",
        "ND",
        "NORM",
        "MOSAIC"
],
      "ImagedNucleus": "1H",
      "ImagingFrequency": 123.259153,
      "InPlanePhaseEncodingDirection": "COL",
      "MRAcquisitionType": "2D",
      "MagneticFieldStrength": 3.0,
      "Manufacturer": "SIEMENS",
      "ManufacturerModelName": "Prisma",
      "Modality": "MR",
      "NumberOfAverages": 1.0,
      "NumberOfPhaseEncodingSteps": 79,
      "PercentPhaseFieldOfView": 100.0,
      "PercentSampling": 100.0,
      "PerformedProcedureStepStartTime": "093354.933000",
      "PhotometricInterpretation": "MONOCHROME2",
      "PixelBandwidth": 2315.0,
      "PixelRepresentation": 0,
      "PixelSpacing": [3.0, 3.0],
      "ProtocolName": "func-bold_task-rest_acq-p2",
      "RepetitionTime": 2000.0,
      "Rows": 480,
      "SAR": 0.04681648447669,
      "SamplesPerPixel": 1,
      "ScanOptions": "FS",
      "ScanningSequence": "EP",
      "SequenceName": "*epfid2d1_80",
      "SequenceVariant": "SK",
      "SeriesDescription": "func-bold_task-rest_acq-p2",
      "SeriesNumber": 5,
      "SeriesTime": "093758.128000",
      "SliceLocation": -63.840874247933,
      "SliceThickness": 3.5,
      "SmallestImagePixelValue": 0,
      "SoftwareVersions": "syngo MR E11",
      "SpacingBetweenSlices": 3.990000040478,
      "SpecificCharacterSet": "ISO_IR 100",
      "StudyID": "5",
      "StudyTime": "093354.865000",
      "TransmitCoilName": "Body",
      "VariableFlipAngleFlag": "N",
      "WindowCenterWidthExplanation": "Algo1"
    },
    "slices": {}
  },
  "time": {
    "samples": {
      "AcquisitionNumber": [1, 2, 3, 4, 5, 6, 7, 8, 9, 10, 11, 12, 13, 14, 15, 16, 17, 18, 19, 20, 21, 22, 23, 24, 25, 26, 27, 28, 29, 30, 31, 32, 33, 34, 35, 36, 37, 38, 39, 40, 41, 42, 43, 44, 45, 46, 47, 48, 49, 50, 51, 52, 53, 54, 55, 56, 57, 58, 59, 60, 61, 62, 63, 64, 65, 66, 67, 68, 69, 70, 71, 72, 73, 74, 75, 76, 77, 78, 79, 80, 81, 82, 83, 84, 85, 86, 87, 88, 89, 90, 91, 92, 93, 94, 95, 96, 97, 98, 99, 100, 101, 102, 103, 104, 105, 106, 107, 108, 109, 110, 111, 112, 113, 114, 115, 116, 117, 118, 119, 120, 121, 122, 123, 124, 125, 126, 127, 128, 129, 130, 131, 132, 133, 134, 135, 136, 137, 138, 139, 140, 141, 142, 143, 144, 145, 146, 147, 148, 149, 150, 151, 152, 153, 154, 155, 156, 157, 158, 159, 160, 161, 162, 163, 164, 165, 166, 167, 168, 169, 170, 171, 172, 173, 174, 175, 176, 177, 178, 179, 180, 181, 182, 183, 184, 185, 186, 187, 188, 189, 190, 191, 192, 193, 194, 195, 196, 197, 198, 199, 200],
      "AcquisitionTime": ["093710.960000", "093712.960000", "093714.960000", "093716.960000", "093718.960000", "093720.960000", "093722.960000", "093724.960000", "093726.960000", "093728.960000", "093730.960000", "093732.960000", "093734.960000", "093736.960000", "093738.960000", "093740.960000", "093742.960000", "093744.960000", "093746.960000", "093748.960000", "093750.960000", "093752.960000", "093754.960000", "093756.960000", "093758.960000", "093800.960000", "093802.960000", "093804.960000", "093806.960000", "093808.960000", "093810.960000", "093812.960000", "093814.960000", "093816.960000", "093818.960000", "093820.960000", "093822.960000", "093824.960000", "093826.960000", "093828.960000", "093830.960000", "093832.960000", "093834.960000", "093836.960000", "093838.960000", "093840.960000", "093842.960000", "093844.960000", "093846.960000", "093848.960000", "093850.960000", "093852.960000", "093854.960000", "093856.960000", "093858.960000", "093900.960000", "093902.960000", "093904.960000", "093906.960000", "093908.960000", "093910.960000", "093912.960000", "093914.960000", "093916.960000", "093918.960000", "093920.960000", "093922.960000", "093924.960000", "093926.960000", "093928.960000", "093930.960000", "093932.960000", "093934.960000", "093936.960000", "093938.960000", "093940.960000", "093942.960000", "093944.960000", "093946.960000", "093948.960000", "093950.960000", "093952.960000", "093954.960000", "093956.960000", "093958.960000", "094000.960000", "094002.960000", "094004.960000", "094006.960000", "094008.960000", "094010.960000", "094012.960000", "094014.960000", "094016.960000", "094018.960000", "094020.960000", "094022.960000", "094024.960000", "094026.960000", "094028.960000", "094030.960000", "094032.960000", "094034.960000", "094036.960000", "094038.960000", "094040.960000", "094042.960000", "094044.960000", "094046.960000", "094048.960000", "094050.960000", "094052.960000", "094054.960000", "094056.960000", "094058.960000", "094100.960000", "094102.960000", "094104.960000", "094106.960000", "094108.960000", "094110.960000", "094112.960000", "094114.960000", "094116.960000", "094118.960000", "094120.960000", "094122.960000", "094124.960000", "094126.960000", "094128.960000", "094130.960000", "094132.960000", "094134.960000", "094136.960000", "094138.960000", "094140.960000", "094142.960000", "094144.960000", "094146.960000", "094148.960000", "094150.960000", "094152.960000", "094154.960000", "094156.960000", "094158.960000", "094200.960000", "094202.960000", "094204.960000", "094206.960000", "094208.960000", "094210.960000", "094212.960000", "094214.960000", "094216.960000", "094218.960000", "094220.960000", "094222.960000", "094224.960000", "094226.960000", "094228.960000", "094230.960000", "094232.960000", "094234.960000", "094236.960000", "094238.960000", "094240.960000", "094242.960000", "094244.960000", "094246.960000", "094248.960000", "094250.960000", "094252.960000", "094254.960000", "094256.960000", "094258.960000", "094300.960000", "094302.960000", "094304.960000", "094306.960000", "094308.960000", "094310.960000", "094312.960000", "094314.960000", "094316.960000", "094318.960000", "094320.960000", "094322.960000", "094324.960000", "094326.960000", "094328.960000", "094330.960000", "094332.960000", "094334.960000", "094336.960000", "094338.960000", "094340.960000", "094342.960000", "094344.960000", "094346.960000", "094348.960000"],
      "ContentTime": ["093758.131000", "093758.135000", "093758.137000", "093758.139000", "093758.142000", "093758.144000", "093758.146000", "093758.149000", "093758.151000", "093758.153000", "093758.155000", "093758.158000", "093758.160000", "093758.162000", "093758.164000", "093758.167000", "093758.169000", "093758.171000", "093758.184000", "093758.186000", "093758.189000", "093758.191000", "093758.193000", "093838.126000", "093838.129000", "093838.131000", "093838.133000", "093838.136000", "093838.138000", "093838.140000", "093838.142000", "093838.145000", "093838.147000", "093838.149000", "093838.152000", "093838.154000", "093838.156000", "093838.158000", "093838.161000", "093838.163000", "093838.165000", "093838.167000", "093838.170000", "093918.126000", "093918.129000", "093918.137000", "093918.139000", "093918.141000", "093918.143000", "093918.146000", "093918.148000", "093918.150000", "093918.152000", "093918.155000", "093918.157000", "093918.159000", "093918.162000", "093918.164000", "093918.166000", "093918.168000", "093918.171000", "093918.173000", "093918.175000", "093958.126000", "093958.129000", "093958.131000", "093958.133000", "093958.136000", "093958.138000", "093958.140000", "093958.142000", "093958.145000", "093958.147000", "093958.149000", "093958.152000", "093958.154000", "093958.156000", "093958.158000", "093958.161000", "093958.163000", "093958.165000", "093958.167000", "093958.170000", "094038.126000", "094038.129000", "094038.131000", "094038.133000", "094038.135000", "094038.138000", "094038.140000", "094038.142000", "094038.145000", "094038.147000", "094038.149000", "094038.151000", "094038.154000", "094038.156000", "094038.158000", "094038.160000", "094038.163000", "094038.165000", "094038.167000", "094038.169000", "094118.126000", "094118.129000", "094118.131000", "094118.133000", "094118.135000", "094118.138000", "094118.140000", "094118.142000", "094118.145000", "094118.147000", "094118.149000", "094118.151000", "094118.154000", "094118.156000", "094118.158000", "094118.160000", "094118.163000", "094118.165000", "094118.167000", "094118.170000", "094158.126000", "094158.129000", "094158.131000", "094158.133000", "094158.136000", "094158.138000", "094158.140000", "094158.142000", "094158.145000", "094158.147000", "094158.149000", "094158.152000", "094158.154000", "094158.156000", "094158.158000", "094158.161000", "094158.163000", "094158.165000", "094158.167000", "094158.170000", "094238.126000", "094238.129000", "094238.131000", "094238.133000", "094238.136000", "094238.138000", "094238.140000", "094238.143000", "094238.145000", "094238.147000", "094238.149000", "094238.152000", "094238.154000", "094238.156000", "094238.159000", "094238.161000", "094238.163000", "094238.165000", "094238.168000", "094238.170000", "094318.125000", "094318.128000", "094318.130000", "094318.133000", "094318.135000", "094318.137000", "094318.139000", "094318.142000", "094318.144000", "094318.146000", "094318.149000", "094318.151000", "094318.153000", "094318.155000", "094318.158000", "094318.160000", "094318.162000", "094318.165000", "094318.167000", "094318.169000", "094350.541000", "094350.544000", "094350.547000", "094350.549000", "094350.551000", "094350.553000", "094350.556000", "094350.558000", "094350.560000", "094350.563000", "094350.565000", "094350.568000", "094350.571000", "094350.575000", "094350.579000", "094350.582000", "094350.584000"],
      "InstanceCreationTime": ["093758.131000", "093758.135000", "093758.137000", "093758.139000", "093758.142000", "093758.144000", "093758.146000", "093758.149000", "093758.151000", "093758.153000", "093758.155000", "093758.158000", "093758.160000", "093758.162000", "093758.164000", "093758.167000", "093758.169000", "093758.171000", "093758.184000", "093758.186000", "093758.189000", "093758.191000", "093758.193000", "093838.126000", "093838.129000", "093838.131000", "093838.133000", "093838.136000", "093838.138000", "093838.140000", "093838.142000", "093838.145000", "093838.147000", "093838.149000", "093838.152000", "093838.154000", "093838.156000", "093838.158000", "093838.161000", "093838.163000", "093838.165000", "093838.167000", "093838.170000", "093918.126000", "093918.129000", "093918.137000", "093918.139000", "093918.141000", "093918.143000", "093918.146000", "093918.148000", "093918.150000", "093918.152000", "093918.155000", "093918.157000", "093918.159000", "093918.162000", "093918.164000", "093918.166000", "093918.168000", "093918.171000", "093918.173000", "093918.175000", "093958.126000", "093958.129000", "093958.131000", "093958.133000", "093958.136000", "093958.138000", "093958.140000", "093958.142000", "093958.145000", "093958.147000", "093958.149000", "093958.152000", "093958.154000", "093958.156000", "093958.158000", "093958.161000", "093958.163000", "093958.165000", "093958.167000", "093958.170000", "094038.126000", "094038.129000", "094038.131000", "094038.133000", "094038.135000", "094038.138000", "094038.140000", "094038.142000", "094038.145000", "094038.147000", "094038.149000", "094038.151000", "094038.154000", "094038.156000", "094038.158000", "094038.160000", "094038.163000", "094038.165000", "094038.167000", "094038.169000", "094118.126000", "094118.129000", "094118.131000", "094118.133000", "094118.135000", "094118.138000", "094118.140000", "094118.142000", "094118.145000", "094118.147000", "094118.149000", "094118.151000", "094118.154000", "094118.156000", "094118.158000", "094118.160000", "094118.163000", "094118.165000", "094118.167000", "094118.170000", "094158.126000", "094158.129000", "094158.131000", "094158.133000", "094158.136000", "094158.138000", "094158.140000", "094158.142000", "094158.145000", "094158.147000", "094158.149000", "094158.152000", "094158.154000", "094158.156000", "094158.158000", "094158.161000", "094158.163000", "094158.165000", "094158.167000", "094158.170000", "094238.126000", "094238.129000", "094238.131000", "094238.133000", "094238.136000", "094238.138000", "094238.140000", "094238.143000", "094238.145000", "094238.147000", "094238.149000", "094238.152000", "094238.154000", "094238.156000", "094238.159000", "094238.161000", "094238.163000", "094238.165000", "094238.168000", "094238.170000", "094318.125000", "094318.128000", "094318.130000", "094318.133000", "094318.135000", "094318.137000", "094318.139000", "094318.142000", "094318.144000", "094318.146000", "094318.149000", "094318.151000", "094318.153000", "094318.155000", "094318.158000", "094318.160000", "094318.162000", "094318.165000", "094318.167000", "094318.169000", "094350.541000", "094350.544000", "094350.547000", "094350.549000", "094350.551000", "094350.553000", "094350.556000", "094350.558000", "094350.560000", "094350.563000", "094350.565000", "094350.568000", "094350.571000", "094350.575000", "094350.579000", "094350.582000", "094350.584000"],
      "InstanceNumber": [1, 2, 3, 4, 5, 6, 7, 8, 9, 10, 11, 12, 13, 14, 15, 16, 17, 18, 19, 20, 21, 22, 23, 24, 25, 26, 27, 28, 29, 30, 31, 32, 33, 34, 35, 36, 37, 38, 39, 40, 41, 42, 43, 44, 45, 46, 47, 48, 49, 50, 51, 52, 53, 54, 55, 56, 57, 58, 59, 60, 61, 62, 63, 64, 65, 66, 67, 68, 69, 70, 71, 72, 73, 74, 75, 76, 77, 78, 79, 80, 81, 82, 83, 84, 85, 86, 87, 88, 89, 90, 91, 92, 93, 94, 95, 96, 97, 98, 99, 100, 101, 102, 103, 104, 105, 106, 107, 108, 109, 110, 111, 112, 113, 114, 115, 116, 117, 118, 119, 120, 121, 122, 123, 124, 125, 126, 127, 128, 129, 130, 131, 132, 133, 134, 135, 136, 137, 138, 139, 140, 141, 142, 143, 144, 145, 146, 147, 148, 149, 150, 151, 152, 153, 154, 155, 156, 157, 158, 159, 160, 161, 162, 163, 164, 165, 166, 167, 168, 169, 170, 171, 172, 173, 174, 175, 176, 177, 178, 179, 180, 181, 182, 183, 184, 185, 186, 187, 188, 189, 190, 191, 192, 193, 194, 195, 196, 197, 198, 199, 200],
      "LargestImagePixelValue": [2029, 2033, 2030, 2032, 2032, 2034, 2030, 2031, 2028, 2028, 2033, 2030, 2031, 2033, 2031, 2030, 2022, 2033, 2031, 2034, 2025, 2027, 2021, 2035, 2034, 2030, 2039, 2028, 2025, 2036, 2033, 2033, 2028, 2035, 2033, 2030, 2032, 2035, 2033, 2033, 2028, 2034, 2033, 2029, 2028, 2039, 2025, 2032, 2025, 2036, 2025, 2033, 2034, 2031, 2033, 2034, 2029, 2039, 2030, 2032, 2032, 2030, 2030, 2035, 2034, 2030, 2028, 2032, 2039, 2029, 2032, 2024, 2026, 2030, 2031, 2034, 2029, 2035, 2026, 2026, 2028, 2031, 2031, 2033, 2034, 2031, 2025, 2024, 2032, 2032, 2033, 2026, 2027, 2029, 2032, 2034, 2032, 2029, 2034, 2028, 2034, 2025, 2037, 2028, 2038, 2025, 2026, 2034, 2031, 2024, 2030, 2031, 2022, 2029, 2026, 2035, 2028, 2028, 2027, 2026, 2030, 2028, 2031, 2029, 2031, 2038, 2027, 2034, 2030, 2031, 2031, 2039, 2027, 2028, 2026, 2035, 2027, 2029, 2035, 2025, 2029, 2028, 2024, 2026, 2030, 2025, 2026, 2036, 2029, 2029, 2027, 2031, 2026, 2025, 2024, 2031, 2031, 2032, 2026, 2028, 2027, 2035, 2027, 2029, 2034, 2026, 2021, 2028, 2037, 2024, 2028, 2030, 2029, 2025, 2029, 2028, 2028, 2018, 2034, 2032, 2031, 2032, 2032, 2036, 2032, 2022, 2033, 2029, 2034, 2022, 2032, 2024, 2023, 2032, 2028, 2035, 2027, 2031, 2026, 2031],
      "WindowCenter": [999.0, 998.0, 998.0, 998.0, 999.0, 999.0, 999.0, 1000.0, 999.0, 1000.0, 999.0, 999.0, 998.0, 998.0, 999.0, 998.0, 998.0, 999.0, 998.0, 999.0, 999.0, 998.0, 998.0, 998.0, 999.0, 998.0, 999.0, 999.0, 999.0, 998.0, 998.0, 999.0, 999.0, 998.0, 998.0, 999.0, 999.0, 999.0, 999.0, 999.0, 998.0, 998.0, 999.0, 998.0, 999.0, 998.0, 998.0, 998.0, 998.0, 999.0, 999.0, 998.0, 999.0, 998.0, 998.0, 999.0, 998.0, 999.0, 999.0, 998.0, 999.0, 999.0, 998.0, 999.0, 998.0, 998.0, 998.0, 999.0, 998.0, 998.0, 998.0, 999.0, 999.0, 998.0, 998.0, 998.0, 999.0, 998.0, 998.0, 999.0, 998.0, 998.0, 999.0, 999.0, 999.0, 999.0, 998.0, 999.0, 998.0, 998.0, 998.0, 998.0, 998.0, 998.0, 998.0, 998.0, 998.0, 998.0, 999.0, 998.0, 998.0, 999.0, 998.0, 999.0, 998.0, 999.0, 998.0, 998.0, 998.0, 998.0, 998.0, 998.0, 998.0, 999.0, 998.0, 998.0, 998.0, 998.0, 998.0, 998.0, 998.0, 998.0, 998.0, 998.0, 999.0, 998.0, 998.0, 998.0, 998.0, 998.0, 997.0, 998.0, 998.0, 998.0, 998.0, 997.0, 998.0, 998.0, 998.0, 998.0, 998.0, 997.0, 998.0, 998.0, 998.0, 998.0, 998.0, 998.0, 998.0, 997.0, 997.0, 997.0, 998.0, 998.0, 998.0, 997.0, 997.0, 998.0, 997.0, 997.0, 997.0, 997.0, 998.0, 998.0, 998.0, 999.0, 998.0, 998.0, 997.0, 998.0, 998.0, 999.0, 998.0, 997.0, 998.0, 999.0, 998.0, 997.0, 997.0, 998.0, 998.0, 998.0, 998.0, 997.0, 997.0, 998.0, 997.0, 998.0, 998.0, 999.0, 997.0, 997.0, 997.0, 998.0, 998.0, 998.0, 997.0, 997.0, 998.0, 997.0],
      "WindowWidth": [2202.0, 2202.0, 2201.0, 2202.0, 2202.0, 2202.0, 2202.0, 2202.0, 2202.0, 2202.0, 2202.0, 2202.0, 2202.0, 2201.0, 2202.0, 2201.0, 2201.0, 2201.0, 2201.0, 2202.0, 2202.0, 2201.0, 2201.0, 2201.0, 2202.0, 2201.0, 2202.0, 2202.0, 2202.0, 2201.0, 2201.0, 2202.0, 2202.0, 2201.0, 2201.0, 2201.0, 2202.0, 2201.0, 2202.0, 2201.0, 2201.0, 2201.0, 2201.0, 2201.0, 2201.0, 2201.0, 2201.0, 2201.0, 2201.0, 2201.0, 2201.0, 2200.0, 2201.0, 2201.0, 2201.0, 2201.0, 2201.0, 2201.0, 2201.0, 2200.0, 2201.0, 2201.0, 2200.0, 2201.0, 2200.0, 2200.0, 2200.0, 2201.0, 2200.0, 2200.0, 2200.0, 2201.0, 2200.0, 2200.0, 2200.0, 2200.0, 2200.0, 2200.0, 2200.0, 2201.0, 2200.0, 2200.0, 2201.0, 2201.0, 2201.0, 2200.0, 2200.0, 2200.0, 2200.0, 2200.0, 2200.0, 2200.0, 2200.0, 2200.0, 2201.0, 2201.0, 2200.0, 2200.0, 2200.0, 2200.0, 2200.0, 2200.0, 2199.0, 2200.0, 2201.0, 2200.0, 2200.0, 2200.0, 2200.0, 2200.0, 2200.0, 2200.0, 2200.0, 2200.0, 2200.0, 2200.0, 2201.0, 2200.0, 2200.0, 2199.0, 2200.0, 2200.0, 2199.0, 2199.0, 2201.0, 2200.0, 2199.0, 2199.0, 2200.0, 2199.0, 2200.0, 2200.0, 2199.0, 2200.0, 2199.0, 2200.0, 2199.0, 2199.0, 2200.0, 2199.0, 2199.0, 2199.0, 2199.0, 2200.0, 2200.0, 2200.0, 2200.0, 2200.0, 2200.0, 2199.0, 2199.0, 2199.0, 2200.0, 2200.0, 2200.0, 2199.0, 2199.0, 2200.0, 2199.0, 2199.0, 2199.0, 2199.0, 2200.0, 2200.0, 2200.0, 2201.0, 2200.0, 2200.0, 2199.0, 2200.0, 2200.0, 2201.0, 2200.0, 2199.0, 2200.0, 2201.0, 2200.0, 2199.0, 2199.0, 2200.0, 2200.0, 2200.0, 2200.0, 2199.0, 2199.0, 2200.0, 2199.0, 2200.0, 2200.0, 2201.0, 2199.0, 2199.0, 2199.0, 2200.0, 2199.0, 2200.0, 2199.0, 2199.0, 2200.0, 2199.0]
    },
    "slices": {}
  }
}