{
  "AcquisitionMatrixPE": 80,
  "AcquisitionNumber": 1,
  "AcquisitionTime": "09:06:27.502500",
  "BandwidthPerPixelPhaseEncode": 25,
  "BaseResolution": 80,
  "BodyPartExamined": "BRAIN",
  "CoilCombinationMethod": "Sum of Squares",
  "ConsistencyInfo": "N4_VE11E_LATEST_20181129",
  "ConversionSoftware": "dcm2niix",
  "ConversionSoftwareVersion": "v1.0.20220720",
  "DerivedVendorReportedEchoSpacing": 0.0005,
  "DeviceSerialNumber": "66112",
  "DwellTime": 2.7e-06,
  "EchoTime": 0.03,
  "EchoTrainLength": 80,
  "EffectiveEchoSpacing": 0.0005,
  "FlipAngle": 10,
  "HeudiconvVersion": "0.13.1",
  "ImageOrientationPatientDICOM": [0.988701, 0.149789, 0.00580498, -0.145293, 0.948064, 0.282957],
  "ImageOrientationText": "Tra>Cor(16.3)>Sag(-2.1)",
  "ImageType": [
    "ORIGINAL",
    "PRIMARY",
    "M",
    "ND",
    "NORM",
    "MOSAIC"
],
  "ImagingFrequency": 123.259,
  "InPlanePhaseEncodingDirectionDICOM": "COL",
  "InstitutionAddress": "Maynard 3,Hanover,NH,US,03755",
  "InstitutionName": "Dartmouth College - PBS",
  "InstitutionalDepartmentName": "Department",
  "MRAcquisitionType": "2D",
  "MagneticFieldStrength": 3,
  "Manufacturer": "Siemens",
  "ManufacturersModelName": "Prisma",
  "MatrixCoilMode": "SENSE",
  "Modality": "MR",
  "NonlinearGradientCorrection": false,
  "PartialFourier": 1,
  "PatientPosition": "HFS",
  "PercentPhaseFOV": 100,
  "PercentSampling": 100,
  "PhaseEncodingDirection": "j-",
  "PhaseEncodingSteps": 80,
  "PhaseResolution": 1,
  "PixelBandwidth": 2315,
  "ProcedureStepDescription": "dbic^QA",
  "ProtocolName": "func-bold_fa-10",
  "PulseSequenceDetails": "%SiemensSeq%\\ep2d_bold",
  "ReceiveCoilActiveElements": "HC1-7;NC1,2",
  "ReceiveCoilName": "HeadNeck_64",
  "ReconMatrixPE": 80,
  "RepetitionTime": 2,
  "SAR": 0.00757629,
  "ScanOptions": "FS",
  "ScanningSequence": "EP",
  "SequenceName": "*epfid2d1_80",
  "SequenceVariant": "SK",
  "SeriesDescription": "func-bold_fa-10",
  "SeriesNumber": 7,
  "ShimSetting": [4219, -7740, -7486, -124, -153, -266, -84, 81],
  "SliceThickness": 3.5,
  "SliceTiming": [0.99, 0, 1.0575, 0.0675, 1.1225, 0.1325, 1.1875, 0.1975, 1.255, 0.265, 1.32, 0.33, 1.3875, 0.3975, 1.4525, 0.4625, 1.5175, 0.5275, 1.585, 0.595, 1.65, 0.66, 1.7175, 0.7275, 1.7825, 0.7925, 1.8475, 0.8575, 1.915, 0.925],
  "SoftwareVersions": "syngo MR E11",
  "SpacingBetweenSlices": 3.99,
  "StationName": "AWP66112",
  "TotalReadoutTime": 0.0395,
  "TxRefAmp": 210.233,
  "dcmmeta_affine": [
    [-2.9661030769348145, -0.43588024377822876, -0.1471523642539978, 139.6254425048828],
    [-0.44936588406562805, 2.844191551208496, 1.1196081638336182, -107.22518157958984],
    [0.017414938658475876, -0.8488717675209045, 3.826868772506714, -21.716819763183594],
    [0.0, 0.0, 0.0, 1.0]
],
  "dcmmeta_reorient_transform": [
    [0.0, -1.0, 0.0, 79.0],
    [1.0, 0.0, 0.0, 0.0],
    [0.0, 0.0, 1.0, 0.0],
    [0.0, 0.0, 0.0, 1.0]
],
  "dcmmeta_shape": [80, 80, 30, 200],
  "dcmmeta_slice_dim": 2,
  "dcmmeta_version": 0.6,
  "global": {
    "const": {
      "AccessionNumber": "qa64",
      "AcquisitionMatrix": [80, 0, 0, 80],
      "AngioFlag": "N",
      "BitsAllocated": 16,
      "BitsStored": 12,
      "BodyPartExamined": "BRAIN",
      "Columns": 480,
      "EchoNumbers": 1,
      "EchoTime": 30.0,
      "EchoTrainLength": 80,
      "FlipAngle": 10.0,
      "HighBit": 11,
      "ImageOrientationPatient": [0.98870100022092, 0.14978863233602, 0.00580497933273, -0.1452934150189, 0.94806382524861, 0.28295725261443],
      "ImagePositionPatient": [-611.23545764328, -776.17742039325, -262.03502770508],
      "ImageType": [
        "ORIGINAL",
        "PRIMARY",
        "M",
        "ND",
        "NORM",
        "MOSAIC"
],
      "ImagedNucleus": "1H",
      "ImagingFrequency": 123.259235,
      "InPlanePhaseEncodingDirection": "COL",
      "MRAcquisitionType": "2D",
      "MagneticFieldStrength": 3.0,
      "Manufacturer": "SIEMENS",
      "ManufacturerModelName": "Prisma",
      "Modality": "MR",
      "NumberOfAverages": 1.0,
      "NumberOfPhaseEncodingSteps": 80,
      "PercentPhaseFieldOfView": 100.0,
      "PercentSampling": 100.0,
      "PerformedProcedureStepStartTime": "085121.757000",
      "PhotometricInterpretation": "MONOCHROME2",
      "PixelBandwidth": 2315.0,
      "PixelRepresentation": 0,
      "PixelSpacing": [3.0, 3.0],
      "ProtocolName": "func-bold_fa-10",
      "RepetitionTime": 2000.0,
      "Rows": 480,
      "SAR": 0.00757628801959,
      "SamplesPerPixel": 1,
      "ScanOptions": "FS",
      "ScanningSequence": "EP",
      "SequenceName": "*epfid2d1_80",
      "SequenceVariant": "SK",
      "SeriesDescription": "func-bold_fa-10",
      "SeriesNumber": 7,
      "SeriesTime": "090719.596000",
      "SliceLocation": -56.066119008967,
      "SliceThickness": 3.5,
      "SmallestImagePixelValue": 0,
      "SoftwareVersions": "syngo MR E11",
      "SpacingBetweenSlices": 3.990000112654,
      "SpecificCharacterSet": "ISO_IR 100",
      "StudyID": "14",
      "StudyTime": "085121.670000",
      "TransmitCoilName": "Body",
      "VariableFlipAngleFlag": "N",
      "WindowCenterWidthExplanation": "Algo1"
    },
    "slices": {}
  },
  "time": {
    "samples": {
      "AcquisitionNumber": [1, 2, 3, 4, 5, 6, 7, 8, 9, 10, 11, 12, 13, 14, 15, 16, 17, 18, 19, 20, 21, 22, 23, 24, 25, 26, 27, 28, 29, 30, 31, 32, 33, 34, 35, 36, 37, 38, 39, 40, 41, 42, 43, 44, 45, 46, 47, 48, 49, 50, 51, 52, 53, 54, 55, 56, 57, 58, 59, 60, 61, 62, 63, 64, 65, 66, 67, 68, 69, 70, 71, 72, 73, 74, 75, 76, 77, 78, 79, 80, 81, 82, 83, 84, 85, 86, 87, 88, 89, 90, 91, 92, 93, 94, 95, 96, 97, 98, 99, 100, 101, 102, 103, 104, 105, 106, 107, 108, 109, 110, 111, 112, 113, 114, 115, 116, 117, 118, 119, 120, 121, 122, 123, 124, 125, 126, 127, 128, 129, 130, 131, 132, 133, 134, 135, 136, 137, 138, 139, 140, 141, 142, 143, 144, 145, 146, 147, 148, 149, 150, 151, 152, 153, 154, 155, 156, 157, 158, 159, 160, 161, 162, 163, 164, 165, 166, 167, 168, 169, 170, 171, 172, 173, 174, 175, 176, 177, 178, 179, 180, 181, 182, 183, 184, 185, 186, 187, 188, 189, 190, 191, 192, 193, 194, 195, 196, 197, 198, 199, 200],
      "AcquisitionTime": ["090627.502500", "090629.502500", "090631.502500", "090633.502500", "090635.502500", "090637.502500", "090639.502500", "090641.502500", "090643.502500", "090645.502500", "090647.502500", "090649.502500", "090651.502500", "090653.502500", "090655.502500", "090657.502500", "090659.502500", "090701.502500", "090703.502500", "090705.502500", "090707.502500", "090709.502500", "090711.502500", "090713.502500", "090715.502500", "090717.502500", "090719.502500", "090721.502500", "090723.502500", "090725.502500", "090727.502500", "090729.502500", "090731.502500", "090733.502500", "090735.502500", "090737.502500", "090739.502500", "090741.502500", "090743.502500", "090745.502500", "090747.502500", "090749.502500", "090751.502500", "090753.502500", "090755.502500", "090757.502500", "090759.502500", "090801.502500", "090803.502500", "090805.502500", "090807.502500", "090809.502500", "090811.502500", "090813.502500", "090815.502500", "090817.502500", "090819.502500", "090821.502500", "090823.502500", "090825.502500", "090827.502500", "090829.502500", "090831.502500", "090833.502500", "090835.502500", "090837.502500", "090839.502500", "090841.502500", "090843.502500", "090845.502500", "090847.502500", "090849.502500", "090851.502500", "090853.502500", "090855.502500", "090857.502500", "090859.502500", "090901.502500", "090903.502500", "090905.502500", "090907.502500", "090909.502500", "090911.502500", "090913.502500", "090915.502500", "090917.502500", "090919.502500", "090921.502500", "090923.502500", "090925.502500", "090927.502500", "090929.502500", "090931.502500", "090933.502500", "090935.502500", "090937.502500", "090939.502500", "090941.502500", "090943.502500", "090945.502500", "090947.502500", "090949.502500", "090951.502500", "090953.502500", "090955.502500", "090957.502500", "090959.502500", "091001.502500", "091003.502500", "091005.502500", "091007.502500", "091009.502500", "091011.502500", "091013.502500", "091015.502500", "091017.502500", "091019.502500", "091021.502500", "091023.502500", "091025.502500", "091027.502500", "091029.502500", "091031.502500", "091033.502500", "091035.502500", "091037.502500", "091039.502500", "091041.502500", "091043.502500", "091045.502500", "091047.502500", "091049.502500", "091051.502500", "091053.502500", "091055.502500", "091057.502500", "091059.502500", "091101.502500", "091103.502500", "091105.502500", "091107.502500", "091109.502500", "091111.502500", "091113.502500", "091115.502500", "091117.502500", "091119.502500", "091121.502500", "091123.502500", "091125.502500", "091127.502500", "091129.502500", "091131.502500", "091133.502500", "091135.502500", "091137.502500", "091139.502500", "091141.502500", "091143.502500", "091145.502500", "091147.502500", "091149.502500", "091151.502500", "091153.502500", "091155.502500", "091157.502500", "091159.502500", "091201.502500", "091203.502500", "091205.502500", "091207.502500", "091209.502500", "091211.502500", "091213.502500", "091215.502500", "091217.502500", "091219.502500", "091221.502500", "091223.502500", "091225.502500", "091227.502500", "091229.502500", "091231.502500", "091233.502500", "091235.502500", "091237.502500", "091239.502500", "091241.502500", "091243.502500", "091245.502500", "091247.502500", "091249.502500", "091251.502500", "091253.502500", "091255.502500", "091257.502500", "091259.502500", "091301.502500", "091303.502500", "091305.502500"],
      "ContentTime": ["090719.599000", "090719.602000", "090719.605000", "090719.607000", "090719.609000", "090719.611000", "090719.614000", "090719.624000", "090719.626000", "090719.629000", "090719.631000", "090719.633000", "090719.635000", "090719.644000", "090719.647000", "090719.649000", "090719.651000", "090719.654000", "090719.656000", "090719.659000", "090719.661000", "090719.663000", "090719.666000", "090719.668000", "090719.670000", "090719.673000", "090759.593000", "090759.595000", "090759.598000", "090759.600000", "090759.602000", "090759.605000", "090759.607000", "090759.609000", "090759.611000", "090759.614000", "090759.616000", "090759.618000", "090759.620000", "090759.628000", "090759.631000", "090759.633000", "090759.635000", "090759.638000", "090759.657000", "090759.660000", "090839.593000", "090839.596000", "090839.598000", "090839.600000", "090839.602000", "090839.605000", "090839.607000", "090839.609000", "090839.612000", "090839.614000", "090839.617000", "090839.619000", "090839.621000", "090839.623000", "090839.626000", "090839.628000", "090839.630000", "090839.633000", "090839.635000", "090839.637000", "090919.594000", "090919.597000", "090919.599000", "090919.601000", "090919.604000", "090919.606000", "090919.608000", "090919.610000", "090919.613000", "090919.615000", "090919.618000", "090919.620000", "090919.622000", "090919.624000", "090919.627000", "090919.629000", "090919.631000", "090919.633000", "090919.636000", "090919.638000", "090959.594000", "090959.597000", "090959.599000", "090959.601000", "090959.604000", "090959.606000", "090959.609000", "090959.611000", "090959.613000", "090959.615000", "090959.618000", "090959.620000", "090959.622000", "090959.624000", "090959.627000", "090959.629000", "090959.631000", "090959.633000", "090959.636000", "090959.638000", "091039.593000", "091039.596000", "091039.598000", "091039.600000", "091039.603000", "091039.605000", "091039.607000", "091039.609000", "091039.612000", "091039.614000", "091039.616000", "091039.618000", "091039.621000", "091039.623000", "091039.625000", "091039.627000", "091039.630000", "091039.632000", "091039.634000", "091039.637000", "091119.593000", "091119.596000", "091119.598000", "091119.600000", "091119.603000", "091119.605000", "091119.607000", "091119.610000", "091119.612000", "091119.614000", "091119.616000", "091119.619000", "091119.621000", "091119.623000", "091119.626000", "091119.628000", "091119.630000", "091119.632000", "091119.635000", "091119.637000", "091159.594000", "091159.597000", "091159.599000", "091159.604000", "091159.607000", "091159.609000", "091159.611000", "091159.613000", "091159.616000", "091159.618000", "091159.620000", "091159.623000", "091159.625000", "091159.627000", "091159.630000", "091159.632000", "091159.634000", "091159.636000", "091159.639000", "091159.641000", "091239.593000", "091239.596000", "091239.598000", "091239.600000", "091239.602000", "091239.605000", "091239.607000", "091239.609000", "091239.612000", "091239.614000", "091239.616000", "091239.619000", "091239.621000", "091239.623000", "091239.626000", "091239.628000", "091239.631000", "091239.633000", "091239.635000", "091239.638000", "091307.305000", "091307.307000", "091307.310000", "091307.312000", "091307.314000", "091307.317000", "091307.319000", "091307.321000", "091307.324000", "091307.326000", "091307.328000", "091307.331000", "091307.333000", "091307.335000"],
      "InstanceCreationTime": ["090719.599000", "090719.602000", "090719.605000", "090719.607000", "090719.609000", "090719.611000", "090719.614000", "090719.624000", "090719.626000", "090719.629000", "090719.631000", "090719.633000", "090719.635000", "090719.644000", "090719.647000", "090719.649000", "090719.651000", "090719.654000", "090719.656000", "090719.659000", "090719.661000", "090719.663000", "090719.666000", "090719.668000", "090719.670000", "090719.673000", "090759.593000", "090759.595000", "090759.598000", "090759.600000", "090759.602000", "090759.605000", "090759.607000", "090759.609000", "090759.611000", "090759.614000", "090759.616000", "090759.618000", "090759.620000", "090759.628000", "090759.631000", "090759.633000", "090759.635000", "090759.638000", "090759.657000", "090759.660000", "090839.593000", "090839.596000", "090839.598000", "090839.600000", "090839.602000", "090839.605000", "090839.607000", "090839.609000", "090839.612000", "090839.614000", "090839.617000", "090839.619000", "090839.621000", "090839.623000", "090839.626000", "090839.628000", "090839.630000", "090839.633000", "090839.635000", "090839.637000", "090919.594000", "090919.597000", "090919.599000", "090919.601000", "090919.604000", "090919.606000", "090919.608000", "090919.610000", "090919.613000", "090919.615000", "090919.618000", "090919.620000", "090919.622000", "090919.624000", "090919.627000", "090919.629000", "090919.631000", "090919.633000", "090919.636000", "090919.638000", "090959.594000", "090959.597000", "090959.599000", "090959.601000", "090959.604000", "090959.606000", "090959.609000", "090959.611000", "090959.613000", "090959.615000", "090959.618000", "090959.620000", "090959.622000", "090959.624000", "090959.627000", "090959.629000", "090959.631000", "090959.633000", "090959.636000", "090959.638000", "091039.593000", "091039.596000", "091039.598000", "091039.600000", "091039.603000", "091039.605000", "091039.607000", "091039.609000", "091039.612000", "091039.614000", "091039.616000", "091039.618000", "091039.621000", "091039.623000", "091039.625000", "091039.627000", "091039.630000", "091039.632000", "091039.634000", "091039.637000", "091119.593000", "091119.596000", "091119.598000", "091119.600000", "091119.603000", "091119.605000", "091119.607000", "091119.610000", "091119.612000", "091119.614000", "091119.616000", "091119.619000", "091119.621000", "091119.623000", "091119.626000", "091119.628000", "091119.630000", "091119.632000", "091119.635000", "091119.637000", "091159.594000", "091159.597000", "091159.599000", "091159.604000", "091159.607000", "091159.609000", "091159.611000", "091159.613000", "091159.616000", "091159.618000", "091159.620000", "091159.623000", "091159.625000", "091159.627000", "091159.630000", "091159.632000", "091159.634000", "091159.636000", "091159.639000", "091159.641000", "091239.593000", "091239.596000", "091239.598000", "091239.600000", "091239.602000", "091239.605000", "091239.607000", "091239.609000", "091239.612000", "091239.614000", "091239.616000", "091239.619000", "091239.621000", "091239.623000", "091239.626000", "091239.628000", "091239.631000", "091239.633000", "091239.635000", "091239.638000", "091307.305000", "091307.307000", "091307.310000", "091307.312000", "091307.314000", "091307.317000", "091307.319000", "091307.321000", "091307.324000", "091307.326000", "091307.328000", "091307.331000", "091307.333000", "091307.335000"],
      "InstanceNumber": [1, 2, 3, 4, 5, 6, 7, 8, 9, 10, 11, 12, 13, 14, 15, 16, 17, 18, 19, 20, 21, 22, 23, 24, 25, 26, 27, 28, 29, 30, 31, 32, 33, 34, 35, 36, 37, 38, 39, 40, 41, 42, 43, 44, 45, 46, 47, 48, 49, 50, 51, 52, 53, 54, 55, 56, 57, 58, 59, 60, 61, 62, 63, 64, 65, 66, 67, 68, 69, 70, 71, 72, 73, 74, 75, 76, 77, 78, 79, 80, 81, 82, 83, 84, 85, 86, 87, 88, 89, 90, 91, 92, 93, 94, 95, 96, 97, 98, 99, 100, 101, 102, 103, 104, 105, 106, 107, 108, 109, 110, 111, 112, 113, 114, 115, 116, 117, 118, 119, 120, 121, 122, 123, 124, 125, 126, 127, 128, 129, 130, 131, 132, 133, 134, 135, 136, 137, 138, 139, 140, 141, 142, 143, 144, 145, 146, 147, 148, 149, 150, 151, 152, 153, 154, 155, 156, 157, 158, 159, 160, 161, 162, 163, 164, 165, 166, 167, 168, 169, 170, 171, 172, 173, 174, 175, 176, 177, 178, 179, 180, 181, 182, 183, 184, 185, 186, 187, 188, 189, 190, 191, 192, 193, 194, 195, 196, 197, 198, 199, 200],
      "LargestImagePixelValue": [673, 672, 671, 675, 670, 672, 672, 673, 677, 675, 678, 676, 673, 675, 673, 675, 672, 671, 672, 670, 673, 669, 675, 676, 671, 675, 674, 675, 673, 673, 674, 673, 675, 674, 673, 674, 677, 675, 672, 673, 674, 670, 674, 677, 672, 677, 677, 677, 675, 673, 673, 674, 674, 673, 676, 672, 673, 675, 674, 675, 672, 674, 678, 672, 676, 670, 675, 675, 674, 674, 672, 673, 675, 673, 671, 672, 674, 673, 673, 672, 673, 675, 675, 674, 674, 672, 675, 678, 673, 675, 671, 675, 672, 671, 673, 677, 673, 673, 673, 672, 672, 673, 672, 673, 674, 674, 673, 675, 672, 671, 673, 673, 672, 676, 673, 675, 675, 672, 673, 672, 678, 677, 676, 672, 669, 672, 676, 675, 673, 675, 676, 670, 672, 672, 676, 672, 673, 672, 671, 673, 674, 673, 670, 672, 672, 674, 673, 672, 673, 675, 674, 676, 671, 674, 673, 674, 673, 672, 676, 674, 676, 673, 669, 675, 671, 675, 674, 673, 675, 674, 681, 674, 676, 674, 673, 673, 677, 675, 674, 676, 672, 671, 674, 673, 675, 673, 674, 670, 673, 677, 676, 674, 675, 675, 673, 676, 672, 675, 671, 677],
      "WindowCenter": [471.0, 471.0, 471.0, 471.0, 471.0, 471.0, 471.0, 471.0, 471.0, 471.0, 471.0, 471.0, 471.0, 471.0, 471.0, 471.0, 471.0, 471.0, 471.0, 471.0, 471.0, 470.0, 471.0, 471.0, 471.0, 471.0, 471.0, 471.0, 471.0, 471.0, 471.0, 471.0, 471.0, 471.0, 471.0, 471.0, 471.0, 471.0, 471.0, 471.0, 471.0, 471.0, 471.0, 471.0, 471.0, 471.0, 471.0, 471.0, 471.0, 471.0, 471.0, 471.0, 471.0, 471.0, 471.0, 471.0, 471.0, 471.0, 471.0, 471.0, 471.0, 471.0, 471.0, 471.0, 471.0, 471.0, 471.0, 471.0, 471.0, 471.0, 471.0, 471.0, 471.0, 471.0, 471.0, 471.0, 471.0, 471.0, 471.0, 471.0, 471.0, 471.0, 471.0, 471.0, 471.0, 471.0, 471.0, 471.0, 471.0, 471.0, 471.0, 471.0, 471.0, 471.0, 471.0, 471.0, 471.0, 471.0, 470.0, 471.0, 471.0, 471.0, 471.0, 470.0, 470.0, 471.0, 471.0, 470.0, 470.0, 470.0, 471.0, 470.0, 470.0, 470.0, 470.0, 470.0, 470.0, 470.0, 470.0, 470.0, 470.0, 470.0, 470.0, 470.0, 469.0, 470.0, 470.0, 470.0, 470.0, 470.0, 470.0, 470.0, 470.0, 470.0, 470.0, 470.0, 470.0, 470.0, 470.0, 470.0, 470.0, 470.0, 470.0, 470.0, 470.0, 470.0, 470.0, 470.0, 470.0, 470.0, 470.0, 470.0, 470.0, 470.0, 470.0, 470.0, 470.0, 470.0, 470.0, 470.0, 470.0, 470.0, 469.0, 470.0, 470.0, 470.0, 470.0, 470.0, 470.0, 470.0, 470.0, 470.0, 470.0, 470.0, 470.0, 470.0, 470.0, 470.0, 470.0, 470.0, 470.0, 470.0, 470.0, 470.0, 470.0, 470.0, 470.0, 470.0, 470.0, 470.0, 470.0, 470.0, 470.0, 470.0, 470.0, 470.0, 470.0, 470.0, 470.0, 470.0],
      "WindowWidth": [978.0, 978.0, 978.0, 978.0, 978.0, 978.0, 978.0, 978.0, 978.0, 978.0, 978.0, 978.0, 978.0, 978.0, 978.0, 978.0, 978.0, 978.0, 978.0, 978.0, 977.0, 976.0, 977.0, 978.0, 978.0, 978.0, 978.0, 978.0, 978.0, 977.0, 978.0, 978.0, 978.0, 978.0, 978.0, 977.0, 978.0, 978.0, 978.0, 977.0, 978.0, 978.0, 978.0, 978.0, 978.0, 978.0, 978.0, 978.0, 978.0, 977.0, 977.0, 978.0, 978.0, 977.0, 977.0, 977.0, 978.0, 977.0, 977.0, 977.0, 977.0, 977.0, 978.0, 977.0, 977.0, 977.0, 977.0, 977.0, 977.0, 977.0, 977.0, 977.0, 977.0, 977.0, 977.0, 977.0, 977.0, 977.0, 977.0, 976.0, 977.0, 977.0, 977.0, 976.0, 976.0, 977.0, 977.0, 977.0, 976.0, 976.0, 977.0, 977.0, 977.0, 976.0, 976.0, 976.0, 977.0, 976.0, 976.0, 976.0, 976.0, 976.0, 976.0, 976.0, 976.0, 976.0, 976.0, 976.0, 976.0, 976.0, 976.0, 976.0, 976.0, 976.0, 976.0, 976.0, 976.0, 976.0, 976.0, 976.0, 976.0, 976.0, 975.0, 976.0, 975.0, 976.0, 976.0, 975.0, 975.0, 976.0, 976.0, 976.0, 975.0, 975.0, 975.0, 975.0, 975.0, 975.0, 976.0, 975.0, 975.0, 976.0, 975.0, 975.0, 975.0, 976.0, 975.0, 975.0, 975.0, 975.0, 975.0, 975.0, 975.0, 976.0, 975.0, 975.0, 975.0, 975.0, 975.0, 975.0, 976.0, 975.0, 974.0, 975.0, 975.0, 975.0, 975.0, 975.0, 975.0, 975.0, 975.0, 975.0, 975.0, 975.0, 975.0, 975.0, 975.0, 975.0, 975.0, 975.0, 975.0, 975.0, 975.0, 975.0, 975.0, 975.0, 975.0, 975.0, 975.0, 975.0, 975.0, 975.0, 975.0, 975.0, 975.0, 975.0, 975.0, 975.0, 975.0, 975.0]
    },
    "slices": {}
  }
}