{
  "AcquisitionMatrixPE": 80,
  "AcquisitionNumber": 1,
  "AcquisitionTime": "08:59:41.425000",
  "BandwidthPerPixelPhaseEncode": 25,
  "BaseResolution": 80,
  "BodyPartExamined": "BRAIN",
  "CoilCombinationMethod": "Sum of Squares",
  "ConsistencyInfo": "N4_VE11E_LATEST_20181129",
  "ConversionSoftware": "dcm2niix",
  "ConversionSoftwareVersion": "v1.0.20220720",
  "DerivedVendorReportedEchoSpacing": 0.0005,
  "DeviceSerialNumber": "66112",
  "DwellTime": 2.7e-06,
  "EchoTime": 0.03,
  "EchoTrainLength": 80,
  "EffectiveEchoSpacing": 0.0005,
  "FlipAngle": 77,
  "HeudiconvVersion": "0.13.1",
  "ImageOrientationPatientDICOM": [0.988701, 0.149789, 0.00580498, -0.145293, 0.948064, 0.282957],
  "ImageOrientationText": "Tra>Cor(16.3)>Sag(-2.1)",
  "ImageType": [
    "ORIGINAL",
    "PRIMARY",
    "M",
    "ND",
    "NORM",
    "MOSAIC"
],
  "ImagingFrequency": 123.259,
  "InPlanePhaseEncodingDirectionDICOM": "COL",
  "InstitutionAddress": "Maynard 3,Hanover,NH,US,03755",
  "InstitutionName": "Dartmouth College - PBS",
  "InstitutionalDepartmentName": "Department",
  "MRAcquisitionType": "2D",
  "MagneticFieldStrength": 3,
  "Manufacturer": "Siemens",
  "ManufacturersModelName": "Prisma",
  "MatrixCoilMode": "SENSE",
  "Modality": "MR",
  "NonlinearGradientCorrection": false,
  "PartialFourier": 1,
  "PatientPosition": "HFS",
  "PercentPhaseFOV": 100,
  "PercentSampling": 100,
  "PhaseEncodingDirection": "j-",
  "PhaseEncodingSteps": 80,
  "PhaseResolution": 1,
  "PixelBandwidth": 2315,
  "ProcedureStepDescription": "dbic^QA",
  "ProtocolName": "func-bold_fa-77",
  "PulseSequenceDetails": "%SiemensSeq%\\ep2d_bold",
  "ReceiveCoilActiveElements": "HC1-7;NC1,2",
  "ReceiveCoilName": "HeadNeck_64",
  "ReconMatrixPE": 80,
  "RepetitionTime": 2,
  "SAR": 0.0282435,
  "ScanOptions": "FS",
  "ScanningSequence": "EP",
  "SequenceName": "*epfid2d1_80",
  "SequenceVariant": "SK",
  "SeriesDescription": "func-bold_fa-77",
  "SeriesNumber": 6,
  "ShimSetting": [4219, -7740, -7486, -124, -153, -266, -84, 81],
  "SliceThickness": 3.5,
  "SliceTiming": [0.99, 0, 1.0575, 0.0675, 1.1225, 0.1325, 1.1875, 0.2, 1.255, 0.265, 1.32, 0.33, 1.3875, 0.3975, 1.4525, 0.4625, 1.5175, 0.5275, 1.585, 0.595, 1.65, 0.66, 1.7175, 0.7275, 1.7825, 0.7925, 1.8475, 0.8575, 1.915, 0.925],
  "SoftwareVersions": "syngo MR E11",
  "SpacingBetweenSlices": 3.99,
  "StationName": "AWP66112",
  "TotalReadoutTime": 0.0395,
  "TxRefAmp": 210.233,
  "dcmmeta_affine": [
    [-2.9661030769348145, -0.43588024377822876, -0.1471523642539978, 139.6254425048828],
    [-0.44936588406562805, 2.844191551208496, 1.1196081638336182, -107.22518157958984],
    [0.017414938658475876, -0.8488717675209045, 3.826868772506714, -21.716819763183594],
    [0.0, 0.0, 0.0, 1.0]
],
  "dcmmeta_reorient_transform": [
    [0.0, -1.0, 0.0, 79.0],
    [1.0, 0.0, 0.0, 0.0],
    [0.0, 0.0, 1.0, 0.0],
    [0.0, 0.0, 0.0, 1.0]
],
  "dcmmeta_shape": [80, 80, 30, 200],
  "dcmmeta_slice_dim": 2,
  "dcmmeta_version": 0.6,
  "global": {
    "const": {
      "AccessionNumber": "qa64",
      "AcquisitionMatrix": [80, 0, 0, 80],
      "AngioFlag": "N",
      "BitsAllocated": 16,
      "BitsStored": 12,
      "BodyPartExamined": "BRAIN",
      "Columns": 480,
      "EchoNumbers": 1,
      "EchoTime": 30.0,
      "EchoTrainLength": 80,
      "FlipAngle": 77.0,
      "HighBit": 11,
      "ImageOrientationPatient": [0.98870100022092, 0.14978863233602, 0.00580497933273, -0.1452934150189, 0.94806382524861, 0.28295725261443],
      "ImagePositionPatient": [-611.23545764328, -776.17742039325, -262.03502770508],
      "ImageType": [
        "ORIGINAL",
        "PRIMARY",
        "M",
        "ND",
        "NORM",
        "MOSAIC"
],
      "ImagedNucleus": "1H",
      "ImagingFrequency": 123.259235,
      "InPlanePhaseEncodingDirection": "COL",
      "LargestImagePixelValue": 4095,
      "MRAcquisitionType": "2D",
      "MagneticFieldStrength": 3.0,
      "Manufacturer": "SIEMENS",
      "ManufacturerModelName": "Prisma",
      "Modality": "MR",
      "NumberOfAverages": 1.0,
      "NumberOfPhaseEncodingSteps": 80,
      "PercentPhaseFieldOfView": 100.0,
      "PercentSampling": 100.0,
      "PerformedProcedureStepStartTime": "085121.757000",
      "PhotometricInterpretation": "MONOCHROME2",
      "PixelBandwidth": 2315.0,
      "PixelRepresentation": 0,
      "PixelSpacing": [3.0, 3.0],
      "ProtocolName": "func-bold_fa-77",
      "RepetitionTime": 2000.0,
      "Rows": 480,
      "SAR": 0.0282434798479,
      "SamplesPerPixel": 1,
      "ScanOptions": "FS",
      "ScanningSequence": "EP",
      "SequenceName": "*epfid2d1_80",
      "SequenceVariant": "SK",
      "SeriesDescription": "func-bold_fa-77",
      "SeriesNumber": 6,
      "SeriesTime": "090039.782000",
      "SliceLocation": -56.066119008967,
      "SliceThickness": 3.5,
      "SmallestImagePixelValue": 0,
      "SoftwareVersions": "syngo MR E11",
      "SpacingBetweenSlices": 3.990000112654,
      "SpecificCharacterSet": "ISO_IR 100",
      "StudyID": "14",
      "StudyTime": "085121.670000",
      "TransmitCoilName": "Body",
      "VariableFlipAngleFlag": "N",
      "WindowCenterWidthExplanation": "Algo1"
    },
    "slices": {}
  },
  "time": {
    "samples": {
      "AcquisitionNumber": [1, 2, 3, 4, 5, 6, 7, 8, 9, 10, 11, 12, 13, 14, 15, 16, 17, 18, 19, 20, 21, 22, 23, 24, 25, 26, 27, 28, 29, 30, 31, 32, 33, 34, 35, 36, 37, 38, 39, 40, 41, 42, 43, 44, 45, 46, 47, 48, 49, 50, 51, 52, 53, 54, 55, 56, 57, 58, 59, 60, 61, 62, 63, 64, 65, 66, 67, 68, 69, 70, 71, 72, 73, 74, 75, 76, 77, 78, 79, 80, 81, 82, 83, 84, 85, 86, 87, 88, 89, 90, 91, 92, 93, 94, 95, 96, 97, 98, 99, 100, 101, 102, 103, 104, 105, 106, 107, 108, 109, 110, 111, 112, 113, 114, 115, 116, 117, 118, 119, 120, 121, 122, 123, 124, 125, 126, 127, 128, 129, 130, 131, 132, 133, 134, 135, 136, 137, 138, 139, 140, 141, 142, 143, 144, 145, 146, 147, 148, 149, 150, 151, 152, 153, 154, 155, 156, 157, 158, 159, 160, 161, 162, 163, 164, 165, 166, 167, 168, 169, 170, 171, 172, 173, 174, 175, 176, 177, 178, 179, 180, 181, 182, 183, 184, 185, 186, 187, 188, 189, 190, 191, 192, 193, 194, 195, 196, 197, 198, 199, 200],
      "AcquisitionTime": ["085941.425000", "085943.425000", "085945.425000", "085947.425000", "085949.425000", "085951.425000", "085953.425000", "085955.425000", "085957.425000", "085959.425000", "090001.425000", "090003.425000", "090005.425000", "090007.425000", "090009.425000", "090011.425000", "090013.425000", "090015.425000", "090017.425000", "090019.425000", "090021.425000", "090023.425000", "090025.425000", "090027.425000", "090029.425000", "090031.425000", "090033.425000", "090035.425000", "090037.425000", "090039.425000", "090041.425000", "090043.425000", "090045.425000", "090047.425000", "090049.425000", "090051.425000", "090053.425000", "090055.425000", "090057.425000", "090059.425000", "090101.425000", "090103.425000", "090105.425000", "090107.425000", "090109.425000", "090111.425000", "090113.425000", "090115.425000", "090117.425000", "090119.425000", "090121.425000", "090123.425000", "090125.425000", "090127.425000", "090129.425000", "090131.425000", "090133.425000", "090135.425000", "090137.425000", "090139.425000", "090141.425000", "090143.425000", "090145.425000", "090147.425000", "090149.425000", "090151.425000", "090153.425000", "090155.425000", "090157.425000", "090159.425000", "090201.425000", "090203.425000", "090205.425000", "090207.425000", "090209.425000", "090211.425000", "090213.425000", "090215.425000", "090217.425000", "090219.425000", "090221.425000", "090223.425000", "090225.425000", "090227.425000", "090229.425000", "090231.425000", "090233.425000", "090235.425000", "090237.425000", "090239.425000", "090241.425000", "090243.425000", "090245.425000", "090247.425000", "090249.425000", "090251.425000", "090253.425000", "090255.425000", "090257.425000", "090259.425000", "090301.425000", "090303.425000", "090305.425000", "090307.425000", "090309.425000", "090311.425000", "090313.425000", "090315.425000", "090317.425000", "090319.425000", "090321.425000", "090323.425000", "090325.425000", "090327.425000", "090329.425000", "090331.425000", "090333.425000", "090335.425000", "090337.425000", "090339.425000", "090341.425000", "090343.425000", "090345.425000", "090347.425000", "090349.425000", "090351.425000", "090353.425000", "090355.425000", "090357.425000", "090359.425000", "090401.425000", "090403.425000", "090405.425000", "090407.425000", "090409.425000", "090411.425000", "090413.425000", "090415.425000", "090417.425000", "090419.425000", "090421.425000", "090423.425000", "090425.425000", "090427.425000", "090429.425000", "090431.425000", "090433.425000", "090435.425000", "090437.425000", "090439.425000", "090441.425000", "090443.425000", "090445.425000", "090447.425000", "090449.425000", "090451.425000", "090453.425000", "090455.425000", "090457.425000", "090459.425000", "090501.425000", "090503.425000", "090505.425000", "090507.425000", "090509.425000", "090511.425000", "090513.425000", "090515.425000", "090517.425000", "090519.425000", "090521.425000", "090523.425000", "090525.425000", "090527.425000", "090529.425000", "090531.425000", "090533.425000", "090535.425000", "090537.425000", "090539.425000", "090541.425000", "090543.425000", "090545.425000", "090547.425000", "090549.425000", "090551.425000", "090553.425000", "090555.425000", "090557.425000", "090559.425000", "090601.425000", "090603.425000", "090605.425000", "090607.425000", "090609.425000", "090611.425000", "090613.425000", "090615.425000", "090617.425000", "090619.425000"],
      "ContentTime": ["090039.785000", "090039.788000", "090039.798000", "090039.803000", "090039.806000", "090039.808000", "090039.810000", "090039.813000", "090039.816000", "090039.818000", "090039.820000", "090039.823000", "090039.825000", "090039.827000", "090039.829000", "090039.832000", "090039.842000", "090039.844000", "090039.847000", "090039.854000", "090039.856000", "090039.859000", "090039.861000", "090039.863000", "090039.865000", "090039.868000", "090039.870000", "090039.873000", "090039.875000", "090119.779000", "090119.782000", "090119.784000", "090119.786000", "090119.789000", "090119.791000", "090119.793000", "090119.796000", "090119.798000", "090119.800000", "090119.803000", "090119.805000", "090119.807000", "090119.816000", "090119.818000", "090119.821000", "090119.823000", "090119.831000", "090119.839000", "090119.842000", "090159.779000", "090159.782000", "090159.784000", "090159.786000", "090159.788000", "090159.791000", "090159.793000", "090159.795000", "090159.798000", "090159.800000", "090159.802000", "090159.804000", "090159.807000", "090159.809000", "090159.811000", "090159.814000", "090159.817000", "090159.819000", "090159.822000", "090159.824000", "090239.780000", "090239.783000", "090239.785000", "090239.787000", "090239.790000", "090239.792000", "090239.794000", "090239.796000", "090239.799000", "090239.801000", "090239.803000", "090239.805000", "090239.808000", "090239.810000", "090239.812000", "090239.814000", "090239.817000", "090239.820000", "090239.822000", "090239.824000", "090319.779000", "090319.781000", "090319.784000", "090319.786000", "090319.788000", "090319.791000", "090319.793000", "090319.795000", "090319.797000", "090319.800000", "090319.802000", "090319.804000", "090319.806000", "090319.809000", "090319.811000", "090319.814000", "090319.816000", "090319.819000", "090319.821000", "090319.823000", "090359.779000", "090359.782000", "090359.788000", "090359.790000", "090359.792000", "090359.794000", "090359.797000", "090359.799000", "090359.801000", "090359.803000", "090359.806000", "090359.808000", "090359.810000", "090359.813000", "090359.816000", "090359.818000", "090359.821000", "090359.823000", "090359.825000", "090359.828000", "090439.780000", "090439.783000", "090439.785000", "090439.787000", "090439.790000", "090439.792000", "090439.794000", "090439.797000", "090439.799000", "090439.801000", "090439.803000", "090439.806000", "090439.808000", "090439.810000", "090439.813000", "090439.816000", "090439.819000", "090439.821000", "090439.823000", "090439.826000", "090519.780000", "090519.783000", "090519.785000", "090519.787000", "090519.790000", "090519.793000", "090519.795000", "090519.797000", "090519.800000", "090519.802000", "090519.804000", "090519.806000", "090519.809000", "090519.811000", "090519.819000", "090519.821000", "090519.823000", "090519.826000", "090519.828000", "090519.830000", "090559.779000", "090559.782000", "090559.784000", "090559.786000", "090559.789000", "090559.791000", "090559.793000", "090559.795000", "090559.798000", "090559.800000", "090559.802000", "090559.804000", "090559.807000", "090559.809000", "090559.811000", "090559.814000", "090559.817000", "090559.819000", "090559.821000", "090559.824000", "090620.800000", "090620.802000", "090620.805000", "090620.807000", "090620.810000", "090620.812000", "090620.814000", "090620.817000", "090620.819000", "090620.821000", "090620.823000"],
      "InstanceCreationTime": ["090039.785000", "090039.788000", "090039.798000", "090039.803000", "090039.806000", "090039.808000", "090039.810000", "090039.813000", "090039.816000", "090039.818000", "090039.820000", "090039.823000", "090039.825000", "090039.827000", "090039.829000", "090039.832000", "090039.842000", "090039.844000", "090039.847000", "090039.854000", "090039.856000", "090039.859000", "090039.861000", "090039.863000", "090039.865000", "090039.868000", "090039.870000", "090039.873000", "090039.875000", "090119.779000", "090119.782000", "090119.784000", "090119.786000", "090119.789000", "090119.791000", "090119.793000", "090119.796000", "090119.798000", "090119.800000", "090119.803000", "090119.805000", "090119.807000", "090119.816000", "090119.818000", "090119.821000", "090119.823000", "090119.831000", "090119.839000", "090119.842000", "090159.779000", "090159.782000", "090159.784000", "090159.786000", "090159.788000", "090159.791000", "090159.793000", "090159.795000", "090159.798000", "090159.800000", "090159.802000", "090159.804000", "090159.807000", "090159.809000", "090159.811000", "090159.814000", "090159.817000", "090159.819000", "090159.822000", "090159.824000", "090239.780000", "090239.783000", "090239.785000", "090239.787000", "090239.790000", "090239.792000", "090239.794000", "090239.796000", "090239.799000", "090239.801000", "090239.803000", "090239.805000", "090239.808000", "090239.810000", "090239.812000", "090239.814000", "090239.817000", "090239.820000", "090239.822000", "090239.824000", "090319.779000", "090319.781000", "090319.784000", "090319.786000", "090319.788000", "090319.791000", "090319.793000", "090319.795000", "090319.797000", "090319.800000", "090319.802000", "090319.804000", "090319.806000", "090319.809000", "090319.811000", "090319.814000", "090319.816000", "090319.819000", "090319.821000", "090319.823000", "090359.779000", "090359.782000", "090359.788000", "090359.790000", "090359.792000", "090359.794000", "090359.797000", "090359.799000", "090359.801000", "090359.803000", "090359.806000", "090359.808000", "090359.810000", "090359.813000", "090359.816000", "090359.818000", "090359.821000", "090359.823000", "090359.825000", "090359.828000", "090439.780000", "090439.783000", "090439.785000", "090439.787000", "090439.790000", "090439.792000", "090439.794000", "090439.797000", "090439.799000", "090439.801000", "090439.803000", "090439.806000", "090439.808000", "090439.810000", "090439.813000", "090439.816000", "090439.819000", "090439.821000", "090439.823000", "090439.826000", "090519.780000", "090519.783000", "090519.785000", "090519.787000", "090519.790000", "090519.793000", "090519.795000", "090519.797000", "090519.800000", "090519.802000", "090519.804000", "090519.806000", "090519.809000", "090519.811000", "090519.819000", "090519.821000", "090519.823000", "090519.826000", "090519.828000", "090519.830000", "090559.779000", "090559.782000", "090559.784000", "090559.786000", "090559.789000", "090559.791000", "090559.793000", "090559.795000", "090559.798000", "090559.800000", "090559.802000", "090559.804000", "090559.807000", "090559.809000", "090559.811000", "090559.814000", "090559.817000", "090559.819000", "090559.821000", "090559.824000", "090620.800000", "090620.802000", "090620.805000", "090620.807000", "090620.810000", "090620.812000", "090620.814000", "090620.817000", "090620.819000", "090620.821000", "090620.823000"],
      "InstanceNumber": [1, 2, 3, 4, 5, 6, 7, 8, 9, 10, 11, 12, 13, 14, 15, 16, 17, 18, 19, 20, 21, 22, 23, 24, 25, 26, 27, 28, 29, 30, 31, 32, 33, 34, 35, 36, 37, 38, 39, 40, 41, 42, 43, 44, 45, 46, 47, 48, 49, 50, 51, 52, 53, 54, 55, 56, 57, 58, 59, 60, 61, 62, 63, 64, 65, 66, 67, 68, 69, 70, 71, 72, 73, 74, 75, 76, 77, 78, 79, 80, 81, 82, 83, 84, 85, 86, 87, 88, 89, 90, 91, 92, 93, 94, 95, 96, 97, 98, 99, 100, 101, 102, 103, 104, 105, 106, 107, 108, 109, 110, 111, 112, 113, 114, 115, 116, 117, 118, 119, 120, 121, 122, 123, 124, 125, 126, 127, 128, 129, 130, 131, 132, 133, 134, 135, 136, 137, 138, 139, 140, 141, 142, 143, 144, 145, 146, 147, 148, 149, 150, 151, 152, 153, 154, 155, 156, 157, 158, 159, 160, 161, 162, 163, 164, 165, 166, 167, 168, 169, 170, 171, 172, 173, 174, 175, 176, 177, 178, 179, 180, 181, 182, 183, 184, 185, 186, 187, 188, 189, 190, 191, 192, 193, 194, 195, 196, 197, 198, 199, 200],
      "WindowCenter": [1435.0, 1434.0, 1434.0, 1434.0, 1435.0, 1434.0, 1434.0, 1434.0, 1434.0, 1434.0, 1434.0, 1434.0, 1433.0, 1434.0, 1433.0, 1434.0, 1433.0, 1433.0, 1433.0, 1434.0, 1433.0, 1433.0, 1433.0, 1433.0, 1433.0, 1433.0, 1433.0, 1433.0, 1433.0, 1433.0, 1433.0, 1432.0, 1432.0, 1432.0, 1432.0, 1432.0, 1433.0, 1433.0, 1432.0, 1432.0, 1432.0, 1433.0, 1432.0, 1432.0, 1432.0, 1432.0, 1432.0, 1432.0, 1432.0, 1432.0, 1432.0, 1432.0, 1432.0, 1432.0, 1431.0, 1431.0, 1432.0, 1431.0, 1431.0, 1431.0, 1432.0, 1431.0, 1431.0, 1431.0, 1432.0, 1432.0, 1431.0, 1431.0, 1431.0, 1431.0, 1431.0, 1431.0, 1431.0, 1431.0, 1431.0, 1431.0, 1431.0, 1430.0, 1430.0, 1431.0, 1431.0, 1430.0, 1430.0, 1431.0, 1430.0, 1431.0, 1431.0, 1431.0, 1431.0, 1431.0, 1431.0, 1431.0, 1430.0, 1429.0, 1430.0, 1430.0, 1430.0, 1430.0, 1430.0, 1430.0, 1430.0, 1430.0, 1430.0, 1430.0, 1430.0, 1430.0, 1430.0, 1430.0, 1431.0, 1429.0, 1429.0, 1429.0, 1429.0, 1429.0, 1430.0, 1430.0, 1429.0, 1430.0, 1430.0, 1430.0, 1429.0, 1429.0, 1429.0, 1429.0, 1429.0, 1429.0, 1429.0, 1430.0, 1429.0, 1430.0, 1430.0, 1429.0, 1429.0, 1430.0, 1429.0, 1430.0, 1429.0, 1428.0, 1429.0, 1429.0, 1429.0, 1429.0, 1429.0, 1429.0, 1429.0, 1429.0, 1429.0, 1429.0, 1429.0, 1429.0, 1429.0, 1428.0, 1428.0, 1428.0, 1429.0, 1428.0, 1428.0, 1428.0, 1429.0, 1429.0, 1429.0, 1429.0, 1429.0, 1429.0, 1428.0, 1428.0, 1428.0, 1429.0, 1428.0, 1427.0, 1428.0, 1428.0, 1428.0, 1429.0, 1428.0, 1428.0, 1428.0, 1428.0, 1428.0, 1428.0, 1428.0, 1428.0, 1428.0, 1428.0, 1428.0, 1428.0, 1428.0, 1428.0, 1428.0, 1428.0, 1428.0, 1427.0, 1428.0, 1428.0, 1428.0, 1428.0, 1428.0, 1428.0, 1428.0, 1429.0],
      "WindowWidth": [3405.0, 3405.0, 3405.0, 3405.0, 3404.0, 3404.0, 3404.0, 3404.0, 3404.0, 3404.0, 3404.0, 3404.0, 3404.0, 3404.0, 3404.0, 3404.0, 3404.0, 3404.0, 3404.0, 3404.0, 3404.0, 3404.0, 3404.0, 3403.0, 3404.0, 3403.0, 3403.0, 3403.0, 3403.0, 3403.0, 3403.0, 3403.0, 3403.0, 3403.0, 3403.0, 3403.0, 3403.0, 3403.0, 3403.0, 3403.0, 3403.0, 3403.0, 3403.0, 3403.0, 3403.0, 3403.0, 3403.0, 3403.0, 3402.0, 3403.0, 3402.0, 3402.0, 3402.0, 3402.0, 3402.0, 3402.0, 3402.0, 3402.0, 3402.0, 3402.0, 3402.0, 3402.0, 3402.0, 3402.0, 3402.0, 3402.0, 3402.0, 3402.0, 3402.0, 3402.0, 3402.0, 3402.0, 3402.0, 3402.0, 3402.0, 3402.0, 3402.0, 3401.0, 3401.0, 3401.0, 3401.0, 3401.0, 3401.0, 3401.0, 3401.0, 3401.0, 3401.0, 3401.0, 3401.0, 3401.0, 3401.0, 3401.0, 3401.0, 3401.0, 3401.0, 3401.0, 3401.0, 3401.0, 3401.0, 3401.0, 3401.0, 3401.0, 3401.0, 3401.0, 3401.0, 3401.0, 3401.0, 3401.0, 3400.0, 3400.0, 3400.0, 3400.0, 3400.0, 3400.0, 3401.0, 3400.0, 3400.0, 3400.0, 3400.0, 3400.0, 3400.0, 3400.0, 3400.0, 3400.0, 3400.0, 3400.0, 3400.0, 3399.0, 3400.0, 3399.0, 3399.0, 3400.0, 3400.0, 3399.0, 3400.0, 3399.0, 3399.0, 3400.0, 3399.0, 3399.0, 3399.0, 3399.0, 3399.0, 3399.0, 3399.0, 3399.0, 3399.0, 3399.0, 3399.0, 3399.0, 3399.0, 3399.0, 3399.0, 3399.0, 3399.0, 3399.0, 3399.0, 3399.0, 3399.0, 3398.0, 3398.0, 3398.0, 3398.0, 3398.0, 3399.0, 3398.0, 3398.0, 3398.0, 3398.0, 3399.0, 3398.0, 3398.0, 3398.0, 3398.0, 3398.0, 3398.0, 3398.0, 3398.0, 3398.0, 3398.0, 3398.0, 3398.0, 3398.0, 3398.0, 3398.0, 3398.0, 3398.0, 3398.0, 3398.0, 3398.0, 3398.0, 3398.0, 3398.0, 3398.0, 3398.0, 3398.0, 3398.0, 3398.0, 3398.0, 3397.0]
    },
    "slices": {}
  }
}