{
  "AcquisitionMatrixPE": 80,
  "AcquisitionNumber": 1,
  "AcquisitionTime": "09:19:29.532500",
  "BandwidthPerPixelPhaseEncode": 25,
  "BaseResolution": 80,
  "BodyPartExamined": "BRAIN",
  "CoilCombinationMethod": "Sum of Squares",
  "ConsistencyInfo": "N4_VE11C_LATEST_20160120",
  "ConversionSoftware": "dcm2niix",
  "ConversionSoftwareVersion": "v1.0.20220720",
  "DerivedVendorReportedEchoSpacing": 0.0005,
  "DeviceSerialNumber": "66112",
  "DwellTime": 2.7e-06,
  "EchoTime": 0.03,
  "EchoTrainLength": 80,
  "EffectiveEchoSpacing": 0.0005,
  "FlipAngle": 10,
  "HeudiconvVersion": "0.13.1",
  "ImageOrientationPatientDICOM": [0.999358, 0.0355408, 0.00443759, -0.035073, 0.94595, 0.322412],
  "ImageOrientationText": "Tra>Cor(18.8)>Sag(-0.4)",
  "ImageType": [
    "ORIGINAL",
    "PRIMARY",
    "M",
    "ND",
    "NORM",
    "MOSAIC"
],
  "ImagingFrequency": 123.252,
  "InPlanePhaseEncodingDirectionDICOM": "COL",
  "InstitutionAddress": "Maynard 3,Hanover,NH,US,03755",
  "InstitutionName": "Dartmouth College - PBS",
  "InstitutionalDepartmentName": "Department",
  "MRAcquisitionType": "2D",
  "MagneticFieldStrength": 3,
  "Manufacturer": "Siemens",
  "ManufacturersModelName": "Prisma",
  "MatrixCoilMode": "SENSE",
  "Modality": "MR",
  "NonlinearGradientCorrection": false,
  "PartialFourier": 1,
  "PatientPosition": "HFS",
  "PercentPhaseFOV": 100,
  "PercentSampling": 100,
  "PhaseEncodingDirection": "j-",
  "PhaseEncodingSteps": 80,
  "PhaseResolution": 1,
  "PixelBandwidth": 2315,
  "ProcedureStepDescription": "dbic^QA",
  "ProtocolName": "func-bold_fa-10",
  "PulseSequenceDetails": "%SiemensSeq%\\ep2d_bold",
  "ReceiveCoilActiveElements": "HC1-7;NC1,2",
  "ReceiveCoilName": "HeadNeck_64",
  "ReconMatrixPE": 80,
  "RepetitionTime": 2,
  "SAR": 0.00999729,
  "ScanOptions": "FS",
  "ScanningSequence": "EP",
  "SequenceName": "*epfid2d1_80",
  "SequenceVariant": "SK",
  "SeriesDescription": "func-bold_fa-10",
  "SeriesNumber": 9,
  "ShimSetting": [4139, -7711, -7511, 125, -78, -192, -42, 74],
  "SliceThickness": 3.5,
  "SliceTiming": [0.99, 0, 1.055, 0.065, 1.12, 0.1325, 1.1875, 0.1975, 1.2525, 0.2625, 1.32, 0.33, 1.385, 0.395, 1.45, 0.46, 1.5175, 0.5275, 1.5825, 0.5925, 1.65, 0.66, 1.715, 0.725, 1.78, 0.79, 1.8475, 0.8575, 1.9125, 0.9225],
  "SoftwareVersions": "syngo MR E11",
  "SpacingBetweenSlices": 3.99,
  "StationName": "AWP66112",
  "TotalReadoutTime": 0.0395,
  "TxRefAmp": 212.659,
  "dcmmeta_affine": [
    [-2.998075008392334, -0.1052190437912941, -0.028971491381525993, 124.54106903076172],
    [-0.10662232339382172, 2.837848663330078, 1.2862180471420288, -109.87983703613281],
    [0.013312761671841145, -0.9672349095344543, 3.776890754699707, -9.390999794006348],
    [0.0, 0.0, 0.0, 1.0]
],
  "dcmmeta_reorient_transform": [
    [0.0, -1.0, 0.0, 79.0],
    [1.0, 0.0, 0.0, 0.0],
    [0.0, 0.0, 1.0, 0.0],
    [0.0, 0.0, 0.0, 1.0]
],
  "dcmmeta_shape": [80, 80, 30, 200],
  "dcmmeta_slice_dim": 2,
  "dcmmeta_version": 0.6,
  "global": {
    "const": {
      "AccessionNumber": "qa64",
      "AcquisitionMatrix": [80, 0, 0, 80],
      "AngioFlag": "N",
      "BitsAllocated": 16,
      "BitsStored": 12,
      "BodyPartExamined": "BRAIN",
      "Columns": 480,
      "EchoNumbers": 1,
      "EchoTime": 30.0,
      "EchoTrainLength": 80,
      "FlipAngle": 10.0,
      "HighBit": 11,
      "ImageOrientationPatient": [0.99935837474636, 0.0355407743875, 0.00443758721118, -0.0350730143289, 0.94594958675826, 0.32241163592178],
      "ImagePositionPatient": [-694.79998300671, -703.20443328735, -281.91209098532],
      "ImageType": [
        "ORIGINAL",
        "PRIMARY",
        "M",
        "ND",
        "NORM",
        "MOSAIC"
],
      "ImagedNucleus": "1H",
      "ImagingFrequency": 123.252351,
      "InPlanePhaseEncodingDirection": "COL",
      "MRAcquisitionType": "2D",
      "MagneticFieldStrength": 3.0,
      "Manufacturer": "SIEMENS",
      "ManufacturerModelName": "Prisma",
      "Modality": "MR",
      "NumberOfAverages": 1.0,
      "NumberOfPhaseEncodingSteps": 80,
      "PercentPhaseFieldOfView": 100.0,
      "PercentSampling": 100.0,
      "PerformedProcedureStepStartTime": "081200.634000",
      "PhotometricInterpretation": "MONOCHROME2",
      "PixelBandwidth": 2315.0,
      "PixelRepresentation": 0,
      "PixelSpacing": [3.0, 3.0],
      "ProtocolName": "func-bold_fa-10",
      "RepetitionTime": 2000.0,
      "Rows": 480,
      "SAR": 0.00999728641412,
      "SamplesPerPixel": 1,
      "ScanOptions": "FS",
      "ScanningSequence": "EP",
      "SequenceName": "*epfid2d1_80",
      "SequenceVariant": "SK",
      "SeriesDescription": "func-bold_fa-10",
      "SeriesNumber": 9,
      "SeriesTime": "092027.383000",
      "SliceLocation": -45.214622738986,
      "SliceThickness": 3.5,
      "SmallestImagePixelValue": 0,
      "SoftwareVersions": "syngo MR E11",
      "SpacingBetweenSlices": 3.9899999550693,
      "SpecificCharacterSet": "ISO_IR 100",
      "StudyID": "49",
      "StudyTime": "081200.546000",
      "TransmitCoilName": "Body",
      "VariableFlipAngleFlag": "N",
      "WindowCenterWidthExplanation": "Algo1",
      "dBdt": 0.0},
    "slices": {}
  },
  "time": {
    "samples": {
      "AcquisitionNumber": [1, 2, 3, 4, 5, 6, 7, 8, 9, 10, 11, 12, 13, 14, 15, 16, 17, 18, 19, 20, 21, 22, 23, 24, 25, 26, 27, 28, 29, 30, 31, 32, 33, 34, 35, 36, 37, 38, 39, 40, 41, 42, 43, 44, 45, 46, 47, 48, 49, 50, 51, 52, 53, 54, 55, 56, 57, 58, 59, 60, 61, 62, 63, 64, 65, 66, 67, 68, 69, 70, 71, 72, 73, 74, 75, 76, 77, 78, 79, 80, 81, 82, 83, 84, 85, 86, 87, 88, 89, 90, 91, 92, 93, 94, 95, 96, 97, 98, 99, 100, 101, 102, 103, 104, 105, 106, 107, 108, 109, 110, 111, 112, 113, 114, 115, 116, 117, 118, 119, 120, 121, 122, 123, 124, 125, 126, 127, 128, 129, 130, 131, 132, 133, 134, 135, 136, 137, 138, 139, 140, 141, 142, 143, 144, 145, 146, 147, 148, 149, 150, 151, 152, 153, 154, 155, 156, 157, 158, 159, 160, 161, 162, 163, 164, 165, 166, 167, 168, 169, 170, 171, 172, 173, 174, 175, 176, 177, 178, 179, 180, 181, 182, 183, 184, 185, 186, 187, 188, 189, 190, 191, 192, 193, 194, 195, 196, 197, 198, 199, 200],
      "AcquisitionTime": ["091929.532500", "091931.532500", "091933.532500", "091935.532500", "091937.532500", "091939.532500", "091941.532500", "091943.532500", "091945.532500", "091947.532500", "091949.532500", "091951.532500", "091953.532500", "091955.532500", "091957.532500", "091959.532500", "092001.532500", "092003.532500", "092005.532500", "092007.532500", "092009.532500", "092011.532500", "092013.532500", "092015.532500", "092017.532500", "092019.532500", "092021.532500", "092023.532500", "092025.532500", "092027.532500", "092029.532500", "092031.532500", "092033.532500", "092035.532500", "092037.532500", "092039.532500", "092041.532500", "092043.532500", "092045.532500", "092047.532500", "092049.532500", "092051.532500", "092053.532500", "092055.532500", "092057.532500", "092059.532500", "092101.532500", "092103.532500", "092105.532500", "092107.532500", "092109.532500", "092111.532500", "092113.532500", "092115.532500", "092117.532500", "092119.532500", "092121.532500", "092123.532500", "092125.532500", "092127.532500", "092129.532500", "092131.532500", "092133.532500", "092135.532500", "092137.532500", "092139.532500", "092141.532500", "092143.532500", "092145.532500", "092147.532500", "092149.532500", "092151.532500", "092153.532500", "092155.532500", "092157.532500", "092159.532500", "092201.532500", "092203.532500", "092205.532500", "092207.532500", "092209.532500", "092211.532500", "092213.532500", "092215.532500", "092217.532500", "092219.532500", "092221.532500", "092223.532500", "092225.532500", "092227.532500", "092229.532500", "092231.532500", "092233.532500", "092235.532500", "092237.532500", "092239.532500", "092241.532500", "092243.532500", "092245.532500", "092247.532500", "092249.532500", "092251.532500", "092253.532500", "092255.532500", "092257.532500", "092259.532500", "092301.532500", "092303.532500", "092305.532500", "092307.532500", "092309.532500", "092311.532500", "092313.532500", "092315.532500", "092317.532500", "092319.532500", "092321.532500", "092323.532500", "092325.532500", "092327.532500", "092329.532500", "092331.532500", "092333.532500", "092335.532500", "092337.532500", "092339.532500", "092341.532500", "092343.532500", "092345.532500", "092347.532500", "092349.532500", "092351.532500", "092353.532500", "092355.532500", "092357.532500", "092359.532500", "092401.532500", "092403.532500", "092405.532500", "092407.532500", "092409.532500", "092411.532500", "092413.532500", "092415.532500", "092417.532500", "092419.532500", "092421.532500", "092423.532500", "092425.532500", "092427.532500", "092429.532500", "092431.532500", "092433.532500", "092435.532500", "092437.532500", "092439.532500", "092441.532500", "092443.532500", "092445.532500", "092447.532500", "092449.532500", "092451.532500", "092453.532500", "092455.532500", "092457.532500", "092459.532500", "092501.532500", "092503.532500", "092505.532500", "092507.532500", "092509.532500", "092511.532500", "092513.532500", "092515.532500", "092517.532500", "092519.532500", "092521.532500", "092523.532500", "092525.532500", "092527.532500", "092529.532500", "092531.532500", "092533.532500", "092535.532500", "092537.532500", "092539.532500", "092541.532500", "092543.532500", "092545.532500", "092547.532500", "092549.532500", "092551.532500", "092553.532500", "092555.532500", "092557.532500", "092559.532500", "092601.532500", "092603.532500", "092605.532500", "092607.532500"],
      "ContentTime": ["092027.386000", "092027.389000", "092027.392000", "092027.394000", "092027.397000", "092027.399000", "092027.402000", "092027.404000", "092027.407000", "092027.409000", "092027.412000", "092027.414000", "092027.417000", "092027.419000", "092027.421000", "092027.424000", "092027.426000", "092027.429000", "092027.431000", "092027.434000", "092027.436000", "092027.439000", "092027.441000", "092027.444000", "092027.456000", "092027.459000", "092027.461000", "092027.464000", "092027.466000", "092107.382000", "092107.385000", "092107.388000", "092107.397000", "092107.400000", "092107.402000", "092107.405000", "092107.407000", "092107.410000", "092107.412000", "092107.415000", "092107.417000", "092107.420000", "092107.422000", "092107.425000", "092107.427000", "092107.430000", "092107.432000", "092107.435000", "092107.437000", "092147.381000", "092147.384000", "092147.387000", "092147.389000", "092147.392000", "092147.394000", "092147.396000", "092147.399000", "092147.415000", "092147.417000", "092147.420000", "092147.422000", "092147.425000", "092147.427000", "092147.430000", "092147.432000", "092147.435000", "092147.437000", "092147.440000", "092147.442000", "092227.381000", "092227.384000", "092227.387000", "092227.389000", "092227.392000", "092227.394000", "092227.396000", "092227.399000", "092227.401000", "092227.404000", "092227.406000", "092227.409000", "092227.411000", "092227.414000", "092227.416000", "092227.419000", "092227.421000", "092227.424000", "092227.426000", "092227.429000", "092307.382000", "092307.385000", "092307.388000", "092307.390000", "092307.393000", "092307.395000", "092307.397000", "092307.400000", "092307.402000", "092307.405000", "092307.407000", "092307.410000", "092307.412000", "092307.415000", "092307.417000", "092307.420000", "092307.422000", "092307.425000", "092307.427000", "092307.430000", "092347.382000", "092347.385000", "092347.388000", "092347.390000", "092347.393000", "092347.395000", "092347.398000", "092347.400000", "092347.403000", "092347.405000", "092347.408000", "092347.410000", "092347.413000", "092347.415000", "092347.418000", "092347.420000", "092347.422000", "092347.425000", "092347.427000", "092347.430000", "092427.381000", "092427.384000", "092427.387000", "092427.389000", "092427.392000", "092427.394000", "092427.397000", "092427.399000", "092427.402000", "092427.404000", "092427.407000", "092427.409000", "092427.412000", "092427.414000", "092427.417000", "092427.419000", "092427.422000", "092427.424000", "092427.426000", "092427.429000", "092507.381000", "092507.384000", "092507.387000", "092507.389000", "092507.392000", "092507.394000", "092507.397000", "092507.399000", "092507.402000", "092507.404000", "092507.406000", "092507.409000", "092507.411000", "092507.414000", "092507.416000", "092507.419000", "092507.421000", "092507.424000", "092507.426000", "092507.429000", "092547.382000", "092547.385000", "092547.388000", "092547.390000", "092547.393000", "092547.395000", "092547.398000", "092547.400000", "092547.403000", "092547.405000", "092547.408000", "092547.410000", "092547.413000", "092547.415000", "092547.417000", "092547.420000", "092547.422000", "092547.425000", "092547.427000", "092547.430000", "092608.880000", "092608.883000", "092608.885000", "092608.888000", "092608.890000", "092608.893000", "092608.896000", "092608.898000", "092608.901000", "092608.903000", "092608.906000"],
      "InstanceCreationTime": ["092027.386000", "092027.389000", "092027.392000", "092027.394000", "092027.397000", "092027.399000", "092027.402000", "092027.404000", "092027.407000", "092027.409000", "092027.412000", "092027.414000", "092027.417000", "092027.419000", "092027.421000", "092027.424000", "092027.426000", "092027.429000", "092027.431000", "092027.434000", "092027.436000", "092027.439000", "092027.441000", "092027.444000", "092027.456000", "092027.459000", "092027.461000", "092027.464000", "092027.466000", "092107.382000", "092107.385000", "092107.388000", "092107.397000", "092107.400000", "092107.402000", "092107.405000", "092107.407000", "092107.410000", "092107.412000", "092107.415000", "092107.417000", "092107.420000", "092107.422000", "092107.425000", "092107.427000", "092107.430000", "092107.432000", "092107.435000", "092107.437000", "092147.381000", "092147.384000", "092147.387000", "092147.389000", "092147.392000", "092147.394000", "092147.396000", "092147.399000", "092147.415000", "092147.417000", "092147.420000", "092147.422000", "092147.425000", "092147.427000", "092147.430000", "092147.432000", "092147.435000", "092147.437000", "092147.440000", "092147.442000", "092227.381000", "092227.384000", "092227.387000", "092227.389000", "092227.392000", "092227.394000", "092227.396000", "092227.399000", "092227.401000", "092227.404000", "092227.406000", "092227.409000", "092227.411000", "092227.414000", "092227.416000", "092227.419000", "092227.421000", "092227.424000", "092227.426000", "092227.429000", "092307.382000", "092307.385000", "092307.388000", "092307.390000", "092307.393000", "092307.395000", "092307.397000", "092307.400000", "092307.402000", "092307.405000", "092307.407000", "092307.410000", "092307.412000", "092307.415000", "092307.417000", "092307.420000", "092307.422000", "092307.425000", "092307.427000", "092307.430000", "092347.382000", "092347.385000", "092347.388000", "092347.390000", "092347.393000", "092347.395000", "092347.398000", "092347.400000", "092347.403000", "092347.405000", "092347.408000", "092347.410000", "092347.413000", "092347.415000", "092347.418000", "092347.420000", "092347.422000", "092347.425000", "092347.427000", "092347.430000", "092427.381000", "092427.384000", "092427.387000", "092427.389000", "092427.392000", "092427.394000", "092427.397000", "092427.399000", "092427.402000", "092427.404000", "092427.407000", "092427.409000", "092427.412000", "092427.414000", "092427.417000", "092427.419000", "092427.422000", "092427.424000", "092427.426000", "092427.429000", "092507.381000", "092507.384000", "092507.387000", "092507.389000", "092507.392000", "092507.394000", "092507.397000", "092507.399000", "092507.402000", "092507.404000", "092507.406000", "092507.409000", "092507.411000", "092507.414000", "092507.416000", "092507.419000", "092507.421000", "092507.424000", "092507.426000", "092507.429000", "092547.382000", "092547.385000", "092547.388000", "092547.390000", "092547.393000", "092547.395000", "092547.398000", "092547.400000", "092547.403000", "092547.405000", "092547.408000", "092547.410000", "092547.413000", "092547.415000", "092547.417000", "092547.420000", "092547.422000", "092547.425000", "092547.427000", "092547.430000", "092608.880000", "092608.883000", "092608.885000", "092608.888000", "092608.890000", "092608.893000", "092608.896000", "092608.898000", "092608.901000", "092608.903000", "092608.906000"],
      "InstanceNumber": [1, 2, 3, 4, 5, 6, 7, 8, 9, 10, 11, 12, 13, 14, 15, 16, 17, 18, 19, 20, 21, 22, 23, 24, 25, 26, 27, 28, 29, 30, 31, 32, 33, 34, 35, 36, 37, 38, 39, 40, 41, 42, 43, 44, 45, 46, 47, 48, 49, 50, 51, 52, 53, 54, 55, 56, 57, 58, 59, 60, 61, 62, 63, 64, 65, 66, 67, 68, 69, 70, 71, 72, 73, 74, 75, 76, 77, 78, 79, 80, 81, 82, 83, 84, 85, 86, 87, 88, 89, 90, 91, 92, 93, 94, 95, 96, 97, 98, 99, 100, 101, 102, 103, 104, 105, 106, 107, 108, 109, 110, 111, 112, 113, 114, 115, 116, 117, 118, 119, 120, 121, 122, 123, 124, 125, 126, 127, 128, 129, 130, 131, 132, 133, 134, 135, 136, 137, 138, 139, 140, 141, 142, 143, 144, 145, 146, 147, 148, 149, 150, 151, 152, 153, 154, 155, 156, 157, 158, 159, 160, 161, 162, 163, 164, 165, 166, 167, 168, 169, 170, 171, 172, 173, 174, 175, 176, 177, 178, 179, 180, 181, 182, 183, 184, 185, 186, 187, 188, 189, 190, 191, 192, 193, 194, 195, 196, 197, 198, 199, 200],
      "LargestImagePixelValue": [599, 598, 598, 599, 600, 600, 598, 598, 599, 598, 599, 599, 599, 599, 601, 600, 601, 599, 598, 597, 599, 597, 598, 601, 599, 598, 602, 599, 598, 601, 599, 598, 600, 599, 601, 599, 600, 600, 598, 598, 598, 598, 599, 599, 600, 599, 600, 600, 598, 600, 597, 600, 600, 601, 597, 600, 600, 599, 598, 599, 598, 598, 598, 598, 599, 601, 598, 597, 602, 598, 598, 600, 599, 599, 599, 600, 598, 599, 598, 597, 600, 597, 598, 598, 596, 601, 599, 598, 598, 599, 598, 601, 602, 599, 600, 598, 598, 600, 598, 598, 598, 599, 600, 599, 599, 598, 600, 599, 598, 598, 597, 596, 599, 597, 597, 597, 597, 598, 598, 599, 597, 599, 598, 597, 598, 597, 597, 601, 599, 599, 598, 598, 600, 598, 597, 600, 599, 600, 599, 598, 597, 601, 595, 600, 599, 598, 599, 602, 597, 601, 598, 597, 600, 599, 598, 599, 600, 598, 598, 598, 597, 600, 597, 599, 600, 599, 596, 598, 598, 599, 601, 598, 599, 597, 599, 600, 599, 601, 601, 598, 600, 598, 598, 599, 598, 600, 599, 596, 599, 599, 600, 599, 601, 599, 599, 600, 599, 598, 596, 597],
      "WindowCenter": [426.0, 426.0, 426.0, 426.0, 426.0, 426.0, 426.0, 426.0, 426.0, 426.0, 426.0, 426.0, 425.0, 426.0, 426.0, 426.0, 426.0, 426.0, 425.0, 426.0, 426.0, 426.0, 426.0, 426.0, 426.0, 425.0, 426.0, 425.0, 426.0, 425.0, 426.0, 425.0, 425.0, 426.0, 425.0, 425.0, 426.0, 425.0, 426.0, 425.0, 426.0, 425.0, 426.0, 425.0, 426.0, 426.0, 425.0, 425.0, 425.0, 426.0, 425.0, 426.0, 426.0, 426.0, 425.0, 425.0, 426.0, 425.0, 425.0, 425.0, 425.0, 425.0, 426.0, 426.0, 425.0, 425.0, 425.0, 425.0, 425.0, 425.0, 425.0, 425.0, 426.0, 425.0, 425.0, 425.0, 425.0, 425.0, 425.0, 425.0, 425.0, 425.0, 425.0, 425.0, 425.0, 425.0, 425.0, 425.0, 425.0, 425.0, 425.0, 425.0, 425.0, 425.0, 425.0, 425.0, 425.0, 425.0, 425.0, 425.0, 425.0, 425.0, 425.0, 425.0, 425.0, 425.0, 425.0, 425.0, 425.0, 425.0, 425.0, 425.0, 425.0, 425.0, 425.0, 425.0, 425.0, 425.0, 425.0, 425.0, 425.0, 425.0, 425.0, 425.0, 425.0, 425.0, 425.0, 425.0, 425.0, 425.0, 425.0, 425.0, 425.0, 425.0, 425.0, 425.0, 425.0, 425.0, 425.0, 425.0, 425.0, 425.0, 425.0, 425.0, 425.0, 425.0, 425.0, 425.0, 425.0, 425.0, 425.0, 425.0, 425.0, 425.0, 425.0, 425.0, 425.0, 425.0, 425.0, 425.0, 425.0, 425.0, 425.0, 425.0, 425.0, 425.0, 425.0, 425.0, 425.0, 425.0, 425.0, 425.0, 425.0, 425.0, 425.0, 425.0, 425.0, 425.0, 425.0, 424.0, 425.0, 425.0, 425.0, 424.0, 424.0, 425.0, 425.0, 425.0, 424.0, 425.0, 425.0, 424.0, 424.0, 425.0, 424.0, 425.0, 425.0, 424.0, 425.0, 424.0],
      "WindowWidth": [889.0, 889.0, 889.0, 889.0, 889.0, 889.0, 889.0, 889.0, 889.0, 889.0, 889.0, 889.0, 888.0, 889.0, 889.0, 889.0, 889.0, 889.0, 888.0, 889.0, 889.0, 889.0, 889.0, 889.0, 889.0, 888.0, 889.0, 888.0, 889.0, 888.0, 889.0, 888.0, 888.0, 889.0, 888.0, 888.0, 889.0, 888.0, 889.0, 888.0, 889.0, 888.0, 889.0, 888.0, 889.0, 889.0, 888.0, 888.0, 888.0, 889.0, 888.0, 889.0, 889.0, 889.0, 888.0, 888.0, 889.0, 888.0, 888.0, 888.0, 888.0, 888.0, 889.0, 889.0, 888.0, 888.0, 888.0, 888.0, 888.0, 888.0, 888.0, 888.0, 888.0, 888.0, 888.0, 888.0, 888.0, 888.0, 888.0, 888.0, 888.0, 888.0, 888.0, 888.0, 888.0, 888.0, 888.0, 888.0, 888.0, 888.0, 888.0, 888.0, 888.0, 888.0, 888.0, 888.0, 888.0, 888.0, 888.0, 888.0, 888.0, 888.0, 888.0, 888.0, 888.0, 888.0, 888.0, 888.0, 888.0, 887.0, 888.0, 887.0, 888.0, 887.0, 887.0, 888.0, 887.0, 887.0, 887.0, 887.0, 887.0, 887.0, 888.0, 887.0, 887.0, 887.0, 887.0, 887.0, 888.0, 887.0, 887.0, 887.0, 887.0, 887.0, 887.0, 887.0, 887.0, 887.0, 887.0, 887.0, 887.0, 887.0, 887.0, 887.0, 887.0, 887.0, 887.0, 887.0, 887.0, 887.0, 887.0, 887.0, 887.0, 887.0, 887.0, 887.0, 887.0, 887.0, 887.0, 887.0, 887.0, 887.0, 887.0, 887.0, 887.0, 887.0, 887.0, 887.0, 887.0, 887.0, 887.0, 887.0, 887.0, 887.0, 887.0, 887.0, 887.0, 887.0, 887.0, 886.0, 887.0, 887.0, 887.0, 886.0, 886.0, 887.0, 887.0, 887.0, 886.0, 887.0, 887.0, 886.0, 886.0, 887.0, 886.0, 887.0, 887.0, 886.0, 887.0, 886.0]
    },
    "slices": {}
  }
}