{
  "AcquisitionMatrixPE": 80,
  "AcquisitionNumber": 1,
  "AcquisitionTime": "11:19:35.187500",
  "BandwidthPerPixelPhaseEncode": 44.643,
  "BaseResolution": 80,
  "BodyPartExamined": "BRAIN",
  "CoilCombinationMethod": "Sum of Squares",
  "ConsistencyInfo": "N4_VE11C_LATEST_20160120",
  "ConversionSoftware": "dcm2niix",
  "ConversionSoftwareVersion": "v1.0.20220720",
  "DerivedVendorReportedEchoSpacing": 0.000559998,
  "DeviceSerialNumber": "66112",
  "DwellTime": 2.7e-06,
  "EchoTime": 0.035,
  "EchoTrainLength": 39,
  "EffectiveEchoSpacing": 0.000279999,
  "FlipAngle": 90,
  "HeudiconvVersion": "0.13.1",
  "ImageOrientationPatientDICOM": [0.979289, -0.202465, 0.000288458, 0.192484, 0.93145, 0.308788],
  "ImageOrientationText": "Tra>Cor(17.6)>Sag(3.6)",
  "ImageType": [
    "ORIGINAL",
    "PRIMARY",
    "M",
    "ND",
    "NORM",
    "MOSAIC"
],
  "ImagingFrequency": 123.253,
  "InPlanePhaseEncodingDirectionDICOM": "COL",
  "InstitutionAddress": "Maynard 3,Hanover,NH,US,03755",
  "InstitutionName": "Dartmouth College - PBS",
  "InstitutionalDepartmentName": "Department",
  "MRAcquisitionType": "2D",
  "MagneticFieldStrength": 3,
  "Manufacturer": "Siemens",
  "ManufacturersModelName": "Prisma",
  "Modality": "MR",
  "MultibandAccelerationFactor": 4,
  "NonlinearGradientCorrection": false,
  "ParallelReductionFactorInPlane": 2,
  "PartialFourier": 1,
  "PatientPosition": "HFS",
  "PercentPhaseFOV": 100,
  "PercentSampling": 100,
  "PhaseEncodingDirection": "j-",
  "PhaseEncodingSteps": 79,
  "PhaseResolution": 1,
  "PixelBandwidth": 2315,
  "ProcedureStepDescription": "dbic^QA",
  "ProtocolName": "BOLD_p2_s4_3.5mm",
  "PulseSequenceDetails": "%SiemensSeq%\\ep2d_bold",
  "ReceiveCoilActiveElements": "HEA;HEP",
  "ReceiveCoilName": "Head_32",
  "ReconMatrixPE": 80,
  "RefLinesPE": 24,
  "RepetitionTime": 0.525,
  "SAR": 0.0770961,
  "ScanOptions": "FS",
  "ScanningSequence": "EP",
  "SequenceName": "*epfid2d1_80",
  "SequenceVariant": "SK",
  "SeriesDescription": "BOLD_p2_s4_3.5mm",
  "SeriesNumber": 7,
  "ShimSetting": [4144, -7666, -7498, 291, -7, 254, -150, 100],
  "SliceThickness": 3.5,
  "SliceTiming": [0.3775, 0, 0.2525, 0.0625, 0.315, 0.19, 0.4425, 0.125, 0.3775, 0, 0.2525, 0.0625, 0.315, 0.19, 0.4425, 0.125, 0.3775, 0, 0.2525, 0.0625, 0.315, 0.19, 0.4425, 0.125, 0.3775, 0, 0.2525, 0.0625, 0.315, 0.19, 0.4425, 0.125],
  "SoftwareVersions": "syngo MR E11",
  "SpacingBetweenSlices": 3.99,
  "StationName": "AWP66112",
  "TaskName": "rest",
  "TotalReadoutTime": 0.0221199,
  "TxRefAmp": 254.996,
  "dcmmeta_affine": [
    [-2.937868118286133, 0.5774517059326172, 0.2505224347114563, 87.2736587524414],
    [0.6073963046073914, 2.79435133934021, 1.206325650215149, -142.82339477539062],
    [0.0008653749246150255, -0.9263639450073242, 3.7950119972229004, -30.6655216217041],
    [0.0, 0.0, 0.0, 1.0]
],
  "dcmmeta_reorient_transform": [
    [0.0, -1.0, 0.0, 79.0],
    [1.0, 0.0, 0.0, 0.0],
    [0.0, 0.0, 1.0, 0.0],
    [0.0, 0.0, 0.0, 1.0]
],
  "dcmmeta_shape": [80, 80, 32, 157],
  "dcmmeta_slice_dim": 2,
  "dcmmeta_version": 0.6,
  "global": {
    "const": {
      "AccessionNumber": "qa",
      "AcquisitionMatrix": [80, 0, 0, 80],
      "AngioFlag": "N",
      "BitsAllocated": 16,
      "BitsStored": 12,
      "BodyPartExamined": "BRAIN",
      "Columns": 480,
      "EchoNumbers": 1,
      "EchoTime": 35.0,
      "EchoTrainLength": 39,
      "FlipAngle": 90.0,
      "HighBit": 11,
      "ImageOrientationPatient": [0.97928936761713, -0.2024654322689, 0.00028845830178, 0.19248390715308, 0.93145044098456, 0.30878798790877],
      "ImagePositionPatient": [-835.95631172478, -515.32136234216, -289.29414313927],
      "ImageType": [
        "ORIGINAL",
        "PRIMARY",
        "M",
        "ND",
        "NORM",
        "MOSAIC"
],
      "ImagedNucleus": "1H",
      "ImagingFrequency": 123.252609,
      "InPlanePhaseEncodingDirection": "COL",
      "MRAcquisitionType": "2D",
      "MagneticFieldStrength": 3.0,
      "Manufacturer": "SIEMENS",
      "ManufacturerModelName": "Prisma",
      "Modality": "MR",
      "NumberOfAverages": 1.0,
      "NumberOfPhaseEncodingSteps": 79,
      "PercentPhaseFieldOfView": 100.0,
      "PercentSampling": 100.0,
      "PerformedProcedureStepStartTime": "111214.730000",
      "PhotometricInterpretation": "MONOCHROME2",
      "PixelBandwidth": 2315.0,
      "PixelRepresentation": 0,
      "PixelSpacing": [3.0, 3.0],
      "ProtocolName": "BOLD_p2_s4_3.5mm",
      "RepetitionTime": 525.0,
      "Rows": 480,
      "SAR": 0.0770961471589,
      "SamplesPerPixel": 1,
      "ScanOptions": "FS",
      "ScanningSequence": "EP",
      "SequenceName": "*epfid2d1_80",
      "SequenceVariant": "SK",
      "SeriesDescription": "BOLD_p2_s4_3.5mm",
      "SeriesNumber": 7,
      "SeriesTime": "112005.951000",
      "SliceLocation": -66.868058537311,
      "SliceThickness": 3.5,
      "SmallestImagePixelValue": 0,
      "SoftwareVersions": "syngo MR E11",
      "SpacingBetweenSlices": 3.9899998679593,
      "SpecificCharacterSet": "ISO_IR 100",
      "StudyID": "18",
      "StudyTime": "111214.649000",
      "TransmitCoilName": "Body",
      "VariableFlipAngleFlag": "N",
      "WindowCenterWidthExplanation": "Algo1",
      "dBdt": 0.0},
    "slices": {}
  },
  "time": {
    "samples": {
      "AcquisitionNumber": [1, 2, 3, 4, 5, 6, 7, 8, 9, 10, 11, 12, 13, 14, 15, 16, 17, 18, 19, 20, 21, 22, 23, 24, 25, 26, 27, 28, 29, 30, 31, 32, 33, 34, 35, 36, 37, 38, 39, 40, 41, 42, 43, 44, 45, 46, 47, 48, 49, 50, 51, 52, 53, 54, 55, 56, 57, 58, 59, 60, 61, 62, 63, 64, 65, 66, 67, 68, 69, 70, 71, 72, 73, 74, 75, 76, 77, 78, 79, 80, 81, 82, 83, 84, 85, 86, 87, 88, 89, 90, 91, 92, 93, 94, 95, 96, 97, 98, 99, 100, 101, 102, 103, 104, 105, 106, 107, 108, 109, 110, 111, 112, 113, 114, 115, 116, 117, 118, 119, 120, 121, 122, 123, 124, 125, 126, 127, 128, 129, 130, 131, 132, 133, 134, 135, 136, 137, 138, 139, 140, 141, 142, 143, 144, 145, 146, 147, 148, 149, 150, 151, 152, 153, 154, 155, 156, 157],
      "AcquisitionTime": ["111935.187500", "111935.712500", "111936.237500", "111936.762500", "111937.287500", "111937.812500", "111938.337500", "111938.862500", "111939.387500", "111939.912500", "111940.437500", "111940.962500", "111941.487500", "111942.012500", "111942.537500", "111943.062500", "111943.587500", "111944.112500", "111944.637500", "111945.162500", "111945.687500", "111946.212500", "111946.737500", "111947.262500", "111947.787500", "111948.312500", "111948.837500", "111949.362500", "111949.887500", "111950.412500", "111950.937500", "111951.462500", "111951.987500", "111952.512500", "111953.037500", "111953.562500", "111954.087500", "111954.612500", "111955.137500", "111955.662500", "111956.187500", "111956.712500", "111957.237500", "111957.762500", "111958.287500", "111958.812500", "111959.337500", "111959.862500", "112000.387500", "112000.912500", "112001.437500", "112001.962500", "112002.487500", "112003.012500", "112003.537500", "112004.062500", "112004.587500", "112005.112500", "112005.637500", "112006.162500", "112006.687500", "112007.212500", "112007.737500", "112008.262500", "112008.787500", "112009.312500", "112009.837500", "112010.362500", "112010.887500", "112011.412500", "112011.937500", "112012.462500", "112012.987500", "112013.512500", "112014.037500", "112014.562500", "112015.087500", "112015.612500", "112016.137500", "112016.662500", "112017.187500", "112017.712500", "112018.237500", "112018.762500", "112019.287500", "112019.812500", "112020.337500", "112020.862500", "112021.387500", "112021.912500", "112022.437500", "112022.962500", "112023.487500", "112024.012500", "112024.537500", "112025.062500", "112025.587500", "112026.112500", "112026.637500", "112027.162500", "112027.687500", "112028.212500", "112028.737500", "112029.262500", "112029.787500", "112030.312500", "112030.837500", "112031.362500", "112031.887500", "112032.412500", "112032.937500", "112033.462500", "112033.987500", "112034.512500", "112035.037500", "112035.562500", "112036.087500", "112036.612500", "112037.137500", "112037.662500", "112038.187500", "112038.712500", "112039.237500", "112039.762500", "112040.287500", "112040.812500", "112041.337500", "112041.862500", "112042.387500", "112042.912500", "112043.437500", "112043.962500", "112044.487500", "112045.012500", "112045.537500", "112046.062500", "112046.587500", "112047.112500", "112047.637500", "112048.162500", "112048.687500", "112049.212500", "112049.737500", "112050.262500", "112050.787500", "112051.312500", "112051.837500", "112052.362500", "112052.887500", "112053.412500", "112053.937500", "112054.462500", "112054.987500", "112055.512500", "112056.037500", "112056.562500", "112057.087500"],
      "ContentTime": ["112005.954000", "112005.957000", "112005.960000", "112005.962000", "112005.965000", "112005.967000", "112005.970000", "112005.972000", "112005.975000", "112005.982000", "112005.984000", "112005.987000", "112005.989000", "112005.992000", "112005.994000", "112005.997000", "112006.000000", "112006.003000", "112006.005000", "112006.008000", "112006.011000", "112006.013000", "112006.016000", "112006.026000", "112006.028000", "112006.031000", "112006.033000", "112006.036000", "112006.039000", "112006.041000", "112006.044000", "112006.046000", "112006.049000", "112006.051000", "112006.054000", "112006.056000", "112006.059000", "112006.061000", "112006.064000", "112006.066000", "112006.069000", "112006.072000", "112006.074000", "112006.077000", "112006.079000", "112006.082000", "112006.084000", "112006.087000", "112006.089000", "112006.092000", "112006.094000", "112006.097000", "112006.099000", "112006.102000", "112006.104000", "112006.107000", "112006.111000", "112025.948000", "112025.951000", "112025.954000", "112025.956000", "112025.959000", "112025.961000", "112025.964000", "112025.966000", "112025.969000", "112025.971000", "112025.974000", "112025.976000", "112025.979000", "112025.981000", "112025.984000", "112025.987000", "112025.989000", "112025.992000", "112025.997000", "112026.001000", "112026.003000", "112026.006000", "112026.008000", "112026.011000", "112026.013000", "112026.016000", "112026.019000", "112026.021000", "112026.024000", "112026.026000", "112026.029000", "112026.031000", "112026.034000", "112026.036000", "112026.039000", "112026.042000", "112026.044000", "112026.046000", "112045.948000", "112045.951000", "112045.954000", "112045.956000", "112045.959000", "112045.961000", "112045.964000", "112045.966000", "112045.969000", "112045.972000", "112045.974000", "112045.977000", "112045.979000", "112045.982000", "112045.984000", "112045.987000", "112045.989000", "112045.992000", "112045.994000", "112045.997000", "112046.000000", "112046.003000", "112046.005000", "112046.009000", "112046.012000", "112046.014000", "112046.017000", "112046.019000", "112046.022000", "112046.024000", "112046.027000", "112046.030000", "112046.032000", "112046.035000", "112046.037000", "112046.040000", "112046.042000", "112046.045000", "112058.198000", "112058.202000", "112058.205000", "112058.208000", "112058.210000", "112058.230000", "112058.233000", "112058.236000", "112058.238000", "112058.241000", "112058.243000", "112058.246000", "112058.248000", "112058.251000", "112058.254000", "112058.256000", "112058.259000", "112058.261000", "112058.264000", "112058.267000", "112058.269000", "112058.272000", "112058.274000", "112058.277000"],
      "InstanceCreationTime": ["112005.954000", "112005.957000", "112005.960000", "112005.962000", "112005.965000", "112005.967000", "112005.970000", "112005.972000", "112005.975000", "112005.982000", "112005.984000", "112005.987000", "112005.989000", "112005.992000", "112005.994000", "112005.997000", "112006.000000", "112006.003000", "112006.005000", "112006.008000", "112006.011000", "112006.013000", "112006.016000", "112006.026000", "112006.028000", "112006.031000", "112006.033000", "112006.036000", "112006.039000", "112006.041000", "112006.044000", "112006.046000", "112006.049000", "112006.051000", "112006.054000", "112006.056000", "112006.059000", "112006.061000", "112006.064000", "112006.066000", "112006.069000", "112006.072000", "112006.074000", "112006.077000", "112006.079000", "112006.082000", "112006.084000", "112006.087000", "112006.089000", "112006.092000", "112006.094000", "112006.097000", "112006.099000", "112006.102000", "112006.104000", "112006.107000", "112006.111000", "112025.948000", "112025.951000", "112025.954000", "112025.956000", "112025.959000", "112025.961000", "112025.964000", "112025.966000", "112025.969000", "112025.971000", "112025.974000", "112025.976000", "112025.979000", "112025.981000", "112025.984000", "112025.987000", "112025.989000", "112025.992000", "112025.997000", "112026.001000", "112026.003000", "112026.006000", "112026.008000", "112026.011000", "112026.013000", "112026.016000", "112026.019000", "112026.021000", "112026.024000", "112026.026000", "112026.029000", "112026.031000", "112026.034000", "112026.036000", "112026.039000", "112026.042000", "112026.044000", "112026.046000", "112045.948000", "112045.951000", "112045.954000", "112045.956000", "112045.959000", "112045.961000", "112045.964000", "112045.966000", "112045.969000", "112045.972000", "112045.974000", "112045.977000", "112045.979000", "112045.982000", "112045.984000", "112045.987000", "112045.989000", "112045.992000", "112045.994000", "112045.997000", "112046.000000", "112046.003000", "112046.005000", "112046.009000", "112046.012000", "112046.014000", "112046.017000", "112046.019000", "112046.022000", "112046.024000", "112046.027000", "112046.030000", "112046.032000", "112046.035000", "112046.037000", "112046.040000", "112046.042000", "112046.045000", "112058.198000", "112058.202000", "112058.205000", "112058.208000", "112058.210000", "112058.230000", "112058.233000", "112058.236000", "112058.238000", "112058.241000", "112058.243000", "112058.246000", "112058.248000", "112058.251000", "112058.254000", "112058.256000", "112058.259000", "112058.261000", "112058.264000", "112058.267000", "112058.269000", "112058.272000", "112058.274000", "112058.277000"],
      "InstanceNumber": [1, 2, 3, 4, 5, 6, 7, 8, 9, 10, 11, 12, 13, 14, 15, 16, 17, 18, 19, 20, 21, 22, 23, 24, 25, 26, 27, 28, 29, 30, 31, 32, 33, 34, 35, 36, 37, 38, 39, 40, 41, 42, 43, 44, 45, 46, 47, 48, 49, 50, 51, 52, 53, 54, 55, 56, 57, 58, 59, 60, 61, 62, 63, 64, 65, 66, 67, 68, 69, 70, 71, 72, 73, 74, 75, 76, 77, 78, 79, 80, 81, 82, 83, 84, 85, 86, 87, 88, 89, 90, 91, 92, 93, 94, 95, 96, 97, 98, 99, 100, 101, 102, 103, 104, 105, 106, 107, 108, 109, 110, 111, 112, 113, 114, 115, 116, 117, 118, 119, 120, 121, 122, 123, 124, 125, 126, 127, 128, 129, 130, 131, 132, 133, 134, 135, 136, 137, 138, 139, 140, 141, 142, 143, 144, 145, 146, 147, 148, 149, 150, 151, 152, 153, 154, 155, 156, 157],
      "LargestImagePixelValue": [1613, 1615, 1622, 1618, 1615, 1617, 1615, 1618, 1618, 1617, 1619, 1616, 1621, 1621, 1618, 1611, 1622, 1625, 1615, 1617, 1617, 1617, 1621, 1627, 1618, 1619, 1623, 1612, 1616, 1618, 1618, 1612, 1619, 1620, 1614, 1616, 1622, 1617, 1614, 1619, 1620, 1616, 1620, 1616, 1618, 1618, 1618, 1618, 1619, 1620, 1611, 1620, 1620, 1618, 1617, 1618, 1622, 1623, 1620, 1618, 1616, 1611, 1618, 1622, 1614, 1616, 1613, 1616, 1618, 1615, 1619, 1617, 1623, 1618, 1616, 1620, 1614, 1616, 1614, 1615, 1619, 1615, 1615, 1614, 1621, 1614, 1614, 1615, 1610, 1619, 1618, 1620, 1623, 1615, 1619, 1615, 1617, 1620, 1618, 1622, 1616, 1620, 1620, 1618, 1616, 1623, 1616, 1618, 1616, 1613, 1618, 1617, 1612, 1619, 1618, 1619, 1622, 1623, 1613, 1618, 1616, 1615, 1616, 1617, 1620, 1616, 1617, 1619, 1617, 1620, 1620, 1619, 1616, 1623, 1614, 1623, 1610, 1620, 1616, 1616, 1619, 1613, 1614, 1615, 1621, 1616, 1622, 1614, 1623, 1616, 1617, 1618, 1622, 1614, 1623, 1615, 1611],
      "WindowCenter": [757.0, 757.0, 757.0, 757.0, 757.0, 758.0, 757.0, 757.0, 757.0, 758.0, 757.0, 757.0, 757.0, 757.0, 758.0, 757.0, 758.0, 757.0, 758.0, 757.0, 757.0, 757.0, 757.0, 757.0, 757.0, 757.0, 757.0, 757.0, 757.0, 757.0, 757.0, 757.0, 757.0, 757.0, 757.0, 757.0, 757.0, 757.0, 757.0, 757.0, 757.0, 757.0, 757.0, 757.0, 757.0, 757.0, 757.0, 757.0, 758.0, 757.0, 757.0, 757.0, 757.0, 757.0, 757.0, 757.0, 757.0, 757.0, 757.0, 757.0, 757.0, 757.0, 757.0, 757.0, 757.0, 757.0, 757.0, 757.0, 757.0, 757.0, 757.0, 757.0, 757.0, 757.0, 757.0, 758.0, 757.0, 757.0, 757.0, 757.0, 757.0, 757.0, 757.0, 757.0, 758.0, 757.0, 757.0, 757.0, 757.0, 757.0, 757.0, 757.0, 757.0, 757.0, 757.0, 757.0, 757.0, 757.0, 757.0, 757.0, 757.0, 758.0, 757.0, 757.0, 757.0, 757.0, 757.0, 757.0, 757.0, 757.0, 757.0, 757.0, 757.0, 757.0, 757.0, 757.0, 757.0, 757.0, 757.0, 757.0, 757.0, 757.0, 757.0, 757.0, 757.0, 757.0, 757.0, 757.0, 757.0, 757.0, 757.0, 757.0, 757.0, 757.0, 757.0, 757.0, 757.0, 757.0, 757.0, 757.0, 757.0, 757.0, 757.0, 757.0, 757.0, 757.0, 757.0, 757.0, 757.0, 757.0, 757.0, 757.0, 757.0, 757.0, 757.0, 757.0, 757.0],
      "WindowWidth": [1613.0, 1612.0, 1613.0, 1613.0, 1613.0, 1613.0, 1613.0, 1613.0, 1612.0, 1613.0, 1613.0, 1613.0, 1613.0, 1613.0, 1613.0, 1613.0, 1613.0, 1613.0, 1613.0, 1612.0, 1613.0, 1613.0, 1613.0, 1613.0, 1613.0, 1612.0, 1612.0, 1613.0, 1612.0, 1613.0, 1613.0, 1613.0, 1612.0, 1613.0, 1612.0, 1613.0, 1613.0, 1613.0, 1612.0, 1613.0, 1613.0, 1613.0, 1613.0, 1613.0, 1613.0, 1613.0, 1613.0, 1613.0, 1613.0, 1613.0, 1613.0, 1612.0, 1612.0, 1612.0, 1613.0, 1612.0, 1612.0, 1612.0, 1613.0, 1613.0, 1612.0, 1613.0, 1613.0, 1613.0, 1613.0, 1613.0, 1612.0, 1613.0, 1613.0, 1612.0, 1613.0, 1613.0, 1613.0, 1612.0, 1613.0, 1614.0, 1613.0, 1613.0, 1613.0, 1613.0, 1613.0, 1613.0, 1613.0, 1613.0, 1614.0, 1613.0, 1613.0, 1613.0, 1613.0, 1613.0, 1612.0, 1612.0, 1612.0, 1613.0, 1613.0, 1612.0, 1613.0, 1613.0, 1613.0, 1613.0, 1613.0, 1613.0, 1613.0, 1613.0, 1613.0, 1612.0, 1613.0, 1613.0, 1613.0, 1613.0, 1613.0, 1613.0, 1613.0, 1613.0, 1613.0, 1613.0, 1613.0, 1613.0, 1613.0, 1613.0, 1613.0, 1613.0, 1613.0, 1613.0, 1612.0, 1613.0, 1613.0, 1612.0, 1613.0, 1613.0, 1613.0, 1612.0, 1612.0, 1613.0, 1613.0, 1612.0, 1612.0, 1613.0, 1613.0, 1613.0, 1613.0, 1613.0, 1613.0, 1613.0, 1613.0, 1613.0, 1613.0, 1612.0, 1613.0, 1612.0, 1612.0, 1613.0, 1612.0, 1613.0, 1613.0, 1613.0, 1613.0]
    },
    "slices": {}
  }
}