{
  "AcquisitionMatrixPE": 80,
  "AcquisitionNumber": 1,
  "AcquisitionTime": "12:41:32.140000",
  "BandwidthPerPixelPhaseEncode": 44.643,
  "BaseResolution": 80,
  "BodyPartExamined": "BRAIN",
  "CoilCombinationMethod": "Sum of Squares",
  "ConsistencyInfo": "N4_VE11C_LATEST_20160120",
  "ConversionSoftware": "dcm2niix",
  "ConversionSoftwareVersion": "v1.0.20220720",
  "DerivedVendorReportedEchoSpacing": 0.000559998,
  "DeviceSerialNumber": "66112",
  "DwellTime": 2.7e-06,
  "EchoTime": 0.035,
  "EchoTrainLength": 39,
  "EffectiveEchoSpacing": 0.000279999,
  "FlipAngle": 90,
  "HeudiconvVersion": "0.13.1",
  "ImageOrientationPatientDICOM": [0.984607, 0.174647, 0.00694164, -0.168302, 0.936622, 0.307269],
  "ImageOrientationText": "Tra>Cor(17.7)>Sag(-2.7)",
  "ImageType": [
    "ORIGINAL",
    "PRIMARY",
    "M",
    "ND",
    "NORM",
    "MOSAIC"
],
  "ImagingFrequency": 123.252,
  "InPlanePhaseEncodingDirectionDICOM": "COL",
  "InstitutionAddress": "Maynard 3,Hanover,NH,US,03755",
  "InstitutionName": "Dartmouth College - PBS",
  "InstitutionalDepartmentName": "Department",
  "MRAcquisitionType": "2D",
  "MagneticFieldStrength": 3,
  "Manufacturer": "Siemens",
  "ManufacturersModelName": "Prisma",
  "Modality": "MR",
  "MultibandAccelerationFactor": 4,
  "NonlinearGradientCorrection": false,
  "ParallelReductionFactorInPlane": 2,
  "PartialFourier": 1,
  "PatientPosition": "HFS",
  "PercentPhaseFOV": 100,
  "PercentSampling": 100,
  "PhaseEncodingDirection": "j-",
  "PhaseEncodingSteps": 79,
  "PhaseResolution": 1,
  "PixelBandwidth": 2315,
  "ProcedureStepDescription": "dbic^QA",
  "ProtocolName": "func-bold_task-rest_acq-p2-s4-3.5mm",
  "PulseSequenceDetails": "%SiemensSeq%\\ep2d_bold",
  "ReceiveCoilActiveElements": "HEA;HEP",
  "ReceiveCoilName": "Head_32",
  "ReconMatrixPE": 80,
  "RefLinesPE": 24,
  "RepetitionTime": 2,
  "SAR": 0.0208971,
  "ScanOptions": "FS",
  "ScanningSequence": "EP",
  "SequenceName": "*epfid2d1_80",
  "SequenceVariant": "SK",
  "SeriesDescription": "func-bold_task-rest_acq-p2-s4-3.5mm",
  "SeriesNumber": 7,
  "ShimSetting": [4141, -7688, -7519, 258, -53, -113, -71, 50],
  "SliceThickness": 3.5,
  "SliceTiming": [1.485, 0, 0.99, 0.2475, 1.2375, 0.7425, 1.7325, 0.495, 1.485, 0, 0.99, 0.2475, 1.2375, 0.7425, 1.7325, 0.495, 1.485, 0, 0.99, 0.2475, 1.2375, 0.7425, 1.7325, 0.495, 1.485, 0, 0.99, 0.2475, 1.2375, 0.7425, 1.7325, 0.495],
  "SoftwareVersions": "syngo MR E11",
  "SpacingBetweenSlices": 3.99,
  "StationName": "AWP66112",
  "TaskName": "rest",
  "TotalReadoutTime": 0.0221199,
  "TxRefAmp": 235.417,
  "dcmmeta_affine": [
    [-2.953819990158081, -0.5049057006835938, -0.1881757527589798, 142.44017028808594],
    [-0.5239410400390625, 2.809865713119507, 1.211790680885315, -104.14835357666016],
    [0.020824911072850227, -0.9218056201934814, 3.7968740463256836, -26.0682430267334],
    [0.0, 0.0, 0.0, 1.0]
],
  "dcmmeta_reorient_transform": [
    [0.0, -1.0, 0.0, 79.0],
    [1.0, 0.0, 0.0, 0.0],
    [0.0, 0.0, 1.0, 0.0],
    [0.0, 0.0, 0.0, 1.0]
],
  "dcmmeta_shape": [80, 80, 32, 200],
  "dcmmeta_slice_dim": 2,
  "dcmmeta_version": 0.6,
  "global": {
    "const": {
      "AccessionNumber": "qa",
      "AcquisitionMatrix": [80, 0, 0, 80],
      "AngioFlag": "N",
      "BitsAllocated": 16,
      "BitsStored": 12,
      "BodyPartExamined": "BRAIN",
      "Columns": 480,
      "EchoNumbers": 1,
      "EchoTime": 35.0,
      "EchoTrainLength": 39,
      "FlipAngle": 90.0,
      "HighBit": 11,
      "ImageOrientationPatient": [0.98460663934937, 0.17464701377759, 0.00694163724925, -0.1683018905058, 0.93662186697683, 0.3072685339455],
      "ImagePositionPatient": [-592.33546561513, -784.59235963085, -287.41698839084],
      "ImageType": [
        "ORIGINAL",
        "PRIMARY",
        "M",
        "ND",
        "NORM",
        "MOSAIC"
],
      "ImagedNucleus": "1H",
      "ImagingFrequency": 123.25245,
      "InPlanePhaseEncodingDirection": "COL",
      "MRAcquisitionType": "2D",
      "MagneticFieldStrength": 3.0,
      "Manufacturer": "SIEMENS",
      "ManufacturerModelName": "Prisma",
      "Modality": "MR",
      "NumberOfAverages": 1.0,
      "NumberOfPhaseEncodingSteps": 79,
      "PercentPhaseFieldOfView": 100.0,
      "PercentSampling": 100.0,
      "PerformedProcedureStepStartTime": "122933.114000",
      "PhotometricInterpretation": "MONOCHROME2",
      "PixelBandwidth": 2315.0,
      "PixelRepresentation": 0,
      "PixelSpacing": [3.0, 3.0],
      "ProtocolName": "func-bold_task-rest_acq-p2-s4-3.5mm",
      "RepetitionTime": 2000.0,
      "Rows": 480,
      "SAR": 0.02089706016345,
      "SamplesPerPixel": 1,
      "ScanOptions": "FS",
      "ScanningSequence": "EP",
      "SequenceName": "*epfid2d1_80",
      "SequenceVariant": "SK",
      "SeriesDescription": "func-bold_task-rest_acq-p2-s4-3.5mm",
      "SeriesNumber": 7,
      "SeriesTime": "124229.765000",
      "SliceLocation": -63.154792385215,
      "SliceThickness": 3.5,
      "SmallestImagePixelValue": 0,
      "SoftwareVersions": "syngo MR E11",
      "SpacingBetweenSlices": 3.9899999665777,
      "SpecificCharacterSet": "ISO_IR 100",
      "StudyID": "60",
      "StudyTime": "122933.003000",
      "TransmitCoilName": "Body",
      "VariableFlipAngleFlag": "N",
      "WindowCenter": 904.0,
      "WindowCenterWidthExplanation": "Algo1",
      "dBdt": 0.0},
    "slices": {}
  },
  "time": {
    "samples": {
      "AcquisitionNumber": [1, 2, 3, 4, 5, 6, 7, 8, 9, 10, 11, 12, 13, 14, 15, 16, 17, 18, 19, 20, 21, 22, 23, 24, 25, 26, 27, 28, 29, 30, 31, 32, 33, 34, 35, 36, 37, 38, 39, 40, 41, 42, 43, 44, 45, 46, 47, 48, 49, 50, 51, 52, 53, 54, 55, 56, 57, 58, 59, 60, 61, 62, 63, 64, 65, 66, 67, 68, 69, 70, 71, 72, 73, 74, 75, 76, 77, 78, 79, 80, 81, 82, 83, 84, 85, 86, 87, 88, 89, 90, 91, 92, 93, 94, 95, 96, 97, 98, 99, 100, 101, 102, 103, 104, 105, 106, 107, 108, 109, 110, 111, 112, 113, 114, 115, 116, 117, 118, 119, 120, 121, 122, 123, 124, 125, 126, 127, 128, 129, 130, 131, 132, 133, 134, 135, 136, 137, 138, 139, 140, 141, 142, 143, 144, 145, 146, 147, 148, 149, 150, 151, 152, 153, 154, 155, 156, 157, 158, 159, 160, 161, 162, 163, 164, 165, 166, 167, 168, 169, 170, 171, 172, 173, 174, 175, 176, 177, 178, 179, 180, 181, 182, 183, 184, 185, 186, 187, 188, 189, 190, 191, 192, 193, 194, 195, 196, 197, 198, 199, 200],
      "AcquisitionTime": ["124132.140000", "124134.140000", "124136.140000", "124138.140000", "124140.140000", "124142.140000", "124144.140000", "124146.140000", "124148.140000", "124150.140000", "124152.140000", "124154.140000", "124156.140000", "124158.140000", "124200.140000", "124202.140000", "124204.140000", "124206.140000", "124208.140000", "124210.140000", "124212.140000", "124214.140000", "124216.140000", "124218.140000", "124220.140000", "124222.140000", "124224.140000", "124226.140000", "124228.140000", "124230.140000", "124232.140000", "124234.140000", "124236.140000", "124238.140000", "124240.140000", "124242.140000", "124244.140000", "124246.140000", "124248.140000", "124250.140000", "124252.140000", "124254.140000", "124256.140000", "124258.140000", "124300.140000", "124302.140000", "124304.140000", "124306.140000", "124308.140000", "124310.140000", "124312.140000", "124314.140000", "124316.140000", "124318.140000", "124320.140000", "124322.140000", "124324.140000", "124326.140000", "124328.140000", "124330.140000", "124332.140000", "124334.140000", "124336.140000", "124338.140000", "124340.140000", "124342.140000", "124344.140000", "124346.140000", "124348.140000", "124350.140000", "124352.140000", "124354.140000", "124356.140000", "124358.140000", "124400.140000", "124402.140000", "124404.140000", "124406.140000", "124408.140000", "124410.140000", "124412.140000", "124414.140000", "124416.140000", "124418.140000", "124420.140000", "124422.140000", "124424.140000", "124426.140000", "124428.140000", "124430.140000", "124432.140000", "124434.140000", "124436.140000", "124438.140000", "124440.140000", "124442.140000", "124444.140000", "124446.140000", "124448.140000", "124450.140000", "124452.140000", "124454.140000", "124456.140000", "124458.140000", "124500.140000", "124502.140000", "124504.140000", "124506.140000", "124508.140000", "124510.140000", "124512.140000", "124514.140000", "124516.140000", "124518.140000", "124520.140000", "124522.140000", "124524.140000", "124526.140000", "124528.140000", "124530.140000", "124532.140000", "124534.140000", "124536.140000", "124538.140000", "124540.140000", "124542.140000", "124544.140000", "124546.140000", "124548.140000", "124550.140000", "124552.140000", "124554.140000", "124556.140000", "124558.140000", "124600.140000", "124602.140000", "124604.140000", "124606.140000", "124608.140000", "124610.140000", "124612.140000", "124614.140000", "124616.140000", "124618.140000", "124620.140000", "124622.140000", "124624.140000", "124626.140000", "124628.140000", "124630.140000", "124632.140000", "124634.140000", "124636.140000", "124638.140000", "124640.140000", "124642.140000", "124644.140000", "124646.140000", "124648.140000", "124650.140000", "124652.140000", "124654.140000", "124656.140000", "124658.140000", "124700.140000", "124702.140000", "124704.140000", "124706.140000", "124708.140000", "124710.140000", "124712.140000", "124714.140000", "124716.140000", "124718.140000", "124720.140000", "124722.140000", "124724.140000", "124726.140000", "124728.140000", "124730.140000", "124732.140000", "124734.140000", "124736.140000", "124738.140000", "124740.140000", "124742.140000", "124744.140000", "124746.140000", "124748.140000", "124750.140000", "124752.140000", "124754.140000", "124756.140000", "124758.140000", "124800.140000", "124802.140000", "124804.140000", "124806.140000", "124808.140000", "124810.140000"],
      "ContentTime": ["124229.768000", "124229.772000", "124229.775000", "124229.777000", "124229.780000", "124229.782000", "124229.785000", "124229.796000", "124229.798000", "124229.801000", "124229.803000", "124229.806000", "124229.808000", "124229.811000", "124229.813000", "124229.816000", "124229.819000", "124229.821000", "124229.824000", "124229.826000", "124229.829000", "124229.831000", "124229.834000", "124229.837000", "124229.839000", "124229.842000", "124229.844000", "124229.847000", "124229.849000", "124309.763000", "124309.767000", "124309.769000", "124309.772000", "124309.775000", "124309.777000", "124309.780000", "124309.782000", "124309.785000", "124309.788000", "124309.790000", "124309.793000", "124309.795000", "124309.798000", "124309.800000", "124309.803000", "124309.805000", "124309.808000", "124309.811000", "124309.813000", "124349.763000", "124349.766000", "124349.769000", "124349.772000", "124349.774000", "124349.783000", "124349.786000", "124349.788000", "124349.791000", "124349.794000", "124349.796000", "124349.799000", "124349.801000", "124349.804000", "124349.806000", "124349.809000", "124349.811000", "124349.814000", "124349.817000", "124349.819000", "124429.765000", "124429.802000", "124429.805000", "124429.807000", "124429.810000", "124429.812000", "124429.815000", "124429.818000", "124429.820000", "124429.836000", "124429.838000", "124429.841000", "124429.843000", "124429.846000", "124429.848000", "124429.851000", "124429.854000", "124429.856000", "124429.859000", "124429.861000", "124509.763000", "124509.766000", "124509.769000", "124509.772000", "124509.774000", "124509.777000", "124509.780000", "124509.782000", "124509.785000", "124509.787000", "124509.790000", "124509.792000", "124509.795000", "124509.797000", "124509.800000", "124509.802000", "124509.805000", "124509.820000", "124509.822000", "124509.825000", "124549.764000", "124549.767000", "124549.770000", "124549.773000", "124549.775000", "124549.778000", "124549.780000", "124549.783000", "124549.785000", "124549.788000", "124549.790000", "124549.793000", "124549.795000", "124549.798000", "124549.801000", "124549.803000", "124549.806000", "124549.808000", "124549.811000", "124549.813000", "124629.763000", "124629.767000", "124629.769000", "124629.772000", "124629.774000", "124629.777000", "124629.779000", "124629.782000", "124629.784000", "124629.787000", "124629.790000", "124629.792000", "124629.795000", "124629.797000", "124629.800000", "124629.802000", "124629.805000", "124629.807000", "124629.810000", "124629.812000", "124709.763000", "124709.766000", "124709.884000", "124709.887000", "124709.889000", "124709.892000", "124709.895000", "124709.897000", "124709.900000", "124709.902000", "124709.905000", "124709.907000", "124709.910000", "124709.913000", "124709.915000", "124709.918000", "124709.920000", "124709.923000", "124709.925000", "124709.928000", "124749.764000", "124749.768000", "124749.786000", "124749.789000", "124749.791000", "124749.794000", "124749.796000", "124749.799000", "124749.801000", "124749.813000", "124749.816000", "124749.818000", "124749.821000", "124749.824000", "124749.826000", "124749.829000", "124749.831000", "124749.834000", "124749.836000", "124749.839000", "124811.183000", "124811.185000", "124811.188000", "124811.191000", "124811.194000", "124811.196000", "124811.199000", "124811.201000", "124811.204000", "124811.206000", "124811.209000"],
      "InstanceCreationTime": ["124229.768000", "124229.772000", "124229.775000", "124229.777000", "124229.780000", "124229.782000", "124229.785000", "124229.796000", "124229.798000", "124229.801000", "124229.803000", "124229.806000", "124229.808000", "124229.811000", "124229.813000", "124229.816000", "124229.819000", "124229.821000", "124229.824000", "124229.826000", "124229.829000", "124229.831000", "124229.834000", "124229.837000", "124229.839000", "124229.842000", "124229.844000", "124229.847000", "124229.849000", "124309.763000", "124309.767000", "124309.769000", "124309.772000", "124309.775000", "124309.777000", "124309.780000", "124309.782000", "124309.785000", "124309.788000", "124309.790000", "124309.793000", "124309.795000", "124309.798000", "124309.800000", "124309.803000", "124309.805000", "124309.808000", "124309.811000", "124309.813000", "124349.763000", "124349.766000", "124349.769000", "124349.772000", "124349.774000", "124349.783000", "124349.786000", "124349.788000", "124349.791000", "124349.794000", "124349.796000", "124349.799000", "124349.801000", "124349.804000", "124349.806000", "124349.809000", "124349.811000", "124349.814000", "124349.817000", "124349.819000", "124429.765000", "124429.802000", "124429.805000", "124429.807000", "124429.810000", "124429.812000", "124429.815000", "124429.818000", "124429.820000", "124429.836000", "124429.838000", "124429.841000", "124429.843000", "124429.846000", "124429.848000", "124429.851000", "124429.854000", "124429.856000", "124429.859000", "124429.861000", "124509.763000", "124509.766000", "124509.769000", "124509.772000", "124509.774000", "124509.777000", "124509.780000", "124509.782000", "124509.785000", "124509.787000", "124509.790000", "124509.792000", "124509.795000", "124509.797000", "124509.800000", "124509.802000", "124509.805000", "124509.820000", "124509.822000", "124509.825000", "124549.764000", "124549.767000", "124549.770000", "124549.773000", "124549.775000", "124549.778000", "124549.780000", "124549.783000", "124549.785000", "124549.788000", "124549.790000", "124549.793000", "124549.795000", "124549.798000", "124549.801000", "124549.803000", "124549.806000", "124549.808000", "124549.811000", "124549.813000", "124629.763000", "124629.767000", "124629.769000", "124629.772000", "124629.774000", "124629.777000", "124629.779000", "124629.782000", "124629.784000", "124629.787000", "124629.790000", "124629.792000", "124629.795000", "124629.797000", "124629.800000", "124629.802000", "124629.805000", "124629.807000", "124629.810000", "124629.812000", "124709.763000", "124709.766000", "124709.884000", "124709.887000", "124709.889000", "124709.892000", "124709.895000", "124709.897000", "124709.900000", "124709.902000", "124709.905000", "124709.907000", "124709.910000", "124709.913000", "124709.915000", "124709.918000", "124709.920000", "124709.923000", "124709.925000", "124709.928000", "124749.764000", "124749.768000", "124749.786000", "124749.789000", "124749.791000", "124749.794000", "124749.796000", "124749.799000", "124749.801000", "124749.813000", "124749.816000", "124749.818000", "124749.821000", "124749.824000", "124749.826000", "124749.829000", "124749.831000", "124749.834000", "124749.836000", "124749.839000", "124811.183000", "124811.185000", "124811.188000", "124811.191000", "124811.194000", "124811.196000", "124811.199000", "124811.201000", "124811.204000", "124811.206000", "124811.209000"],
      "InstanceNumber": [1, 2, 3, 4, 5, 6, 7, 8, 9, 10, 11, 12, 13, 14, 15, 16, 17, 18, 19, 20, 21, 22, 23, 24, 25, 26, 27, 28, 29, 30, 31, 32, 33, 34, 35, 36, 37, 38, 39, 40, 41, 42, 43, 44, 45, 46, 47, 48, 49, 50, 51, 52, 53, 54, 55, 56, 57, 58, 59, 60, 61, 62, 63, 64, 65, 66, 67, 68, 69, 70, 71, 72, 73, 74, 75, 76, 77, 78, 79, 80, 81, 82, 83, 84, 85, 86, 87, 88, 89, 90, 91, 92, 93, 94, 95, 96, 97, 98, 99, 100, 101, 102, 103, 104, 105, 106, 107, 108, 109, 110, 111, 112, 113, 114, 115, 116, 117, 118, 119, 120, 121, 122, 123, 124, 125, 126, 127, 128, 129, 130, 131, 132, 133, 134, 135, 136, 137, 138, 139, 140, 141, 142, 143, 144, 145, 146, 147, 148, 149, 150, 151, 152, 153, 154, 155, 156, 157, 158, 159, 160, 161, 162, 163, 164, 165, 166, 167, 168, 169, 170, 171, 172, 173, 174, 175, 176, 177, 178, 179, 180, 181, 182, 183, 184, 185, 186, 187, 188, 189, 190, 191, 192, 193, 194, 195, 196, 197, 198, 199, 200],
      "LargestImagePixelValue": [2009, 2007, 2013, 2015, 2010, 2008, 2009, 2012, 2011, 2011, 2012, 2006, 2014, 2008, 2006, 2018, 2008, 2010, 2011, 2010, 2017, 2009, 2009, 2018, 2012, 2012, 2009, 2014, 2014, 2011, 2011, 2013, 2015, 2008, 2011, 2017, 2005, 2016, 2018, 2010, 2013, 2014, 2007, 2015, 2007, 2011, 2013, 2021, 2014, 2012, 2007, 2007, 2013, 2009, 2010, 2011, 2012, 2009, 2017, 2008, 2014, 2015, 2010, 2013, 2013, 2013, 2012, 2005, 2009, 2008, 2007, 2015, 2010, 2014, 2012, 2016, 2007, 2011, 2017, 2010, 2015, 2014, 2011, 2015, 2013, 2014, 2019, 2022, 2014, 2010, 2016, 2019, 2017, 2021, 2011, 2018, 2014, 2008, 2015, 2013, 2014, 2009, 2009, 2011, 2014, 2012, 2014, 2013, 2015, 2013, 2008, 2014, 2012, 2017, 2015, 2016, 2012, 2014, 2012, 2008, 2015, 2012, 2019, 2008, 2017, 2014, 2009, 2011, 2008, 2014, 2015, 2014, 2011, 2010, 2015, 2022, 2016, 2012, 2017, 2015, 2015, 2013, 2011, 2016, 2010, 2017, 2018, 2013, 2013, 2013, 2015, 2011, 2015, 2016, 2013, 2015, 2013, 2011, 2005, 2013, 2015, 2008, 2014, 2019, 2014, 2015, 2015, 2013, 2018, 2014, 2011, 2014, 2015, 2019, 2016, 2016, 2018, 2015, 2015, 2019, 2016, 2018, 2006, 2016, 2016, 2013, 2010, 2010, 2016, 2007, 2017, 2013, 2022, 2007, 2016, 2016, 2015, 2010, 2016, 2012],
      "WindowWidth": [2038.0, 2038.0, 2038.0, 2038.0, 2038.0, 2039.0, 2038.0, 2038.0, 2038.0, 2038.0, 2038.0, 2038.0, 2038.0, 2038.0, 2038.0, 2038.0, 2038.0, 2038.0, 2038.0, 2038.0, 2038.0, 2038.0, 2039.0, 2038.0, 2039.0, 2039.0, 2038.0, 2038.0, 2038.0, 2039.0, 2039.0, 2038.0, 2038.0, 2039.0, 2038.0, 2039.0, 2039.0, 2038.0, 2039.0, 2039.0, 2039.0, 2039.0, 2039.0, 2039.0, 2039.0, 2039.0, 2039.0, 2040.0, 2039.0, 2038.0, 2039.0, 2039.0, 2039.0, 2039.0, 2039.0, 2039.0, 2039.0, 2039.0, 2039.0, 2039.0, 2039.0, 2039.0, 2039.0, 2039.0, 2039.0, 2039.0, 2039.0, 2039.0, 2039.0, 2039.0, 2039.0, 2039.0, 2039.0, 2039.0, 2039.0, 2039.0, 2039.0, 2040.0, 2039.0, 2039.0, 2039.0, 2039.0, 2039.0, 2039.0, 2038.0, 2039.0, 2039.0, 2039.0, 2039.0, 2039.0, 2039.0, 2039.0, 2039.0, 2039.0, 2039.0, 2039.0, 2039.0, 2039.0, 2039.0, 2039.0, 2039.0, 2039.0, 2039.0, 2039.0, 2038.0, 2038.0, 2039.0, 2039.0, 2038.0, 2039.0, 2039.0, 2039.0, 2038.0, 2038.0, 2039.0, 2038.0, 2038.0, 2038.0, 2039.0, 2038.0, 2039.0, 2038.0, 2038.0, 2038.0, 2039.0, 2039.0, 2039.0, 2039.0, 2039.0, 2039.0, 2039.0, 2039.0, 2039.0, 2039.0, 2039.0, 2039.0, 2039.0, 2039.0, 2039.0, 2039.0, 2039.0, 2039.0, 2039.0, 2039.0, 2039.0, 2039.0, 2039.0, 2039.0, 2038.0, 2040.0, 2039.0, 2039.0, 2039.0, 2039.0, 2039.0, 2039.0, 2039.0, 2039.0, 2039.0, 2039.0, 2039.0, 2039.0, 2039.0, 2039.0, 2039.0, 2039.0, 2039.0, 2039.0, 2039.0, 2039.0, 2039.0, 2039.0, 2039.0, 2039.0, 2039.0, 2039.0, 2039.0, 2039.0, 2039.0, 2039.0, 2039.0, 2039.0, 2039.0, 2039.0, 2039.0, 2038.0, 2038.0, 2039.0, 2038.0, 2038.0, 2039.0, 2039.0, 2038.0, 2038.0, 2039.0, 2038.0, 2038.0, 2038.0, 2038.0, 2039.0]
    },
    "slices": {}
  }
}