{
  "AcquisitionMatrixPE": 122,
  "AcquisitionNumber": 1,
  "AcquisitionTime": "10:20:58.480000",
  "BandwidthPerPixelPhaseEncode": 27.785,
  "BaseResolution": 122,
  "BodyPartExamined": "BRAIN",
  "CoilCombinationMethod": "Adaptive Combine",
  "ConsistencyInfo": "N4_VE11C_LATEST_20160120",
  "ConversionSoftware": "dcm2niix",
  "ConversionSoftwareVersion": "v1.0.20220720",
  "DerivedVendorReportedEchoSpacing": 0.000590011,
  "DeviceSerialNumber": "66112",
  "DiffusionScheme": "Monopolar",
  "DwellTime": 2e-06,
  "EchoTime": 0.068,
  "EchoTrainLength": 61,
  "EffectiveEchoSpacing": 0.000295005,
  "FlipAngle": 90,
  "HeudiconvVersion": "0.13.1",
  "ImageOrientationPatientDICOM": [0.986557, 0.163099, 0.0101844, -0.158198, 0.937567, 0.309745],
  "ImageOrientationText": "Tra>Cor(17.9)>Sag(-2.3)",
  "ImageType": [
    "ORIGINAL",
    "PRIMARY",
    "DIFFUSION",
    "NONE",
    "ND",
    "NORM"
],
  "ImagingFrequency": 123.252,
  "InPlanePhaseEncodingDirectionDICOM": "COL",
  "InstitutionAddress": "Maynard 3,Hanover,NH,US,03755",
  "InstitutionName": "Dartmouth College - PBS",
  "InstitutionalDepartmentName": "Department",
  "MRAcquisitionType": "2D",
  "MagneticFieldStrength": 3,
  "Manufacturer": "Siemens",
  "ManufacturersModelName": "Prisma",
  "Modality": "MR",
  "MultibandAccelerationFactor": 4,
  "NonlinearGradientCorrection": false,
  "ParallelReductionFactorInPlane": 2,
  "PartialFourier": 1,
  "PatientPosition": "HFS",
  "PercentPhaseFOV": 100,
  "PercentSampling": 100,
  "PhaseEncodingDirection": "j-",
  "PhaseEncodingSteps": 122,
  "PhaseResolution": 1,
  "PixelBandwidth": 2050,
  "ProcedureStepDescription": "dbic^QA",
  "ProtocolName": "dwi_acq-DTI-30-p2-s4",
  "PulseSequenceDetails": "%SiemensSeq%\\ep2d_diff",
  "ReceiveCoilActiveElements": "HEA;HEP",
  "ReceiveCoilName": "Head_32",
  "ReconMatrixPE": 122,
  "RefLinesPE": 38,
  "RepetitionTime": 3.6,
  "SAR": 0.160566,
  "ScanOptions": "FS",
  "ScanningSequence": "EP",
  "SequenceName": "*ep_b0",
  "SequenceVariant": "SK\\SP",
  "SeriesDescription": "dwi_acq-DTI-30-p2-s4",
  "SeriesNumber": 13,
  "ShimSetting": [4149, -7707, -7517, 267, -45, -66, 0, 77],
  "SliceThickness": 2,
  "SliceTiming": [2.57812, 0, 1.78906, 0.19531, 1.98438, 0.39062, 2.1875, 0.59375, 2.38281, 0.99219, 2.78125, 1.1875, 2.97656, 1.39062, 3.17969, 1.58594, 3.375, 0.78906, 2.57812, 0, 1.78906, 0.19531, 1.98438, 0.39062, 2.1875, 0.59375, 2.38281, 0.99219, 2.78125, 1.1875, 2.97656, 1.39062, 3.17969, 1.58594, 3.375, 0.78906, 2.57812, 0, 1.78906, 0.19531, 1.98438, 0.39062, 2.1875, 0.59375, 2.38281, 0.99219, 2.78125, 1.1875, 2.97656, 1.39062, 3.17969, 1.58594, 3.375, 0.78906, 2.57812, 0, 1.78906, 0.19531, 1.98438, 0.39062, 2.1875, 0.59375, 2.38281, 0.99219, 2.78125, 1.1875, 2.97656, 1.39062, 3.17969, 1.58594, 3.375, 0.78906],
  "SoftwareVersions": "syngo MR E11",
  "SpacingBetweenSlices": 2,
  "SpoilingState": true,
  "StationName": "AWP66112",
  "TotalReadoutTime": 0.0356956,
  "TxRefAmp": 222.121,
  "dcmmeta_affine": [
    [-1.9407681226730347, -0.31120824813842773, -0.08194094896316528, 141.84750366210938],
    [-0.320850670337677, 1.8443940877914429, 0.6143836975097656, -103.27547454833984],
    [0.0200349073857069, -0.6093336343765259, 1.9015350341796875, -28.375560760498047],
    [0.0, 0.0, 0.0, 1.0]
],
  "dcmmeta_reorient_transform": [
    [0.0, -1.0, 0.0, 121.0],
    [1.0, 0.0, 0.0, 0.0],
    [0.0, 0.0, -1.0, 71.0],
    [0.0, 0.0, 0.0, 1.0]
],
  "dcmmeta_shape": [122, 122, 72, 31],
  "dcmmeta_slice_dim": 2,
  "dcmmeta_version": 0.6,
  "global": {
    "const": {
      "AccessionNumber": "qa",
      "AcquisitionMatrix": [122, 0, 0, 122],
      "AngioFlag": "N",
      "BitsAllocated": 16,
      "BitsStored": 12,
      "BodyPartExamined": "BRAIN",
      "Columns": 122,
      "EchoNumbers": 1,
      "EchoTime": 68.0,
      "EchoTrainLength": 61,
      "FlipAngle": 90.0,
      "HighBit": 11,
      "ImageOrientationPatient": [0.98655712635616, 0.16309909318741, 0.01018441148582, -0.1581975195369, 0.9375669785289, 0.30974458120291],
      "ImageType": [
        "ORIGINAL",
        "PRIMARY",
        "DIFFUSION",
        "NONE",
        "ND",
        "NORM"
],
      "ImagedNucleus": "1H",
      "ImagingFrequency": 123.252362,
      "InPlanePhaseEncodingDirection": "COL",
      "MRAcquisitionType": "2D",
      "MagneticFieldStrength": 3.0,
      "Manufacturer": "SIEMENS",
      "ManufacturerModelName": "Prisma",
      "Modality": "MR",
      "NumberOfAverages": 1.0,
      "NumberOfPhaseEncodingSteps": 122,
      "PercentPhaseFieldOfView": 100.0,
      "PercentSampling": 100.0,
      "PerformedProcedureStepStartTime": "094714.328000",
      "PhotometricInterpretation": "MONOCHROME2",
      "PixelBandwidth": 2050.0,
      "PixelRepresentation": 0,
      "PixelSpacing": [1.9672131538391, 1.9672131538391],
      "ProtocolName": "dwi_acq-DTI-30-p2-s4",
      "RepetitionTime": 3600.0,
      "Rows": 122,
      "SAR": 0.16056568187124,
      "SamplesPerPixel": 1,
      "ScanOptions": "FS",
      "ScanningSequence": "EP",
      "SequenceVariant": [
        "SK",
        "SP"
],
      "SeriesDescription": "dwi_acq-DTI-30-p2-s4",
      "SeriesNumber": 13,
      "SeriesTime": "102106.980000",
      "SliceThickness": 2.0,
      "SmallestImagePixelValue": 0,
      "SoftwareVersions": "syngo MR E11",
      "SpacingBetweenSlices": 2.0,
      "SpecificCharacterSet": "ISO_IR 100",
      "StudyID": "50",
      "StudyTime": "094714.282000",
      "TransmitCoilName": "Body",
      "VariableFlipAngleFlag": "N",
      "WindowCenterWidthExplanation": "Algo1",
      "dBdt": 0.0},
    "slices": {
      "AcquisitionTime": ["102058.480000", "102055.895000", "102057.685000", "102056.095000", "102057.882500", "102056.292500", "102058.082500", "102056.492500", "102058.282500", "102056.890000", "102058.680000", "102057.087500", "102058.877500", "102057.287500", "102059.077500", "102057.485000", "102059.275000", "102056.690000", "102058.480000", "102055.895000", "102057.685000", "102056.095000", "102057.882500", "102056.292500", "102058.082500", "102056.492500", "102058.282500", "102056.890000", "102058.680000", "102057.087500", "102058.877500", "102057.287500", "102059.077500", "102057.485000", "102059.275000", "102056.690000", "102058.480000", "102055.895000", "102057.685000", "102056.095000", "102057.882500", "102056.292500", "102058.082500", "102056.492500", "102058.282500", "102056.890000", "102058.680000", "102057.087500", "102058.877500", "102057.287500", "102059.077500", "102057.485000", "102059.275000", "102056.690000", "102058.480000", "102055.895000", "102057.685000", "102056.095000", "102057.882500", "102056.292500", "102058.082500", "102056.492500", "102058.282500", "102056.890000", "102058.680000", "102057.087500", "102058.877500", "102057.287500", "102059.077500", "102057.485000", "102059.275000", "102056.690000", "102102.080000", "102059.495000", "102101.285000", "102059.695000", "102101.482500", "102059.892500", "102101.682500", "102100.092500", "102101.882500", "102100.490000", "102102.280000", "102100.687500", "102102.477500", "102100.887500", "102102.677500", "102101.085000", "102102.875000", "102100.290000", "102102.080000", "102059.495000", "102101.285000", "102059.695000", "102101.482500", "102059.892500", "102101.682500", "102100.092500", "102101.882500", "102100.490000", "102102.280000", "102100.687500", "102102.477500", "102100.887500", "102102.677500", "102101.085000", "102102.875000", "102100.290000", "102102.080000", "102059.495000", "102101.285000", "102059.695000", "102101.482500", "102059.892500", "102101.682500", "102100.092500", "102101.882500", "102100.490000", "102102.280000", "102100.687500", "102102.477500", "102100.887500", "102102.677500", "102101.085000", "102102.875000", "102100.290000", "102102.080000", "102059.495000", "102101.285000", "102059.695000", "102101.482500", "102059.892500", "102101.682500", "102100.092500", "102101.882500", "102100.490000", "102102.280000", "102100.687500", "102102.477500", "102100.887500", "102102.677500", "102101.085000", "102102.875000", "102100.290000", "102105.680000", "102103.095000", "102104.885000", "102103.295000", "102105.082500", "102103.492500", "102105.282500", "102103.692500", "102105.482500", "102104.090000", "102105.880000", "102104.287500", "102106.077500", "102104.487500", "102106.277500", "102104.685000", "102106.475000", "102103.890000", "102105.680000", "102103.095000", "102104.885000", "102103.295000", "102105.082500", "102103.492500", "102105.282500", "102103.692500", "102105.482500", "102104.090000", "102105.880000", "102104.287500", "102106.077500", "102104.487500", "102106.277500", "102104.685000", "102106.475000", "102103.890000", "102105.680000", "102103.095000", "102104.885000", "102103.295000", "102105.082500", "102103.492500", "102105.282500", "102103.692500", "102105.482500", "102104.090000", "102105.880000", "102104.287500", "102106.077500", "102104.487500", "102106.277500", "102104.685000", "102106.475000", "102103.890000", "102105.680000", "102103.095000", "102104.885000", "102103.295000", "102105.082500", "102103.492500", "102105.282500", "102103.692500", "102105.482500", "102104.090000", "102105.880000", "102104.287500", "102106.077500", "102104.487500", "102106.277500", "102104.685000", "102106.475000", "102103.890000", "102109.280000", "102106.695000", "102108.485000", "102106.895000", "102108.682500", "102107.092500", "102108.882500", "102107.292500", "102109.082500", "102107.690000", "102109.480000", "102107.887500", "102109.677500", "102108.087500", "102109.877500", "102108.285000", "102110.075000", "102107.490000", "102109.280000", "102106.695000", "102108.485000", "102106.895000", "102108.682500", "102107.092500", "102108.882500", "102107.292500", "102109.082500", "102107.690000", "102109.480000", "102107.887500", "102109.677500", "102108.087500", "102109.877500", "102108.285000", "102110.075000", "102107.490000", "102109.280000", "102106.695000", "102108.485000", "102106.895000", "102108.682500", "102107.092500", "102108.882500", "102107.292500", "102109.082500", "102107.690000", "102109.480000", "102107.887500", "102109.677500", "102108.087500", "102109.877500", "102108.285000", "102110.075000", "102107.490000", "102109.280000", "102106.695000", "102108.485000", "102106.895000", "102108.682500", "102107.092500", "102108.882500", "102107.292500", "102109.082500", "102107.690000", "102109.480000", "102107.887500", "102109.677500", "102108.087500", "102109.877500", "102108.285000", "102110.075000", "102107.490000", "102112.880000", "102110.295000", "102112.085000", "102110.495000", "102112.282500", "102110.692500", "102112.482500", "102110.892500", "102112.682500", "102111.290000", "102113.080000", "102111.487500", "102113.277500", "102111.687500", "102113.477500", "102111.885000", "102113.675000", "102111.090000", "102112.880000", "102110.295000", "102112.085000", "102110.495000", "102112.282500", "102110.692500", "102112.482500", "102110.892500", "102112.682500", "102111.290000", "102113.080000", "102111.487500", "102113.277500", "102111.687500", "102113.477500", "102111.885000", "102113.675000", "102111.090000", "102112.880000", "102110.295000", "102112.085000", "102110.495000", "102112.282500", "102110.692500", "102112.482500", "102110.892500", "102112.682500", "102111.290000", "102113.080000", "102111.487500", "102113.277500", "102111.687500", "102113.477500", "102111.885000", "102113.675000", "102111.090000", "102112.880000", "102110.295000", "102112.085000", "102110.495000", "102112.282500", "102110.692500", "102112.482500", "102110.892500", "102112.682500", "102111.290000", "102113.080000", "102111.487500", "102113.277500", "102111.687500", "102113.477500", "102111.885000", "102113.675000", "102111.090000", "102116.480000", "102113.895000", "102115.685000", "102114.095000", "102115.882500", "102114.292500", "102116.082500", "102114.492500", "102116.282500", "102114.890000", "102116.680000", "102115.087500", "102116.877500", "102115.287500", "102117.077500", "102115.485000", "102117.275000", "102114.690000", "102116.480000", "102113.895000", "102115.685000", "102114.095000", "102115.882500", "102114.292500", "102116.082500", "102114.492500", "102116.282500", "102114.890000", "102116.680000", "102115.087500", "102116.877500", "102115.287500", "102117.077500", "102115.485000", "102117.275000", "102114.690000", "102116.480000", "102113.895000", "102115.685000", "102114.095000", "102115.882500", "102114.292500", "102116.082500", "102114.492500", "102116.282500", "102114.890000", "102116.680000", "102115.087500", "102116.877500", "102115.287500", "102117.077500", "102115.485000", "102117.275000", "102114.690000", "102116.480000", "102113.895000", "102115.685000", "102114.095000", "102115.882500", "102114.292500", "102116.082500", "102114.492500", "102116.282500", "102114.890000", "102116.680000", "102115.087500", "102116.877500", "102115.287500", "102117.077500", "102115.485000", "102117.275000", "102114.690000", "102120.080000", "102117.495000", "102119.285000", "102117.695000", "102119.482500", "102117.892500", "102119.682500", "102118.092500", "102119.882500", "102118.490000", "102120.280000", "102118.687500", "102120.477500", "102118.887500", "102120.677500", "102119.085000", "102120.875000", "102118.290000", "102120.080000", "102117.495000", "102119.285000", "102117.695000", "102119.482500", "102117.892500", "102119.682500", "102118.092500", "102119.882500", "102118.490000", "102120.280000", "102118.687500", "102120.477500", "102118.887500", "102120.677500", "102119.085000", "102120.875000", "102118.290000", "102120.080000", "102117.495000", "102119.285000", "102117.695000", "102119.482500", "102117.892500", "102119.682500", "102118.092500", "102119.882500", "102118.490000", "102120.280000", "102118.687500", "102120.477500", "102118.887500", "102120.677500", "102119.085000", "102120.875000", "102118.290000", "102120.080000", "102117.495000", "102119.285000", "102117.695000", "102119.482500", "102117.892500", "102119.682500", "102118.092500", "102119.882500", "102118.490000", "102120.280000", "102118.687500", "102120.477500", "102118.887500", "102120.677500", "102119.085000", "102120.875000", "102118.290000", "102123.680000", "102121.095000", "102122.885000", "102121.295000", "102123.082500", "102121.492500", "102123.282500", "102121.692500", "102123.482500", "102122.090000", "102123.880000", "102122.287500", "102124.077500", "102122.487500", "102124.277500", "102122.685000", "102124.475000", "102121.890000", "102123.680000", "102121.095000", "102122.885000", "102121.295000", "102123.082500", "102121.492500", "102123.282500", "102121.692500", "102123.482500", "102122.090000", "102123.880000", "102122.287500", "102124.077500", "102122.487500", "102124.277500", "102122.685000", "102124.475000", "102121.890000", "102123.680000", "102121.095000", "102122.885000", "102121.295000", "102123.082500", "102121.492500", "102123.282500", "102121.692500", "102123.482500", "102122.090000", "102123.880000", "102122.287500", "102124.077500", "102122.487500", "102124.277500", "102122.685000", "102124.475000", "102121.890000", "102123.680000", "102121.095000", "102122.885000", "102121.295000", "102123.082500", "102121.492500", "102123.282500", "102121.692500", "102123.482500", "102122.090000", "102123.880000", "102122.287500", "102124.077500", "102122.487500", "102124.277500", "102122.685000", "102124.475000", "102121.890000", "102127.280000", "102124.695000", "102126.485000", "102124.895000", "102126.682500", "102125.092500", "102126.882500", "102125.292500", "102127.082500", "102125.690000", "102127.480000", "102125.887500", "102127.677500", "102126.087500", "102127.877500", "102126.285000", "102128.075000", "102125.490000", "102127.280000", "102124.695000", "102126.485000", "102124.895000", "102126.682500", "102125.092500", "102126.882500", "102125.292500", "102127.082500", "102125.690000", "102127.480000", "102125.887500", "102127.677500", "102126.087500", "102127.877500", "102126.285000", "102128.075000", "102125.490000", "102127.280000", "102124.695000", "102126.485000", "102124.895000", "102126.682500", "102125.092500", "102126.882500", "102125.292500", "102127.082500", "102125.690000", "102127.480000", "102125.887500", "102127.677500", "102126.087500", "102127.877500", "102126.285000", "102128.075000", "102125.490000", "102127.280000", "102124.695000", "102126.485000", "102124.895000", "102126.682500", "102125.092500", "102126.882500", "102125.292500", "102127.082500", "102125.690000", "102127.480000", "102125.887500", "102127.677500", "102126.087500", "102127.877500", "102126.285000", "102128.075000", "102125.490000", "102130.880000", "102128.295000", "102130.085000", "102128.495000", "102130.282500", "102128.692500", "102130.482500", "102128.892500", "102130.682500", "102129.290000", "102131.080000", "102129.487500", "102131.277500", "102129.687500", "102131.477500", "102129.885000", "102131.675000", "102129.090000", "102130.880000", "102128.295000", "102130.085000", "102128.495000", "102130.282500", "102128.692500", "102130.482500", "102128.892500", "102130.682500", "102129.290000", "102131.080000", "102129.487500", "102131.277500", "102129.687500", "102131.477500", "102129.885000", "102131.675000", "102129.090000", "102130.880000", "102128.295000", "102130.085000", "102128.495000", "102130.282500", "102128.692500", "102130.482500", "102128.892500", "102130.682500", "102129.290000", "102131.080000", "102129.487500", "102131.277500", "102129.687500", "102131.477500", "102129.885000", "102131.675000", "102129.090000", "102130.880000", "102128.295000", "102130.085000", "102128.495000", "102130.282500", "102128.692500", "102130.482500", "102128.892500", "102130.682500", "102129.290000", "102131.080000", "102129.487500", "102131.277500", "102129.687500", "102131.477500", "102129.885000", "102131.675000", "102129.090000", "102134.480000", "102131.895000", "102133.685000", "102132.095000", "102133.882500", "102132.292500", "102134.082500", "102132.492500", "102134.282500", "102132.890000", "102134.680000", "102133.087500", "102134.877500", "102133.287500", "102135.077500", "102133.485000", "102135.275000", "102132.690000", "102134.480000", "102131.895000", "102133.685000", "102132.095000", "102133.882500", "102132.292500", "102134.082500", "102132.492500", "102134.282500", "102132.890000", "102134.680000", "102133.087500", "102134.877500", "102133.287500", "102135.077500", "102133.485000", "102135.275000", "102132.690000", "102134.480000", "102131.895000", "102133.685000", "102132.095000", "102133.882500", "102132.292500", "102134.082500", "102132.492500", "102134.282500", "102132.890000", "102134.680000", "102133.087500", "102134.877500", "102133.287500", "102135.077500", "102133.485000", "102135.275000", "102132.690000", "102134.480000", "102131.895000", "102133.685000", "102132.095000", "102133.882500", "102132.292500", "102134.082500", "102132.492500", "102134.282500", "102132.890000", "102134.680000", "102133.087500", "102134.877500", "102133.287500", "102135.077500", "102133.485000", "102135.275000", "102132.690000", "102138.080000", "102135.495000", "102137.285000", "102135.695000", "102137.482500", "102135.892500", "102137.682500", "102136.092500", "102137.882500", "102136.490000", "102138.280000", "102136.687500", "102138.477500", "102136.887500", "102138.677500", "102137.085000", "102138.875000", "102136.290000", "102138.080000", "102135.495000", "102137.285000", "102135.695000", "102137.482500", "102135.892500", "102137.682500", "102136.092500", "102137.882500", "102136.490000", "102138.280000", "102136.687500", "102138.477500", "102136.887500", "102138.677500", "102137.085000", "102138.875000", "102136.290000", "102138.080000", "102135.495000", "102137.285000", "102135.695000", "102137.482500", "102135.892500", "102137.682500", "102136.092500", "102137.882500", "102136.490000", "102138.280000", "102136.687500", "102138.477500", "102136.887500", "102138.677500", "102137.085000", "102138.875000", "102136.290000", "102138.080000", "102135.495000", "102137.285000", "102135.695000", "102137.482500", "102135.892500", "102137.682500", "102136.092500", "102137.882500", "102136.490000", "102138.280000", "102136.687500", "102138.477500", "102136.887500", "102138.677500", "102137.085000", "102138.875000", "102136.290000", "102141.680000", "102139.095000", "102140.885000", "102139.295000", "102141.082500", "102139.492500", "102141.282500", "102139.692500", "102141.482500", "102140.090000", "102141.880000", "102140.287500", "102142.077500", "102140.487500", "102142.277500", "102140.685000", "102142.475000", "102139.890000", "102141.680000", "102139.095000", "102140.885000", "102139.295000", "102141.082500", "102139.492500", "102141.282500", "102139.692500", "102141.482500", "102140.090000", "102141.880000", "102140.287500", "102142.077500", "102140.487500", "102142.277500", "102140.685000", "102142.475000", "102139.890000", "102141.680000", "102139.095000", "102140.885000", "102139.295000", "102141.082500", "102139.492500", "102141.282500", "102139.692500", "102141.482500", "102140.090000", "102141.880000", "102140.287500", "102142.077500", "102140.487500", "102142.277500", "102140.685000", "102142.475000", "102139.890000", "102141.680000", "102139.095000", "102140.885000", "102139.295000", "102141.082500", "102139.492500", "102141.282500", "102139.692500", "102141.482500", "102140.090000", "102141.880000", "102140.287500", "102142.077500", "102140.487500", "102142.277500", "102140.685000", "102142.475000", "102139.890000", "102145.280000", "102142.695000", "102144.485000", "102142.895000", "102144.682500", "102143.092500", "102144.882500", "102143.292500", "102145.082500", "102143.690000", "102145.480000", "102143.887500", "102145.677500", "102144.087500", "102145.877500", "102144.285000", "102146.075000", "102143.490000", "102145.280000", "102142.695000", "102144.485000", "102142.895000", "102144.682500", "102143.092500", "102144.882500", "102143.292500", "102145.082500", "102143.690000", "102145.480000", "102143.887500", "102145.677500", "102144.087500", "102145.877500", "102144.285000", "102146.075000", "102143.490000", "102145.280000", "102142.695000", "102144.485000", "102142.895000", "102144.682500", "102143.092500", "102144.882500", "102143.292500", "102145.082500", "102143.690000", "102145.480000", "102143.887500", "102145.677500", "102144.087500", "102145.877500", "102144.285000", "102146.075000", "102143.490000", "102145.280000", "102142.695000", "102144.485000", "102142.895000", "102144.682500", "102143.092500", "102144.882500", "102143.292500", "102145.082500", "102143.690000", "102145.480000", "102143.887500", "102145.677500", "102144.087500", "102145.877500", "102144.285000", "102146.075000", "102143.490000", "102148.880000", "102146.295000", "102148.085000", "102146.495000", "102148.282500", "102146.692500", "102148.482500", "102146.892500", "102148.682500", "102147.290000", "102149.080000", "102147.487500", "102149.277500", "102147.687500", "102149.477500", "102147.885000", "102149.675000", "102147.090000", "102148.880000", "102146.295000", "102148.085000", "102146.495000", "102148.282500", "102146.692500", "102148.482500", "102146.892500", "102148.682500", "102147.290000", "102149.080000", "102147.487500", "102149.277500", "102147.687500", "102149.477500", "102147.885000", "102149.675000", "102147.090000", "102148.880000", "102146.295000", "102148.085000", "102146.495000", "102148.282500", "102146.692500", "102148.482500", "102146.892500", "102148.682500", "102147.290000", "102149.080000", "102147.487500", "102149.277500", "102147.687500", "102149.477500", "102147.885000", "102149.675000", "102147.090000", "102148.880000", "102146.295000", "102148.085000", "102146.495000", "102148.282500", "102146.692500", "102148.482500", "102146.892500", "102148.682500", "102147.290000", "102149.080000", "102147.487500", "102149.277500", "102147.687500", "102149.477500", "102147.885000", "102149.675000", "102147.090000", "102152.480000", "102149.895000", "102151.685000", "102150.095000", "102151.882500", "102150.292500", "102152.082500", "102150.492500", "102152.282500", "102150.890000", "102152.680000", "102151.087500", "102152.877500", "102151.287500", "102153.077500", "102151.485000", "102153.275000", "102150.690000", "102152.480000", "102149.895000", "102151.685000", "102150.095000", "102151.882500", "102150.292500", "102152.082500", "102150.492500", "102152.282500", "102150.890000", "102152.680000", "102151.087500", "102152.877500", "102151.287500", "102153.077500", "102151.485000", "102153.275000", "102150.690000", "102152.480000", "102149.895000", "102151.685000", "102150.095000", "102151.882500", "102150.292500", "102152.082500", "102150.492500", "102152.282500", "102150.890000", "102152.680000", "102151.087500", "102152.877500", "102151.287500", "102153.077500", "102151.485000", "102153.275000", "102150.690000", "102152.480000", "102149.895000", "102151.685000", "102150.095000", "102151.882500", "102150.292500", "102152.082500", "102150.492500", "102152.282500", "102150.890000", "102152.680000", "102151.087500", "102152.877500", "102151.287500", "102153.077500", "102151.485000", "102153.275000", "102150.690000", "102156.080000", "102153.495000", "102155.285000", "102153.695000", "102155.482500", "102153.892500", "102155.682500", "102154.092500", "102155.882500", "102154.490000", "102156.280000", "102154.687500", "102156.477500", "102154.887500", "102156.677500", "102155.085000", "102156.875000", "102154.290000", "102156.080000", "102153.495000", "102155.285000", "102153.695000", "102155.482500", "102153.892500", "102155.682500", "102154.092500", "102155.882500", "102154.490000", "102156.280000", "102154.687500", "102156.477500", "102154.887500", "102156.677500", "102155.085000", "102156.875000", "102154.290000", "102156.080000", "102153.495000", "102155.285000", "102153.695000", "102155.482500", "102153.892500", "102155.682500", "102154.092500", "102155.882500", "102154.490000", "102156.280000", "102154.687500", "102156.477500", "102154.887500", "102156.677500", "102155.085000", "102156.875000", "102154.290000", "102156.080000", "102153.495000", "102155.285000", "102153.695000", "102155.482500", "102153.892500", "102155.682500", "102154.092500", "102155.882500", "102154.490000", "102156.280000", "102154.687500", "102156.477500", "102154.887500", "102156.677500", "102155.085000", "102156.875000", "102154.290000", "102159.680000", "102157.095000", "102158.885000", "102157.295000", "102159.082500", "102157.492500", "102159.282500", "102157.692500", "102159.482500", "102158.090000", "102159.880000", "102158.287500", "102200.077500", "102158.487500", "102200.277500", "102158.685000", "102200.475000", "102157.890000", "102159.680000", "102157.095000", "102158.885000", "102157.295000", "102159.082500", "102157.492500", "102159.282500", "102157.692500", "102159.482500", "102158.090000", "102159.880000", "102158.287500", "102200.077500", "102158.487500", "102200.277500", "102158.685000", "102200.475000", "102157.890000", "102159.680000", "102157.095000", "102158.885000", "102157.295000", "102159.082500", "102157.492500", "102159.282500", "102157.692500", "102159.482500", "102158.090000", "102159.880000", "102158.287500", "102200.077500", "102158.487500", "102200.277500", "102158.685000", "102200.475000", "102157.890000", "102159.680000", "102157.095000", "102158.885000", "102157.295000", "102159.082500", "102157.492500", "102159.282500", "102157.692500", "102159.482500", "102158.090000", "102159.880000", "102158.287500", "102200.077500", "102158.487500", "102200.277500", "102158.685000", "102200.475000", "102157.890000", "102203.280000", "102200.695000", "102202.485000", "102200.895000", "102202.682500", "102201.092500", "102202.882500", "102201.292500", "102203.082500", "102201.690000", "102203.480000", "102201.887500", "102203.677500", "102202.087500", "102203.877500", "102202.285000", "102204.075000", "102201.490000", "102203.280000", "102200.695000", "102202.485000", "102200.895000", "102202.682500", "102201.092500", "102202.882500", "102201.292500", "102203.082500", "102201.690000", "102203.480000", "102201.887500", "102203.677500", "102202.087500", "102203.877500", "102202.285000", "102204.075000", "102201.490000", "102203.280000", "102200.695000", "102202.485000", "102200.895000", "102202.682500", "102201.092500", "102202.882500", "102201.292500", "102203.082500", "102201.690000", "102203.480000", "102201.887500", "102203.677500", "102202.087500", "102203.877500", "102202.285000", "102204.075000", "102201.490000", "102203.280000", "102200.695000", "102202.485000", "102200.895000", "102202.682500", "102201.092500", "102202.882500", "102201.292500", "102203.082500", "102201.690000", "102203.480000", "102201.887500", "102203.677500", "102202.087500", "102203.877500", "102202.285000", "102204.075000", "102201.490000", "102206.880000", "102204.295000", "102206.085000", "102204.495000", "102206.282500", "102204.692500", "102206.482500", "102204.892500", "102206.682500", "102205.290000", "102207.080000", "102205.487500", "102207.277500", "102205.687500", "102207.477500", "102205.885000", "102207.675000", "102205.090000", "102206.880000", "102204.295000", "102206.085000", "102204.495000", "102206.282500", "102204.692500", "102206.482500", "102204.892500", "102206.682500", "102205.290000", "102207.080000", "102205.487500", "102207.277500", "102205.687500", "102207.477500", "102205.885000", "102207.675000", "102205.090000", "102206.880000", "102204.295000", "102206.085000", "102204.495000", "102206.282500", "102204.692500", "102206.482500", "102204.892500", "102206.682500", "102205.290000", "102207.080000", "102205.487500", "102207.277500", "102205.687500", "102207.477500", "102205.885000", "102207.675000", "102205.090000", "102206.880000", "102204.295000", "102206.085000", "102204.495000", "102206.282500", "102204.692500", "102206.482500", "102204.892500", "102206.682500", "102205.290000", "102207.080000", "102205.487500",