{
  "AcquisitionMatrixPE": 122,
  "AcquisitionNumber": 1,
  "AcquisitionTime": "10:16:39.057500",
  "BandwidthPerPixelPhaseEncode": 28.76,
  "BaseResolution": 122,
  "BodyPartExamined": "BRAIN",
  "CoilCombinationMethod": "Adaptive Combine",
  "ConsistencyInfo": "N4_VE11C_LATEST_20160120",
  "ConversionSoftware": "dcm2niix",
  "ConversionSoftwareVersion": "v1.0.20220720",
  "DerivedVendorReportedEchoSpacing": 0.000570008,
  "DeviceSerialNumber": "66112",
  "DiffusionScheme": "Monopolar",
  "DwellTime": 2e-06,
  "EchoTime": 0.075,
  "EchoTrainLength": 61,
  "EffectiveEchoSpacing": 0.000285004,
  "FlipAngle": 90,
  "HeudiconvVersion": "0.13.1",
  "ImageOrientationPatientDICOM": [0.986557, 0.163099, 0.0101844, -0.158198, 0.937567, 0.309745],
  "ImageOrientationText": "Tra>Cor(17.9)>Sag(-2.3)",
  "ImageType": [
    "ORIGINAL",
    "PRIMARY",
    "DIFFUSION",
    "NONE",
    "ND",
    "NORM"
],
  "ImagingFrequency": 123.252,
  "InPlanePhaseEncodingDirectionDICOM": "COL",
  "InstitutionAddress": "Maynard 3,Hanover,NH,US,03755",
  "InstitutionName": "Dartmouth College - PBS",
  "InstitutionalDepartmentName": "Department",
  "MRAcquisitionType": "2D",
  "MagneticFieldStrength": 3,
  "Manufacturer": "Siemens",
  "ManufacturersModelName": "Prisma",
  "MatrixCoilMode": "GRAPPA",
  "Modality": "MR",
  "NonlinearGradientCorrection": false,
  "ParallelReductionFactorInPlane": 2,
  "PartialFourier": 1,
  "PatientPosition": "HFS",
  "PercentPhaseFOV": 100,
  "PercentSampling": 100,
  "PhaseEncodingDirection": "j-",
  "PhaseEncodingSteps": 122,
  "PhaseResolution": 1,
  "PixelBandwidth": 2050,
  "ProcedureStepDescription": "dbic^QA",
  "ProtocolName": "dwi_acq-DTI-30-p2",
  "PulseSequenceDetails": "%SiemensSeq%\\ep2d_diff",
  "ReceiveCoilActiveElements": "HEA;HEP",
  "ReceiveCoilName": "Head_32",
  "ReconMatrixPE": 122,
  "RefLinesPE": 38,
  "RepetitionTime": 7.7,
  "SAR": 0.101682,
  "ScanOptions": "FS",
  "ScanningSequence": "EP",
  "SequenceName": "*ep_b0",
  "SequenceVariant": "SK\\SP",
  "SeriesDescription": "dwi_acq-DTI-30-p2",
  "SeriesNumber": 12,
  "ShimSetting": [4149, -7707, -7517, 268, -45, -66, 0, 77],
  "SliceThickness": 2,
  "SliceTiming": [3.83594, 0, 3.94531, 0.10938, 4.0625, 0.21875, 4.16406, 0.32812, 4.27344, 0.4375, 4.38281, 0.54688, 4.5, 0.65625, 4.60938, 0.76562, 4.71875, 0.875, 4.82812, 0.98438, 4.9375, 1.09375, 5.04688, 1.20312, 5.15625, 1.3125, 5.26562, 1.42188, 5.375, 1.53125, 5.48438, 1.64062, 5.59375, 1.75, 5.70312, 1.86719, 5.8125, 1.97656, 5.92188, 2.08594, 6.03125, 2.19531, 6.14062, 2.30469, 6.25, 2.41406, 6.35938, 2.52344, 6.46875, 2.63281, 6.57812, 2.74219, 6.6875, 2.85156, 6.80469, 2.96094, 6.91406, 3.07031, 7.01562, 3.17969, 7.125, 3.28906, 7.24219, 3.39844, 7.35156, 3.50781, 7.46094, 3.61719, 7.57031, 3.72656],
  "SoftwareVersions": "syngo MR E11",
  "SpacingBetweenSlices": 2,
  "SpoilingState": true,
  "StationName": "AWP66112",
  "TotalReadoutTime": 0.0344855,
  "TxRefAmp": 222.121,
  "dcmmeta_affine": [
    [-1.9407681226730347, -0.31120824813842773, -0.08194094896316528, 141.76556396484375],
    [-0.320850670337677, 1.8443940877914429, 0.6143836975097656, -102.66109466552734],
    [0.0200349073857069, -0.6093336343765259, 1.9015274047851562, -26.473499298095703],
    [0.0, 0.0, 0.0, 1.0]
],
  "dcmmeta_reorient_transform": [
    [0.0, -1.0, 0.0, 121.0],
    [1.0, 0.0, 0.0, 0.0],
    [0.0, 0.0, -1.0, 69.0],
    [0.0, 0.0, 0.0, 1.0]
],
  "dcmmeta_shape": [122, 122, 70, 31],
  "dcmmeta_slice_dim": 2,
  "dcmmeta_version": 0.6,
  "global": {
    "const": {
      "AccessionNumber": "qa",
      "AcquisitionMatrix": [122, 0, 0, 122],
      "AngioFlag": "N",
      "BitsAllocated": 16,
      "BitsStored": 12,
      "BodyPartExamined": "BRAIN",
      "Columns": 122,
      "EchoNumbers": 1,
      "EchoTime": 75.0,
      "EchoTrainLength": 61,
      "FlipAngle": 90.0,
      "HighBit": 11,
      "ImageOrientationPatient": [0.98655712635616, 0.16309909318741, 0.01018441148582, -0.1581975195369, 0.9375669785289, 0.30974458120291],
      "ImageType": [
        "ORIGINAL",
        "PRIMARY",
        "DIFFUSION",
        "NONE",
        "ND",
        "NORM"
],
      "ImagedNucleus": "1H",
      "ImagingFrequency": 123.25236,
      "InPlanePhaseEncodingDirection": "COL",
      "MRAcquisitionType": "2D",
      "MagneticFieldStrength": 3.0,
      "Manufacturer": "SIEMENS",
      "ManufacturerModelName": "Prisma",
      "Modality": "MR",
      "NumberOfAverages": 1.0,
      "NumberOfPhaseEncodingSteps": 122,
      "PercentPhaseFieldOfView": 100.0,
      "PercentSampling": 100.0,
      "PerformedProcedureStepStartTime": "094714.328000",
      "PhotometricInterpretation": "MONOCHROME2",
      "PixelBandwidth": 2050.0,
      "PixelRepresentation": 0,
      "PixelSpacing": [1.9672131538391, 1.9672131538391],
      "ProtocolName": "dwi_acq-DTI-30-p2",
      "RepetitionTime": 7700.0,
      "Rows": 122,
      "SAR": 0.10168175106575,
      "SamplesPerPixel": 1,
      "ScanOptions": "FS",
      "ScanningSequence": "EP",
      "SequenceVariant": [
        "SK",
        "SP"
],
      "SeriesDescription": "dwi_acq-DTI-30-p2",
      "SeriesNumber": 12,
      "SeriesTime": "101641.234000",
      "SliceThickness": 2.0,
      "SmallestImagePixelValue": 0,
      "SoftwareVersions": "syngo MR E11",
      "SpacingBetweenSlices": 2.0,
      "SpecificCharacterSet": "ISO_IR 100",
      "StudyID": "50",
      "StudyTime": "094714.282000",
      "TransmitCoilName": "Body",
      "VariableFlipAngleFlag": "N",
      "WindowCenterWidthExplanation": "Algo1",
      "dBdt": 0.0},
    "slices": {
      "AcquisitionTime": ["101639.057500", "101635.217500", "101639.167500", "101635.327500", "101639.277500", "101635.437500", "101639.385000", "101635.545000", "101639.495000", "101635.655000", "101639.605000", "101635.765000", "101639.715000", "101635.875000", "101639.825000", "101635.985000", "101639.935000", "101636.095000", "101640.045000", "101636.205000", "101640.155000", "101636.315000", "101640.262500", "101636.425000", "101640.372500", "101636.532500", "101640.482500", "101636.642500", "101640.592500", "101636.752500", "101640.702500", "101636.862500", "101640.812500", "101636.972500", "101640.922500", "101637.082500", "101641.032500", "101637.192500", "101641.142500", "101637.302500", "101641.250000", "101637.412500", "101641.360000", "101637.520000", "101641.470000", "101637.630000", "101641.580000", "101637.740000", "101641.690000", "101637.850000", "101641.800000", "101637.960000", "101641.910000", "101638.070000", "101642.020000", "101638.180000", "101642.130000", "101638.290000", "101642.237500", "101638.397500", "101642.347500", "101638.507500", "101642.457500", "101638.617500", "101642.567500", "101638.727500", "101642.677500", "101638.837500", "101642.787500", "101638.947500", "101646.757500", "101642.917500", "101646.867500", "101643.027500", "101646.977500", "101643.137500", "101647.085000", "101643.245000", "101647.195000", "101643.355000", "101647.305000", "101643.465000", "101647.415000", "101643.575000", "101647.525000", "101643.685000", "101647.635000", "101643.795000", "101647.745000", "101643.905000", "101647.855000", "101644.015000", "101647.962500", "101644.125000", "101648.072500", "101644.232500", "101648.182500", "101644.342500", "101648.292500", "101644.452500", "101648.402500", "101644.562500", "101648.512500", "101644.672500", "101648.622500", "101644.782500", "101648.732500", "101644.892500", "101648.842500", "101645.002500", "101648.950000", "101645.112500", "101649.060000", "101645.220000", "101649.170000", "101645.330000", "101649.280000", "101645.440000", "101649.390000", "101645.550000", "101649.500000", "101645.660000", "101649.610000", "101645.770000", "101649.720000", "101645.880000", "101649.830000", "101645.990000", "101649.937500", "101646.097500", "101650.047500", "101646.207500", "101650.157500", "101646.317500", "101650.267500", "101646.427500", "101650.377500", "101646.537500", "101650.487500", "101646.647500", "101654.457500", "101650.617500", "101654.567500", "101650.727500", "101654.677500", "101650.837500", "101654.785000", "101650.945000", "101654.895000", "101651.055000", "101655.005000", "101651.165000", "101655.115000", "101651.275000", "101655.225000", "101651.385000", "101655.335000", "101651.495000", "101655.445000", "101651.605000", "101655.555000", "101651.715000", "101655.662500", "101651.825000", "101655.772500", "101651.932500", "101655.882500", "101652.042500", "101655.992500", "101652.152500", "101656.102500", "101652.262500", "101656.212500", "101652.372500", "101656.322500", "101652.482500", "101656.432500", "101652.592500", "101656.542500", "101652.702500", "101656.650000", "101652.812500", "101656.760000", "101652.920000", "101656.870000", "101653.030000", "101656.980000", "101653.140000", "101657.090000", "101653.250000", "101657.200000", "101653.360000", "101657.310000", "101653.470000", "101657.420000", "101653.580000", "101657.530000", "101653.690000", "101657.637500", "101653.797500", "101657.747500", "101653.907500", "101657.857500", "101654.017500", "101657.967500", "101654.127500", "101658.077500", "101654.237500", "101658.187500", "101654.347500", "101702.157500", "101658.317500", "101702.267500", "101658.427500", "101702.377500", "101658.537500", "101702.485000", "101658.645000", "101702.595000", "101658.755000", "101702.705000", "101658.865000", "101702.815000", "101658.975000", "101702.925000", "101659.085000", "101703.035000", "101659.195000", "101703.145000", "101659.305000", "101703.255000", "101659.415000", "101703.362500", "101659.525000", "101703.472500", "101659.632500", "101703.582500", "101659.742500", "101703.692500", "101659.852500", "101703.802500", "101659.962500", "101703.912500", "101700.072500", "101704.022500", "101700.182500", "101704.132500", "101700.292500", "101704.242500", "101700.402500", "101704.350000", "101700.512500", "101704.460000", "101700.620000", "101704.570000", "101700.730000", "101704.680000", "101700.840000", "101704.790000", "101700.950000", "101704.900000", "101701.060000", "101705.010000", "101701.170000", "101705.120000", "101701.280000", "101705.230000", "101701.390000", "101705.337500", "101701.497500", "101705.447500", "101701.607500", "101705.557500", "101701.717500", "101705.667500", "101701.827500", "101705.777500", "101701.937500", "101705.887500", "101702.047500", "101709.857500", "101706.017500", "101709.967500", "101706.127500", "101710.077500", "101706.237500", "101710.185000", "101706.345000", "101710.295000", "101706.455000", "101710.405000", "101706.565000", "101710.515000", "101706.675000", "101710.625000", "101706.785000", "101710.735000", "101706.895000", "101710.845000", "101707.005000", "101710.955000", "101707.115000", "101711.062500", "101707.225000", "101711.172500", "101707.332500", "101711.282500", "101707.442500", "101711.392500", "101707.552500", "101711.502500", "101707.662500", "101711.612500", "101707.772500", "101711.722500", "101707.882500", "101711.832500", "101707.992500", "101711.942500", "101708.102500", "101712.050000", "101708.212500", "101712.160000", "101708.320000", "101712.270000", "101708.430000", "101712.380000", "101708.540000", "101712.490000", "101708.650000", "101712.600000", "101708.760000", "101712.710000", "101708.870000", "101712.820000", "101708.980000", "101712.930000", "101709.090000", "101713.037500", "101709.197500", "101713.147500", "101709.307500", "101713.257500", "101709.417500", "101713.367500", "101709.527500", "101713.477500", "101709.637500", "101713.587500", "101709.747500", "101717.557500", "101713.717500", "101717.667500", "101713.827500", "101717.777500", "101713.937500", "101717.885000", "101714.045000", "101717.995000", "101714.155000", "101718.105000", "101714.265000", "101718.215000", "101714.375000", "101718.325000", "101714.485000", "101718.435000", "101714.595000", "101718.545000", "101714.705000", "101718.655000", "101714.815000", "101718.762500", "101714.925000", "101718.872500", "101715.032500", "101718.982500", "101715.142500", "101719.092500", "101715.252500", "101719.202500", "101715.362500", "101719.312500", "101715.472500", "101719.422500", "101715.582500", "101719.532500", "101715.692500", "101719.642500", "101715.802500", "101719.750000", "101715.912500", "101719.860000", "101716.020000", "101719.970000", "101716.130000", "101720.080000", "101716.240000", "101720.190000", "101716.350000", "101720.300000", "101716.460000", "101720.410000", "101716.570000", "101720.520000", "101716.680000", "101720.630000", "101716.790000", "101720.737500", "101716.897500", "101720.847500", "101717.007500", "101720.957500", "101717.117500", "101721.067500", "101717.227500", "101721.177500", "101717.337500", "101721.287500", "101717.447500", "101725.257500", "101721.417500", "101725.367500", "101721.527500", "101725.477500", "101721.637500", "101725.585000", "101721.745000", "101725.695000", "101721.855000", "101725.805000", "101721.965000", "101725.915000", "101722.075000", "101726.025000", "101722.185000", "101726.135000", "101722.295000", "101726.245000", "101722.405000", "101726.355000", "101722.515000", "101726.462500", "101722.625000", "101726.572500", "101722.732500", "101726.682500", "101722.842500", "101726.792500", "101722.952500", "101726.902500", "101723.062500", "101727.012500", "101723.172500", "101727.122500", "101723.282500", "101727.232500", "101723.392500", "101727.342500", "101723.502500", "101727.450000", "101723.612500", "101727.560000", "101723.720000", "101727.670000", "101723.830000", "101727.780000", "101723.940000", "101727.890000", "101724.050000", "101728.000000", "101724.160000", "101728.110000", "101724.270000", "101728.220000", "101724.380000", "101728.330000", "101724.490000", "101728.437500", "101724.597500", "101728.547500", "101724.707500", "101728.657500", "101724.817500", "101728.767500", "101724.927500", "101728.877500", "101725.037500", "101728.987500", "101725.147500", "101732.957500", "101729.117500", "101733.067500", "101729.227500", "101733.177500", "101729.337500", "101733.285000", "101729.445000", "101733.395000", "101729.555000", "101733.505000", "101729.665000", "101733.615000", "101729.775000", "101733.725000", "101729.885000", "101733.835000", "101729.995000", "101733.945000", "101730.105000", "101734.055000", "101730.215000", "101734.162500", "101730.325000", "101734.272500", "101730.432500", "101734.382500", "101730.542500", "101734.492500", "101730.652500", "101734.602500", "101730.762500", "101734.712500", "101730.872500", "101734.822500", "101730.982500", "101734.932500", "101731.092500", "101735.042500", "101731.202500", "101735.150000", "101731.312500", "101735.260000", "101731.420000", "101735.370000", "101731.530000", "101735.480000", "101731.640000", "101735.590000", "101731.750000", "101735.700000", "101731.860000", "101735.810000", "101731.970000", "101735.920000", "101732.080000", "101736.030000", "101732.190000", "101736.137500", "101732.297500", "101736.247500", "101732.407500", "101736.357500", "101732.517500", "101736.467500", "101732.627500", "101736.577500", "101732.737500", "101736.687500", "101732.847500", "101740.657500", "101736.817500", "101740.767500", "101736.927500", "101740.877500", "101737.037500", "101740.985000", "101737.145000", "101741.095000", "101737.255000", "101741.205000", "101737.365000", "101741.315000", "101737.475000", "101741.425000", "101737.585000", "101741.535000", "101737.695000", "101741.645000", "101737.805000", "101741.755000", "101737.915000", "101741.862500", "101738.025000", "101741.972500", "101738.132500", "101742.082500", "101738.242500", "101742.192500", "101738.352500", "101742.302500", "101738.462500", "101742.412500", "101738.572500", "101742.522500", "101738.682500", "101742.632500", "101738.792500", "101742.742500", "101738.902500", "101742.850000", "101739.012500", "101742.960000", "101739.120000", "101743.070000", "101739.230000", "101743.180000", "101739.340000", "101743.290000", "101739.450000", "101743.400000", "101739.560000", "101743.510000", "101739.670000", "101743.620000", "101739.780000", "101743.730000", "101739.890000", "101743.837500", "101739.997500", "101743.947500", "101740.107500", "101744.057500", "101740.217500", "101744.167500", "101740.327500", "101744.277500", "101740.437500", "101744.387500", "101740.547500", "101748.357500", "101744.517500", "101748.467500", "101744.627500", "101748.577500", "101744.737500", "101748.685000", "101744.845000", "101748.795000", "101744.955000", "101748.905000", "101745.065000", "101749.015000", "101745.175000", "101749.125000", "101745.285000", "101749.235000", "101745.395000", "101749.345000", "101745.505000", "101749.455000", "101745.615000", "101749.562500", "101745.725000", "101749.672500", "101745.832500", "101749.782500", "101745.942500", "101749.892500", "101746.052500", "101750.002500", "101746.162500", "101750.112500", "101746.272500", "101750.222500", "101746.382500", "101750.332500", "101746.492500", "101750.442500", "101746.602500", "101750.550000", "101746.712500", "101750.660000", "101746.820000", "101750.770000", "101746.930000", "101750.880000", "101747.040000", "101750.990000", "101747.150000", "101751.100000", "101747.260000", "101751.210000", "101747.370000", "101751.320000", "101747.480000", "101751.430000", "101747.590000", "101751.537500", "101747.697500", "101751.647500", "101747.807500", "101751.757500", "101747.917500", "101751.867500", "101748.027500", "101751.977500", "101748.137500", "101752.087500", "101748.247500", "101756.057500", "101752.217500", "101756.167500", "101752.327500", "101756.277500", "101752.437500", "101756.385000", "101752.545000", "101756.495000", "101752.655000", "101756.605000", "101752.765000", "101756.715000", "101752.875000", "101756.825000", "101752.985000", "101756.935000", "101753.095000", "101757.045000", "101753.205000", "101757.155000", "101753.315000", "101757.262500", "101753.425000", "101757.372500", "101753.532500", "101757.482500", "101753.642500", "101757.592500", "101753.752500", "101757.702500", "101753.862500", "101757.812500", "101753.972500", "101757.922500", "101754.082500", "101758.032500", "101754.192500", "101758.142500", "101754.302500", "101758.250000", "101754.412500", "101758.360000", "101754.520000", "101758.470000", "101754.630000", "101758.580000", "101754.740000", "101758.690000", "101754.850000", "101758.800000", "101754.960000", "101758.910000", "101755.070000", "101759.020000", "101755.180000", "101759.130000", "101755.290000", "101759.237500", "101755.397500", "101759.347500", "101755.507500", "101759.457500", "101755.617500", "101759.567500", "101755.727500", "101759.677500", "101755.837500", "101759.787500", "101755.947500", "101803.757500", "101759.917500", "101803.867500", "101800.027500", "101803.977500", "101800.137500", "101804.085000", "101800.245000", "101804.195000", "101800.355000", "101804.305000", "101800.465000", "101804.415000", "101800.575000", "101804.525000", "101800.685000", "101804.635000", "101800.795000", "101804.745000", "101800.905000", "101804.855000", "101801.015000", "101804.962500", "101801.125000", "101805.072500", "101801.232500", "101805.182500", "101801.342500", "101805.292500", "101801.452500", "101805.402500", "101801.562500", "101805.512500", "101801.672500", "101805.622500", "101801.782500", "101805.732500", "101801.892500", "101805.842500", "101802.002500", "101805.950000", "101802.112500", "101806.060000", "101802.220000", "101806.170000", "101802.330000", "101806.280000", "101802.440000", "101806.390000", "101802.550000", "101806.500000", "101802.660000", "101806.610000", "101802.770000", "101806.720000", "101802.880000", "101806.830000", "101802.990000", "101806.937500", "101803.097500", "101807.047500", "101803.207500", "101807.157500", "101803.317500", "101807.267500", "101803.427500", "101807.377500", "101803.537500", "101807.487500", "101803.647500", "101811.457500", "101807.617500", "101811.567500", "101807.727500", "101811.677500", "101807.837500", "101811.785000", "101807.945000", "101811.895000", "101808.055000", "101812.005000", "101808.165000", "101812.115000", "101808.275000", "101812.225000", "101808.385000", "101812.335000", "101808.495000", "101812.445000", "101808.605000", "101812.555000", "101808.715000", "101812.662500", "101808.825000", "101812.772500", "101808.932500", "101812.882500", "101809.042500", "101812.992500", "101809.152500", "101813.102500", "101809.262500", "101813.212500", "101809.372500", "101813.322500", "101809.482500", "101813.432500", "101809.592500", "101813.542500", "101809.702500", "101813.650000", "101809.812500", "101813.760000", "101809.920000", "101813.870000", "101810.030000", "101813.980000", "101810.140000", "101814.090000", "101810.250000", "101814.200000", "101810.360000", "101814.310000", "101810.470000", "101814.420000", "101810.580000", "101814.530000", "101810.690000", "101814.637500", "101810.797500", "101814.747500", "101810.907500", "101814.857500", "101811.017500", "101814.967500", "101811.127500", "101815.077500", "101811.237500", "101815.187500", "101811.347500", "101819.157500", "101815.317500", "101819.267500", "101815.427500", "101819.377500", "101815.537500", "101819.485000", "101815.645000", "101819.595000", "101815.755000", "101819.705000", "101815.865000", "101819.815000", "101815.975000", "101819.925000", "101816.085000", "101820.035000", "101816.195000", "101820.145000", "101816.305000", "101820.255000", "101816.415000", "101820.362500", "101816.525000", "101820.472500", "101816.632500", "101820.582500", "101816.742500", "101820.692500", "101816.852500", "101820.802500", "101816.962500", "101820.912500", "101817.072500", "101821.022500", "101817.182500", "101821.132500", "101817.292500", "101821.242500", "101817.402500", "101821.350000", "101817.512500", "101821.460000", "101817.620000", "101821.570000", "101817.730000", "101821.680000", "101817.840000", "101821.790000", "101817.950000", "101821.900000", "101818.060000", "101822.010000", "101818.170000", "101822.120000", "101818.280000", "101822.230000", "101818.390000", "101822.337500", "101818.497500", "101822.447500", "101818.607500", "101822.557500", "101818.717500", "101822.667500", "101818.827500", "101822.777500", "101818.937500", "101822.887500", "101819.047500", "101826.857500", "101823.017500", "101826.967500", "101823.127500", "101827.077500", "101823.237500", "101827.185000", "101823.345000", "101827.295000", "101823.455000", "101827.405000", "101823.565000", "101827.515000", "101823.675000", "101827.625000", "101823.785000", "101827.735000", "101823.895000", "101827.845000", "101824.005000", "101827.955000", "101824.115000", "101828.062500", "101824.225000", "101828.172500", "101824.332500", "101828.282500", "101824.442500", "101828.392500", "101824.552500", "101828.502500", "101824.662500", "101828.612500", "101824.772500", "101828.722500", "101824.882500", "101828.832500", "101824.992500", "101828.942500", "101825.102500", "101829.050000", "101825.212500", "101829.160000", "101825.320000", "101829.270000", "101825.430000", "101829.380000", "101825.540000", "101829.490000", "101825.650000", "101829.600000", "101825.760000", "101829.710000", "101825.870000", "101829.820000", "101825.980000", "101829.930000", "101826.090000", "101830.037500", "101826.197500", "101830.147500", "101826.307500", "101830.257500", "101826.417500", "101830.367500", "101826.527500", "101830.477500", "101826.637500", "101830.587500", "101826.747500", "101834.557500", "101830.717500", "101834.667500", "101830.827500", "101834.777500", "101830.937500", "101834.885000", "101831.045000", "101834.995000", "101831.155000", "101835.105000", "101831.265000", "101835.215000", "101831.375000", "101835.325000", "101831.485000", "101835.435000", "101831.595000", "101835.545000", "101831.705000", "101835.655000", "101831.815000", "101835.762500", "101831.925000", "101835.872500", "101832.032500", "101835.982500", "101832.142500", "101836.092500", "101832.252500", "101836.202500", "101832.362500", "101836.312500", "101832.472500", "101836.422500", "101832.582500", "101836.532500", "101832.692500", "101836.642500", "101832.802500", "101836.750000", "101832.912500", "101836.860000", "101833.020000", "101836.970000", "101833.130000", "101837.080000", "101833.240000", "101837.190000", "101833.350000", "101837.300000", "101833.460000", "101837.410000", "101833.570000", "101837.520000", "101833.680000", "101837.630000", "101833.790000", "101837.737500", "101833.897500", "101837.847500", "101834.007500", "101837.957500", "101834.117500", "101838.067500", "101834.227500", "101838.177500", "101834.337500", "101838.287500", "101834.447500", "101842.257500", "101838.417500", "101842.367500", "101838.527500", "101842.477500", "101838.637500", "101842.585000", "101838.745000", "101842.695000", "101838.855000", "101842.805000", "101838.965000", "101842.915000", "101839.075000", "101843.025000", "101839.185000", "101843.135000", "101839.295000", "101843.245000", "101839.405000", "101843.355000", "101839.515000", "101843.462500", "101839.625000", "101843.572500", "101839.732500", "101843.682500", "101839.842500", "101843.792500", "101839.952500", "101843.902500", "101840.062500", "101844.012500", "101840.172500", "101844.122500", "101840.282500", "101844.232500", "101840.392500", "101844.342500", "101840.502500", "101844.450000", "101840.612500", "101844.560000", "101840.720000", "101844.670000", "101840.830000", "101844.780000", "101840.940000", "101844.890000", "101841.050000", "101845.000000", "101841.160000", "101845.110000", "101841.270000", "101845.220000", "101841.380000", "101845.330000", "101841.490000", "101845.437500", "101841.597500", "101845.547500", "101841.707500", "101845.657500", "101841.817500", "101845.767500", "101841.927500", "101845.877500", "101842.037500", "101845.987500", "101842.147500", "101849.957500", "101846.117500", "101850.067500", "101846.227500", "101850.177500", "101846.337500", "101850.285000", "101846.445000", "101850.395000", "101846.555000", "101850.505000", "101846.665000", "101850.615000", "101846.775000", "101850.725000", "101846.885000", "101850.835000", "101846.995000", "101850.945000", "101847.105000", "101851.055000", "101847.215000", "101851.162500", "101847.325000", "101851.272500", "101847.432500", "101851.382500", "101847.542500", "101851.492500", "101847.652500", "101851.602500", "101847.762500", "101851.712500", "101847.872500", "101851.822500", "101847.982500", "101851.932500", "101848.092500", "101852.042500", "101848.202500", "101852.150000", "101848.312500", "101852.260000", "101848.420000", "101852.370000", "101848.530000", "101852.480000", "101848.640000", "101852.590000", "101848.750000", "101852.700000", "101848.860000", "101852.810000", "101848.970000", "101852.920000", "101849.080000", "101853.030000", "101849.190000", "101853.137500", "101849.297500", "101853.247500", "101849.407500", "101853.357500", "101849.517500", "101853.467500", "101849.627500", "101853.577500", "101849.737500", "101853.687500", "101849.847500", "101857.657500", "101853.817500", "101857.767500", "101853.927500", "101857.877500", "101854.037500", "101857.985000", "101854.145000", "101858.095000", "101854.255000", "101858.205000", "101854.365000", "101858.315000", "101854.475000", "101858.425000", "101854.585000", "101858.535000", "101854.695000", "101858.645000", "101854.805000", "101858.755000", "101854.915000", "101858.862500", "101855.025000", "101858.972500", "101855.132500", "101859.082500", "101855.242500", "101859.192500", "101855.352500", "101859.302500", "101855.462500", "101859.412500", "101855.572500", "101859.522500", "101855.682500", "101859.632500", "101855.792500", "101859.742500", "101855.902500", "101859.850000", "101856.012500", "101859.960000", "101856.120000", "101900.070000", "101856.230000", "101900.180000", "101856.340000", "101900.290000", "101856.450000", "101900.400000", "101856.560000", "101900.510000", "101856.670000", "101900.620000", "101856.780000", "101900.730000", "101856.890000", "101900.837500", "101856.997500", "101900.947500", "101857.107500", "101901.057500", "101857.217500", "101901.167500", "101857.327500", "101901.277500", "101857.437500", "101901.387500", "101857.547500", "101905.357500", "101901.517500", "101905.467500", "101901.627500", "101905.577500", "101901.737500", "101905.685000", "101901.845000", "101905.795000", "101901.955000", "101905.905000", "101902.065000", "101906.015000", "101902.175000", "101906.125000", "101902.285000", "101906.235000", "101902.395000", "101906.345000", "101902.505000", "101906.455000", "101902.615000", "101906.562500", "101902.725000", "101906.672500", "101902.832500", "101906.782500", "101902.942500", "101906.892500", "101903.052500", "101907.002500", "101903.162500", "101907.112500", "101903.272500", "101907.222500", "101903.382500", "101907.332500", "101903.492500", "101907.442500", "101903.602500", "101907.550000", "101903.712500", "101907.660000", "101903.820000", "101907.770000", "101903.930000", "101907.880000", "101904.040000", "101907.990000", "101904.150000", "101908.100000", "101904.260000", "101908.210000", "101904.370000", "101908.320000", "101904.480000", "101908.430000", "101904.590000", "101908.537500", "101904.697500", "101908.647500", "101904.807500", "101908.757500", "101904.917500", "101908.867500", "101905.027500", "101908.977500", "101905.137500", "101909.087500", "101905.247500", "101913.057500", "101909.217500", "101913.167500", "101909.327500", "101913.277500", "101909.437500", "101913.385000", "101909.545000", "101913.495000", "101909.655000", "101913.605000", "101909.765000", "101913.715000", "101909.875000", "101913.825000", "101909.985000", "101913.935000", "101910.095000", "101914.045000", "101910.205000", "101914.155000", "101910.315000", "101914.262500", "101910.425000", "101914.372500", "101910.532500", "101914.482500", "101910.642500", "101914.592500", "101910.752500", "101914.702500", "101910.862500", "101914.812500", "101910.972500", "101914.922500", "101911.