{
  "AcquisitionMatrixPE": 80,
  "AcquisitionNumber": 1,
  "AcquisitionTime": "11:29:34.137500",
  "BandwidthPerPixelPhaseEncode": 44.643,
  "BaseResolution": 80,
  "BodyPartExamined": "BRAIN",
  "CoilCombinationMethod": "Sum of Squares",
  "ConsistencyInfo": "N4_VE11C_LATEST_20160120",
  "ConversionSoftware": "dcm2niix",
  "ConversionSoftwareVersion": "v1.0.20220720",
  "DerivedVendorReportedEchoSpacing": 0.000559998,
  "DeviceSerialNumber": "66112",
  "DwellTime": 2.7e-06,
  "EchoTime": 0.035,
  "EchoTrainLength": 39,
  "EffectiveEchoSpacing": 0.000279999,
  "FlipAngle": 90,
  "HeudiconvVersion": "0.13.1",
  "ImageOrientationPatientDICOM": [0.986409, 0.16418, 0.00642461, -0.157997, 0.937078, 0.311322],
  "ImageOrientationText": "Tra>Cor(18.0)>Sag(-2.6)",
  "ImageType": [
    "ORIGINAL",
    "PRIMARY",
    "M",
    "ND",
    "NORM",
    "MOSAIC"
],
  "ImagingFrequency": 123.252,
  "InPlanePhaseEncodingDirectionDICOM": "COL",
  "InstitutionAddress": "Maynard 3,Hanover,NH,US,03755",
  "InstitutionName": "Dartmouth College - PBS",
  "InstitutionalDepartmentName": "Department",
  "MRAcquisitionType": "2D",
  "MagneticFieldStrength": 3,
  "Manufacturer": "Siemens",
  "ManufacturersModelName": "Prisma",
  "Modality": "MR",
  "MultibandAccelerationFactor": 4,
  "NonlinearGradientCorrection": false,
  "ParallelReductionFactorInPlane": 2,
  "PartialFourier": 1,
  "PatientPosition": "HFS",
  "PercentPhaseFOV": 100,
  "PercentSampling": 100,
  "PhaseEncodingDirection": "j-",
  "PhaseEncodingSteps": 79,
  "PhaseResolution": 1,
  "PixelBandwidth": 2315,
  "ProcedureStepDescription": "dbic^QA",
  "ProtocolName": "func-bold_task-rest_acq-p2-s4-3.5mm",
  "PulseSequenceDetails": "%SiemensSeq%\\ep2d_bold",
  "ReceiveCoilActiveElements": "HEA;HEP",
  "ReceiveCoilName": "Head_32",
  "ReconMatrixPE": 80,
  "RefLinesPE": 24,
  "RepetitionTime": 2,
  "SAR": 0.0178578,
  "ScanOptions": "FS",
  "ScanningSequence": "EP",
  "SequenceName": "*epfid2d1_80",
  "SequenceVariant": "SK",
  "SeriesDescription": "func-bold_task-rest_acq-p2-s4-3.5mm",
  "SeriesNumber": 7,
  "ShimSetting": [4142, -7702, -7534, 229, -59, -65, -17, 50],
  "SliceThickness": 3.5,
  "SliceTiming": [1.485, 0, 0.99, 0.2475, 1.2375, 0.7425, 1.7325, 0.495, 1.485, 0, 0.99, 0.2475, 1.2375, 0.7425, 1.7325, 0.495, 1.485, 0, 0.99, 0.2475, 1.2375, 0.7425, 1.7325, 0.495, 1.485, 0, 0.99, 0.2475, 1.2375, 0.7425, 1.7325, 0.495],
  "SoftwareVersions": "syngo MR E11",
  "SpacingBetweenSlices": 3.99,
  "StationName": "AWP66112",
  "TaskName": "rest",
  "TotalReadoutTime": 0.0221199,
  "TxRefAmp": 218.131,
  "dcmmeta_affine": [
    [-2.959228277206421, -0.4739917516708374, -0.17991942167282104, 141.64967346191406],
    [-0.4925411343574524, 2.811234712600708, 1.2293425798416138, -107.97085571289062],
    [0.019273824989795685, -0.9339656233787537, 3.791628360748291, -24.508085250854492],
    [0.0, 0.0, 0.0, 1.0]
],
  "dcmmeta_reorient_transform": [
    [0.0, -1.0, 0.0, 79.0],
    [1.0, 0.0, 0.0, 0.0],
    [0.0, 0.0, 1.0, 0.0],
    [0.0, 0.0, 0.0, 1.0]
],
  "dcmmeta_shape": [80, 80, 32, 200],
  "dcmmeta_slice_dim": 2,
  "dcmmeta_version": 0.6,
  "global": {
    "const": {
      "AccessionNumber": "qa",
      "AcquisitionMatrix": [80, 0, 0, 80],
      "AngioFlag": "N",
      "BitsAllocated": 16,
      "BitsStored": 12,
      "BodyPartExamined": "BRAIN",
      "Columns": 480,
      "EchoNumbers": 1,
      "EchoTime": 35.0,
      "EchoTrainLength": 39,
      "FlipAngle": 90.0,
      "HighBit": 11,
      "ImageOrientationPatient": [0.98640941138946, 0.16418038106687, 0.00642460855084, -0.1579972528491, 0.93707819988572, 0.31132188389363],
      "ImagePositionPatient": [-601.2516135584, -774.87182312229, -288.93926731514],
      "ImageType": [
        "ORIGINAL",
        "PRIMARY",
        "M",
        "ND",
        "NORM",
        "MOSAIC"
],
      "ImagedNucleus": "1H",
      "ImagingFrequency": 123.252355,
      "InPlanePhaseEncodingDirection": "COL",
      "MRAcquisitionType": "2D",
      "MagneticFieldStrength": 3.0,
      "Manufacturer": "SIEMENS",
      "ManufacturerModelName": "Prisma",
      "Modality": "MR",
      "NumberOfAverages": 1.0,
      "NumberOfPhaseEncodingSteps": 79,
      "PercentPhaseFieldOfView": 100.0,
      "PercentSampling": 100.0,
      "PerformedProcedureStepStartTime": "111737.894000",
      "PhotometricInterpretation": "MONOCHROME2",
      "PixelBandwidth": 2315.0,
      "PixelRepresentation": 0,
      "PixelSpacing": [3.0, 3.0],
      "ProtocolName": "func-bold_task-rest_acq-p2-s4-3.5mm",
      "RepetitionTime": 2000.0,
      "Rows": 480,
      "SAR": 0.01785776985142,
      "SamplesPerPixel": 1,
      "ScanOptions": "FS",
      "ScanningSequence": "EP",
      "SequenceName": "*epfid2d1_80",
      "SequenceVariant": "SK",
      "SeriesDescription": "func-bold_task-rest_acq-p2-s4-3.5mm",
      "SeriesNumber": 7,
      "SeriesTime": "113027.414000",
      "SliceLocation": -62.943421113785,
      "SliceThickness": 3.5,
      "SmallestImagePixelValue": 0,
      "SoftwareVersions": "syngo MR E11",
      "SpacingBetweenSlices": 3.9900000555862,
      "SpecificCharacterSet": "ISO_IR 100",
      "StudyID": "42",
      "StudyTime": "111737.843000",
      "TransmitCoilName": "Body",
      "VariableFlipAngleFlag": "N",
      "WindowCenterWidthExplanation": "Algo1",
      "dBdt": 0.0},
    "slices": {}
  },
  "time": {
    "samples": {
      "AcquisitionNumber": [1, 2, 3, 4, 5, 6, 7, 8, 9, 10, 11, 12, 13, 14, 15, 16, 17, 18, 19, 20, 21, 22, 23, 24, 25, 26, 27, 28, 29, 30, 31, 32, 33, 34, 35, 36, 37, 38, 39, 40, 41, 42, 43, 44, 45, 46, 47, 48, 49, 50, 51, 52, 53, 54, 55, 56, 57, 58, 59, 60, 61, 62, 63, 64, 65, 66, 67, 68, 69, 70, 71, 72, 73, 74, 75, 76, 77, 78, 79, 80, 81, 82, 83, 84, 85, 86, 87, 88, 89, 90, 91, 92, 93, 94, 95, 96, 97, 98, 99, 100, 101, 102, 103, 104, 105, 106, 107, 108, 109, 110, 111, 112, 113, 114, 115, 116, 117, 118, 119, 120, 121, 122, 123, 124, 125, 126, 127, 128, 129, 130, 131, 132, 133, 134, 135, 136, 137, 138, 139, 140, 141, 142, 143, 144, 145, 146, 147, 148, 149, 150, 151, 152, 153, 154, 155, 156, 157, 158, 159, 160, 161, 162, 163, 164, 165, 166, 167, 168, 169, 170, 171, 172, 173, 174, 175, 176, 177, 178, 179, 180, 181, 182, 183, 184, 185, 186, 187, 188, 189, 190, 191, 192, 193, 194, 195, 196, 197, 198, 199, 200],
      "AcquisitionTime": ["112934.137500", "112936.137500", "112938.137500", "112940.137500", "112942.137500", "112944.137500", "112946.137500", "112948.137500", "112950.137500", "112952.137500", "112954.137500", "112956.137500", "112958.137500", "113000.137500", "113002.137500", "113004.137500", "113006.137500", "113008.137500", "113010.137500", "113012.137500", "113014.137500", "113016.137500", "113018.137500", "113020.137500", "113022.137500", "113024.137500", "113026.137500", "113028.137500", "113030.137500", "113032.137500", "113034.137500", "113036.137500", "113038.137500", "113040.137500", "113042.137500", "113044.137500", "113046.137500", "113048.137500", "113050.137500", "113052.137500", "113054.137500", "113056.137500", "113058.137500", "113100.137500", "113102.137500", "113104.137500", "113106.137500", "113108.137500", "113110.137500", "113112.137500", "113114.137500", "113116.137500", "113118.137500", "113120.137500", "113122.137500", "113124.137500", "113126.137500", "113128.137500", "113130.137500", "113132.137500", "113134.137500", "113136.137500", "113138.137500", "113140.137500", "113142.137500", "113144.137500", "113146.137500", "113148.137500", "113150.137500", "113152.137500", "113154.137500", "113156.137500", "113158.137500", "113200.137500", "113202.137500", "113204.137500", "113206.137500", "113208.137500", "113210.137500", "113212.137500", "113214.137500", "113216.137500", "113218.137500", "113220.137500", "113222.137500", "113224.137500", "113226.137500", "113228.137500", "113230.137500", "113232.137500", "113234.137500", "113236.137500", "113238.137500", "113240.137500", "113242.137500", "113244.137500", "113246.137500", "113248.137500", "113250.137500", "113252.137500", "113254.137500", "113256.137500", "113258.137500", "113300.137500", "113302.137500", "113304.137500", "113306.137500", "113308.137500", "113310.137500", "113312.137500", "113314.137500", "113316.137500", "113318.137500", "113320.137500", "113322.137500", "113324.137500", "113326.137500", "113328.137500", "113330.137500", "113332.137500", "113334.137500", "113336.137500", "113338.137500", "113340.137500", "113342.137500", "113344.137500", "113346.137500", "113348.137500", "113350.137500", "113352.137500", "113354.137500", "113356.137500", "113358.137500", "113400.137500", "113402.137500", "113404.137500", "113406.137500", "113408.137500", "113410.137500", "113412.137500", "113414.137500", "113416.137500", "113418.137500", "113420.137500", "113422.137500", "113424.137500", "113426.137500", "113428.137500", "113430.137500", "113432.137500", "113434.137500", "113436.137500", "113438.137500", "113440.137500", "113442.137500", "113444.137500", "113446.137500", "113448.137500", "113450.137500", "113452.137500", "113454.137500", "113456.137500", "113458.137500", "113500.137500", "113502.137500", "113504.137500", "113506.137500", "113508.137500", "113510.137500", "113512.137500", "113514.137500", "113516.137500", "113518.137500", "113520.137500", "113522.137500", "113524.137500", "113526.137500", "113528.137500", "113530.137500", "113532.137500", "113534.137500", "113536.137500", "113538.137500", "113540.137500", "113542.137500", "113544.137500", "113546.137500", "113548.137500", "113550.137500", "113552.137500", "113554.137500", "113556.137500", "113558.137500", "113600.137500", "113602.137500", "113604.137500", "113606.137500", "113608.137500", "113610.137500", "113612.137500"],
      "ContentTime": ["113027.419000", "113027.422000", "113027.433000", "113027.435000", "113027.440000", "113027.443000", "113027.445000", "113027.448000", "113027.450000", "113027.457000", "113027.459000", "113027.462000", "113027.465000", "113027.467000", "113027.470000", "113027.473000", "113027.475000", "113027.478000", "113027.480000", "113027.483000", "113027.486000", "113027.488000", "113027.491000", "113027.494000", "113027.496000", "113027.499000", "113027.501000", "113107.412000", "113107.415000", "113107.418000", "113107.421000", "113107.423000", "113107.426000", "113107.428000", "113107.431000", "113107.434000", "113107.436000", "113107.444000", "113107.446000", "113107.449000", "113107.451000", "113107.454000", "113107.457000", "113107.459000", "113107.462000", "113107.465000", "113107.467000", "113147.413000", "113147.415000", "113147.418000", "113147.421000", "113147.423000", "113147.426000", "113147.429000", "113147.431000", "113147.434000", "113147.436000", "113147.439000", "113147.442000", "113147.444000", "113147.447000", "113147.449000", "113147.452000", "113147.455000", "113147.457000", "113147.460000", "113147.463000", "113227.413000", "113227.415000", "113227.418000", "113227.421000", "113227.423000", "113227.426000", "113227.429000", "113227.431000", "113227.434000", "113227.437000", "113227.439000", "113227.442000", "113227.444000", "113227.447000", "113227.450000", "113227.452000", "113227.455000", "113227.457000", "113227.460000", "113227.463000", "113247.412000", "113247.415000", "113247.418000", "113247.421000", "113247.423000", "113247.426000", "113247.428000", "113247.431000", "113247.434000", "113247.436000", "113327.412000", "113327.415000", "113327.418000", "113327.421000", "113327.423000", "113327.426000", "113327.429000", "113327.431000", "113327.434000", "113327.445000", "113327.448000", "113327.451000", "113327.453000", "113327.456000", "113327.458000", "113327.461000", "113327.464000", "113327.466000", "113327.469000", "113327.471000", "113407.412000", "113407.415000", "113407.418000", "113407.421000", "113407.423000", "113407.426000", "113407.429000", "113407.431000", "113407.434000", "113407.437000", "113407.439000", "113407.442000", "113407.444000", "113407.447000", "113407.450000", "113407.452000", "113407.455000", "113407.457000", "113407.468000", "113407.471000", "113447.412000", "113447.415000", "113447.418000", "113447.421000", "113447.423000", "113447.426000", "113447.429000", "113447.431000", "113447.434000", "113447.437000", "113447.439000", "113447.442000", "113447.444000", "113447.447000", "113447.450000", "113447.452000", "113447.455000", "113447.457000", "113447.460000", "113447.463000", "113527.412000", "113527.421000", "113527.423000", "113527.426000", "113527.429000", "113527.431000", "113527.434000", "113527.437000", "113527.439000", "113527.442000", "113527.444000", "113527.447000", "113527.450000", "113527.452000", "113527.455000", "113527.457000", "113527.460000", "113527.463000", "113527.465000", "113527.468000", "113607.413000", "113607.416000", "113607.419000", "113607.422000", "113607.424000", "113607.427000", "113607.430000", "113607.432000", "113607.435000", "113607.437000", "113607.440000", "113607.443000", "113607.445000", "113607.448000", "113607.450000", "113607.453000", "113607.456000", "113607.458000", "113607.461000", "113607.464000", "113613.185000", "113613.187000", "113613.190000"],
      "InstanceCreationTime": ["113027.419000", "113027.422000", "113027.433000", "113027.435000", "113027.440000", "113027.443000", "113027.445000", "113027.448000", "113027.450000", "113027.457000", "113027.459000", "113027.462000", "113027.465000", "113027.467000", "113027.470000", "113027.473000", "113027.475000", "113027.478000", "113027.480000", "113027.483000", "113027.486000", "113027.488000", "113027.491000", "113027.494000", "113027.496000", "113027.499000", "113027.501000", "113107.412000", "113107.415000", "113107.418000", "113107.421000", "113107.423000", "113107.426000", "113107.428000", "113107.431000", "113107.434000", "113107.436000", "113107.444000", "113107.446000", "113107.449000", "113107.451000", "113107.454000", "113107.457000", "113107.459000", "113107.462000", "113107.465000", "113107.467000", "113147.413000", "113147.415000", "113147.418000", "113147.421000", "113147.423000", "113147.426000", "113147.429000", "113147.431000", "113147.434000", "113147.436000", "113147.439000", "113147.442000", "113147.444000", "113147.447000", "113147.449000", "113147.452000", "113147.455000", "113147.457000", "113147.460000", "113147.463000", "113227.413000", "113227.415000", "113227.418000", "113227.421000", "113227.423000", "113227.426000", "113227.429000", "113227.431000", "113227.434000", "113227.437000", "113227.439000", "113227.442000", "113227.444000", "113227.447000", "113227.450000", "113227.452000", "113227.455000", "113227.457000", "113227.460000", "113227.463000", "113247.412000", "113247.415000", "113247.418000", "113247.421000", "113247.423000", "113247.426000", "113247.428000", "113247.431000", "113247.434000", "113247.436000", "113327.412000", "113327.415000", "113327.418000", "113327.421000", "113327.423000", "113327.426000", "113327.429000", "113327.431000", "113327.434000", "113327.445000", "113327.448000", "113327.451000", "113327.453000", "113327.456000", "113327.458000", "113327.461000", "113327.464000", "113327.466000", "113327.469000", "113327.471000", "113407.412000", "113407.415000", "113407.418000", "113407.421000", "113407.423000", "113407.426000", "113407.429000", "113407.431000", "113407.434000", "113407.437000", "113407.439000", "113407.442000", "113407.444000", "113407.447000", "113407.450000", "113407.452000", "113407.455000", "113407.457000", "113407.468000", "113407.471000", "113447.412000", "113447.415000", "113447.418000", "113447.421000", "113447.423000", "113447.426000", "113447.429000", "113447.431000", "113447.434000", "113447.437000", "113447.439000", "113447.442000", "113447.444000", "113447.447000", "113447.450000", "113447.452000", "113447.455000", "113447.457000", "113447.460000", "113447.463000", "113527.412000", "113527.421000", "113527.423000", "113527.426000", "113527.429000", "113527.431000", "113527.434000", "113527.437000", "113527.439000", "113527.442000", "113527.444000", "113527.447000", "113527.450000", "113527.452000", "113527.455000", "113527.457000", "113527.460000", "113527.463000", "113527.465000", "113527.468000", "113607.413000", "113607.416000", "113607.419000", "113607.422000", "113607.424000", "113607.427000", "113607.430000", "113607.432000", "113607.435000", "113607.437000", "113607.440000", "113607.443000", "113607.445000", "113607.448000", "113607.450000", "113607.453000", "113607.456000", "113607.458000", "113607.461000", "113607.464000", "113613.185000", "113613.187000", "113613.190000"],
      "InstanceNumber": [1, 2, 3, 4, 5, 6, 7, 8, 9, 10, 11, 12, 13, 14, 15, 16, 17, 18, 19, 20, 21, 22, 23, 24, 25, 26, 27, 28, 29, 30, 31, 32, 33, 34, 35, 36, 37, 38, 39, 40, 41, 42, 43, 44, 45, 46, 47, 48, 49, 50, 51, 52, 53, 54, 55, 56, 57, 58, 59, 60, 61, 62, 63, 64, 65, 66, 67, 68, 69, 70, 71, 72, 73, 74, 75, 76, 77, 78, 79, 80, 81, 82, 83, 84, 85, 86, 87, 88, 89, 90, 91, 92, 93, 94, 95, 96, 97, 98, 99, 100, 101, 102, 103, 104, 105, 106, 107, 108, 109, 110, 111, 112, 113, 114, 115, 116, 117, 118, 119, 120, 121, 122, 123, 124, 125, 126, 127, 128, 129, 130, 131, 132, 133, 134, 135, 136, 137, 138, 139, 140, 141, 142, 143, 144, 145, 146, 147, 148, 149, 150, 151, 152, 153, 154, 155, 156, 157, 158, 159, 160, 161, 162, 163, 164, 165, 166, 167, 168, 169, 170, 171, 172, 173, 174, 175, 176, 177, 178, 179, 180, 181, 182, 183, 184, 185, 186, 187, 188, 189, 190, 191, 192, 193, 194, 195, 196, 197, 198, 199, 200],
      "LargestImagePixelValue": [2478, 2487, 2481, 2479, 2480, 2477, 2482, 2478, 2480, 2479, 2482, 2479, 2483, 2478, 2484, 2481, 2487, 2483, 2480, 2478, 2483, 2481, 2482, 2485, 2478, 2484, 2489, 2480, 2480, 2476, 2484, 2481, 2480, 2480, 2481, 2477, 2480, 2478, 2480, 2478, 2483, 2480, 2480, 2481, 2483, 2477, 2483, 2478, 2480, 2484, 2477, 2481, 2480, 2485, 2479, 2477, 2477, 2479, 2477, 2485, 2485, 2481, 2484, 2485, 2480, 2484, 2481, 2477, 2484, 2480, 2478, 2473, 2485, 2482, 2478, 2477, 2477, 2477, 2475, 2473, 2477, 2473, 2476, 2473, 2470, 2479, 2477, 2475, 2478, 2480, 2480, 2477, 2475, 2476, 2475, 2470, 2474, 2477, 2473, 2486, 2481, 2479, 2473, 2479, 2480, 2477, 2479, 2479, 2478, 2472, 2478, 2470, 2476, 2471, 2483, 2474, 2479, 2476, 2475, 2473, 2473, 2472, 2474, 2471, 2470, 2469, 2470, 2470, 2470, 2476, 2471, 2478, 2478, 2476, 2482, 2479, 2475, 2476, 2473, 2475, 2475, 2477, 2483, 2479, 2478, 2475, 2468, 2476, 2477, 2470, 2472, 2469, 2473, 2471, 2474, 2468, 2469, 2468, 2471, 2476, 2473, 2469, 2473, 2473, 2472, 2473, 2468, 2466, 2471, 2475, 2471, 2474, 2473, 2478, 2479, 2471, 2473, 2468, 2471, 2473, 2471, 2474, 2476, 2474, 2476, 2471, 2479, 2480, 2479, 2480, 2473, 2470, 2468, 2470, 2474, 2470, 2474, 2481, 2479, 2473],
      "WindowCenter": [983.0, 983.0, 983.0, 983.0, 983.0, 983.0, 983.0, 983.0, 983.0, 983.0, 983.0, 983.0, 983.0, 983.0, 983.0, 983.0, 983.0, 983.0, 983.0, 983.0, 983.0, 983.0, 983.0, 983.0, 983.0, 983.0, 983.0, 984.0, 983.0, 984.0, 983.0, 983.0, 983.0, 983.0, 983.0, 984.0, 983.0, 983.0, 983.0, 983.0, 983.0, 983.0, 983.0, 983.0, 983.0, 983.0, 983.0, 983.0, 983.0, 983.0, 983.0, 983.0, 983.0, 983.0, 983.0, 983.0, 983.0, 983.0, 983.0, 983.0, 983.0, 983.0, 983.0, 983.0, 983.0, 983.0, 983.0, 983.0, 983.0, 983.0, 983.0, 983.0, 983.0, 983.0, 983.0, 983.0, 983.0, 983.0, 983.0, 983.0, 983.0, 983.0, 983.0, 983.0, 983.0, 983.0, 983.0, 983.0, 983.0, 983.0, 983.0, 983.0, 983.0, 983.0, 983.0, 983.0, 983.0, 983.0, 983.0, 983.0, 983.0, 984.0, 983.0, 983.0, 983.0, 983.0, 983.0, 983.0, 983.0, 983.0, 983.0, 983.0, 983.0, 983.0, 983.0, 983.0, 983.0, 983.0, 983.0, 983.0, 983.0, 983.0, 983.0, 983.0, 983.0, 983.0, 983.0, 983.0, 983.0, 983.0, 983.0, 983.0, 983.0, 983.0, 984.0, 983.0, 983.0, 983.0, 983.0, 983.0, 983.0, 983.0, 983.0, 983.0, 983.0, 983.0, 983.0, 983.0, 983.0, 983.0, 983.0, 983.0, 983.0, 983.0, 983.0, 983.0, 984.0, 983.0, 983.0, 983.0, 983.0, 983.0, 983.0, 983.0, 983.0, 983.0, 983.0, 983.0, 983.0, 983.0, 983.0, 983.0, 983.0, 983.0, 983.0, 983.0, 983.0, 983.0, 983.0, 983.0, 983.0, 983.0, 983.0, 983.0, 983.0, 983.0, 983.0, 983.0, 983.0, 983.0, 983.0, 983.0, 983.0, 983.0, 982.0, 983.0, 983.0, 983.0, 983.0, 983.0],
      "WindowWidth": [2347.0, 2347.0, 2347.0, 2347.0, 2347.0, 2347.0, 2347.0, 2347.0, 2347.0, 2347.0, 2347.0, 2347.0, 2347.0, 2347.0, 2347.0, 2347.0, 2347.0, 2347.0, 2347.0, 2347.0, 2347.0, 2347.0, 2347.0, 2347.0, 2347.0, 2347.0, 2347.0, 2348.0, 2347.0, 2348.0, 2347.0, 2347.0, 2347.0, 2347.0, 2347.0, 2348.0, 2347.0, 2347.0, 2347.0, 2347.0, 2347.0, 2347.0, 2347.0, 2347.0, 2347.0, 2347.0, 2347.0, 2347.0, 2347.0, 2347.0, 2347.0, 2347.0, 2347.0, 2347.0, 2347.0, 2347.0, 2347.0, 2347.0, 2347.0, 2347.0, 2347.0, 2347.0, 2347.0, 2347.0, 2347.0, 2347.0, 2347.0, 2347.0, 2347.0, 2347.0, 2347.0, 2347.0, 2347.0, 2347.0, 2347.0, 2347.0, 2347.0, 2347.0, 2347.0, 2347.0, 2347.0, 2347.0, 2347.0, 2346.0, 2347.0, 2347.0, 2347.0, 2347.0, 2347.0, 2347.0, 2347.0, 2347.0, 2347.0, 2347.0, 2347.0, 2347.0, 2347.0, 2347.0, 2347.0, 2347.0, 2347.0, 2348.0, 2347.0, 2347.0, 2347.0, 2347.0, 2347.0, 2346.0, 2347.0, 2347.0, 2347.0, 2347.0, 2347.0, 2347.0, 2347.0, 2347.0, 2347.0, 2347.0, 2347.0, 2346.0, 2346.0, 2346.0, 2345.0, 2346.0, 2346.0, 2345.0, 2346.0, 2345.0, 2345.0, 2346.0, 2346.0, 2346.0, 2345.0, 2347.0, 2348.0, 2347.0, 2345.0, 2345.0, 2346.0, 2345.0, 2345.0, 2345.0, 2345.0, 2345.0, 2346.0, 2346.0, 2345.0, 2345.0, 2345.0, 2345.0, 2345.0, 2345.0, 2345.0, 2345.0, 2345.0, 2345.0, 2346.0, 2345.0, 2345.0, 2345.0, 2345.0, 2345.0, 2345.0, 2345.0, 2345.0, 2345.0, 2345.0, 2345.0, 2345.0, 2345.0, 2345.0, 2345.0, 2345.0, 2345.0, 2345.0, 2345.0, 2345.0, 2345.0, 2345.0, 2345.0, 2345.0, 2345.0, 2345.0, 2345.0, 2345.0, 2345.0, 2345.0, 2345.0, 2345.0, 2345.0, 2345.0, 2345.0, 2345.0, 2345.0, 2345.0, 2345.0, 2345.0, 2345.0, 2345.0, 2345.0]
    },
    "slices": {}
  }
}