{
  "AcquisitionMatrixPE": 80,
  "AcquisitionNumber": 1,
  "AcquisitionTime": "11:22:39.502500",
  "BandwidthPerPixelPhaseEncode": 48.077,
  "BaseResolution": 80,
  "BodyPartExamined": "BRAIN",
  "CoilCombinationMethod": "Sum of Squares",
  "ConsistencyInfo": "N4_VE11C_LATEST_20160120",
  "ConversionSoftware": "dcm2niix",
  "ConversionSoftwareVersion": "v1.0.20220720",
  "DerivedVendorReportedEchoSpacing": 0.000519999,
  "DeviceSerialNumber": "66112",
  "DwellTime": 2.7e-06,
  "EchoTime": 0.035,
  "EchoTrainLength": 39,
  "EffectiveEchoSpacing": 0.00026,
  "FlipAngle": 90,
  "HeudiconvVersion": "0.13.1",
  "ImageOrientationPatientDICOM": [0.986409, 0.16418, 0.00642461, -0.157997, 0.937078, 0.311322],
  "ImageOrientationText": "Tra>Cor(18.0)>Sag(-2.6)",
  "ImageType": [
    "ORIGINAL",
    "PRIMARY",
    "M",
    "ND",
    "NORM",
    "MOSAIC"
],
  "ImagingFrequency": 123.252,
  "InPlanePhaseEncodingDirectionDICOM": "COL",
  "InstitutionAddress": "Maynard 3,Hanover,NH,US,03755",
  "InstitutionName": "Dartmouth College - PBS",
  "InstitutionalDepartmentName": "Department",
  "MRAcquisitionType": "2D",
  "MagneticFieldStrength": 3,
  "Manufacturer": "Siemens",
  "ManufacturersModelName": "Prisma",
  "MatrixCoilMode": "GRAPPA",
  "Modality": "MR",
  "NonlinearGradientCorrection": false,
  "ParallelReductionFactorInPlane": 2,
  "PartialFourier": 1,
  "PatientPosition": "HFS",
  "PercentPhaseFOV": 100,
  "PercentSampling": 100,
  "PhaseEncodingDirection": "j-",
  "PhaseEncodingSteps": 79,
  "PhaseResolution": 1,
  "PixelBandwidth": 2315,
  "ProcedureStepDescription": "dbic^QA",
  "ProtocolName": "func-bold_task-rest_acq-p2",
  "PulseSequenceDetails": "%SiemensSeq%\\ep2d_bold",
  "ReceiveCoilActiveElements": "HEA;HEP",
  "ReceiveCoilName": "Head_32",
  "ReconMatrixPE": 80,
  "RefLinesPE": 24,
  "RepetitionTime": 2,
  "SAR": 0.0474904,
  "ScanOptions": "FS",
  "ScanningSequence": "EP",
  "SequenceName": "*epfid2d1_80",
  "SequenceVariant": "SK",
  "SeriesDescription": "func-bold_task-rest_acq-p2",
  "SeriesNumber": 5,
  "ShimSetting": [4142, -7701, -7534, 223, -57, -63, -17, 48],
  "SliceThickness": 3.5,
  "SliceTiming": [0.99, 0, 1.055, 0.065, 1.12, 0.1325, 1.1875, 0.1975, 1.2525, 0.2625, 1.32, 0.33, 1.385, 0.395, 1.45, 0.46, 1.5175, 0.5275, 1.5825, 0.5925, 1.65, 0.66, 1.715, 0.725, 1.78, 0.79, 1.8475, 0.8575, 1.9125, 0.9225],
  "SoftwareVersions": "syngo MR E11",
  "SpacingBetweenSlices": 3.99,
  "StationName": "AWP66112",
  "TaskName": "rest",
  "TotalReadoutTime": 0.02054,
  "TxRefAmp": 218.131,
  "dcmmeta_affine": [
    [-2.959228277206421, -0.4739917516708374, -0.17991940677165985, 141.46974182128906],
    [-0.4925411343574524, 2.811234712600708, 1.2293425798416138, -106.74151611328125],
    [0.019273824989795685, -0.9339656233787537, 3.791628360748291, -20.716455459594727],
    [0.0, 0.0, 0.0, 1.0]
],
  "dcmmeta_reorient_transform": [
    [0.0, -1.0, 0.0, 79.0],
    [1.0, 0.0, 0.0, 0.0],
    [0.0, 0.0, 1.0, 0.0],
    [0.0, 0.0, 0.0, 1.0]
],
  "dcmmeta_shape": [80, 80, 30, 200],
  "dcmmeta_slice_dim": 2,
  "dcmmeta_version": 0.6,
  "global": {
    "const": {
      "AccessionNumber": "qa",
      "AcquisitionMatrix": [80, 0, 0, 80],
      "AngioFlag": "N",
      "BitsAllocated": 16,
      "BitsStored": 12,
      "BodyPartExamined": "BRAIN",
      "Columns": 480,
      "EchoNumbers": 1,
      "EchoTime": 35.0,
      "EchoTrainLength": 39,
      "FlipAngle": 90.0,
      "HighBit": 11,
      "ImageOrientationPatient": [0.98640941138946, 0.16418038106687, 0.00642460855084, -0.1579972528491, 0.93707819988572, 0.31132188389363],
      "ImagePositionPatient": [-601.07169431554, -776.1011665366, -285.14763752388],
      "ImageType": [
        "ORIGINAL",
        "PRIMARY",
        "M",
        "ND",
        "NORM",
        "MOSAIC"
],
      "ImagedNucleus": "1H",
      "ImagingFrequency": 123.252355,
      "InPlanePhaseEncodingDirection": "COL",
      "MRAcquisitionType": "2D",
      "MagneticFieldStrength": 3.0,
      "Manufacturer": "SIEMENS",
      "ManufacturerModelName": "Prisma",
      "Modality": "MR",
      "NumberOfAverages": 1.0,
      "NumberOfPhaseEncodingSteps": 79,
      "PercentPhaseFieldOfView": 100.0,
      "PercentSampling": 100.0,
      "PerformedProcedureStepStartTime": "111737.894000",
      "PhotometricInterpretation": "MONOCHROME2",
      "PixelBandwidth": 2315.0,
      "PixelRepresentation": 0,
      "PixelSpacing": [3.0, 3.0],
      "ProtocolName": "func-bold_task-rest_acq-p2",
      "RepetitionTime": 2000.0,
      "Rows": 480,
      "SAR": 0.04749039039798,
      "SamplesPerPixel": 1,
      "ScanOptions": "FS",
      "ScanningSequence": "EP",
      "SequenceName": "*epfid2d1_80",
      "SequenceVariant": "SK",
      "SeriesDescription": "func-bold_task-rest_acq-p2",
      "SeriesNumber": 5,
      "SeriesTime": "112327.344000",
      "SliceLocation": -58.953419530049,
      "SliceThickness": 3.5,
      "SmallestImagePixelValue": 0,
      "SoftwareVersions": "syngo MR E11",
      "SpacingBetweenSlices": 3.9899999500112,
      "SpecificCharacterSet": "ISO_IR 100",
      "StudyID": "42",
      "StudyTime": "111737.843000",
      "TransmitCoilName": "Body",
      "VariableFlipAngleFlag": "N",
      "WindowCenterWidthExplanation": "Algo1",
      "dBdt": 0.0},
    "slices": {}
  },
  "time": {
    "samples": {
      "AcquisitionNumber": [1, 2, 3, 4, 5, 6, 7, 8, 9, 10, 11, 12, 13, 14, 15, 16, 17, 18, 19, 20, 21, 22, 23, 24, 25, 26, 27, 28, 29, 30, 31, 32, 33, 34, 35, 36, 37, 38, 39, 40, 41, 42, 43, 44, 45, 46, 47, 48, 49, 50, 51, 52, 53, 54, 55, 56, 57, 58, 59, 60, 61, 62, 63, 64, 65, 66, 67, 68, 69, 70, 71, 72, 73, 74, 75, 76, 77, 78, 79, 80, 81, 82, 83, 84, 85, 86, 87, 88, 89, 90, 91, 92, 93, 94, 95, 96, 97, 98, 99, 100, 101, 102, 103, 104, 105, 106, 107, 108, 109, 110, 111, 112, 113, 114, 115, 116, 117, 118, 119, 120, 121, 122, 123, 124, 125, 126, 127, 128, 129, 130, 131, 132, 133, 134, 135, 136, 137, 138, 139, 140, 141, 142, 143, 144, 145, 146, 147, 148, 149, 150, 151, 152, 153, 154, 155, 156, 157, 158, 159, 160, 161, 162, 163, 164, 165, 166, 167, 168, 169, 170, 171, 172, 173, 174, 175, 176, 177, 178, 179, 180, 181, 182, 183, 184, 185, 186, 187, 188, 189, 190, 191, 192, 193, 194, 195, 196, 197, 198, 199, 200],
      "AcquisitionTime": ["112239.502500", "112241.502500", "112243.502500", "112245.502500", "112247.502500", "112249.502500", "112251.502500", "112253.502500", "112255.502500", "112257.502500", "112259.502500", "112301.502500", "112303.502500", "112305.502500", "112307.502500", "112309.502500", "112311.502500", "112313.502500", "112315.502500", "112317.502500", "112319.502500", "112321.502500", "112323.502500", "112325.502500", "112327.502500", "112329.502500", "112331.502500", "112333.502500", "112335.502500", "112337.502500", "112339.502500", "112341.502500", "112343.502500", "112345.502500", "112347.502500", "112349.502500", "112351.502500", "112353.502500", "112355.502500", "112357.502500", "112359.502500", "112401.502500", "112403.502500", "112405.502500", "112407.502500", "112409.502500", "112411.502500", "112413.502500", "112415.502500", "112417.502500", "112419.502500", "112421.502500", "112423.502500", "112425.502500", "112427.502500", "112429.502500", "112431.502500", "112433.502500", "112435.502500", "112437.502500", "112439.502500", "112441.502500", "112443.502500", "112445.502500", "112447.502500", "112449.502500", "112451.502500", "112453.502500", "112455.502500", "112457.502500", "112459.502500", "112501.502500", "112503.502500", "112505.502500", "112507.502500", "112509.502500", "112511.502500", "112513.502500", "112515.502500", "112517.502500", "112519.502500", "112521.502500", "112523.502500", "112525.502500", "112527.502500", "112529.502500", "112531.502500", "112533.502500", "112535.502500", "112537.502500", "112539.502500", "112541.502500", "112543.502500", "112545.502500", "112547.502500", "112549.502500", "112551.502500", "112553.502500", "112555.502500", "112557.502500", "112559.502500", "112601.502500", "112603.502500", "112605.502500", "112607.502500", "112609.502500", "112611.502500", "112613.502500", "112615.502500", "112617.502500", "112619.502500", "112621.502500", "112623.502500", "112625.502500", "112627.502500", "112629.502500", "112631.502500", "112633.502500", "112635.502500", "112637.502500", "112639.502500", "112641.502500", "112643.502500", "112645.502500", "112647.502500", "112649.502500", "112651.502500", "112653.502500", "112655.502500", "112657.502500", "112659.502500", "112701.502500", "112703.502500", "112705.502500", "112707.502500", "112709.502500", "112711.502500", "112713.502500", "112715.502500", "112717.502500", "112719.502500", "112721.502500", "112723.502500", "112725.502500", "112727.502500", "112729.502500", "112731.502500", "112733.502500", "112735.502500", "112737.502500", "112739.502500", "112741.502500", "112743.502500", "112745.502500", "112747.502500", "112749.502500", "112751.502500", "112753.502500", "112755.502500", "112757.502500", "112759.502500", "112801.502500", "112803.502500", "112805.502500", "112807.502500", "112809.502500", "112811.502500", "112813.502500", "112815.502500", "112817.502500", "112819.502500", "112821.502500", "112823.502500", "112825.502500", "112827.502500", "112829.502500", "112831.502500", "112833.502500", "112835.502500", "112837.502500", "112839.502500", "112841.502500", "112843.502500", "112845.502500", "112847.502500", "112849.502500", "112851.502500", "112853.502500", "112855.502500", "112857.502500", "112859.502500", "112901.502500", "112903.502500", "112905.502500", "112907.502500", "112909.502500", "112911.502500", "112913.502500", "112915.502500", "112917.502500"],
      "ContentTime": ["112327.348000", "112327.351000", "112327.354000", "112327.364000", "112327.366000", "112327.369000", "112327.372000", "112327.374000", "112327.377000", "112327.379000", "112327.382000", "112327.385000", "112327.387000", "112327.390000", "112327.392000", "112327.395000", "112327.398000", "112327.400000", "112327.403000", "112327.405000", "112327.408000", "112327.411000", "112327.413000", "112327.416000", "112407.343000", "112407.345000", "112407.348000", "112407.351000", "112407.353000", "112407.356000", "112407.359000", "112407.361000", "112407.364000", "112407.366000", "112407.369000", "112407.372000", "112407.374000", "112407.377000", "112407.379000", "112407.382000", "112407.385000", "112407.387000", "112407.390000", "112407.392000", "112447.342000", "112447.345000", "112447.348000", "112447.351000", "112447.353000", "112447.356000", "112447.359000", "112447.361000", "112447.364000", "112447.366000", "112447.369000", "112447.372000", "112447.374000", "112447.377000", "112447.379000", "112447.382000", "112447.385000", "112447.387000", "112447.402000", "112447.404000", "112527.343000", "112527.345000", "112527.348000", "112527.351000", "112527.353000", "112527.356000", "112527.359000", "112527.361000", "112527.364000", "112527.366000", "112527.369000", "112527.372000", "112527.374000", "112527.377000", "112527.380000", "112527.382000", "112527.385000", "112527.387000", "112527.390000", "112527.393000", "112607.343000", "112607.345000", "112607.348000", "112607.351000", "112607.353000", "112607.356000", "112607.359000", "112607.361000", "112607.364000", "112607.366000", "112607.369000", "112607.372000", "112607.374000", "112607.377000", "112607.379000", "112607.382000", "112607.385000", "112607.387000", "112607.390000", "112607.392000", "112647.342000", "112647.344000", "112647.347000", "112647.350000", "112647.352000", "112647.355000", "112647.358000", "112647.360000", "112647.364000", "112647.366000", "112647.369000", "112647.372000", "112647.374000", "112647.377000", "112647.379000", "112647.382000", "112647.385000", "112647.387000", "112647.390000", "112647.392000", "112727.343000", "112727.345000", "112727.348000", "112727.351000", "112727.353000", "112727.356000", "112727.359000", "112727.361000", "112727.364000", "112727.367000", "112727.369000", "112727.372000", "112727.375000", "112727.377000", "112727.380000", "112727.382000", "112727.385000", "112727.388000", "112727.390000", "112727.393000", "112807.343000", "112807.346000", "112807.353000", "112807.356000", "112807.359000", "112807.361000", "112807.364000", "112807.367000", "112807.369000", "112807.372000", "112807.375000", "112807.377000", "112807.380000", "112807.382000", "112807.385000", "112807.388000", "112807.390000", "112807.393000", "112807.395000", "112807.398000", "112847.342000", "112847.345000", "112847.348000", "112847.351000", "112847.353000", "112847.356000", "112847.359000", "112847.361000", "112847.364000", "112847.366000", "112847.369000", "112847.372000", "112847.374000", "112847.377000", "112847.380000", "112847.382000", "112847.385000", "112847.388000", "112847.390000", "112847.393000", "112919.119000", "112919.122000", "112919.129000", "112919.131000", "112919.134000", "112919.137000", "112919.139000", "112919.142000", "112919.145000", "112919.147000", "112919.157000", "112919.160000", "112919.163000", "112919.166000", "112919.173000", "112919.178000"],
      "InstanceCreationTime": ["112327.348000", "112327.351000", "112327.354000", "112327.364000", "112327.366000", "112327.369000", "112327.372000", "112327.374000", "112327.377000", "112327.379000", "112327.382000", "112327.385000", "112327.387000", "112327.390000", "112327.392000", "112327.395000", "112327.398000", "112327.400000", "112327.403000", "112327.405000", "112327.408000", "112327.411000", "112327.413000", "112327.416000", "112407.343000", "112407.345000", "112407.348000", "112407.351000", "112407.353000", "112407.356000", "112407.359000", "112407.361000", "112407.364000", "112407.366000", "112407.369000", "112407.372000", "112407.374000", "112407.377000", "112407.379000", "112407.382000", "112407.385000", "112407.387000", "112407.390000", "112407.392000", "112447.342000", "112447.345000", "112447.348000", "112447.351000", "112447.353000", "112447.356000", "112447.359000", "112447.361000", "112447.364000", "112447.366000", "112447.369000", "112447.372000", "112447.374000", "112447.377000", "112447.379000", "112447.382000", "112447.385000", "112447.387000", "112447.402000", "112447.404000", "112527.343000", "112527.345000", "112527.348000", "112527.351000", "112527.353000", "112527.356000", "112527.359000", "112527.361000", "112527.364000", "112527.366000", "112527.369000", "112527.372000", "112527.374000", "112527.377000", "112527.380000", "112527.382000", "112527.385000", "112527.387000", "112527.390000", "112527.393000", "112607.343000", "112607.345000", "112607.348000", "112607.351000", "112607.353000", "112607.356000", "112607.359000", "112607.361000", "112607.364000", "112607.366000", "112607.369000", "112607.372000", "112607.374000", "112607.377000", "112607.379000", "112607.382000", "112607.385000", "112607.387000", "112607.390000", "112607.392000", "112647.342000", "112647.344000", "112647.347000", "112647.350000", "112647.352000", "112647.355000", "112647.358000", "112647.360000", "112647.364000", "112647.366000", "112647.369000", "112647.372000", "112647.374000", "112647.377000", "112647.379000", "112647.382000", "112647.385000", "112647.387000", "112647.390000", "112647.392000", "112727.343000", "112727.345000", "112727.348000", "112727.351000", "112727.353000", "112727.356000", "112727.359000", "112727.361000", "112727.364000", "112727.367000", "112727.369000", "112727.372000", "112727.375000", "112727.377000", "112727.380000", "112727.382000", "112727.385000", "112727.388000", "112727.390000", "112727.393000", "112807.343000", "112807.346000", "112807.353000", "112807.356000", "112807.359000", "112807.361000", "112807.364000", "112807.367000", "112807.369000", "112807.372000", "112807.375000", "112807.377000", "112807.380000", "112807.382000", "112807.385000", "112807.388000", "112807.390000", "112807.393000", "112807.395000", "112807.398000", "112847.342000", "112847.345000", "112847.348000", "112847.351000", "112847.353000", "112847.356000", "112847.359000", "112847.361000", "112847.364000", "112847.366000", "112847.369000", "112847.372000", "112847.374000", "112847.377000", "112847.380000", "112847.382000", "112847.385000", "112847.388000", "112847.390000", "112847.393000", "112919.119000", "112919.122000", "112919.129000", "112919.131000", "112919.134000", "112919.137000", "112919.139000", "112919.142000", "112919.145000", "112919.147000", "112919.157000", "112919.160000", "112919.163000", "112919.166000", "112919.173000", "112919.178000"],
      "InstanceNumber": [1, 2, 3, 4, 5, 6, 7, 8, 9, 10, 11, 12, 13, 14, 15, 16, 17, 18, 19, 20, 21, 22, 23, 24, 25, 26, 27, 28, 29, 30, 31, 32, 33, 34, 35, 36, 37, 38, 39, 40, 41, 42, 43, 44, 45, 46, 47, 48, 49, 50, 51, 52, 53, 54, 55, 56, 57, 58, 59, 60, 61, 62, 63, 64, 65, 66, 67, 68, 69, 70, 71, 72, 73, 74, 75, 76, 77, 78, 79, 80, 81, 82, 83, 84, 85, 86, 87, 88, 89, 90, 91, 92, 93, 94, 95, 96, 97, 98, 99, 100, 101, 102, 103, 104, 105, 106, 107, 108, 109, 110, 111, 112, 113, 114, 115, 116, 117, 118, 119, 120, 121, 122, 123, 124, 125, 126, 127, 128, 129, 130, 131, 132, 133, 134, 135, 136, 137, 138, 139, 140, 141, 142, 143, 144, 145, 146, 147, 148, 149, 150, 151, 152, 153, 154, 155, 156, 157, 158, 159, 160, 161, 162, 163, 164, 165, 166, 167, 168, 169, 170, 171, 172, 173, 174, 175, 176, 177, 178, 179, 180, 181, 182, 183, 184, 185, 186, 187, 188, 189, 190, 191, 192, 193, 194, 195, 196, 197, 198, 199, 200],
      "LargestImagePixelValue": [2493, 2497, 2495, 2491, 2501, 2495, 2495, 2489, 2493, 2489, 2484, 2494, 2491, 2492, 2492, 2494, 2489, 2497, 2490, 2488, 2488, 2486, 2495, 2489, 2486, 2490, 2492, 2495, 2494, 2488, 2495, 2489, 2490, 2490, 2493, 2489, 2484, 2487, 2490, 2496, 2488, 2487, 2489, 2488, 2493, 2493, 2498, 2480, 2488, 2486, 2482, 2488, 2487, 2489, 2489, 2487, 2488, 2490, 2489, 2488, 2481, 2483, 2480, 2490, 2485, 2486, 2484, 2479, 2486, 2489, 2479, 2484, 2486, 2480, 2487, 2478, 2485, 2488, 2486, 2483, 2486, 2485, 2477, 2479, 2484, 2478, 2486, 2482, 2486, 2481, 2489, 2489, 2487, 2484, 2481, 2479, 2482, 2484, 2475, 2481, 2482, 2481, 2485, 2486, 2476, 2477, 2485, 2482, 2475, 2482, 2479, 2478, 2483, 2475, 2480, 2483, 2485, 2482, 2476, 2481, 2483, 2482, 2482, 2480, 2491, 2488, 2488, 2491, 2483, 2482, 2487, 2482, 2475, 2486, 2484, 2485, 2485, 2484, 2483, 2483, 2484, 2485, 2487, 2477, 2486, 2484, 2484, 2478, 2484, 2476, 2480, 2481, 2484, 2483, 2482, 2479, 2481, 2481, 2475, 2482, 2480, 2489, 2484, 2478, 2477, 2478, 2488, 2483, 2484, 2487, 2481, 2483, 2482, 2481, 2489, 2481, 2483, 2476, 2478, 2482, 2485, 2480, 2477, 2476, 2482, 2480, 2477, 2489, 2482, 2478, 2479, 2489, 2483, 2481, 2480, 2476, 2480, 2483, 2482, 2477],
      "WindowCenter": [1071.0, 1070.0, 1070.0, 1070.0, 1070.0, 1070.0, 1070.0, 1070.0, 1070.0, 1070.0, 1070.0, 1070.0, 1070.0, 1070.0, 1070.0, 1070.0, 1070.0, 1070.0, 1070.0, 1070.0, 1070.0, 1070.0, 1070.0, 1070.0, 1070.0, 1070.0, 1070.0, 1070.0, 1070.0, 1070.0, 1070.0, 1070.0, 1070.0, 1070.0, 1070.0, 1070.0, 1070.0, 1070.0, 1070.0, 1070.0, 1070.0, 1070.0, 1070.0, 1070.0, 1070.0, 1070.0, 1070.0, 1070.0, 1070.0, 1070.0, 1070.0, 1070.0, 1070.0, 1070.0, 1070.0, 1070.0, 1070.0, 1070.0, 1070.0, 1070.0, 1070.0, 1070.0, 1070.0, 1070.0, 1070.0, 1070.0, 1070.0, 1070.0, 1070.0, 1070.0, 1070.0, 1070.0, 1070.0, 1070.0, 1070.0, 1070.0, 1070.0, 1070.0, 1070.0, 1070.0, 1070.0, 1070.0, 1070.0, 1069.0, 1069.0, 1070.0, 1070.0, 1070.0, 1069.0, 1070.0, 1070.0, 1070.0, 1070.0, 1070.0, 1070.0, 1070.0, 1070.0, 1070.0, 1070.0, 1070.0, 1070.0, 1070.0, 1070.0, 1069.0, 1070.0, 1069.0, 1070.0, 1069.0, 1069.0, 1069.0, 1069.0, 1069.0, 1069.0, 1069.0, 1069.0, 1069.0, 1069.0, 1069.0, 1069.0, 1069.0, 1069.0, 1070.0, 1069.0, 1070.0, 1069.0, 1069.0, 1069.0, 1070.0, 1070.0, 1070.0, 1070.0, 1069.0, 1069.0, 1070.0, 1070.0, 1070.0, 1069.0, 1070.0, 1070.0, 1070.0, 1070.0, 1070.0, 1069.0, 1070.0, 1069.0, 1069.0, 1070.0, 1070.0, 1069.0, 1069.0, 1069.0, 1069.0, 1069.0, 1069.0, 1069.0, 1069.0, 1069.0, 1069.0, 1069.0, 1069.0, 1069.0, 1069.0, 1069.0, 1069.0, 1069.0, 1069.0, 1069.0, 1069.0, 1069.0, 1069.0, 1069.0, 1069.0, 1069.0, 1069.0, 1069.0, 1069.0, 1069.0, 1069.0, 1069.0, 1069.0, 1069.0, 1069.0, 1069.0, 1069.0, 1069.0, 1069.0, 1069.0, 1069.0, 1069.0, 1069.0, 1069.0, 1069.0, 1069.0, 1069.0, 1069.0, 1069.0, 1069.0, 1069.0, 1069.0, 1069.0],
      "WindowWidth": [2420.0, 2419.0, 2419.0, 2419.0, 2419.0, 2419.0, 2419.0, 2419.0, 2418.0, 2418.0, 2418.0, 2418.0, 2418.0, 2418.0, 2418.0, 2418.0, 2418.0, 2418.0, 2418.0, 2418.0, 2418.0, 2418.0, 2418.0, 2418.0, 2418.0, 2418.0, 2418.0, 2418.0, 2418.0, 2418.0, 2418.0, 2418.0, 2418.0, 2417.0, 2418.0, 2418.0, 2418.0, 2418.0, 2418.0, 2417.0, 2418.0, 2418.0, 2418.0, 2418.0, 2417.0, 2417.0, 2418.0, 2417.0, 2417.0, 2417.0, 2417.0, 2417.0, 2417.0, 2417.0, 2417.0, 2417.0, 2417.0, 2417.0, 2417.0, 2417.0, 2417.0, 2417.0, 2417.0, 2417.0, 2417.0, 2417.0, 2417.0, 2417.0, 2417.0, 2417.0, 2417.0, 2417.0, 2417.0, 2417.0, 2417.0, 2417.0, 2417.0, 2417.0, 2417.0, 2417.0, 2417.0, 2417.0, 2417.0, 2417.0, 2417.0, 2417.0, 2417.0, 2417.0, 2417.0, 2417.0, 2416.0, 2416.0, 2416.0, 2416.0, 2416.0, 2416.0, 2416.0, 2416.0, 2416.0, 2416.0, 2416.0, 2416.0, 2416.0, 2416.0, 2416.0, 2416.0, 2416.0, 2416.0, 2416.0, 2416.0, 2416.0, 2416.0, 2416.0, 2416.0, 2415.0, 2416.0, 2415.0, 2416.0, 2416.0, 2416.0, 2417.0, 2416.0, 2417.0, 2417.0, 2417.0, 2417.0, 2417.0, 2417.0, 2417.0, 2417.0, 2417.0, 2417.0, 2417.0, 2417.0, 2417.0, 2417.0, 2418.0, 2417.0, 2417.0, 2417.0, 2417.0, 2417.0, 2417.0, 2417.0, 2417.0, 2417.0, 2417.0, 2417.0, 2417.0, 2417.0, 2417.0, 2417.0, 2417.0, 2417.0, 2417.0, 2416.0, 2417.0, 2416.0, 2417.0, 2417.0, 2417.0, 2417.0, 2416.0, 2416.0, 2416.0, 2416.0, 2416.0, 2416.0, 2416.0, 2416.0, 2416.0, 2416.0, 2416.0, 2416.0, 2416.0, 2416.0, 2416.0, 2416.0, 2416.0, 2416.0, 2416.0, 2415.0, 2416.0, 2415.0, 2416.0, 2415.0, 2415.0, 2416.0, 2415.0, 2415.0, 2415.0, 2415.0, 2415.0, 2415.0, 2415.0, 2415.0, 2415.0, 2415.0, 2416.0, 2415.0]
    },
    "slices": {}
  }
}