{
  "AcquisitionMatrixPE": 122,
  "AcquisitionNumber": 1,
  "AcquisitionTime": "10:17:33.452500",
  "BandwidthPerPixelPhaseEncode": 27.785,
  "BaseResolution": 122,
  "BodyPartExamined": "BRAIN",
  "CoilCombinationMethod": "Adaptive Combine",
  "ConsistencyInfo": "N4_VE11C_LATEST_20160120",
  "ConversionSoftware": "dcm2niix",
  "ConversionSoftwareVersion": "v1.0.20220720",
  "DerivedVendorReportedEchoSpacing": 0.000590011,
  "DeviceSerialNumber": "66112",
  "DiffusionScheme": "Monopolar",
  "DwellTime": 2e-06,
  "EchoTime": 0.068,
  "EchoTrainLength": 61,
  "EffectiveEchoSpacing": 0.000295005,
  "FlipAngle": 90,
  "HeudiconvVersion": "0.13.1",
  "ImageOrientationPatientDICOM": [0.986317, 0.164539, 0.0103101, -0.159925, 0.939717, 0.302251],
  "ImageOrientationText": "Tra>Cor(17.5)>Sag(-2.3)",
  "ImageType": [
    "ORIGINAL",
    "PRIMARY",
    "DIFFUSION",
    "NONE",
    "ND",
    "NORM"
],
  "ImagingFrequency": 123.252,
  "InPlanePhaseEncodingDirectionDICOM": "COL",
  "InstitutionAddress": "Maynard 3,Hanover,NH,US,03755",
  "InstitutionName": "Dartmouth College - PBS",
  "InstitutionalDepartmentName": "Department",
  "MRAcquisitionType": "2D",
  "MagneticFieldStrength": 3,
  "Manufacturer": "Siemens",
  "ManufacturersModelName": "Prisma",
  "Modality": "MR",
  "MultibandAccelerationFactor": 4,
  "NonlinearGradientCorrection": false,
  "ParallelReductionFactorInPlane": 2,
  "PartialFourier": 1,
  "PatientPosition": "HFS",
  "PercentPhaseFOV": 100,
  "PercentSampling": 100,
  "PhaseEncodingDirection": "j-",
  "PhaseEncodingSteps": 122,
  "PhaseResolution": 1,
  "PixelBandwidth": 2050,
  "ProcedureStepDescription": "dbic^QA",
  "ProtocolName": "dwi_acq-DTI-30-p2-s4",
  "PulseSequenceDetails": "%SiemensSeq%\\ep2d_diff",
  "ReceiveCoilActiveElements": "HEA;HEP",
  "ReceiveCoilName": "Head_32",
  "ReconMatrixPE": 122,
  "RefLinesPE": 38,
  "RepetitionTime": 3.6,
  "SAR": 0.160785,
  "ScanOptions": "FS",
  "ScanningSequence": "EP",
  "SequenceName": "*ep_b0",
  "SequenceVariant": "SK\\SP",
  "SeriesDescription": "dwi_acq-DTI-30-p2-s4",
  "SeriesNumber": 9,
  "ShimSetting": [4145, -7683, -7510, 346, -32, -246, -73, 58],
  "SliceThickness": 2,
  "SliceTiming": [2.58594, 0, 1.78906, 0.20312, 1.99219, 0.39844, 2.1875, 0.60156, 2.39062, 0.99219, 2.78906, 1.19531, 2.98438, 1.39062, 3.17969, 1.59375, 3.38281, 0.79688, 2.58594, 0, 1.78906, 0.20312, 1.99219, 0.39844, 2.1875, 0.60156, 2.39062, 0.99219, 2.78906, 1.19531, 2.98438, 1.39062, 3.17969, 1.59375, 3.38281, 0.79688, 2.58594, 0, 1.78906, 0.20312, 1.99219, 0.39844, 2.1875, 0.60156, 2.39062, 0.99219, 2.78906, 1.19531, 2.98438, 1.39062, 3.17969, 1.59375, 3.38281, 0.79688, 2.58594, 0, 1.78906, 0.20312, 1.99219, 0.39844, 2.1875, 0.60156, 2.39062, 0.99219, 2.78906, 1.19531, 2.98438, 1.39062, 3.17969, 1.59375, 3.38281, 0.79688],
  "SoftwareVersions": "syngo MR E11",
  "SpacingBetweenSlices": 2,
  "SpoilingState": true,
  "StationName": "AWP66112",
  "TotalReadoutTime": 0.0356956,
  "TxRefAmp": 227.07,
  "dcmmeta_affine": [
    [-1.9402949810028076, -0.31460681557655334, -0.08008730411529541, 143.93463134765625],
    [-0.3236842453479767, 1.8486238718032837, 0.5995292663574219, -112.3178482055664],
    [0.020282169803977013, -0.5945923924446106, 1.9063453674316406, -38.73915481567383],
    [0.0, 0.0, 0.0, 1.0]
],
  "dcmmeta_reorient_transform": [
    [0.0, -1.0, 0.0, 121.0],
    [1.0, 0.0, 0.0, 0.0],
    [0.0, 0.0, -1.0, 71.0],
    [0.0, 0.0, 0.0, 1.0]
],
  "dcmmeta_shape": [122, 122, 72, 31],
  "dcmmeta_slice_dim": 2,
  "dcmmeta_version": 0.6,
  "global": {
    "const": {
      "AccessionNumber": "qa",
      "AcquisitionMatrix": [122, 0, 0, 122],
      "AngioFlag": "N",
      "BitsAllocated": 16,
      "BitsStored": 12,
      "BodyPartExamined": "BRAIN",
      "Columns": 122,
      "EchoNumbers": 1,
      "EchoTime": 68.0,
      "EchoTrainLength": 61,
      "FlipAngle": 90.0,
      "HighBit": 11,
      "ImageOrientationPatient": [0.98631661199551, 0.16453948672285, 0.01031010236007, -0.1599251250704, 0.93971708847568, 0.30225113398963],
      "ImageType": [
        "ORIGINAL",
        "PRIMARY",
        "DIFFUSION",
        "NONE",
        "ND",
        "NORM"
],
      "ImagedNucleus": "1H",
      "ImagingFrequency": 123.25245,
      "InPlanePhaseEncodingDirection": "COL",
      "MRAcquisitionType": "2D",
      "MagneticFieldStrength": 3.0,
      "Manufacturer": "SIEMENS",
      "ManufacturerModelName": "Prisma",
      "Modality": "MR",
      "NumberOfAverages": 1.0,
      "NumberOfPhaseEncodingSteps": 122,
      "PercentPhaseFieldOfView": 100.0,
      "PercentSampling": 100.0,
      "PerformedProcedureStepStartTime": "094054.650000",
      "PhotometricInterpretation": "MONOCHROME2",
      "PixelBandwidth": 2050.0,
      "PixelRepresentation": 0,
      "PixelSpacing": [1.9672131538391, 1.9672131538391],
      "ProtocolName": "dwi_acq-DTI-30-p2-s4",
      "RepetitionTime": 3600.0,
      "Rows": 122,
      "SAR": 0.16078505142113,
      "SamplesPerPixel": 1,
      "ScanOptions": "FS",
      "ScanningSequence": "EP",
      "SequenceVariant": [
        "SK",
        "SP"
],
      "SeriesDescription": "dwi_acq-DTI-30-p2-s4",
      "SeriesNumber": 9,
      "SeriesTime": "101742.805000",
      "SliceThickness": 2.0,
      "SmallestImagePixelValue": 0,
      "SoftwareVersions": "syngo MR E11",
      "SpacingBetweenSlices": 2.0,
      "SpecificCharacterSet": "ISO_IR 100",
      "StudyID": "15",
      "StudyTime": "094054.562000",
      "TransmitCoilName": "Body",
      "VariableFlipAngleFlag": "N",
      "WindowCenterWidthExplanation": "Algo1",
      "dBdt": 0.0},
    "slices": {
      "AcquisitionTime": ["101733.452500", "101730.867500", "101732.657500", "101731.067500", "101732.857500", "101731.265000", "101733.055000", "101731.465000", "101733.255000", "101731.862500", "101733.652500", "101732.060000", "101733.850000", "101732.260000", "101734.050000", "101732.457500", "101734.247500", "101731.662500", "101733.452500", "101730.867500", "101732.657500", "101731.067500", "101732.857500", "101731.265000", "101733.055000", "101731.465000", "101733.255000", "101731.862500", "101733.652500", "101732.060000", "101733.850000", "101732.260000", "101734.050000", "101732.457500", "101734.247500", "101731.662500", "101733.452500", "101730.867500", "101732.657500", "101731.067500", "101732.857500", "101731.265000", "101733.055000", "101731.465000", "101733.255000", "101731.862500", "101733.652500", "101732.060000", "101733.850000", "101732.260000", "101734.050000", "101732.457500", "101734.247500", "101731.662500", "101733.452500", "101730.867500", "101732.657500", "101731.067500", "101732.857500", "101731.265000", "101733.055000", "101731.465000", "101733.255000", "101731.862500", "101733.652500", "101732.060000", "101733.850000", "101732.260000", "101734.050000", "101732.457500", "101734.247500", "101731.662500", "101737.052500", "101734.467500", "101736.257500", "101734.667500", "101736.457500", "101734.865000", "101736.655000", "101735.065000", "101736.855000", "101735.462500", "101737.252500", "101735.660000", "101737.450000", "101735.860000", "101737.650000", "101736.057500", "101737.847500", "101735.262500", "101737.052500", "101734.467500", "101736.257500", "101734.667500", "101736.457500", "101734.865000", "101736.655000", "101735.065000", "101736.855000", "101735.462500", "101737.252500", "101735.660000", "101737.450000", "101735.860000", "101737.650000", "101736.057500", "101737.847500", "101735.262500", "101737.052500", "101734.467500", "101736.257500", "101734.667500", "101736.457500", "101734.865000", "101736.655000", "101735.065000", "101736.855000", "101735.462500", "101737.252500", "101735.660000", "101737.450000", "101735.860000", "101737.650000", "101736.057500", "101737.847500", "101735.262500", "101737.052500", "101734.467500", "101736.257500", "101734.667500", "101736.457500", "101734.865000", "101736.655000", "101735.065000", "101736.855000", "101735.462500", "101737.252500", "101735.660000", "101737.450000", "101735.860000", "101737.650000", "101736.057500", "101737.847500", "101735.262500", "101740.652500", "101738.067500", "101739.857500", "101738.267500", "101740.057500", "101738.465000", "101740.255000", "101738.665000", "101740.455000", "101739.062500", "101740.852500", "101739.260000", "101741.050000", "101739.460000", "101741.250000", "101739.657500", "101741.447500", "101738.862500", "101740.652500", "101738.067500", "101739.857500", "101738.267500", "101740.057500", "101738.465000", "101740.255000", "101738.665000", "101740.455000", "101739.062500", "101740.852500", "101739.260000", "101741.050000", "101739.460000", "101741.250000", "101739.657500", "101741.447500", "101738.862500", "101740.652500", "101738.067500", "101739.857500", "101738.267500", "101740.057500", "101738.465000", "101740.255000", "101738.665000", "101740.455000", "101739.062500", "101740.852500", "101739.260000", "101741.050000", "101739.460000", "101741.250000", "101739.657500", "101741.447500", "101738.862500", "101740.652500", "101738.067500", "101739.857500", "101738.267500", "101740.057500", "101738.465000", "101740.255000", "101738.665000", "101740.455000", "101739.062500", "101740.852500", "101739.260000", "101741.050000", "101739.460000", "101741.250000", "101739.657500", "101741.447500", "101738.862500", "101744.252500", "101741.667500", "101743.457500", "101741.867500", "101743.657500", "101742.065000", "101743.855000", "101742.265000", "101744.055000", "101742.662500", "101744.452500", "101742.860000", "101744.650000", "101743.060000", "101744.850000", "101743.257500", "101745.047500", "101742.462500", "101744.252500", "101741.667500", "101743.457500", "101741.867500", "101743.657500", "101742.065000", "101743.855000", "101742.265000", "101744.055000", "101742.662500", "101744.452500", "101742.860000", "101744.650000", "101743.060000", "101744.850000", "101743.257500", "101745.047500", "101742.462500", "101744.252500", "101741.667500", "101743.457500", "101741.867500", "101743.657500", "101742.065000", "101743.855000", "101742.265000", "101744.055000", "101742.662500", "101744.452500", "101742.860000", "101744.650000", "101743.060000", "101744.850000", "101743.257500", "101745.047500", "101742.462500", "101744.252500", "101741.667500", "101743.457500", "101741.867500", "101743.657500", "101742.065000", "101743.855000", "101742.265000", "101744.055000", "101742.662500", "101744.452500", "101742.860000", "101744.650000", "101743.060000", "101744.850000", "101743.257500", "101745.047500", "101742.462500", "101747.852500", "101745.267500", "101747.057500", "101745.467500", "101747.257500", "101745.665000", "101747.455000", "101745.865000", "101747.655000", "101746.262500", "101748.052500", "101746.460000", "101748.250000", "101746.660000", "101748.450000", "101746.857500", "101748.647500", "101746.062500", "101747.852500", "101745.267500", "101747.057500", "101745.467500", "101747.257500", "101745.665000", "101747.455000", "101745.865000", "101747.655000", "101746.262500", "101748.052500", "101746.460000", "101748.250000", "101746.660000", "101748.450000", "101746.857500", "101748.647500", "101746.062500", "101747.852500", "101745.267500", "101747.057500", "101745.467500", "101747.257500", "101745.665000", "101747.455000", "101745.865000", "101747.655000", "101746.262500", "101748.052500", "101746.460000", "101748.250000", "101746.660000", "101748.450000", "101746.857500", "101748.647500", "101746.062500", "101747.852500", "101745.267500", "101747.057500", "101745.467500", "101747.257500", "101745.665000", "101747.455000", "101745.865000", "101747.655000", "101746.262500", "101748.052500", "101746.460000", "101748.250000", "101746.660000", "101748.450000", "101746.857500", "101748.647500", "101746.062500", "101751.452500", "101748.867500", "101750.657500", "101749.067500", "101750.857500", "101749.265000", "101751.055000", "101749.465000", "101751.255000", "101749.862500", "101751.652500", "101750.060000", "101751.850000", "101750.260000", "101752.050000", "101750.457500", "101752.247500", "101749.662500", "101751.452500", "101748.867500", "101750.657500", "101749.067500", "101750.857500", "101749.265000", "101751.055000", "101749.465000", "101751.255000", "101749.862500", "101751.652500", "101750.060000", "101751.850000", "101750.260000", "101752.050000", "101750.457500", "101752.247500", "101749.662500", "101751.452500", "101748.867500", "101750.657500", "101749.067500", "101750.857500", "101749.265000", "101751.055000", "101749.465000", "101751.255000", "101749.862500", "101751.652500", "101750.060000", "101751.850000", "101750.260000", "101752.050000", "101750.457500", "101752.247500", "101749.662500", "101751.452500", "101748.867500", "101750.657500", "101749.067500", "101750.857500", "101749.265000", "101751.055000", "101749.465000", "101751.255000", "101749.862500", "101751.652500", "101750.060000", "101751.850000", "101750.260000", "101752.050000", "101750.457500", "101752.247500", "101749.662500", "101755.052500", "101752.467500", "101754.257500", "101752.667500", "101754.457500", "101752.865000", "101754.655000", "101753.065000", "101754.855000", "101753.462500", "101755.252500", "101753.660000", "101755.450000", "101753.860000", "101755.650000", "101754.057500", "101755.847500", "101753.262500", "101755.052500", "101752.467500", "101754.257500", "101752.667500", "101754.457500", "101752.865000", "101754.655000", "101753.065000", "101754.855000", "101753.462500", "101755.252500", "101753.660000", "101755.450000", "101753.860000", "101755.650000", "101754.057500", "101755.847500", "101753.262500", "101755.052500", "101752.467500", "101754.257500", "101752.667500", "101754.457500", "101752.865000", "101754.655000", "101753.065000", "101754.855000", "101753.462500", "101755.252500", "101753.660000", "101755.450000", "101753.860000", "101755.650000", "101754.057500", "101755.847500", "101753.262500", "101755.052500", "101752.467500", "101754.257500", "101752.667500", "101754.457500", "101752.865000", "101754.655000", "101753.065000", "101754.855000", "101753.462500", "101755.252500", "101753.660000", "101755.450000", "101753.860000", "101755.650000", "101754.057500", "101755.847500", "101753.262500", "101758.652500", "101756.067500", "101757.857500", "101756.267500", "101758.057500", "101756.465000", "101758.255000", "101756.665000", "101758.455000", "101757.062500", "101758.852500", "101757.260000", "101759.050000", "101757.460000", "101759.250000", "101757.657500", "101759.447500", "101756.862500", "101758.652500", "101756.067500", "101757.857500", "101756.267500", "101758.057500", "101756.465000", "101758.255000", "101756.665000", "101758.455000", "101757.062500", "101758.852500", "101757.260000", "101759.050000", "101757.460000", "101759.250000", "101757.657500", "101759.447500", "101756.862500", "101758.652500", "101756.067500", "101757.857500", "101756.267500", "101758.057500", "101756.465000", "101758.255000", "101756.665000", "101758.455000", "101757.062500", "101758.852500", "101757.260000", "101759.050000", "101757.460000", "101759.250000", "101757.657500", "101759.447500", "101756.862500", "101758.652500", "101756.067500", "101757.857500", "101756.267500", "101758.057500", "101756.465000", "101758.255000", "101756.665000", "101758.455000", "101757.062500", "101758.852500", "101757.260000", "101759.050000", "101757.460000", "101759.250000", "101757.657500", "101759.447500", "101756.862500", "101802.252500", "101759.667500", "101801.457500", "101759.867500", "101801.657500", "101800.065000", "101801.855000", "101800.265000", "101802.055000", "101800.662500", "101802.452500", "101800.860000", "101802.650000", "101801.060000", "101802.850000", "101801.257500", "101803.047500", "101800.462500", "101802.252500", "101759.667500", "101801.457500", "101759.867500", "101801.657500", "101800.065000", "101801.855000", "101800.265000", "101802.055000", "101800.662500", "101802.452500", "101800.860000", "101802.650000", "101801.060000", "101802.850000", "101801.257500", "101803.047500", "101800.462500", "101802.252500", "101759.667500", "101801.457500", "101759.867500", "101801.657500", "101800.065000", "101801.855000", "101800.265000", "101802.055000", "101800.662500", "101802.452500", "101800.860000", "101802.650000", "101801.060000", "101802.850000", "101801.257500", "101803.047500", "101800.462500", "101802.252500", "101759.667500", "101801.457500", "101759.867500", "101801.657500", "101800.065000", "101801.855000", "101800.265000", "101802.055000", "101800.662500", "101802.452500", "101800.860000", "101802.650000", "101801.060000", "101802.850000", "101801.257500", "101803.047500", "101800.462500", "101805.852500", "101803.267500", "101805.057500", "101803.467500", "101805.257500", "101803.665000", "101805.455000", "101803.865000", "101805.655000", "101804.262500", "101806.052500", "101804.460000", "101806.250000", "101804.660000", "101806.450000", "101804.857500", "101806.647500", "101804.062500", "101805.852500", "101803.267500", "101805.057500", "101803.467500", "101805.257500", "101803.665000", "101805.455000", "101803.865000", "101805.655000", "101804.262500", "101806.052500", "101804.460000", "101806.250000", "101804.660000", "101806.450000", "101804.857500", "101806.647500", "101804.062500", "101805.852500", "101803.267500", "101805.057500", "101803.467500", "101805.257500", "101803.665000", "101805.455000", "101803.865000", "101805.655000", "101804.262500", "101806.052500", "101804.460000", "101806.250000", "101804.660000", "101806.450000", "101804.857500", "101806.647500", "101804.062500", "101805.852500", "101803.267500", "101805.057500", "101803.467500", "101805.257500", "101803.665000", "101805.455000", "101803.865000", "101805.655000", "101804.262500", "101806.052500", "101804.460000", "101806.250000", "101804.660000", "101806.450000", "101804.857500", "101806.647500", "101804.062500", "101809.452500", "101806.867500", "101808.657500", "101807.067500", "101808.857500", "101807.265000", "101809.055000", "101807.465000", "101809.255000", "101807.862500", "101809.652500", "101808.060000", "101809.850000", "101808.260000", "101810.050000", "101808.457500", "101810.247500", "101807.662500", "101809.452500", "101806.867500", "101808.657500", "101807.067500", "101808.857500", "101807.265000", "101809.055000", "101807.465000", "101809.255000", "101807.862500", "101809.652500", "101808.060000", "101809.850000", "101808.260000", "101810.050000", "101808.457500", "101810.247500", "101807.662500", "101809.452500", "101806.867500", "101808.657500", "101807.067500", "101808.857500", "101807.265000", "101809.055000", "101807.465000", "101809.255000", "101807.862500", "101809.652500", "101808.060000", "101809.850000", "101808.260000", "101810.050000", "101808.457500", "101810.247500", "101807.662500", "101809.452500", "101806.867500", "101808.657500", "101807.067500", "101808.857500", "101807.265000", "101809.055000", "101807.465000", "101809.255000", "101807.862500", "101809.652500", "101808.060000", "101809.850000", "101808.260000", "101810.050000", "101808.457500", "101810.247500", "101807.662500", "101813.052500", "101810.467500", "101812.257500", "101810.667500", "101812.457500", "101810.865000", "101812.655000", "101811.065000", "101812.855000", "101811.462500", "101813.252500", "101811.660000", "101813.450000", "101811.860000", "101813.650000", "101812.057500", "101813.847500", "101811.262500", "101813.052500", "101810.467500", "101812.257500", "101810.667500", "101812.457500", "101810.865000", "101812.655000", "101811.065000", "101812.855000", "101811.462500", "101813.252500", "101811.660000", "101813.450000", "101811.860000", "101813.650000", "101812.057500", "101813.847500", "101811.262500", "101813.052500", "101810.467500", "101812.257500", "101810.667500", "101812.457500", "101810.865000", "101812.655000", "101811.065000", "101812.855000", "101811.462500", "101813.252500", "101811.660000", "101813.450000", "101811.860000", "101813.650000", "101812.057500", "101813.847500", "101811.262500", "101813.052500", "101810.467500", "101812.257500", "101810.667500", "101812.457500", "101810.865000", "101812.655000", "101811.065000", "101812.855000", "101811.462500", "101813.252500", "101811.660000", "101813.450000", "101811.860000", "101813.650000", "101812.057500", "101813.847500", "101811.262500", "101816.652500", "101814.067500", "101815.857500", "101814.267500", "101816.057500", "101814.465000", "101816.255000", "101814.665000", "101816.455000", "101815.062500", "101816.852500", "101815.260000", "101817.050000", "101815.460000", "101817.250000", "101815.657500", "101817.447500", "101814.862500", "101816.652500", "101814.067500", "101815.857500", "101814.267500", "101816.057500", "101814.465000", "101816.255000", "101814.665000", "101816.455000", "101815.062500", "101816.852500", "101815.260000", "101817.050000", "101815.460000", "101817.250000", "101815.657500", "101817.447500", "101814.862500", "101816.652500", "101814.067500", "101815.857500", "101814.267500", "101816.057500", "101814.465000", "101816.255000", "101814.665000", "101816.455000", "101815.062500", "101816.852500", "101815.260000", "101817.050000", "101815.460000", "101817.250000", "101815.657500", "101817.447500", "101814.862500", "101816.652500", "101814.067500", "101815.857500", "101814.267500", "101816.057500", "101814.465000", "101816.255000", "101814.665000", "101816.455000", "101815.062500", "101816.852500", "101815.260000", "101817.050000", "101815.460000", "101817.250000", "101815.657500", "101817.447500", "101814.862500", "101820.252500", "101817.667500", "101819.457500", "101817.867500", "101819.657500", "101818.065000", "101819.855000", "101818.265000", "101820.055000", "101818.662500", "101820.452500", "101818.860000", "101820.650000", "101819.060000", "101820.850000", "101819.257500", "101821.047500", "101818.462500", "101820.252500", "101817.667500", "101819.457500", "101817.867500", "101819.657500", "101818.065000", "101819.855000", "101818.265000", "101820.055000", "101818.662500", "101820.452500", "101818.860000", "101820.650000", "101819.060000", "101820.850000", "101819.257500", "101821.047500", "101818.462500", "101820.252500", "101817.667500", "101819.457500", "101817.867500", "101819.657500", "101818.065000", "101819.855000", "101818.265000", "101820.055000", "101818.662500", "101820.452500", "101818.860000", "101820.650000", "101819.060000", "101820.850000", "101819.257500", "101821.047500", "101818.462500", "101820.252500", "101817.667500", "101819.457500", "101817.867500", "101819.657500", "101818.065000", "101819.855000", "101818.265000", "101820.055000", "101818.662500", "101820.452500", "101818.860000", "101820.650000", "101819.060000", "101820.850000", "101819.257500", "101821.047500", "101818.462500", "101823.852500", "101821.267500", "101823.057500", "101821.467500", "101823.257500", "101821.665000", "101823.455000", "101821.865000", "101823.655000", "101822.262500", "101824.052500", "101822.460000", "101824.250000", "101822.660000", "101824.450000", "101822.857500", "101824.647500", "101822.062500", "101823.852500", "101821.267500", "101823.057500", "101821.467500", "101823.257500", "101821.665000", "101823.455000", "101821.865000", "101823.655000", "101822.262500", "101824.052500", "101822.460000", "101824.250000", "101822.660000", "101824.450000", "101822.857500", "101824.647500", "101822.062500", "101823.852500", "101821.267500", "101823.057500", "101821.467500", "101823.257500", "101821.665000", "101823.455000", "101821.865000", "101823.655000", "101822.262500", "101824.052500", "101822.460000", "101824.250000", "101822.660000", "101824.450000", "101822.857500", "101824.647500", "101822.062500", "101823.852500", "101821.267500", "101823.057500", "101821.467500", "101823.257500", "101821.665000", "101823.455000", "101821.865000", "101823.655000", "101822.262500", "101824.052500", "101822.460000", "101824.250000", "101822.660000", "101824.450000", "101822.857500", "101824.647500", "101822.062500", "101827.452500", "101824.867500", "101826.657500", "101825.067500", "101826.857500", "101825.265000", "101827.055000", "101825.465000", "101827.255000", "101825.862500", "101827.652500", "101826.060000", "101827.850000", "101826.260000", "101828.050000", "101826.457500", "101828.247500", "101825.662500", "101827.452500", "101824.867500", "101826.657500", "101825.067500", "101826.857500", "101825.265000", "101827.055000", "101825.465000", "101827.255000", "101825.862500", "101827.652500", "101826.060000", "101827.850000", "101826.260000", "101828.050000", "101826.457500", "101828.247500", "101825.662500", "101827.452500", "101824.867500", "101826.657500", "101825.067500", "101826.857500", "101825.265000", "101827.055000", "101825.465000", "101827.255000", "101825.862500", "101827.652500", "101826.060000", "101827.850000", "101826.260000", "101828.050000", "101826.457500", "101828.247500", "101825.662500", "101827.452500", "101824.867500", "101826.657500", "101825.067500", "101826.857500", "101825.265000", "101827.055000", "101825.465000", "101827.255000", "101825.862500", "101827.652500", "101826.060000", "101827.850000", "101826.260000", "101828.050000", "101826.457500", "101828.247500", "101825.662500", "101831.052500", "101828.467500", "101830.257500", "101828.667500", "101830.457500", "101828.865000", "101830.655000", "101829.065000", "101830.855000", "101829.462500", "101831.252500", "101829.660000", "101831.450000", "101829.860000", "101831.650000", "101830.057500", "101831.847500", "101829.262500", "101831.052500", "101828.467500", "101830.257500", "101828.667500", "101830.457500", "101828.865000", "101830.655000", "101829.065000", "101830.855000", "101829.462500", "101831.252500", "101829.660000", "101831.450000", "101829.860000", "101831.650000", "101830.057500", "101831.847500", "101829.262500", "101831.052500", "101828.467500", "101830.257500", "101828.667500", "101830.457500", "101828.865000", "101830.655000", "101829.065000", "101830.855000", "101829.462500", "101831.252500", "101829.660000", "101831.450000", "101829.860000", "101831.650000", "101830.057500", "101831.847500", "101829.262500", "101831.052500", "101828.467500", "101830.257500", "101828.667500", "101830.457500", "101828.865000", "101830.655000", "101829.065000", "101830.855000", "101829.462500", "101831.252500", "101829.660000", "101831.450000", "101829.860000", "101831.650000", "101830.057500", "101831.847500", "101829.262500", "101834.652500", "101832.067500", "101833.857500", "101832.267500", "101834.057500", "101832.465000", "101834.255000", "101832.665000", "101834.455000", "101833.062500", "101834.852500", "101833.260000", "101835.050000", "101833.460000", "101835.250000", "101833.657500", "101835.447500", "101832.862500", "101834.652500", "101832.067500", "101833.857500", "101832.267500", "101834.057500", "101832.465000", "101834.255000", "101832.665000", "101834.455000", "101833.062500", "101834.852500", "101833.260000", "101835.050000", "101833.460000", "101835.250000", "101833.657500", "101835.447500", "101832.862500", "101834.652500", "101832.067500", "101833.857500", "101832.267500", "101834.057500", "101832.465000", "101834.255000", "101832.665000", "101834.455000", "101833.062500", "101834.852500", "101833.260000", "101835.050000", "101833.460000", "101835.250000", "101833.657500", "101835.447500", "101832.862500", "101834.652500", "101832.067500", "101833.857500", "101832.267500", "101834.057500", "101832.465000", "101834.255000", "101832.665000", "101834.455000", "101833.062500", "101834.852500", "101833.260000", "101835.050000", "101833.460000", "101835.250000", "101833.657500", "101835.447500", "101832.862500", "101838.252500", "101835.667500", "101837.457500", "101835.867500", "101837.657500", "101836.065000", "101837.855000", "101836.265000", "101838.055000", "101836.662500", "101838.452500", "101836.860000", "101838.650000", "101837.060000", "101838.850000", "101837.257500", "101839.047500", "101836.462500", "101838.252500", "101835.667500", "101837.457500", "101835.867500", "101837.657500", "101836.065000", "101837.855000", "101836.265000", "101838.055000", "101836.662500", "101838.452500", "101836.860000", "101838.650000", "101837.060000", "101838.850000", "101837.257500", "101839.047500", "101836.462500", "101838.252500", "101835.667500", "101837.457500", "101835.867500", "101837.657500", "101836.065000", "101837.855000", "101836.265000", "101838.055000", "101836.662500", "101838.452500", "101836.860000", "101838.650000", "101837.060000", "101838.850000", "101837.257500", "101839.047500", "101836.462500", "101838.252500", "101835.667500", "101837.457500", "101835.867500", "101837.657500", "101836.065000", "101837.855000", "101836.265000", "101838.055000", "101836.662500", "101838.452500", "101836.860000", "101838.650000", "101837.060000", "101838.850000", "101837.257500", "101839.047500", "101836.462500", "101841.852500", "101839.267500", "101841.057500", "101839.467500", "101841.257500", "101839.665000", "101841.455000", "101839.865000", "101841.655000", "101840.262500", "101842.052500", "101840.460000", "101842.250000", "101840.660000", "101842.450000", "101840.857500", "101842.647500", "101840.062500", "101841.852500", "101839.267500", "101841.057500", "101839.467500", "101841.257500", "101839.665000", "101841.455000", "101839.865000", "101841.655000", "101840.262500", "101842.052500", "101840.460000", "101842.250000", "101840.660000", "101842.450000", "101840.857500", "101842.647500", "101840.062500", "101841.852500", "101839.267500", "101841.057500", "101839.467500", "101841.257500", "101839.665000", "101841.455000", "101839.865000", "101841.655000", "101840.262500", "101842.052500", "101840.460000", "101842.250000", "101840.660000", "101842.450000", "101840.857500", "101842.647500", "101840.062500", "101841.852500", "101839.267500", "101841.057500", "101839.467500", "101841.257500", "101839.665000", "101841.455000", "101839.865000", "101841.655000", "101840.262500", "101842.052500", "10