{
  "AcquisitionMatrixPE": 80,
  "AcquisitionNumber": 1,
  "AcquisitionTime": "09:20:48.530000",
  "BandwidthPerPixelPhaseEncode": 25,
  "BaseResolution": 80,
  "BodyPartExamined": "BRAIN",
  "CoilCombinationMethod": "Sum of Squares",
  "ConsistencyInfo": "N4_VE11C_LATEST_20160120",
  "ConversionSoftware": "dcm2niix",
  "ConversionSoftwareVersion": "v1.0.20220720",
  "DerivedVendorReportedEchoSpacing": 0.0005,
  "DeviceSerialNumber": "66112",
  "DwellTime": 2.7e-06,
  "EchoTime": 0.03,
  "EchoTrainLength": 80,
  "EffectiveEchoSpacing": 0.0005,
  "FlipAngle": 10,
  "HeudiconvVersion": "0.13.1",
  "ImageOrientationPatientDICOM": [0.989197, 0.146343, 0.00851997, -0.141488, 0.937951, 0.316589],
  "ImageOrientationText": "Tra>Cor(18.3)>Sag(-2.2)",
  "ImageType": [
    "ORIGINAL",
    "PRIMARY",
    "M",
    "ND",
    "NORM",
    "MOSAIC"
],
  "ImagingFrequency": 123.252,
  "InPlanePhaseEncodingDirectionDICOM": "COL",
  "InstitutionAddress": "Maynard 3,Hanover,NH,US,03755",
  "InstitutionName": "Dartmouth College - PBS",
  "InstitutionalDepartmentName": "Department",
  "MRAcquisitionType": "2D",
  "MagneticFieldStrength": 3,
  "Manufacturer": "Siemens",
  "ManufacturersModelName": "Prisma",
  "MatrixCoilMode": "SENSE",
  "Modality": "MR",
  "NonlinearGradientCorrection": false,
  "PartialFourier": 1,
  "PatientPosition": "HFS",
  "PercentPhaseFOV": 100,
  "PercentSampling": 100,
  "PhaseEncodingDirection": "j-",
  "PhaseEncodingSteps": 80,
  "PhaseResolution": 1,
  "PixelBandwidth": 2315,
  "ProcedureStepDescription": "dbic^QA",
  "ProtocolName": "func-bold_fa-10",
  "PulseSequenceDetails": "%SiemensSeq%\\ep2d_bold",
  "ReceiveCoilActiveElements": "HC1-7;NC1,2",
  "ReceiveCoilName": "HeadNeck_64",
  "ReconMatrixPE": 80,
  "RepetitionTime": 2,
  "SAR": 0.00759837,
  "ScanOptions": "FS",
  "ScanningSequence": "EP",
  "SequenceName": "*epfid2d1_80",
  "SequenceVariant": "SK",
  "SeriesDescription": "func-bold_fa-10",
  "SeriesNumber": 9,
  "ShimSetting": [4144, -7703, -7518, 211, -96, -248, -52, 70],
  "SliceThickness": 3.5,
  "SliceTiming": [0.99, 0, 1.055, 0.065, 1.12, 0.1325, 1.1875, 0.1975, 1.2525, 0.2625, 1.32, 0.33, 1.385, 0.395, 1.45, 0.4625, 1.5175, 0.5275, 1.5825, 0.5925, 1.65, 0.66, 1.715, 0.725, 1.78, 0.7925, 1.8475, 0.8575, 1.9125, 0.9225],
  "SoftwareVersions": "syngo MR E11",
  "SpacingBetweenSlices": 3.99,
  "StationName": "AWP66112",
  "TotalReadoutTime": 0.0395,
  "TxRefAmp": 215.027,
  "dcmmeta_affine": [
    [-2.9675917625427246, -0.42446473240852356, -0.15297368168830872, 138.0389862060547],
    [-0.4390285611152649, 2.8138532638549805, 1.2543551921844482, -97.1563491821289],
    [0.025559907779097557, -0.9497678875923157, 3.7846126556396484, -14.177520751953125],
    [0.0, 0.0, 0.0, 1.0]
],
  "dcmmeta_reorient_transform": [
    [0.0, -1.0, 0.0, 79.0],
    [1.0, 0.0, 0.0, 0.0],
    [0.0, 0.0, 1.0, 0.0],
    [0.0, 0.0, 0.0, 1.0]
],
  "dcmmeta_shape": [80, 80, 30, 200],
  "dcmmeta_slice_dim": 2,
  "dcmmeta_version": 0.6,
  "global": {
    "const": {
      "AccessionNumber": "qa64",
      "AcquisitionMatrix": [80, 0, 0, 80],
      "AngioFlag": "N",
      "BitsAllocated": 16,
      "BitsStored": 12,
      "BodyPartExamined": "BRAIN",
      "Columns": 480,
      "EchoNumbers": 1,
      "EchoTime": 30.0,
      "EchoTrainLength": 80,
      "FlipAngle": 10.0,
      "HighBit": 11,
      "ImageOrientationPatient": [0.9891972394547, 0.14634285627315, 0.00851996907393, -0.1414882401154, 0.93795111742272, 0.31658929109259],
      "ImagePositionPatient": [-613.13166753545, -775.71445006249, -284.27473894465],
      "ImageType": [
        "ORIGINAL",
        "PRIMARY",
        "M",
        "ND",
        "NORM",
        "MOSAIC"
],
      "ImagedNucleus": "1H",
      "ImagingFrequency": 123.252341,
      "InPlanePhaseEncodingDirection": "COL",
      "MRAcquisitionType": "2D",
      "MagneticFieldStrength": 3.0,
      "Manufacturer": "SIEMENS",
      "ManufacturerModelName": "Prisma",
      "Modality": "MR",
      "NumberOfAverages": 1.0,
      "NumberOfPhaseEncodingSteps": 80,
      "PercentPhaseFieldOfView": 100.0,
      "PercentSampling": 100.0,
      "PerformedProcedureStepStartTime": "090240.280000",
      "PhotometricInterpretation": "MONOCHROME2",
      "PixelBandwidth": 2315.0,
      "PixelRepresentation": 0,
      "PixelSpacing": [3.0, 3.0],
      "ProtocolName": "func-bold_fa-10",
      "RepetitionTime": 2000.0,
      "Rows": 480,
      "SAR": 0.00759836859726,
      "SamplesPerPixel": 1,
      "ScanOptions": "FS",
      "ScanningSequence": "EP",
      "SequenceName": "*epfid2d1_80",
      "SequenceVariant": "SK",
      "SeriesDescription": "func-bold_fa-10",
      "SeriesNumber": 9,
      "SeriesTime": "092135.069000",
      "SliceLocation": -49.283539257782,
      "SliceThickness": 3.5,
      "SmallestImagePixelValue": 0,
      "SoftwareVersions": "syngo MR E11",
      "SpacingBetweenSlices": 3.9900000259916,
      "SpecificCharacterSet": "ISO_IR 100",
      "StudyID": "2",
      "StudyTime": "090240.207000",
      "TransmitCoilName": "Body",
      "VariableFlipAngleFlag": "N",
      "WindowCenterWidthExplanation": "Algo1",
      "dBdt": 0.0},
    "slices": {}
  },
  "time": {
    "samples": {
      "AcquisitionNumber": [1, 2, 3, 4, 5, 6, 7, 8, 9, 10, 11, 12, 13, 14, 15, 16, 17, 18, 19, 20, 21, 22, 23, 24, 25, 26, 27, 28, 29, 30, 31, 32, 33, 34, 35, 36, 37, 38, 39, 40, 41, 42, 43, 44, 45, 46, 47, 48, 49, 50, 51, 52, 53, 54, 55, 56, 57, 58, 59, 60, 61, 62, 63, 64, 65, 66, 67, 68, 69, 70, 71, 72, 73, 74, 75, 76, 77, 78, 79, 80, 81, 82, 83, 84, 85, 86, 87, 88, 89, 90, 91, 92, 93, 94, 95, 96, 97, 98, 99, 100, 101, 102, 103, 104, 105, 106, 107, 108, 109, 110, 111, 112, 113, 114, 115, 116, 117, 118, 119, 120, 121, 122, 123, 124, 125, 126, 127, 128, 129, 130, 131, 132, 133, 134, 135, 136, 137, 138, 139, 140, 141, 142, 143, 144, 145, 146, 147, 148, 149, 150, 151, 152, 153, 154, 155, 156, 157, 158, 159, 160, 161, 162, 163, 164, 165, 166, 167, 168, 169, 170, 171, 172, 173, 174, 175, 176, 177, 178, 179, 180, 181, 182, 183, 184, 185, 186, 187, 188, 189, 190, 191, 192, 193, 194, 195, 196, 197, 198, 199, 200],
      "AcquisitionTime": ["092048.530000", "092050.530000", "092052.530000", "092054.530000", "092056.530000", "092058.530000", "092100.530000", "092102.530000", "092104.530000", "092106.530000", "092108.530000", "092110.530000", "092112.530000", "092114.530000", "092116.530000", "092118.530000", "092120.530000", "092122.530000", "092124.530000", "092126.530000", "092128.530000", "092130.530000", "092132.530000", "092134.530000", "092136.530000", "092138.530000", "092140.530000", "092142.530000", "092144.530000", "092146.530000", "092148.530000", "092150.530000", "092152.530000", "092154.530000", "092156.530000", "092158.530000", "092200.530000", "092202.530000", "092204.530000", "092206.530000", "092208.530000", "092210.530000", "092212.530000", "092214.530000", "092216.530000", "092218.530000", "092220.530000", "092222.530000", "092224.530000", "092226.530000", "092228.530000", "092230.530000", "092232.530000", "092234.530000", "092236.530000", "092238.530000", "092240.530000", "092242.530000", "092244.530000", "092246.530000", "092248.530000", "092250.530000", "092252.530000", "092254.530000", "092256.530000", "092258.530000", "092300.530000", "092302.530000", "092304.530000", "092306.530000", "092308.530000", "092310.530000", "092312.530000", "092314.530000", "092316.530000", "092318.530000", "092320.530000", "092322.530000", "092324.530000", "092326.530000", "092328.530000", "092330.530000", "092332.530000", "092334.530000", "092336.530000", "092338.530000", "092340.530000", "092342.530000", "092344.530000", "092346.530000", "092348.530000", "092350.530000", "092352.530000", "092354.530000", "092356.530000", "092358.530000", "092400.530000", "092402.530000", "092404.530000", "092406.530000", "092408.530000", "092410.530000", "092412.530000", "092414.530000", "092416.530000", "092418.530000", "092420.530000", "092422.530000", "092424.530000", "092426.530000", "092428.530000", "092430.530000", "092432.530000", "092434.530000", "092436.530000", "092438.530000", "092440.530000", "092442.530000", "092444.530000", "092446.530000", "092448.530000", "092450.530000", "092452.530000", "092454.530000", "092456.530000", "092458.530000", "092500.530000", "092502.530000", "092504.530000", "092506.530000", "092508.530000", "092510.530000", "092512.530000", "092514.530000", "092516.530000", "092518.530000", "092520.530000", "092522.530000", "092524.530000", "092526.530000", "092528.530000", "092530.530000", "092532.530000", "092534.530000", "092536.530000", "092538.530000", "092540.530000", "092542.530000", "092544.530000", "092546.530000", "092548.530000", "092550.530000", "092552.530000", "092554.530000", "092556.530000", "092558.530000", "092600.530000", "092602.530000", "092604.530000", "092606.530000", "092608.530000", "092610.530000", "092612.530000", "092614.530000", "092616.530000", "092618.530000", "092620.530000", "092622.530000", "092624.530000", "092626.530000", "092628.530000", "092630.530000", "092632.530000", "092634.530000", "092636.530000", "092638.530000", "092640.530000", "092642.530000", "092644.530000", "092646.530000", "092648.530000", "092650.530000", "092652.530000", "092654.530000", "092656.530000", "092658.530000", "092700.530000", "092702.530000", "092704.530000", "092706.530000", "092708.530000", "092710.530000", "092712.530000", "092714.530000", "092716.530000", "092718.530000", "092720.530000", "092722.530000", "092724.530000", "092726.530000"],
      "ContentTime": ["092135.072000", "092135.086000", "092135.088000", "092135.091000", "092135.093000", "092135.096000", "092135.098000", "092135.101000", "092135.104000", "092135.118000", "092135.121000", "092135.123000", "092135.126000", "092135.128000", "092135.131000", "092135.134000", "092135.136000", "092135.139000", "092135.141000", "092135.144000", "092135.146000", "092135.149000", "092135.151000", "092215.068000", "092215.070000", "092215.073000", "092215.076000", "092215.078000", "092215.081000", "092215.083000", "092215.086000", "092215.088000", "092215.091000", "092215.093000", "092215.096000", "092215.098000", "092215.101000", "092215.103000", "092215.106000", "092215.109000", "092215.111000", "092215.114000", "092215.116000", "092255.067000", "092255.070000", "092255.073000", "092255.075000", "092255.078000", "092255.081000", "092255.083000", "092255.086000", "092255.088000", "092255.091000", "092255.093000", "092255.096000", "092255.098000", "092255.101000", "092255.103000", "092255.106000", "092255.109000", "092255.111000", "092255.114000", "092255.116000", "092315.068000", "092315.070000", "092315.073000", "092315.076000", "092315.078000", "092315.081000", "092315.083000", "092315.086000", "092315.088000", "092315.091000", "092355.068000", "092355.070000", "092355.073000", "092355.076000", "092355.078000", "092355.081000", "092355.083000", "092355.086000", "092355.088000", "092355.091000", "092355.094000", "092355.096000", "092355.099000", "092355.119000", "092355.121000", "092355.124000", "092355.127000", "092355.129000", "092355.132000", "092355.134000", "092435.067000", "092435.070000", "092435.073000", "092435.075000", "092435.078000", "092435.081000", "092435.083000", "092435.086000", "092435.088000", "092435.091000", "092435.093000", "092435.096000", "092435.098000", "092435.101000", "092435.104000", "092435.106000", "092435.109000", "092435.111000", "092435.114000", "092435.116000", "092515.067000", "092515.070000", "092515.073000", "092515.076000", "092515.078000", "092515.081000", "092515.083000", "092515.086000", "092515.088000", "092515.091000", "092515.093000", "092515.096000", "092515.099000", "092515.101000", "092515.104000", "092515.106000", "092515.109000", "092515.131000", "092515.133000", "092515.136000", "092555.068000", "092555.070000", "092555.073000", "092555.076000", "092555.078000", "092555.081000", "092555.083000", "092555.086000", "092555.088000", "092555.091000", "092555.094000", "092555.096000", "092555.099000", "092555.101000", "092555.104000", "092555.106000", "092555.109000", "092555.111000", "092555.114000", "092555.116000", "092635.068000", "092635.071000", "092635.074000", "092635.076000", "092635.079000", "092635.082000", "092635.084000", "092635.087000", "092635.090000", "092635.093000", "092635.095000", "092635.098000", "092635.100000", "092635.103000", "092635.106000", "092635.108000", "092635.111000", "092635.114000", "092635.116000", "092635.119000", "092715.067000", "092715.070000", "092715.073000", "092715.076000", "092715.078000", "092715.081000", "092715.083000", "092715.086000", "092715.089000", "092715.091000", "092715.094000", "092715.096000", "092715.099000", "092715.101000", "092715.104000", "092715.106000", "092715.109000", "092715.111000", "092715.114000", "092715.117000", "092727.662000", "092727.665000", "092727.668000", "092727.670000", "092727.673000", "092727.676000", "092727.678000"],
      "InstanceCreationTime": ["092135.072000", "092135.086000", "092135.088000", "092135.091000", "092135.093000", "092135.096000", "092135.098000", "092135.101000", "092135.104000", "092135.118000", "092135.121000", "092135.123000", "092135.126000", "092135.128000", "092135.131000", "092135.134000", "092135.136000", "092135.139000", "092135.141000", "092135.144000", "092135.146000", "092135.149000", "092135.151000", "092215.068000", "092215.070000", "092215.073000", "092215.076000", "092215.078000", "092215.081000", "092215.083000", "092215.086000", "092215.088000", "092215.091000", "092215.093000", "092215.096000", "092215.098000", "092215.101000", "092215.103000", "092215.106000", "092215.109000", "092215.111000", "092215.114000", "092215.116000", "092255.067000", "092255.070000", "092255.073000", "092255.075000", "092255.078000", "092255.081000", "092255.083000", "092255.086000", "092255.088000", "092255.091000", "092255.093000", "092255.096000", "092255.098000", "092255.101000", "092255.103000", "092255.106000", "092255.109000", "092255.111000", "092255.114000", "092255.116000", "092315.068000", "092315.070000", "092315.073000", "092315.076000", "092315.078000", "092315.081000", "092315.083000", "092315.086000", "092315.088000", "092315.091000", "092355.068000", "092355.070000", "092355.073000", "092355.076000", "092355.078000", "092355.081000", "092355.083000", "092355.086000", "092355.088000", "092355.091000", "092355.094000", "092355.096000", "092355.099000", "092355.119000", "092355.121000", "092355.124000", "092355.127000", "092355.129000", "092355.132000", "092355.134000", "092435.067000", "092435.070000", "092435.073000", "092435.075000", "092435.078000", "092435.081000", "092435.083000", "092435.086000", "092435.088000", "092435.091000", "092435.093000", "092435.096000", "092435.098000", "092435.101000", "092435.104000", "092435.106000", "092435.109000", "092435.111000", "092435.114000", "092435.116000", "092515.067000", "092515.070000", "092515.073000", "092515.076000", "092515.078000", "092515.081000", "092515.083000", "092515.086000", "092515.088000", "092515.091000", "092515.093000", "092515.096000", "092515.099000", "092515.101000", "092515.104000", "092515.106000", "092515.109000", "092515.131000", "092515.133000", "092515.136000", "092555.068000", "092555.070000", "092555.073000", "092555.076000", "092555.078000", "092555.081000", "092555.083000", "092555.086000", "092555.088000", "092555.091000", "092555.094000", "092555.096000", "092555.099000", "092555.101000", "092555.104000", "092555.106000", "092555.109000", "092555.111000", "092555.114000", "092555.116000", "092635.068000", "092635.071000", "092635.074000", "092635.076000", "092635.079000", "092635.082000", "092635.084000", "092635.087000", "092635.090000", "092635.093000", "092635.095000", "092635.098000", "092635.100000", "092635.103000", "092635.106000", "092635.108000", "092635.111000", "092635.114000", "092635.116000", "092635.119000", "092715.067000", "092715.070000", "092715.073000", "092715.076000", "092715.078000", "092715.081000", "092715.083000", "092715.086000", "092715.089000", "092715.091000", "092715.094000", "092715.096000", "092715.099000", "092715.101000", "092715.104000", "092715.106000", "092715.109000", "092715.111000", "092715.114000", "092715.117000", "092727.662000", "092727.665000", "092727.668000", "092727.670000", "092727.673000", "092727.676000", "092727.678000"],
      "InstanceNumber": [1, 2, 3, 4, 5, 6, 7, 8, 9, 10, 11, 12, 13, 14, 15, 16, 17, 18, 19, 20, 21, 22, 23, 24, 25, 26, 27, 28, 29, 30, 31, 32, 33, 34, 35, 36, 37, 38, 39, 40, 41, 42, 43, 44, 45, 46, 47, 48, 49, 50, 51, 52, 53, 54, 55, 56, 57, 58, 59, 60, 61, 62, 63, 64, 65, 66, 67, 68, 69, 70, 71, 72, 73, 74, 75, 76, 77, 78, 79, 80, 81, 82, 83, 84, 85, 86, 87, 88, 89, 90, 91, 92, 93, 94, 95, 96, 97, 98, 99, 100, 101, 102, 103, 104, 105, 106, 107, 108, 109, 110, 111, 112, 113, 114, 115, 116, 117, 118, 119, 120, 121, 122, 123, 124, 125, 126, 127, 128, 129, 130, 131, 132, 133, 134, 135, 136, 137, 138, 139, 140, 141, 142, 143, 144, 145, 146, 147, 148, 149, 150, 151, 152, 153, 154, 155, 156, 157, 158, 159, 160, 161, 162, 163, 164, 165, 166, 167, 168, 169, 170, 171, 172, 173, 174, 175, 176, 177, 178, 179, 180, 181, 182, 183, 184, 185, 186, 187, 188, 189, 190, 191, 192, 193, 194, 195, 196, 197, 198, 199, 200],
      "LargestImagePixelValue": [634, 636, 634, 635, 638, 639, 635, 640, 635, 635, 635, 634, 639, 638, 638, 639, 636, 637, 634, 634, 633, 636, 636, 635, 641, 635, 638, 639, 636, 634, 640, 642, 635, 635, 636, 636, 639, 640, 639, 638, 637, 640, 637, 640, 641, 642, 640, 639, 638, 639, 640, 639, 641, 642, 638, 642, 638, 638, 636, 639, 639, 636, 635, 636, 639, 636, 639, 640, 640, 641, 640, 637, 635, 641, 644, 638, 636, 638, 638, 640, 639, 641, 639, 640, 640, 636, 637, 636, 643, 637, 640, 638, 636, 635, 642, 640, 636, 637, 636, 633, 634, 638, 637, 636, 633, 632, 636, 633, 634, 639, 639, 636, 636, 638, 638, 641, 638, 637, 636, 642, 637, 632, 638, 637, 637, 634, 637, 636, 636, 638, 637, 636, 636, 638, 637, 637, 638, 636, 636, 635, 634, 633, 636, 638, 635, 636, 643, 639, 635, 637, 635, 636, 633, 635, 635, 635, 639, 638, 638, 636, 639, 635, 635, 636, 634, 635, 634, 633, 637, 635, 639, 639, 638, 636, 640, 638, 636, 636, 634, 633, 632, 633, 634, 634, 633, 638, 633, 628, 635, 635, 633, 633, 633, 634, 638, 635, 632, 634, 633, 636],
      "WindowCenter": [455.0, 455.0, 455.0, 455.0, 455.0, 455.0, 455.0, 455.0, 455.0, 455.0, 455.0, 455.0, 455.0, 455.0, 455.0, 455.0, 455.0, 455.0, 455.0, 455.0, 455.0, 455.0, 455.0, 455.0, 455.0, 455.0, 455.0, 455.0, 455.0, 455.0, 455.0, 455.0, 455.0, 455.0, 455.0, 455.0, 455.0, 455.0, 455.0, 455.0, 455.0, 455.0, 455.0, 455.0, 455.0, 455.0, 454.0, 455.0, 455.0, 455.0, 455.0, 454.0, 454.0, 454.0, 454.0, 454.0, 454.0, 454.0, 454.0, 454.0, 454.0, 454.0, 454.0, 454.0, 454.0, 454.0, 454.0, 454.0, 454.0, 454.0, 454.0, 454.0, 454.0, 454.0, 454.0, 454.0, 454.0, 454.0, 454.0, 454.0, 454.0, 454.0, 454.0, 454.0, 454.0, 454.0, 454.0, 454.0, 454.0, 454.0, 454.0, 454.0, 454.0, 454.0, 454.0, 454.0, 454.0, 454.0, 454.0, 454.0, 454.0, 454.0, 454.0, 454.0, 454.0, 454.0, 454.0, 454.0, 454.0, 454.0, 454.0, 454.0, 454.0, 454.0, 454.0, 454.0, 454.0, 454.0, 454.0, 454.0, 454.0, 454.0, 454.0, 454.0, 454.0, 454.0, 454.0, 454.0, 454.0, 454.0, 454.0, 454.0, 454.0, 454.0, 454.0, 454.0, 454.0, 454.0, 454.0, 454.0, 454.0, 454.0, 454.0, 454.0, 454.0, 454.0, 454.0, 454.0, 454.0, 454.0, 454.0, 454.0, 454.0, 454.0, 454.0, 454.0, 454.0, 454.0, 454.0, 454.0, 454.0, 454.0, 454.0, 454.0, 454.0, 454.0, 454.0, 454.0, 454.0, 454.0, 454.0, 454.0, 454.0, 454.0, 454.0, 454.0, 454.0, 454.0, 454.0, 454.0, 454.0, 454.0, 454.0, 454.0, 454.0, 454.0, 454.0, 453.0, 454.0, 454.0, 454.0, 454.0, 454.0, 454.0, 454.0, 454.0, 454.0, 454.0, 454.0, 454.0],
      "WindowWidth": [946.0, 946.0, 945.0, 946.0, 946.0, 945.0, 945.0, 945.0, 945.0, 945.0, 945.0, 945.0, 945.0, 945.0, 945.0, 945.0, 945.0, 945.0, 945.0, 945.0, 945.0, 945.0, 945.0, 945.0, 945.0, 945.0, 945.0, 945.0, 945.0, 945.0, 945.0, 945.0, 945.0, 945.0, 945.0, 945.0, 945.0, 945.0, 945.0, 945.0, 945.0, 944.0, 945.0, 944.0, 945.0, 944.0, 944.0, 944.0, 944.0, 945.0, 945.0, 944.0, 944.0, 944.0, 944.0, 944.0, 944.0, 944.0, 944.0, 944.0, 944.0, 944.0, 944.0, 944.0, 944.0, 944.0, 944.0, 944.0, 944.0, 944.0, 944.0, 944.0, 944.0, 944.0, 944.0, 944.0, 944.0, 944.0, 944.0, 944.0, 944.0, 944.0, 944.0, 944.0, 944.0, 944.0, 944.0, 944.0, 944.0, 944.0, 944.0, 944.0, 944.0, 944.0, 944.0, 944.0, 944.0, 944.0, 944.0, 944.0, 944.0, 944.0, 944.0, 944.0, 943.0, 944.0, 944.0, 944.0, 944.0, 944.0, 944.0, 944.0, 943.0, 944.0, 944.0, 944.0, 944.0, 944.0, 944.0, 944.0, 944.0, 944.0, 944.0, 944.0, 944.0, 944.0, 944.0, 944.0, 944.0, 944.0, 944.0, 944.0, 944.0, 944.0, 944.0, 944.0, 944.0, 944.0, 944.0, 944.0, 944.0, 944.0, 944.0, 944.0, 944.0, 944.0, 944.0, 944.0, 943.0, 944.0, 944.0, 944.0, 944.0, 944.0, 944.0, 944.0, 944.0, 944.0, 943.0, 943.0, 944.0, 944.0, 943.0, 944.0, 944.0, 944.0, 943.0, 944.0, 943.0, 944.0, 943.0, 944.0, 943.0, 943.0, 943.0, 944.0, 943.0, 943.0, 943.0, 943.0, 943.0, 944.0, 943.0, 943.0, 943.0, 943.0, 943.0, 942.0, 943.0, 943.0, 943.0, 943.0, 943.0, 943.0, 943.0, 943.0, 943.0, 943.0, 943.0, 943.0]
    },
    "slices": {}
  }
}