{
  "AcquisitionMatrixPE": 80,
  "AcquisitionNumber": 1,
  "AcquisitionTime": "09:07:13.220000",
  "BandwidthPerPixelPhaseEncode": 48.077,
  "BaseResolution": 80,
  "BodyPartExamined": "BRAIN",
  "CoilCombinationMethod": "Sum of Squares",
  "ConsistencyInfo": "N4_VE11C_LATEST_20160120",
  "ConversionSoftware": "dcm2niix",
  "ConversionSoftwareVersion": "v1.0.20220720",
  "DerivedVendorReportedEchoSpacing": 0.000519999,
  "DeviceSerialNumber": "66112",
  "DwellTime": 2.7e-06,
  "EchoTime": 0.035,
  "EchoTrainLength": 39,
  "EffectiveEchoSpacing": 0.00026,
  "FlipAngle": 90,
  "HeudiconvVersion": "0.13.1",
  "ImageOrientationPatientDICOM": [0.989197, 0.146343, 0.00851997, -0.141488, 0.937951, 0.316589],
  "ImageOrientationText": "Tra>Cor(18.3)>Sag(-2.2)",
  "ImageType": [
    "ORIGINAL",
    "PRIMARY",
    "M",
    "ND",
    "NORM",
    "MOSAIC"
],
  "ImagingFrequency": 123.252,
  "InPlanePhaseEncodingDirectionDICOM": "COL",
  "InstitutionAddress": "Maynard 3,Hanover,NH,US,03755",
  "InstitutionName": "Dartmouth College - PBS",
  "InstitutionalDepartmentName": "Department",
  "MRAcquisitionType": "2D",
  "MagneticFieldStrength": 3,
  "Manufacturer": "Siemens",
  "ManufacturersModelName": "Prisma",
  "MatrixCoilMode": "GRAPPA",
  "Modality": "MR",
  "NonlinearGradientCorrection": false,
  "ParallelReductionFactorInPlane": 2,
  "PartialFourier": 1,
  "PatientPosition": "HFS",
  "PercentPhaseFOV": 100,
  "PercentSampling": 100,
  "PhaseEncodingDirection": "j-",
  "PhaseEncodingSteps": 79,
  "PhaseResolution": 1,
  "PixelBandwidth": 2315,
  "ProcedureStepDescription": "dbic^QA",
  "ProtocolName": "func-bold_task-rest_acq-p2",
  "PulseSequenceDetails": "%SiemensSeq%\\ep2d_bold",
  "ReceiveCoilActiveElements": "HC1-7;NC1,2",
  "ReceiveCoilName": "HeadNeck_64",
  "ReconMatrixPE": 80,
  "RefLinesPE": 24,
  "RepetitionTime": 2,
  "SAR": 0.0360448,
  "ScanOptions": "FS",
  "ScanningSequence": "EP",
  "SequenceName": "*epfid2d1_80",
  "SequenceVariant": "SK",
  "SeriesDescription": "func-bold_task-rest_acq-p2",
  "SeriesNumber": 5,
  "ShimSetting": [4144, -7703, -7518, 212, -95, -249, -53, 70],
  "SliceThickness": 3.5,
  "SliceTiming": [0.99, 0, 1.055, 0.065, 1.1225, 0.1325, 1.1875, 0.1975, 1.255, 0.265, 1.32, 0.33, 1.385, 0.395, 1.4525, 0.4625, 1.5175, 0.5275, 1.5825, 0.595, 1.65, 0.66, 1.715, 0.725, 1.7825, 0.7925, 1.8475, 0.8575, 1.9125, 0.925],
  "SoftwareVersions": "syngo MR E11",
  "SpacingBetweenSlices": 3.99,
  "StationName": "AWP66112",
  "TaskName": "rest",
  "TotalReadoutTime": 0.02054,
  "TxRefAmp": 215.027,
  "dcmmeta_affine": [
    [-2.9675917625427246, -0.42446473240852356, -0.15297368168830872, 140.25894165039062],
    [-0.4390285611152649, 2.8138532638549805, 1.2543551921844482, -99.07848358154297],
    [0.025559907779097557, -0.9497678875923157, 3.7846126556396484, -14.798053741455078],
    [0.0, 0.0, 0.0, 1.0]
],
  "dcmmeta_reorient_transform": [
    [0.0, -1.0, 0.0, 79.0],
    [1.0, 0.0, 0.0, 0.0],
    [0.0, 0.0, 1.0, 0.0],
    [0.0, 0.0, 0.0, 1.0]
],
  "dcmmeta_shape": [80, 80, 30, 200],
  "dcmmeta_slice_dim": 2,
  "dcmmeta_version": 0.6,
  "global": {
    "const": {
      "AccessionNumber": "qa64",
      "AcquisitionMatrix": [80, 0, 0, 80],
      "AngioFlag": "N",
      "BitsAllocated": 16,
      "BitsStored": 12,
      "BodyPartExamined": "BRAIN",
      "Columns": 480,
      "EchoNumbers": 1,
      "EchoTime": 35.0,
      "EchoTrainLength": 39,
      "FlipAngle": 90.0,
      "HighBit": 11,
      "ImageOrientationPatient": [0.9891972394547, 0.14634285627315, 0.00851996907393, -0.1414882401154, 0.93795111742272, 0.31658929109259],
      "ImagePositionPatient": [-615.35162584081, -773.79231613991, -284.89527193415],
      "ImageType": [
        "ORIGINAL",
        "PRIMARY",
        "M",
        "ND",
        "NORM",
        "MOSAIC"
],
      "ImagedNucleus": "1H",
      "ImagingFrequency": 123.252337,
      "InPlanePhaseEncodingDirection": "COL",
      "MRAcquisitionType": "2D",
      "MagneticFieldStrength": 3.0,
      "Manufacturer": "SIEMENS",
      "ManufacturerModelName": "Prisma",
      "Modality": "MR",
      "NumberOfAverages": 1.0,
      "NumberOfPhaseEncodingSteps": 79,
      "PercentPhaseFieldOfView": 100.0,
      "PercentSampling": 100.0,
      "PerformedProcedureStepStartTime": "090240.280000",
      "PhotometricInterpretation": "MONOCHROME2",
      "PixelBandwidth": 2315.0,
      "PixelRepresentation": 0,
      "PixelSpacing": [3.0, 3.0],
      "ProtocolName": "func-bold_task-rest_acq-p2",
      "RepetitionTime": 2000.0,
      "Rows": 480,
      "SAR": 0.0360447880745,
      "SamplesPerPixel": 1,
      "ScanOptions": "FS",
      "ScanningSequence": "EP",
      "SequenceName": "*epfid2d1_80",
      "SequenceVariant": "SK",
      "SeriesDescription": "func-bold_task-rest_acq-p2",
      "SeriesNumber": 5,
      "SeriesTime": "090754.926000",
      "SliceLocation": -50.561511872759,
      "SliceThickness": 3.5,
      "SmallestImagePixelValue": 0,
      "SoftwareVersions": "syngo MR E11",
      "SpacingBetweenSlices": 3.9900000210589,
      "SpecificCharacterSet": "ISO_IR 100",
      "StudyID": "2",
      "StudyTime": "090240.207000",
      "TransmitCoilName": "Body",
      "VariableFlipAngleFlag": "N",
      "WindowCenterWidthExplanation": "Algo1",
      "dBdt": 0.0},
    "slices": {}
  },
  "time": {
    "samples": {
      "AcquisitionNumber": [1, 2, 3, 4, 5, 6, 7, 8, 9, 10, 11, 12, 13, 14, 15, 16, 17, 18, 19, 20, 21, 22, 23, 24, 25, 26, 27, 28, 29, 30, 31, 32, 33, 34, 35, 36, 37, 38, 39, 40, 41, 42, 43, 44, 45, 46, 47, 48, 49, 50, 51, 52, 53, 54, 55, 56, 57, 58, 59, 60, 61, 62, 63, 64, 65, 66, 67, 68, 69, 70, 71, 72, 73, 74, 75, 76, 77, 78, 79, 80, 81, 82, 83, 84, 85, 86, 87, 88, 89, 90, 91, 92, 93, 94, 95, 96, 97, 98, 99, 100, 101, 102, 103, 104, 105, 106, 107, 108, 109, 110, 111, 112, 113, 114, 115, 116, 117, 118, 119, 120, 121, 122, 123, 124, 125, 126, 127, 128, 129, 130, 131, 132, 133, 134, 135, 136, 137, 138, 139, 140, 141, 142, 143, 144, 145, 146, 147, 148, 149, 150, 151, 152, 153, 154, 155, 156, 157, 158, 159, 160, 161, 162, 163, 164, 165, 166, 167, 168, 169, 170, 171, 172, 173, 174, 175, 176, 177, 178, 179, 180, 181, 182, 183, 184, 185, 186, 187, 188, 189, 190, 191, 192, 193, 194, 195, 196, 197, 198, 199, 200],
      "AcquisitionTime": ["090713.220000", "090715.220000", "090717.220000", "090719.220000", "090721.220000", "090723.220000", "090725.220000", "090727.220000", "090729.220000", "090731.220000", "090733.220000", "090735.220000", "090737.220000", "090739.220000", "090741.220000", "090743.220000", "090745.220000", "090747.220000", "090749.220000", "090751.220000", "090753.220000", "090755.220000", "090757.220000", "090759.220000", "090801.220000", "090803.220000", "090805.220000", "090807.220000", "090809.220000", "090811.220000", "090813.220000", "090815.220000", "090817.220000", "090819.220000", "090821.220000", "090823.220000", "090825.220000", "090827.220000", "090829.220000", "090831.220000", "090833.220000", "090835.220000", "090837.220000", "090839.220000", "090841.220000", "090843.220000", "090845.220000", "090847.220000", "090849.220000", "090851.220000", "090853.220000", "090855.220000", "090857.220000", "090859.220000", "090901.220000", "090903.220000", "090905.220000", "090907.220000", "090909.220000", "090911.220000", "090913.220000", "090915.220000", "090917.220000", "090919.220000", "090921.220000", "090923.220000", "090925.220000", "090927.220000", "090929.220000", "090931.220000", "090933.220000", "090935.220000", "090937.220000", "090939.220000", "090941.220000", "090943.220000", "090945.220000", "090947.220000", "090949.220000", "090951.220000", "090953.220000", "090955.220000", "090957.220000", "090959.220000", "091001.220000", "091003.220000", "091005.220000", "091007.220000", "091009.220000", "091011.220000", "091013.220000", "091015.220000", "091017.220000", "091019.220000", "091021.220000", "091023.220000", "091025.220000", "091027.220000", "091029.220000", "091031.220000", "091033.220000", "091035.220000", "091037.220000", "091039.220000", "091041.220000", "091043.220000", "091045.220000", "091047.220000", "091049.220000", "091051.220000", "091053.220000", "091055.220000", "091057.220000", "091059.220000", "091101.220000", "091103.220000", "091105.220000", "091107.220000", "091109.220000", "091111.220000", "091113.220000", "091115.220000", "091117.220000", "091119.220000", "091121.220000", "091123.220000", "091125.220000", "091127.220000", "091129.220000", "091131.220000", "091133.220000", "091135.220000", "091137.220000", "091139.220000", "091141.220000", "091143.220000", "091145.220000", "091147.220000", "091149.220000", "091151.220000", "091153.220000", "091155.220000", "091157.220000", "091159.220000", "091201.220000", "091203.220000", "091205.220000", "091207.220000", "091209.220000", "091211.220000", "091213.220000", "091215.220000", "091217.220000", "091219.220000", "091221.220000", "091223.220000", "091225.220000", "091227.220000", "091229.220000", "091231.220000", "091233.220000", "091235.220000", "091237.220000", "091239.220000", "091241.220000", "091243.220000", "091245.220000", "091247.220000", "091249.220000", "091251.220000", "091253.220000", "091255.220000", "091257.220000", "091259.220000", "091301.220000", "091303.220000", "091305.220000", "091307.220000", "091309.220000", "091311.220000", "091313.220000", "091315.220000", "091317.220000", "091319.220000", "091321.220000", "091323.220000", "091325.220000", "091327.220000", "091329.220000", "091331.220000", "091333.220000", "091335.220000", "091337.220000", "091339.220000", "091341.220000", "091343.220000", "091345.220000", "091347.220000", "091349.220000", "091351.220000"],
      "ContentTime": ["090754.930000", "090754.933000", "090754.936000", "090754.944000", "090754.946000", "090754.949000", "090754.952000", "090754.954000", "090754.957000", "090754.960000", "090754.962000", "090754.965000", "090754.968000", "090754.970000", "090754.973000", "090754.976000", "090754.978000", "090754.981000", "090754.983000", "090754.986000", "090754.989000", "090834.924000", "090834.927000", "090834.929000", "090834.932000", "090834.935000", "090834.937000", "090834.940000", "090834.942000", "090834.945000", "090834.947000", "090834.950000", "090834.953000", "090834.955000", "090834.958000", "090834.960000", "090834.963000", "090834.965000", "090834.968000", "090834.971000", "090834.973000", "090914.925000", "090914.927000", "090914.930000", "090914.933000", "090914.935000", "090914.938000", "090914.940000", "090914.943000", "090914.945000", "090914.948000", "090914.951000", "090914.953000", "090914.956000", "090914.958000", "090914.961000", "090914.964000", "090914.966000", "090914.969000", "090914.977000", "090914.979000", "090954.924000", "090954.927000", "090954.930000", "090954.932000", "090954.935000", "090954.938000", "090954.940000", "090954.943000", "090954.945000", "090954.948000", "090954.951000", "090954.953000", "090954.956000", "090954.958000", "090954.961000", "090954.964000", "090954.966000", "090954.969000", "090954.971000", "090954.974000", "091034.925000", "091034.928000", "091034.930000", "091034.933000", "091034.935000", "091034.938000", "091034.941000", "091034.943000", "091034.946000", "091034.948000", "091034.951000", "091034.954000", "091034.956000", "091034.959000", "091034.961000", "091034.964000", "091034.967000", "091034.969000", "091034.972000", "091034.979000", "091114.925000", "091114.927000", "091114.930000", "091114.933000", "091114.935000", "091114.938000", "091114.940000", "091114.943000", "091114.946000", "091114.948000", "091114.951000", "091114.954000", "091114.956000", "091114.959000", "091114.961000", "091114.964000", "091114.967000", "091114.969000", "091114.972000", "091114.974000", "091154.925000", "091154.927000", "091154.930000", "091154.933000", "091154.935000", "091154.938000", "091154.940000", "091154.943000", "091154.946000", "091154.948000", "091154.957000", "091154.960000", "091154.962000", "091154.965000", "091154.968000", "091154.970000", "091154.973000", "091154.975000", "091154.978000", "091154.981000", "091234.925000", "091234.927000", "091234.930000", "091234.933000", "091234.935000", "091234.938000", "091234.940000", "091234.943000", "091234.946000", "091234.948000", "091234.951000", "091234.953000", "091234.956000", "091234.959000", "091234.961000", "091234.964000", "091234.967000", "091234.969000", "091234.972000", "091234.974000", "091254.925000", "091254.928000", "091254.930000", "091254.933000", "091254.936000", "091254.938000", "091254.941000", "091254.944000", "091254.946000", "091254.949000", "091334.925000", "091334.927000", "091334.930000", "091334.933000", "091334.935000", "091334.938000", "091334.941000", "091334.943000", "091334.946000", "091334.948000", "091334.951000", "091334.954000", "091334.956000", "091334.959000", "091334.961000", "091334.964000", "091334.966000", "091334.969000", "091334.972000", "091334.974000", "091352.802000", "091352.805000", "091352.808000", "091352.811000", "091352.813000", "091352.816000", "091352.819000", "091352.821000", "091352.824000"],
      "InstanceCreationTime": ["090754.930000", "090754.933000", "090754.936000", "090754.944000", "090754.946000", "090754.949000", "090754.952000", "090754.954000", "090754.957000", "090754.960000", "090754.962000", "090754.965000", "090754.968000", "090754.970000", "090754.973000", "090754.976000", "090754.978000", "090754.981000", "090754.983000", "090754.986000", "090754.989000", "090834.924000", "090834.927000", "090834.929000", "090834.932000", "090834.935000", "090834.937000", "090834.940000", "090834.942000", "090834.945000", "090834.947000", "090834.950000", "090834.953000", "090834.955000", "090834.958000", "090834.960000", "090834.963000", "090834.965000", "090834.968000", "090834.971000", "090834.973000", "090914.925000", "090914.927000", "090914.930000", "090914.933000", "090914.935000", "090914.938000", "090914.940000", "090914.943000", "090914.945000", "090914.948000", "090914.951000", "090914.953000", "090914.956000", "090914.958000", "090914.961000", "090914.964000", "090914.966000", "090914.969000", "090914.977000", "090914.979000", "090954.924000", "090954.927000", "090954.930000", "090954.932000", "090954.935000", "090954.938000", "090954.940000", "090954.943000", "090954.945000", "090954.948000", "090954.951000", "090954.953000", "090954.956000", "090954.958000", "090954.961000", "090954.964000", "090954.966000", "090954.969000", "090954.971000", "090954.974000", "091034.925000", "091034.928000", "091034.930000", "091034.933000", "091034.935000", "091034.938000", "091034.941000", "091034.943000", "091034.946000", "091034.948000", "091034.951000", "091034.954000", "091034.956000", "091034.959000", "091034.961000", "091034.964000", "091034.967000", "091034.969000", "091034.972000", "091034.979000", "091114.925000", "091114.927000", "091114.930000", "091114.933000", "091114.935000", "091114.938000", "091114.940000", "091114.943000", "091114.946000", "091114.948000", "091114.951000", "091114.954000", "091114.956000", "091114.959000", "091114.961000", "091114.964000", "091114.967000", "091114.969000", "091114.972000", "091114.974000", "091154.925000", "091154.927000", "091154.930000", "091154.933000", "091154.935000", "091154.938000", "091154.940000", "091154.943000", "091154.946000", "091154.948000", "091154.957000", "091154.960000", "091154.962000", "091154.965000", "091154.968000", "091154.970000", "091154.973000", "091154.975000", "091154.978000", "091154.981000", "091234.925000", "091234.927000", "091234.930000", "091234.933000", "091234.935000", "091234.938000", "091234.940000", "091234.943000", "091234.946000", "091234.948000", "091234.951000", "091234.953000", "091234.956000", "091234.959000", "091234.961000", "091234.964000", "091234.967000", "091234.969000", "091234.972000", "091234.974000", "091254.925000", "091254.928000", "091254.930000", "091254.933000", "091254.936000", "091254.938000", "091254.941000", "091254.944000", "091254.946000", "091254.949000", "091334.925000", "091334.927000", "091334.930000", "091334.933000", "091334.935000", "091334.938000", "091334.941000", "091334.943000", "091334.946000", "091334.948000", "091334.951000", "091334.954000", "091334.956000", "091334.959000", "091334.961000", "091334.964000", "091334.966000", "091334.969000", "091334.972000", "091334.974000", "091352.802000", "091352.805000", "091352.808000", "091352.811000", "091352.813000", "091352.816000", "091352.819000", "091352.821000", "091352.824000"],
      "InstanceNumber": [1, 2, 3, 4, 5, 6, 7, 8, 9, 10, 11, 12, 13, 14, 15, 16, 17, 18, 19, 20, 21, 22, 23, 24, 25, 26, 27, 28, 29, 30, 31, 32, 33, 34, 35, 36, 37, 38, 39, 40, 41, 42, 43, 44, 45, 46, 47, 48, 49, 50, 51, 52, 53, 54, 55, 56, 57, 58, 59, 60, 61, 62, 63, 64, 65, 66, 67, 68, 69, 70, 71, 72, 73, 74, 75, 76, 77, 78, 79, 80, 81, 82, 83, 84, 85, 86, 87, 88, 89, 90, 91, 92, 93, 94, 95, 96, 97, 98, 99, 100, 101, 102, 103, 104, 105, 106, 107, 108, 109, 110, 111, 112, 113, 114, 115, 116, 117, 118, 119, 120, 121, 122, 123, 124, 125, 126, 127, 128, 129, 130, 131, 132, 133, 134, 135, 136, 137, 138, 139, 140, 141, 142, 143, 144, 145, 146, 147, 148, 149, 150, 151, 152, 153, 154, 155, 156, 157, 158, 159, 160, 161, 162, 163, 164, 165, 166, 167, 168, 169, 170, 171, 172, 173, 174, 175, 176, 177, 178, 179, 180, 181, 182, 183, 184, 185, 186, 187, 188, 189, 190, 191, 192, 193, 194, 195, 196, 197, 198, 199, 200],
      "LargestImagePixelValue": [3885, 3903, 3894, 3889, 3900, 3882, 3893, 3900, 3897, 3886, 3897, 3885, 3883, 3894, 3879, 3898, 3884, 3899, 3892, 3880, 3881, 3891, 3894, 3883, 3892, 3897, 3867, 3880, 3882, 3895, 3886, 3893, 3887, 3889, 3885, 3880, 3889, 3892, 3876, 3887, 3885, 3889, 3896, 3883, 3892, 3884, 3892, 3882, 3890, 3889, 3882, 3882, 3873, 3873, 3876, 3879, 3878, 3883, 3876, 3884, 3872, 3891, 3893, 3891, 3883, 3871, 3894, 3890, 3904, 3882, 3896, 3892, 3892, 3894, 3893, 3889, 3889, 3897, 3889, 3886, 3895, 3882, 3887, 3871, 3881, 3882, 3885, 3888, 3901, 3893, 3902, 3902, 3901, 3895, 3898, 3911, 3902, 3877, 3905, 3894, 3886, 3886, 3895, 3880, 3896, 3904, 3894, 3895, 3899, 3879, 3913, 3899, 3890, 3902, 3907, 3893, 3914, 3891, 3900, 3872, 3886, 3885, 3892, 3885, 3894, 3894, 3884, 3888, 3894, 3874, 3879, 3899, 3884, 3891, 3878, 3881, 3884, 3887, 3891, 3909, 3899, 3892, 3900, 3897, 3887, 3879, 3888, 3887, 3892, 3881, 3892, 3893, 3860, 3870, 3865, 3866, 3858, 3863, 3880, 3853, 3861, 3875, 3867, 3873, 3874, 3879, 3869, 3872, 3866, 3866, 3863, 3848, 3839, 3837, 3864, 3854, 3844, 3847, 3834, 3830, 3830, 3834, 3831, 3822, 3846, 3823, 3821, 3831, 3841, 3829, 3823, 3817, 3826, 3833, 3821, 3833, 3821, 3831, 3835, 3825],
      "WindowCenter": [1472.0, 1470.0, 1471.0, 1470.0, 1470.0, 1470.0, 1470.0, 1471.0, 1470.0, 1470.0, 1471.0, 1470.0, 1471.0, 1469.0, 1470.0, 1470.0, 1470.0, 1470.0, 1470.0, 1470.0, 1470.0, 1469.0, 1469.0, 1470.0, 1470.0, 1470.0, 1469.0, 1469.0, 1469.0, 1469.0, 1468.0, 1469.0, 1469.0, 1469.0, 1469.0, 1468.0, 1469.0, 1469.0, 1468.0, 1468.0, 1468.0, 1468.0, 1468.0, 1468.0, 1468.0, 1469.0, 1469.0, 1468.0, 1468.0, 1468.0, 1468.0, 1469.0, 1468.0, 1468.0, 1469.0, 1468.0, 1468.0, 1468.0, 1469.0, 1468.0, 1468.0, 1467.0, 1468.0, 1468.0, 1468.0, 1467.0, 1468.0, 1468.0, 1468.0, 1468.0, 1468.0, 1468.0, 1467.0, 1467.0, 1468.0, 1468.0, 1468.0, 1468.0, 1469.0, 1468.0, 1468.0, 1468.0, 1468.0, 1467.0, 1467.0, 1468.0, 1468.0, 1468.0, 1467.0, 1468.0, 1468.0, 1468.0, 1468.0, 1468.0, 1468.0, 1467.0, 1468.0, 1467.0, 1467.0, 1467.0, 1468.0, 1468.0, 1467.0, 1468.0, 1468.0, 1467.0, 1468.0, 1468.0, 1467.0, 1467.0, 1467.0, 1467.0, 1468.0, 1467.0, 1467.0, 1467.0, 1466.0, 1466.0, 1466.0, 1466.0, 1467.0, 1467.0, 1467.0, 1466.0, 1466.0, 1466.0, 1466.0, 1467.0, 1466.0, 1466.0, 1466.0, 1466.0, 1466.0, 1466.0, 1466.0, 1466.0, 1466.0, 1467.0, 1466.0, 1466.0, 1466.0, 1465.0, 1466.0, 1465.0, 1466.0, 1465.0, 1466.0, 1466.0, 1466.0, 1466.0, 1465.0, 1466.0, 1466.0, 1466.0, 1466.0, 1466.0, 1466.0, 1466.0, 1466.0, 1465.0, 1465.0, 1465.0, 1465.0, 1465.0, 1466.0, 1465.0, 1465.0, 1465.0, 1465.0, 1465.0, 1465.0, 1465.0, 1466.0, 1466.0, 1465.0, 1465.0, 1465.0, 1465.0, 1465.0, 1465.0, 1465.0, 1465.0, 1465.0, 1465.0, 1465.0, 1465.0, 1465.0, 1465.0, 1465.0, 1464.0, 1464.0, 1464.0, 1464.0, 1464.0, 1464.0, 1465.0, 1465.0, 1464.0, 1464.0, 1464.0],
      "WindowWidth": [3359.0, 3359.0, 3359.0, 3359.0, 3358.0, 3359.0, 3358.0, 3358.0, 3358.0, 3358.0, 3358.0, 3358.0, 3357.0, 3358.0, 3358.0, 3358.0, 3358.0, 3358.0, 3358.0, 3358.0, 3358.0, 3357.0, 3357.0, 3358.0, 3357.0, 3358.0, 3357.0, 3357.0, 3357.0, 3357.0, 3357.0, 3357.0, 3357.0, 3357.0, 3357.0, 3357.0, 3357.0, 3357.0, 3357.0, 3357.0, 3356.0, 3356.0, 3357.0, 3356.0, 3356.0, 3356.0, 3356.0, 3356.0, 3356.0, 3356.0, 3356.0, 3355.0, 3356.0, 3356.0, 3355.0, 3356.0, 3355.0, 3355.0, 3355.0, 3356.0, 3356.0, 3356.0, 3355.0, 3355.0, 3355.0, 3356.0, 3355.0, 3355.0, 3355.0, 3355.0, 3355.0, 3355.0, 3355.0, 3355.0, 3354.0, 3355.0, 3354.0, 3354.0, 3354.0, 3354.0, 3354.0, 3354.0, 3354.0, 3354.0, 3354.0, 3354.0, 3354.0, 3354.0, 3354.0, 3354.0, 3354.0, 3354.0, 3354.0, 3354.0, 3354.0, 3354.0, 3354.0, 3353.0, 3354.0, 3354.0, 3353.0, 3353.0, 3354.0, 3353.0, 3353.0, 3353.0, 3353.0, 3352.0, 3353.0, 3353.0, 3353.0, 3353.0, 3352.0, 3353.0, 3353.0, 3353.0, 3353.0, 3353.0, 3353.0, 3353.0, 3353.0, 3352.0, 3352.0, 3353.0, 3353.0, 3353.0, 3353.0, 3353.0, 3352.0, 3353.0, 3352.0, 3352.0, 3352.0, 3353.0, 3353.0, 3352.0, 3352.0, 3352.0, 3352.0, 3352.0, 3352.0, 3352.0, 3352.0, 3352.0, 3352.0, 3352.0, 3352.0, 3352.0, 3352.0, 3352.0, 3352.0, 3352.0, 3352.0, 3352.0, 3352.0, 3352.0, 3352.0, 3352.0, 3352.0, 3352.0, 3352.0, 3352.0, 3352.0, 3352.0, 3352.0, 3352.0, 3352.0, 3352.0, 3352.0, 3352.0, 3351.0, 3351.0, 3351.0, 3351.0, 3351.0, 3352.0, 3352.0, 3351.0, 3351.0, 3351.0, 3351.0, 3351.0, 3352.0, 3351.0, 3351.0, 3351.0, 3351.0, 3351.0, 3351.0, 3351.0, 3351.0, 3351.0, 3351.0, 3351.0, 3351.0, 3351.0, 3351.0, 3351.0, 3351.0, 3351.0]
    },
    "slices": {}
  }
}