{
  "AcquisitionMatrixPE": 80,
  "AcquisitionNumber": 1,
  "AcquisitionTime": "09:30:6.157500",
  "BandwidthPerPixelPhaseEncode": 44.643,
  "BaseResolution": 80,
  "BodyPartExamined": "BRAIN",
  "CoilCombinationMethod": "Sum of Squares",
  "ConsistencyInfo": "N4_VE11C_LATEST_20160120",
  "ConversionSoftware": "dcm2niix",
  "ConversionSoftwareVersion": "v1.0.20220720",
  "DerivedVendorReportedEchoSpacing": 0.000559998,
  "DeviceSerialNumber": "66112",
  "DwellTime": 2.7e-06,
  "EchoTime": 0.035,
  "EchoTrainLength": 39,
  "EffectiveEchoSpacing": 0.000279999,
  "FlipAngle": 90,
  "HeudiconvVersion": "0.13.1",
  "ImageOrientationPatientDICOM": [0.982952, 0.183513, 0.0112874, -0.178455, 0.937483, 0.298795],
  "ImageOrientationText": "Tra>Cor(17.2)>Sag(-2.5)",
  "ImageType": [
    "ORIGINAL",
    "PRIMARY",
    "M",
    "ND",
    "NORM",
    "MOSAIC"
],
  "ImagingFrequency": 123.252,
  "InPlanePhaseEncodingDirectionDICOM": "COL",
  "InstitutionAddress": "Maynard 3,Hanover,NH,US,03755",
  "InstitutionName": "Dartmouth College - PBS",
  "InstitutionalDepartmentName": "Department",
  "MRAcquisitionType": "2D",
  "MagneticFieldStrength": 3,
  "Manufacturer": "Siemens",
  "ManufacturersModelName": "Prisma",
  "Modality": "MR",
  "MultibandAccelerationFactor": 4,
  "NonlinearGradientCorrection": false,
  "ParallelReductionFactorInPlane": 2,
  "PartialFourier": 1,
  "PatientPosition": "HFS",
  "PercentPhaseFOV": 100,
  "PercentSampling": 100,
  "PhaseEncodingDirection": "j-",
  "PhaseEncodingSteps": 79,
  "PhaseResolution": 1,
  "PixelBandwidth": 2315,
  "ProcedureStepDescription": "dbic^QA",
  "ProtocolName": "func-bold_task-rest_acq-p2-s4-3.5mm",
  "PulseSequenceDetails": "%SiemensSeq%\\ep2d_bold",
  "ReceiveCoilActiveElements": "HEA;HEP",
  "ReceiveCoilName": "Head_32",
  "ReconMatrixPE": 80,
  "RefLinesPE": 24,
  "RepetitionTime": 2,
  "SAR": 0.0209754,
  "ScanOptions": "FS",
  "ScanningSequence": "EP",
  "SequenceName": "*epfid2d1_80",
  "SequenceVariant": "SK",
  "SeriesDescription": "func-bold_task-rest_acq-p2-s4-3.5mm",
  "SeriesNumber": 7,
  "ShimSetting": [4144, -7685, -7517, 275, -34, -176, -40, 57],
  "SliceThickness": 3.5,
  "SliceTiming": [1.485, 0, 0.99, 0.2475, 1.2375, 0.7425, 1.7325, 0.495, 1.485, 0, 0.99, 0.2475, 1.2375, 0.7425, 1.7325, 0.495, 1.485, 0, 0.99, 0.2475, 1.2375, 0.7425, 1.7325, 0.495, 1.485, 0, 0.99, 0.2475, 1.2375, 0.7425, 1.7325, 0.495],
  "SoftwareVersions": "syngo MR E11",
  "SpacingBetweenSlices": 3.99,
  "StationName": "AWP66112",
  "TaskName": "rest",
  "TotalReadoutTime": 0.0221199,
  "TxRefAmp": 227.181,
  "dcmmeta_affine": [
    [-2.948857307434082, -0.5353663563728333, -0.176561638712883, 146.18711853027344],
    [-0.5505396127700806, 2.812450408935547, 1.1799046993255615, -95.5499267578125],
    [0.03386228159070015, -0.8963846564292908, 3.807459831237793, -28.43026351928711],
    [0.0, 0.0, 0.0, 1.0]
],
  "dcmmeta_reorient_transform": [
    [0.0, -1.0, 0.0, 79.0],
    [1.0, 0.0, 0.0, 0.0],
    [0.0, 0.0, 1.0, 0.0],
    [0.0, 0.0, 0.0, 1.0]
],
  "dcmmeta_shape": [80, 80, 32, 200],
  "dcmmeta_slice_dim": 2,
  "dcmmeta_version": 0.6,
  "global": {
    "const": {
      "AccessionNumber": "qa",
      "AcquisitionMatrix": [80, 0, 0, 80],
      "AngioFlag": "N",
      "BitsAllocated": 16,
      "BitsStored": 12,
      "BodyPartExamined": "BRAIN",
      "Columns": 480,
      "EchoNumbers": 1,
      "EchoTime": 35.0,
      "EchoTrainLength": 39,
      "FlipAngle": 90.0,
      "HighBit": 11,
      "ImageOrientationPatient": [0.98295243750168, 0.1835132137012, 0.01128742692421, -0.1784554608437, 0.93748347173429, 0.29879489406628],
      "ImagePositionPatient": [-586.59135503119, -799.23167057761, -285.29404589342],
      "ImageType": [
        "ORIGINAL",
        "PRIMARY",
        "M",
        "ND",
        "NORM",
        "MOSAIC"
],
      "ImagedNucleus": "1H",
      "ImagingFrequency": 123.252439,
      "InPlanePhaseEncodingDirection": "COL",
      "MRAcquisitionType": "2D",
      "MagneticFieldStrength": 3.0,
      "Manufacturer": "SIEMENS",
      "ManufacturerModelName": "Prisma",
      "Modality": "MR",
      "NumberOfAverages": 1.0,
      "NumberOfPhaseEncodingSteps": 79,
      "PercentPhaseFieldOfView": 100.0,
      "PercentSampling": 100.0,
      "PerformedProcedureStepStartTime": "085314.389000",
      "PhotometricInterpretation": "MONOCHROME2",
      "PixelBandwidth": 2315.0,
      "PixelRepresentation": 0,
      "PixelSpacing": [3.0, 3.0],
      "ProtocolName": "func-bold_task-rest_acq-p2-s4-3.5mm",
      "RepetitionTime": 2000.0,
      "Rows": 480,
      "SAR": 0.02097539416175,
      "SamplesPerPixel": 1,
      "ScanOptions": "FS",
      "ScanningSequence": "EP",
      "SequenceName": "*epfid2d1_80",
      "SequenceVariant": "SK",
      "SeriesDescription": "func-bold_task-rest_acq-p2-s4-3.5mm",
      "SeriesNumber": 7,
      "SeriesTime": "093055.598000",
      "SliceLocation": -61.854117715207,
      "SliceThickness": 3.5,
      "SmallestImagePixelValue": 0,
      "SoftwareVersions": "syngo MR E11",
      "SpacingBetweenSlices": 3.9900000428784,
      "SpecificCharacterSet": "ISO_IR 100",
      "StudyID": "21",
      "StudyTime": "085314.291000",
      "TransmitCoilName": "Body",
      "VariableFlipAngleFlag": "N",
      "WindowCenterWidthExplanation": "Algo1",
      "dBdt": 0.0},
    "slices": {}
  },
  "time": {
    "samples": {
      "AcquisitionNumber": [1, 2, 3, 4, 5, 6, 7, 8, 9, 10, 11, 12, 13, 14, 15, 16, 17, 18, 19, 20, 21, 22, 23, 24, 25, 26, 27, 28, 29, 30, 31, 32, 33, 34, 35, 36, 37, 38, 39, 40, 41, 42, 43, 44, 45, 46, 47, 48, 49, 50, 51, 52, 53, 54, 55, 56, 57, 58, 59, 60, 61, 62, 63, 64, 65, 66, 67, 68, 69, 70, 71, 72, 73, 74, 75, 76, 77, 78, 79, 80, 81, 82, 83, 84, 85, 86, 87, 88, 89, 90, 91, 92, 93, 94, 95, 96, 97, 98, 99, 100, 101, 102, 103, 104, 105, 106, 107, 108, 109, 110, 111, 112, 113, 114, 115, 116, 117, 118, 119, 120, 121, 122, 123, 124, 125, 126, 127, 128, 129, 130, 131, 132, 133, 134, 135, 136, 137, 138, 139, 140, 141, 142, 143, 144, 145, 146, 147, 148, 149, 150, 151, 152, 153, 154, 155, 156, 157, 158, 159, 160, 161, 162, 163, 164, 165, 166, 167, 168, 169, 170, 171, 172, 173, 174, 175, 176, 177, 178, 179, 180, 181, 182, 183, 184, 185, 186, 187, 188, 189, 190, 191, 192, 193, 194, 195, 196, 197, 198, 199, 200],
      "AcquisitionTime": ["093006.157500", "093008.157500", "093010.157500", "093012.157500", "093014.157500", "093016.157500", "093018.157500", "093020.157500", "093022.157500", "093024.157500", "093026.157500", "093028.157500", "093030.157500", "093032.157500", "093034.157500", "093036.157500", "093038.157500", "093040.157500", "093042.157500", "093044.157500", "093046.157500", "093048.157500", "093050.157500", "093052.157500", "093054.157500", "093056.157500", "093058.157500", "093100.157500", "093102.157500", "093104.157500", "093106.157500", "093108.157500", "093110.157500", "093112.157500", "093114.157500", "093116.157500", "093118.157500", "093120.157500", "093122.157500", "093124.157500", "093126.157500", "093128.157500", "093130.157500", "093132.157500", "093134.157500", "093136.157500", "093138.157500", "093140.157500", "093142.157500", "093144.157500", "093146.157500", "093148.157500", "093150.157500", "093152.157500", "093154.157500", "093156.157500", "093158.157500", "093200.157500", "093202.157500", "093204.157500", "093206.157500", "093208.157500", "093210.157500", "093212.157500", "093214.157500", "093216.157500", "093218.157500", "093220.157500", "093222.157500", "093224.157500", "093226.157500", "093228.157500", "093230.157500", "093232.157500", "093234.157500", "093236.157500", "093238.157500", "093240.157500", "093242.157500", "093244.157500", "093246.157500", "093248.157500", "093250.157500", "093252.157500", "093254.157500", "093256.157500", "093258.157500", "093300.157500", "093302.157500", "093304.157500", "093306.157500", "093308.157500", "093310.157500", "093312.157500", "093314.157500", "093316.157500", "093318.157500", "093320.157500", "093322.157500", "093324.157500", "093326.157500", "093328.157500", "093330.157500", "093332.157500", "093334.157500", "093336.157500", "093338.157500", "093340.157500", "093342.157500", "093344.157500", "093346.157500", "093348.157500", "093350.157500", "093352.157500", "093354.157500", "093356.157500", "093358.157500", "093400.157500", "093402.157500", "093404.157500", "093406.157500", "093408.157500", "093410.157500", "093412.157500", "093414.157500", "093416.157500", "093418.157500", "093420.157500", "093422.157500", "093424.157500", "093426.157500", "093428.157500", "093430.157500", "093432.157500", "093434.157500", "093436.157500", "093438.157500", "093440.157500", "093442.157500", "093444.157500", "093446.157500", "093448.157500", "093450.157500", "093452.157500", "093454.157500", "093456.157500", "093458.157500", "093500.157500", "093502.157500", "093504.157500", "093506.157500", "093508.157500", "093510.157500", "093512.157500", "093514.157500", "093516.157500", "093518.157500", "093520.157500", "093522.157500", "093524.157500", "093526.157500", "093528.157500", "093530.157500", "093532.157500", "093534.157500", "093536.157500", "093538.157500", "093540.157500", "093542.157500", "093544.157500", "093546.157500", "093548.157500", "093550.157500", "093552.157500", "093554.157500", "093556.157500", "093558.157500", "093600.157500", "093602.157500", "093604.157500", "093606.157500", "093608.157500", "093610.157500", "093612.157500", "093614.157500", "093616.157500", "093618.157500", "093620.157500", "093622.157500", "093624.157500", "093626.157500", "093628.157500", "093630.157500", "093632.157500", "093634.157500", "093636.157500", "093638.157500", "093640.157500", "093642.157500", "093644.157500"],
      "ContentTime": ["093055.601000", "093055.605000", "093055.608000", "093055.610000", "093055.613000", "093055.615000", "093055.625000", "093055.627000", "093055.630000", "093055.632000", "093055.635000", "093055.638000", "093055.640000", "093055.648000", "093055.658000", "093055.660000", "093055.663000", "093055.666000", "093055.668000", "093055.671000", "093055.673000", "093055.676000", "093055.679000", "093055.681000", "093055.684000", "093135.597000", "093135.600000", "093135.602000", "093135.605000", "093135.607000", "093135.610000", "093135.612000", "093135.615000", "093135.618000", "093135.620000", "093135.623000", "093135.625000", "093135.628000", "093135.630000", "093135.636000", "093135.639000", "093135.648000", "093135.650000", "093135.653000", "093135.656000", "093215.595000", "093215.598000", "093215.601000", "093215.603000", "093215.606000", "093215.609000", "093215.611000", "093215.614000", "093215.616000", "093215.619000", "093215.622000", "093215.624000", "093215.627000", "093215.630000", "093215.632000", "093215.635000", "093215.638000", "093215.640000", "093215.643000", "093215.646000", "093255.596000", "093255.599000", "093255.602000", "093255.604000", "093255.607000", "093255.609000", "093255.612000", "093255.614000", "093255.617000", "093255.620000", "093255.622000", "093255.625000", "093255.627000", "093255.630000", "093255.632000", "093255.635000", "093255.637000", "093255.646000", "093255.648000", "093255.651000", "093335.597000", "093335.599000", "093335.602000", "093335.605000", "093335.607000", "093335.610000", "093335.612000", "093335.615000", "093335.617000", "093335.620000", "093335.622000", "093335.625000", "093335.627000", "093335.630000", "093335.633000", "093335.635000", "093335.638000", "093335.640000", "093335.643000", "093335.645000", "093415.595000", "093415.598000", "093415.601000", "093415.604000", "093415.606000", "093415.609000", "093415.611000", "093415.614000", "093415.616000", "093415.619000", "093415.621000", "093415.631000", "093415.634000", "093415.636000", "093415.639000", "093415.641000", "093415.644000", "093415.647000", "093415.649000", "093415.652000", "093455.595000", "093455.598000", "093455.601000", "093455.604000", "093455.606000", "093455.609000", "093455.612000", "093455.614000", "093455.617000", "093455.619000", "093455.622000", "093455.625000", "093455.627000", "093455.630000", "093455.632000", "093455.635000", "093455.637000", "093455.640000", "093455.643000", "093455.645000", "093535.597000", "093535.599000", "093535.602000", "093535.605000", "093535.607000", "093535.610000", "093535.612000", "093535.615000", "093535.617000", "093535.620000", "093535.623000", "093535.625000", "093535.628000", "093535.638000", "093535.641000", "093535.643000", "093535.646000", "093535.648000", "093535.651000", "093535.653000", "093555.596000", "093555.599000", "093555.602000", "093555.611000", "093555.613000", "093555.616000", "093555.618000", "093555.621000", "093555.624000", "093555.626000", "093635.596000", "093635.599000", "093635.601000", "093635.604000", "093635.606000", "093635.609000", "093635.612000", "093635.614000", "093635.617000", "093635.619000", "093635.622000", "093635.624000", "093635.627000", "093635.629000", "093635.632000", "093635.634000", "093635.637000", "093635.640000", "093635.642000", "093635.645000", "093645.376000", "093645.378000", "093645.381000", "093645.384000", "093645.386000"],
      "InstanceCreationTime": ["093055.601000", "093055.605000", "093055.608000", "093055.610000", "093055.613000", "093055.615000", "093055.625000", "093055.627000", "093055.630000", "093055.632000", "093055.635000", "093055.638000", "093055.640000", "093055.648000", "093055.658000", "093055.660000", "093055.663000", "093055.666000", "093055.668000", "093055.671000", "093055.673000", "093055.676000", "093055.679000", "093055.681000", "093055.684000", "093135.597000", "093135.600000", "093135.602000", "093135.605000", "093135.607000", "093135.610000", "093135.612000", "093135.615000", "093135.618000", "093135.620000", "093135.623000", "093135.625000", "093135.628000", "093135.630000", "093135.636000", "093135.639000", "093135.648000", "093135.650000", "093135.653000", "093135.656000", "093215.595000", "093215.598000", "093215.601000", "093215.603000", "093215.606000", "093215.609000", "093215.611000", "093215.614000", "093215.616000", "093215.619000", "093215.622000", "093215.624000", "093215.627000", "093215.630000", "093215.632000", "093215.635000", "093215.638000", "093215.640000", "093215.643000", "093215.646000", "093255.596000", "093255.599000", "093255.602000", "093255.604000", "093255.607000", "093255.609000", "093255.612000", "093255.614000", "093255.617000", "093255.620000", "093255.622000", "093255.625000", "093255.627000", "093255.630000", "093255.632000", "093255.635000", "093255.637000", "093255.646000", "093255.648000", "093255.651000", "093335.597000", "093335.599000", "093335.602000", "093335.605000", "093335.607000", "093335.610000", "093335.612000", "093335.615000", "093335.617000", "093335.620000", "093335.622000", "093335.625000", "093335.627000", "093335.630000", "093335.633000", "093335.635000", "093335.638000", "093335.640000", "093335.643000", "093335.645000", "093415.595000", "093415.598000", "093415.601000", "093415.604000", "093415.606000", "093415.609000", "093415.611000", "093415.614000", "093415.616000", "093415.619000", "093415.621000", "093415.631000", "093415.634000", "093415.636000", "093415.639000", "093415.641000", "093415.644000", "093415.647000", "093415.649000", "093415.652000", "093455.595000", "093455.598000", "093455.601000", "093455.604000", "093455.606000", "093455.609000", "093455.612000", "093455.614000", "093455.617000", "093455.619000", "093455.622000", "093455.625000", "093455.627000", "093455.630000", "093455.632000", "093455.635000", "093455.637000", "093455.640000", "093455.643000", "093455.645000", "093535.597000", "093535.599000", "093535.602000", "093535.605000", "093535.607000", "093535.610000", "093535.612000", "093535.615000", "093535.617000", "093535.620000", "093535.623000", "093535.625000", "093535.628000", "093535.638000", "093535.641000", "093535.643000", "093535.646000", "093535.648000", "093535.651000", "093535.653000", "093555.596000", "093555.599000", "093555.602000", "093555.611000", "093555.613000", "093555.616000", "093555.618000", "093555.621000", "093555.624000", "093555.626000", "093635.596000", "093635.599000", "093635.601000", "093635.604000", "093635.606000", "093635.609000", "093635.612000", "093635.614000", "093635.617000", "093635.619000", "093635.622000", "093635.624000", "093635.627000", "093635.629000", "093635.632000", "093635.634000", "093635.637000", "093635.640000", "093635.642000", "093635.645000", "093645.376000", "093645.378000", "093645.381000", "093645.384000", "093645.386000"],
      "InstanceNumber": [1, 2, 3, 4, 5, 6, 7, 8, 9, 10, 11, 12, 13, 14, 15, 16, 17, 18, 19, 20, 21, 22, 23, 24, 25, 26, 27, 28, 29, 30, 31, 32, 33, 34, 35, 36, 37, 38, 39, 40, 41, 42, 43, 44, 45, 46, 47, 48, 49, 50, 51, 52, 53, 54, 55, 56, 57, 58, 59, 60, 61, 62, 63, 64, 65, 66, 67, 68, 69, 70, 71, 72, 73, 74, 75, 76, 77, 78, 79, 80, 81, 82, 83, 84, 85, 86, 87, 88, 89, 90, 91, 92, 93, 94, 95, 96, 97, 98, 99, 100, 101, 102, 103, 104, 105, 106, 107, 108, 109, 110, 111, 112, 113, 114, 115, 116, 117, 118, 119, 120, 121, 122, 123, 124, 125, 126, 127, 128, 129, 130, 131, 132, 133, 134, 135, 136, 137, 138, 139, 140, 141, 142, 143, 144, 145, 146, 147, 148, 149, 150, 151, 152, 153, 154, 155, 156, 157, 158, 159, 160, 161, 162, 163, 164, 165, 166, 167, 168, 169, 170, 171, 172, 173, 174, 175, 176, 177, 178, 179, 180, 181, 182, 183, 184, 185, 186, 187, 188, 189, 190, 191, 192, 193, 194, 195, 196, 197, 198, 199, 200],
      "LargestImagePixelValue": [2070, 2072, 2068, 2074, 2074, 2072, 2070, 2067, 2069, 2073, 2068, 2078, 2069, 2065, 2072, 2070, 2073, 2070, 2069, 2070, 2072, 2072, 2071, 2069, 2073, 2062, 2066, 2077, 2074, 2078, 2072, 2075, 2073, 2078, 2072, 2071, 2068, 2073, 2076, 2075, 2071, 2070, 2069, 2070, 2070, 2069, 2062, 2079, 2077, 2077, 2068, 2074, 2071, 2074, 2076, 2066, 2067, 2077, 2080, 2077, 2073, 2073, 2074, 2074, 2075, 2077, 2075, 2070, 2072, 2079, 2071, 2068, 2068, 2072, 2070, 2069, 2071, 2073, 2077, 2076, 2074, 2074, 2073, 2070, 2072, 2073, 2070, 2071, 2072, 2073, 2070, 2074, 2073, 2080, 2076, 2071, 2076, 2070, 2074, 2073, 2073, 2072, 2075, 2072, 2071, 2078, 2080, 2078, 2080, 2072, 2075, 2073, 2076, 2075, 2070, 2069, 2063, 2066, 2077, 2077, 2073, 2072, 2068, 2073, 2074, 2076, 2072, 2072, 2075, 2077, 2073, 2073, 2077, 2070, 2078, 2074, 2072, 2075, 2070, 2080, 2072, 2077, 2077, 2072, 2073, 2074, 2073, 2075, 2072, 2070, 2079, 2072, 2072, 2077, 2075, 2078, 2071, 2077, 2071, 2075, 2075, 2071, 2071, 2071, 2076, 2075, 2076, 2078, 2075, 2069, 2069, 2077, 2072, 2079, 2080, 2065, 2066, 2074, 2078, 2072, 2073, 2074, 2072, 2072, 2084, 2073, 2076, 2074, 2080, 2071, 2074, 2075, 2072, 2071, 2077, 2069, 2075, 2071, 2075, 2071],
      "WindowCenter": [918.0, 918.0, 918.0, 918.0, 918.0, 918.0, 918.0, 919.0, 918.0, 918.0, 918.0, 918.0, 918.0, 919.0, 918.0, 918.0, 918.0, 918.0, 918.0, 918.0, 918.0, 918.0, 918.0, 918.0, 919.0, 919.0, 919.0, 919.0, 919.0, 919.0, 919.0, 919.0, 918.0, 918.0, 918.0, 918.0, 919.0, 919.0, 918.0, 919.0, 919.0, 918.0, 918.0, 918.0, 918.0, 919.0, 918.0, 918.0, 918.0, 919.0, 919.0, 918.0, 919.0, 918.0, 919.0, 919.0, 918.0, 918.0, 919.0, 919.0, 919.0, 919.0, 918.0, 918.0, 918.0, 919.0, 919.0, 919.0, 919.0, 919.0, 919.0, 919.0, 919.0, 919.0, 919.0, 919.0, 919.0, 919.0, 919.0, 919.0, 919.0, 919.0, 919.0, 919.0, 919.0, 919.0, 918.0, 919.0, 919.0, 919.0, 919.0, 919.0, 919.0, 919.0, 919.0, 919.0, 919.0, 919.0, 919.0, 919.0, 919.0, 919.0, 919.0, 919.0, 919.0, 918.0, 919.0, 919.0, 919.0, 919.0, 919.0, 919.0, 919.0, 919.0, 919.0, 919.0, 919.0, 919.0, 919.0, 919.0, 919.0, 919.0, 919.0, 919.0, 919.0, 919.0, 919.0, 919.0, 919.0, 919.0, 919.0, 919.0, 919.0, 919.0, 919.0, 919.0, 919.0, 919.0, 919.0, 919.0, 919.0, 919.0, 919.0, 919.0, 919.0, 919.0, 919.0, 919.0, 919.0, 919.0, 919.0, 919.0, 919.0, 919.0, 919.0, 919.0, 919.0, 919.0, 919.0, 919.0, 919.0, 919.0, 919.0, 919.0, 919.0, 919.0, 919.0, 919.0, 919.0, 919.0, 919.0, 919.0, 919.0, 919.0, 919.0, 919.0, 919.0, 919.0, 919.0, 919.0, 919.0, 919.0, 919.0, 919.0, 919.0, 919.0, 919.0, 919.0, 919.0, 919.0, 919.0, 919.0, 919.0, 918.0, 919.0, 919.0, 919.0, 918.0, 919.0, 919.0],
      "WindowWidth": [2090.0, 2090.0, 2090.0, 2090.0, 2090.0, 2090.0, 2090.0, 2091.0, 2090.0, 2090.0, 2090.0, 2090.0, 2090.0, 2090.0, 2090.0, 2090.0, 2090.0, 2090.0, 2090.0, 2090.0, 2090.0, 2090.0, 2090.0, 2090.0, 2090.0, 2091.0, 2090.0, 2090.0, 2091.0, 2090.0, 2090.0, 2091.0, 2090.0, 2090.0, 2090.0, 2090.0, 2090.0, 2090.0, 2090.0, 2090.0, 2090.0, 2090.0, 2090.0, 2090.0, 2090.0, 2090.0, 2090.0, 2090.0, 2090.0, 2090.0, 2090.0, 2090.0, 2090.0, 2090.0, 2090.0, 2090.0, 2090.0, 2090.0, 2091.0, 2090.0, 2091.0, 2090.0, 2090.0, 2090.0, 2090.0, 2090.0, 2090.0, 2090.0, 2090.0, 2090.0, 2090.0, 2091.0, 2090.0, 2090.0, 2090.0, 2090.0, 2090.0, 2091.0, 2091.0, 2091.0, 2091.0, 2091.0, 2090.0, 2090.0, 2090.0, 2091.0, 2090.0, 2091.0, 2091.0, 2091.0, 2091.0, 2091.0, 2091.0, 2091.0, 2090.0, 2090.0, 2091.0, 2091.0, 2090.0, 2090.0, 2090.0, 2090.0, 2090.0, 2090.0, 2090.0, 2091.0, 2090.0, 2090.0, 2090.0, 2091.0, 2091.0, 2090.0, 2090.0, 2090.0, 2090.0, 2090.0, 2090.0, 2090.0, 2090.0, 2090.0, 2090.0, 2090.0, 2090.0, 2090.0, 2090.0, 2092.0, 2091.0, 2090.0, 2091.0, 2091.0, 2090.0, 2090.0, 2090.0, 2090.0, 2090.0, 2090.0, 2090.0, 2090.0, 2090.0, 2091.0, 2090.0, 2091.0, 2091.0, 2090.0, 2092.0, 2090.0, 2090.0, 2090.0, 2090.0, 2090.0, 2091.0, 2091.0, 2090.0, 2091.0, 2091.0, 2091.0, 2090.0, 2091.0, 2090.0, 2090.0, 2091.0, 2090.0, 2090.0, 2090.0, 2090.0, 2091.0, 2090.0, 2091.0, 2090.0, 2090.0, 2091.0, 2090.0, 2090.0, 2091.0, 2090.0, 2091.0, 2090.0, 2091.0, 2091.0, 2091.0, 2090.0, 2091.0, 2091.0, 2091.0, 2091.0, 2091.0, 2091.0, 2090.0, 2090.0, 2091.0, 2090.0, 2090.0, 2090.0, 2090.0, 2091.0, 2090.0, 2091.0, 2090.0, 2090.0, 2091.0]
    },
    "slices": {}
  }
}