{
  "AcquisitionMatrixPE": 122,
  "AcquisitionNumber": 1,
  "AcquisitionTime": "10:31:2.075000",
  "BandwidthPerPixelPhaseEncode": 28.76,
  "BaseResolution": 122,
  "BodyPartExamined": "BRAIN",
  "CoilCombinationMethod": "Adaptive Combine",
  "ConsistencyInfo": "N4_VE11C_LATEST_20160120",
  "ConversionSoftware": "dcm2niix",
  "ConversionSoftwareVersion": "v1.0.20220720",
  "DerivedVendorReportedEchoSpacing": 0.000570008,
  "DeviceSerialNumber": "66112",
  "DiffusionScheme": "Monopolar",
  "DwellTime": 2e-06,
  "EchoTime": 0.075,
  "EchoTrainLength": 61,
  "EffectiveEchoSpacing": 0.000285004,
  "FlipAngle": 90,
  "HeudiconvVersion": "0.13.1",
  "ImageOrientationPatientDICOM": [0.981182, 0.192243, 0.0180127, -0.188768, 0.935447, 0.29884],
  "ImageOrientationText": "Tra>Cor(17.3)>Sag(-2.3)",
  "ImageType": [
    "ORIGINAL",
    "PRIMARY",
    "DIFFUSION",
    "NONE",
    "ND",
    "NORM"
],
  "ImagingFrequency": 123.252,
  "InPlanePhaseEncodingDirectionDICOM": "COL",
  "InstitutionAddress": "Maynard 3,Hanover,NH,US,03755",
  "InstitutionName": "Dartmouth College - PBS",
  "InstitutionalDepartmentName": "Department",
  "MRAcquisitionType": "2D",
  "MagneticFieldStrength": 3,
  "Manufacturer": "Siemens",
  "ManufacturersModelName": "Prisma",
  "MatrixCoilMode": "GRAPPA",
  "Modality": "MR",
  "NonlinearGradientCorrection": false,
  "ParallelReductionFactorInPlane": 2,
  "PartialFourier": 1,
  "PatientPosition": "HFS",
  "PercentPhaseFOV": 100,
  "PercentSampling": 100,
  "PhaseEncodingDirection": "j-",
  "PhaseEncodingSteps": 122,
  "PhaseResolution": 1,
  "PixelBandwidth": 2050,
  "ProcedureStepDescription": "dbic^QA",
  "ProtocolName": "dwi_acq-DTI-30-p2",
  "PulseSequenceDetails": "%SiemensSeq%\\ep2d_diff",
  "ReceiveCoilActiveElements": "HEA;HEP",
  "ReceiveCoilName": "Head_32",
  "ReconMatrixPE": 122,
  "RefLinesPE": 38,
  "RepetitionTime": 7.7,
  "SAR": 0.0875776,
  "ScanOptions": "FS",
  "ScanningSequence": "EP",
  "SequenceName": "*ep_b0",
  "SequenceVariant": "SK\\SP",
  "SeriesDescription": "dwi_acq-DTI-30-p2",
  "SeriesNumber": 8,
  "ShimSetting": [4141, -7700, -7523, 285, -25, -186, 43, 36],
  "SliceThickness": 2,
  "SliceTiming": [3.84375, 0, 3.95312, 0.10938, 4.0625, 0.21875, 4.17188, 0.32812, 4.28125, 0.4375, 4.39062, 0.54688, 4.5, 0.66406, 4.60938, 0.76562, 4.71875, 0.875, 4.82812, 0.98438, 4.9375, 1.10156, 5.04688, 1.21094, 5.15625, 1.32031, 5.26562, 1.42969, 5.375, 1.53906, 5.48438, 1.64844, 5.59375, 1.75781, 5.70312, 1.86719, 5.8125, 1.97656, 5.92188, 2.08594, 6.03906, 2.19531, 6.14844, 2.30469, 6.25781, 2.41406, 6.36719, 2.52344, 6.47656, 2.63281, 6.58594, 2.74219, 6.69531, 2.85156, 6.80469, 2.96094, 6.91406, 3.07031, 7.02344, 3.17969, 7.13281, 3.29688, 7.24219, 3.40625, 7.35156, 3.51562, 7.46094, 3.61719, 7.57031, 3.73438],
  "SoftwareVersions": "syngo MR E11",
  "SpacingBetweenSlices": 2,
  "SpoilingState": true,
  "StationName": "AWP66112",
  "TotalReadoutTime": 0.0344855,
  "TxRefAmp": 228.143,
  "dcmmeta_affine": [
    [-1.9301941394805908, -0.37134748697280884, -0.08120059967041016, 153.8343048095703],
    [-0.3781830370426178, 1.8402234315872192, 0.5932350158691406, -105.19584655761719],
    [0.035434797406196594, -0.5878828763961792, 1.90826416015625, -32.112937927246094],
    [0.0, 0.0, 0.0, 1.0]
],
  "dcmmeta_reorient_transform": [
    [0.0, -1.0, 0.0, 121.0],
    [1.0, 0.0, 0.0, 0.0],
    [0.0, 0.0, -1.0, 69.0],
    [0.0, 0.0, 0.0, 1.0]
],
  "dcmmeta_shape": [122, 122, 70, 31],
  "dcmmeta_slice_dim": 2,
  "dcmmeta_version": 0.6,
  "global": {
    "const": {
      "AccessionNumber": "qa",
      "AcquisitionMatrix": [122, 0, 0, 122],
      "AngioFlag": "N",
      "BitsAllocated": 16,
      "BitsStored": 12,
      "BodyPartExamined": "BRAIN",
      "Columns": 122,
      "EchoNumbers": 1,
      "EchoTime": 75.0,
      "EchoTrainLength": 61,
      "FlipAngle": 90.0,
      "HighBit": 11,
      "ImageOrientationPatient": [0.98118202144035, 0.19224303326851, 0.01801268891521, -0.1887683085405, 0.93544690533819, 0.29884044736946],
      "ImageType": [
        "ORIGINAL",
        "PRIMARY",
        "DIFFUSION",
        "NONE",
        "ND",
        "NORM"
],
      "ImagedNucleus": "1H",
      "ImagingFrequency": 123.252423,
      "InPlanePhaseEncodingDirection": "COL",
      "MRAcquisitionType": "2D",
      "MagneticFieldStrength": 3.0,
      "Manufacturer": "SIEMENS",
      "ManufacturerModelName": "Prisma",
      "Modality": "MR",
      "NumberOfAverages": 1.0,
      "NumberOfPhaseEncodingSteps": 122,
      "PercentPhaseFieldOfView": 100.0,
      "PercentSampling": 100.0,
      "PerformedProcedureStepStartTime": "100933.276000",
      "PhotometricInterpretation": "MONOCHROME2",
      "PixelBandwidth": 2050.0,
      "PixelRepresentation": 0,
      "PixelSpacing": [1.9672131538391, 1.9672131538391],
      "ProtocolName": "dwi_acq-DTI-30-p2",
      "RepetitionTime": 7700.0,
      "Rows": 122,
      "SAR": 0.08757756538113,
      "SamplesPerPixel": 1,
      "ScanOptions": "FS",
      "ScanningSequence": "EP",
      "SequenceVariant": [
        "SK",
        "SP"
],
      "SeriesDescription": "dwi_acq-DTI-30-p2",
      "SeriesNumber": 8,
      "SeriesTime": "103101.281000",
      "SliceThickness": 2.0,
      "SmallestImagePixelValue": 0,
      "SoftwareVersions": "syngo MR E11",
      "SpacingBetweenSlices": 2.0,
      "SpecificCharacterSet": "ISO_IR 100",
      "StudyID": "101",
      "StudyTime": "100933.176000",
      "TransmitCoilName": "Body",
      "VariableFlipAngleFlag": "N",
      "WindowCenterWidthExplanation": "Algo1",
      "dBdt": 0.0},
    "slices": {
      "AcquisitionTime": ["103102.075000", "103058.235000", "103102.185000", "103058.345000", "103102.295000", "103058.455000", "103102.405000", "103058.565000", "103102.515000", "103058.675000", "103102.625000", "103058.785000", "103102.735000", "103058.895000", "103102.842500", "103059.002500", "103102.952500", "103059.112500", "103103.062500", "103059.222500", "103103.172500", "103059.332500", "103103.282500", "103059.442500", "103103.392500", "103059.552500", "103103.502500", "103059.662500", "103103.612500", "103059.772500", "103103.720000", "103059.882500", "103103.830000", "103059.990000", "103103.940000", "103100.100000", "103104.050000", "103100.210000", "103104.160000", "103100.320000", "103104.270000", "103100.430000", "103104.380000", "103100.540000", "103104.490000", "103100.650000", "103104.600000", "103100.760000", "103104.707500", "103100.870000", "103104.817500", "103100.977500", "103104.927500", "103101.087500", "103105.037500", "103101.197500", "103105.147500", "103101.307500", "103105.257500", "103101.417500", "103105.367500", "103101.527500", "103105.477500", "103101.637500", "103105.587500", "103101.747500", "103105.695000", "103101.855000", "103105.805000", "103101.965000", "103109.775000", "103105.935000", "103109.885000", "103106.045000", "103109.995000", "103106.155000", "103110.105000", "103106.265000", "103110.215000", "103106.375000", "103110.325000", "103106.485000", "103110.435000", "103106.595000", "103110.542500", "103106.702500", "103110.652500", "103106.812500", "103110.762500", "103106.922500", "103110.872500", "103107.032500", "103110.982500", "103107.142500", "103111.092500", "103107.252500", "103111.202500", "103107.362500", "103111.312500", "103107.472500", "103111.420000", "103107.582500", "103111.530000", "103107.690000", "103111.640000", "103107.800000", "103111.750000", "103107.910000", "103111.860000", "103108.020000", "103111.970000", "103108.130000", "103112.080000", "103108.240000", "103112.190000", "103108.350000", "103112.300000", "103108.460000", "103112.407500", "103108.570000", "103112.517500", "103108.677500", "103112.627500", "103108.787500", "103112.737500", "103108.897500", "103112.847500", "103109.007500", "103112.957500", "103109.117500", "103113.067500", "103109.227500", "103113.177500", "103109.337500", "103113.287500", "103109.447500", "103113.395000", "103109.555000", "103113.505000", "103109.665000", "103117.475000", "103113.635000", "103117.585000", "103113.745000", "103117.695000", "103113.855000", "103117.805000", "103113.965000", "103117.915000", "103114.075000", "103118.025000", "103114.185000", "103118.135000", "103114.295000", "103118.242500", "103114.402500", "103118.352500", "103114.512500", "103118.462500", "103114.622500", "103118.572500", "103114.732500", "103118.682500", "103114.842500", "103118.792500", "103114.952500", "103118.902500", "103115.062500", "103119.012500", "103115.172500", "103119.120000", "103115.282500", "103119.230000", "103115.390000", "103119.340000", "103115.500000", "103119.450000", "103115.610000", "103119.560000", "103115.720000", "103119.670000", "103115.830000", "103119.780000", "103115.940000", "103119.890000", "103116.050000", "103120.000000", "103116.160000", "103120.107500", "103116.270000", "103120.217500", "103116.377500", "103120.327500", "103116.487500", "103120.437500", "103116.597500", "103120.547500", "103116.707500", "103120.657500", "103116.817500", "103120.767500", "103116.927500", "103120.877500", "103117.037500", "103120.987500", "103117.147500", "103121.095000", "103117.255000", "103121.205000", "103117.365000", "103125.175000", "103121.335000", "103125.285000", "103121.445000", "103125.395000", "103121.555000", "103125.505000", "103121.665000", "103125.615000", "103121.775000", "103125.725000", "103121.885000", "103125.835000", "103121.995000", "103125.942500", "103122.102500", "103126.052500", "103122.212500", "103126.162500", "103122.322500", "103126.272500", "103122.432500", "103126.382500", "103122.542500", "103126.492500", "103122.652500", "103126.602500", "103122.762500", "103126.712500", "103122.872500", "103126.820000", "103122.982500", "103126.930000", "103123.090000", "103127.040000", "103123.200000", "103127.150000", "103123.310000", "103127.260000", "103123.420000", "103127.370000", "103123.530000", "103127.480000", "103123.640000", "103127.590000", "103123.750000", "103127.700000", "103123.860000", "103127.807500", "103123.970000", "103127.917500", "103124.077500", "103128.027500", "103124.187500", "103128.137500", "103124.297500", "103128.247500", "103124.407500", "103128.357500", "103124.517500", "103128.467500", "103124.627500", "103128.577500", "103124.737500", "103128.687500", "103124.847500", "103128.795000", "103124.955000", "103128.905000", "103125.065000", "103132.875000", "103129.035000", "103132.985000", "103129.145000", "103133.095000", "103129.255000", "103133.205000", "103129.365000", "103133.315000", "103129.475000", "103133.425000", "103129.585000", "103133.535000", "103129.695000", "103133.642500", "103129.802500", "103133.752500", "103129.912500", "103133.862500", "103130.022500", "103133.972500", "103130.132500", "103134.082500", "103130.242500", "103134.192500", "103130.352500", "103134.302500", "103130.462500", "103134.412500", "103130.572500", "103134.520000", "103130.682500", "103134.630000", "103130.790000", "103134.740000", "103130.900000", "103134.850000", "103131.010000", "103134.960000", "103131.120000", "103135.070000", "103131.230000", "103135.180000", "103131.340000", "103135.290000", "103131.450000", "103135.400000", "103131.560000", "103135.507500", "103131.670000", "103135.617500", "103131.777500", "103135.727500", "103131.887500", "103135.837500", "103131.997500", "103135.947500", "103132.107500", "103136.057500", "103132.217500", "103136.167500", "103132.327500", "103136.277500", "103132.437500", "103136.387500", "103132.547500", "103136.495000", "103132.655000", "103136.605000", "103132.765000", "103140.575000", "103136.735000", "103140.685000", "103136.845000", "103140.795000", "103136.955000", "103140.905000", "103137.065000", "103141.015000", "103137.175000", "103141.125000", "103137.285000", "103141.235000", "103137.395000", "103141.342500", "103137.502500", "103141.452500", "103137.612500", "103141.562500", "103137.722500", "103141.672500", "103137.832500", "103141.782500", "103137.942500", "103141.892500", "103138.052500", "103142.002500", "103138.162500", "103142.112500", "103138.272500", "103142.220000", "103138.382500", "103142.330000", "103138.490000", "103142.440000", "103138.600000", "103142.550000", "103138.710000", "103142.660000", "103138.820000", "103142.770000", "103138.930000", "103142.880000", "103139.040000", "103142.990000", "103139.150000", "103143.100000", "103139.260000", "103143.207500", "103139.370000", "103143.317500", "103139.477500", "103143.427500", "103139.587500", "103143.537500", "103139.697500", "103143.647500", "103139.807500", "103143.757500", "103139.917500", "103143.867500", "103140.027500", "103143.977500", "103140.137500", "103144.087500", "103140.247500", "103144.195000", "103140.355000", "103144.305000", "103140.465000", "103148.275000", "103144.435000", "103148.385000", "103144.545000", "103148.495000", "103144.655000", "103148.605000", "103144.765000", "103148.715000", "103144.875000", "103148.825000", "103144.985000", "103148.935000", "103145.095000", "103149.042500", "103145.202500", "103149.152500", "103145.312500", "103149.262500", "103145.422500", "103149.372500", "103145.532500", "103149.482500", "103145.642500", "103149.592500", "103145.752500", "103149.702500", "103145.862500", "103149.812500", "103145.972500", "103149.920000", "103146.082500", "103150.030000", "103146.190000", "103150.140000", "103146.300000", "103150.250000", "103146.410000", "103150.360000", "103146.520000", "103150.470000", "103146.630000", "103150.580000", "103146.740000", "103150.690000", "103146.850000", "103150.800000", "103146.960000", "103150.907500", "103147.070000", "103151.017500", "103147.177500", "103151.127500", "103147.287500", "103151.237500", "103147.397500", "103151.347500", "103147.507500", "103151.457500", "103147.617500", "103151.567500", "103147.727500", "103151.677500", "103147.837500", "103151.787500", "103147.947500", "103151.895000", "103148.055000", "103152.005000", "103148.165000", "103155.975000", "103152.135000", "103156.085000", "103152.245000", "103156.195000", "103152.355000", "103156.305000", "103152.465000", "103156.415000", "103152.575000", "103156.525000", "103152.685000", "103156.635000", "103152.795000", "103156.742500", "103152.902500", "103156.852500", "103153.012500", "103156.962500", "103153.122500", "103157.072500", "103153.232500", "103157.182500", "103153.342500", "103157.292500", "103153.452500", "103157.402500", "103153.562500", "103157.512500", "103153.672500", "103157.620000", "103153.782500", "103157.730000", "103153.890000", "103157.840000", "103154.000000", "103157.950000", "103154.110000", "103158.060000", "103154.220000", "103158.170000", "103154.330000", "103158.280000", "103154.440000", "103158.390000", "103154.550000", "103158.500000", "103154.660000", "103158.607500", "103154.770000", "103158.717500", "103154.877500", "103158.827500", "103154.987500", "103158.937500", "103155.097500", "103159.047500", "103155.207500", "103159.157500", "103155.317500", "103159.267500", "103155.427500", "103159.377500", "103155.537500", "103159.487500", "103155.647500", "103159.595000", "103155.755000", "103159.705000", "103155.865000", "103203.675000", "103159.835000", "103203.785000", "103159.945000", "103203.895000", "103200.055000", "103204.005000", "103200.165000", "103204.115000", "103200.275000", "103204.225000", "103200.385000", "103204.335000", "103200.495000", "103204.442500", "103200.602500", "103204.552500", "103200.712500", "103204.662500", "103200.822500", "103204.772500", "103200.932500", "103204.882500", "103201.042500", "103204.992500", "103201.152500", "103205.102500", "103201.262500", "103205.212500", "103201.372500", "103205.320000", "103201.482500", "103205.430000", "103201.590000", "103205.540000", "103201.700000", "103205.650000", "103201.810000", "103205.760000", "103201.920000", "103205.870000", "103202.030000", "103205.980000", "103202.140000", "103206.090000", "103202.250000", "103206.200000", "103202.360000", "103206.307500", "103202.470000", "103206.417500", "103202.577500", "103206.527500", "103202.687500", "103206.637500", "103202.797500", "103206.747500", "103202.907500", "103206.857500", "103203.017500", "103206.967500", "103203.127500", "103207.077500", "103203.237500", "103207.187500", "103203.347500", "103207.295000", "103203.455000", "103207.405000", "103203.565000", "103211.375000", "103207.535000", "103211.485000", "103207.645000", "103211.595000", "103207.755000", "103211.705000", "103207.865000", "103211.815000", "103207.975000", "103211.925000", "103208.085000", "103212.035000", "103208.195000", "103212.142500", "103208.302500", "103212.252500", "103208.412500", "103212.362500", "103208.522500", "103212.472500", "103208.632500", "103212.582500", "103208.742500", "103212.692500", "103208.852500", "103212.802500", "103208.962500", "103212.912500", "103209.072500", "103213.020000", "103209.182500", "103213.130000", "103209.290000", "103213.240000", "103209.400000", "103213.350000", "103209.510000", "103213.460000", "103209.620000", "103213.570000", "103209.730000", "103213.680000", "103209.840000", "103213.790000", "103209.950000", "103213.900000", "103210.060000", "103214.007500", "103210.170000", "103214.117500", "103210.277500", "103214.227500", "103210.387500", "103214.337500", "103210.497500", "103214.447500", "103210.607500", "103214.557500", "103210.717500", "103214.667500", "103210.827500", "103214.777500", "103210.937500", "103214.887500", "103211.047500", "103214.995000", "103211.155000", "103215.105000", "103211.265000", "103219.075000", "103215.235000", "103219.185000", "103215.345000", "103219.295000", "103215.455000", "103219.405000", "103215.565000", "103219.515000", "103215.675000", "103219.625000", "103215.785000", "103219.735000", "103215.895000", "103219.842500", "103216.002500", "103219.952500", "103216.112500", "103220.062500", "103216.222500", "103220.172500", "103216.332500", "103220.282500", "103216.442500", "103220.392500", "103216.552500", "103220.502500", "103216.662500", "103220.612500", "103216.772500", "103220.720000", "103216.882500", "103220.830000", "103216.990000", "103220.940000", "103217.100000", "103221.050000", "103217.210000", "103221.160000", "103217.320000", "103221.270000", "103217.430000", "103221.380000", "103217.540000", "103221.490000", "103217.650000", "103221.600000", "103217.760000", "103221.707500", "103217.870000", "103221.817500", "103217.977500", "103221.927500", "103218.087500", "103222.037500", "103218.197500", "103222.147500", "103218.307500", "103222.257500", "103218.417500", "103222.367500", "103218.527500", "103222.477500", "103218.637500", "103222.587500", "103218.747500", "103222.695000", "103218.855000", "103222.805000", "103218.965000", "103226.775000", "103222.935000", "103226.885000", "103223.045000", "103226.995000", "103223.155000", "103227.105000", "103223.265000", "103227.215000", "103223.375000", "103227.325000", "103223.485000", "103227.435000", "103223.595000", "103227.542500", "103223.702500", "103227.652500", "103223.812500", "103227.762500", "103223.922500", "103227.872500", "103224.032500", "103227.982500", "103224.142500", "103228.092500", "103224.252500", "103228.202500", "103224.362500", "103228.312500", "103224.472500", "103228.420000", "103224.582500", "103228.530000", "103224.690000", "103228.640000", "103224.800000", "103228.750000", "103224.910000", "103228.860000", "103225.020000", "103228.970000", "103225.130000", "103229.080000", "103225.240000", "103229.190000", "103225.350000", "103229.300000", "103225.460000", "103229.407500", "103225.570000", "103229.517500", "103225.677500", "103229.627500", "103225.787500", "103229.737500", "103225.897500", "103229.847500", "103226.007500", "103229.957500", "103226.117500", "103230.067500", "103226.227500", "103230.177500", "103226.337500", "103230.287500", "103226.447500", "103230.395000", "103226.555000", "103230.505000", "103226.665000", "103234.475000", "103230.635000", "103234.585000", "103230.745000", "103234.695000", "103230.855000", "103234.805000", "103230.965000", "103234.915000", "103231.075000", "103235.025000", "103231.185000", "103235.135000", "103231.295000", "103235.242500", "103231.402500", "103235.352500", "103231.512500", "103235.462500", "103231.622500", "103235.572500", "103231.732500", "103235.682500", "103231.842500", "103235.792500", "103231.952500", "103235.902500", "103232.062500", "103236.012500", "103232.172500", "103236.120000", "103232.282500", "103236.230000", "103232.390000", "103236.340000", "103232.500000", "103236.450000", "103232.610000", "103236.560000", "103232.720000", "103236.670000", "103232.830000", "103236.780000", "103232.940000", "103236.890000", "103233.050000", "103237.000000", "103233.160000", "103237.107500", "103233.270000", "103237.217500", "103233.377500", "103237.327500", "103233.487500", "103237.437500", "103233.597500", "103237.547500", "103233.707500", "103237.657500", "103233.817500", "103237.767500", "103233.927500", "103237.877500", "103234.037500", "103237.987500", "103234.147500", "103238.095000", "103234.255000", "103238.205000", "103234.365000", "103242.175000", "103238.335000", "103242.285000", "103238.445000", "103242.395000", "103238.555000", "103242.505000", "103238.665000", "103242.615000", "103238.775000", "103242.725000", "103238.885000", "103242.835000", "103238.995000", "103242.942500", "103239.102500", "103243.052500", "103239.212500", "103243.162500", "103239.322500", "103243.272500", "103239.432500", "103243.382500", "103239.542500", "103243.492500", "103239.652500", "103243.602500", "103239.762500", "103243.712500", "103239.872500", "103243.820000", "103239.982500", "103243.930000", "103240.090000", "103244.040000", "103240.200000", "103244.150000", "103240.310000", "103244.260000", "103240.420000", "103244.370000", "103240.530000", "103244.480000", "103240.640000", "103244.590000", "103240.750000", "103244.700000", "103240.860000", "103244.807500", "103240.970000", "103244.917500", "103241.077500", "103245.027500", "103241.187500", "103245.137500", "103241.297500", "103245.247500", "103241.407500", "103245.357500", "103241.517500", "103245.467500", "103241.627500", "103245.577500", "103241.737500", "103245.687500", "103241.847500", "103245.795000", "103241.955000", "103245.905000", "103242.065000", "103249.875000", "103246.035000", "103249.985000", "103246.145000", "103250.095000", "103246.255000", "103250.205000", "103246.365000", "103250.315000", "103246.475000", "103250.425000", "103246.585000", "103250.535000", "103246.695000", "103250.642500", "103246.802500", "103250.752500", "103246.912500", "103250.862500", "103247.022500", "103250.972500", "103247.132500", "103251.082500", "103247.242500", "103251.192500", "103247.352500", "103251.302500", "103247.462500", "103251.412500", "103247.572500", "103251.520000", "103247.682500", "103251.630000", "103247.790000", "103251.740000", "103247.900000", "103251.850000", "103248.010000", "103251.960000", "103248.120000", "103252.070000", "103248.230000", "103252.180000", "103248.340000", "103252.290000", "103248.450000", "103252.400000", "103248.560000", "103252.507500", "103248.670000", "103252.617500", "103248.777500", "103252.727500", "103248.887500", "103252.837500", "103248.997500", "103252.947500", "103249.107500", "103253.057500", "103249.217500", "103253.167500", "103249.327500", "103253.277500", "103249.437500", "103253.387500", "103249.547500", "103253.495000", "103249.655000", "103253.605000", "103249.765000", "103257.575000", "103253.735000", "103257.685000", "103253.845000", "103257.795000", "103253.955000", "103257.905000", "103254.065000", "103258.015000", "103254.175000", "103258.125000", "103254.285000", "103258.235000", "103254.395000", "103258.342500", "103254.502500", "103258.452500", "103254.612500", "103258.562500", "103254.722500", "103258.672500", "103254.832500", "103258.782500", "103254.942500", "103258.892500", "103255.052500", "103259.002500", "103255.162500", "103259.112500", "103255.272500", "103259.220000", "103255.382500", "103259.330000", "103255.490000", "103259.440000", "103255.600000", "103259.550000", "103255.710000", "103259.660000", "103255.820000", "103259.770000", "103255.930000", "103259.880000", "103256.040000", "103259.990000", "103256.150000", "103300.100000", "103256.260000", "103300.207500", "103256.370000", "103300.317500", "103256.477500", "103300.427500", "103256.587500", "103300.537500", "103256.697500", "103300.647500", "103256.807500", "103300.757500", "103256.917500", "103300.867500", "103257.027500", "103300.977500", "103257.137500", "103301.087500", "103257.247500", "103301.195000", "103257.355000", "103301.305000", "103257.465000", "103305.275000", "103301.435000", "103305.385000", "103301.545000", "103305.495000", "103301.655000", "103305.605000", "103301.765000", "103305.715000", "103301.875000", "103305.825000", "103301.985000", "103305.935000", "103302.095000", "103306.042500", "103302.202500", "103306.152500", "103302.312500", "103306.262500", "103302.422500", "103306.372500", "103302.532500", "103306.482500", "103302.642500", "103306.592500", "103302.752500", "103306.702500", "103302.862500", "103306.812500", "103302.972500", "103306.920000", "103303.082500", "103307.030000", "103303.190000", "103307.140000", "103303.300000", "103307.250000", "103303.410000", "103307.360000", "103303.520000", "103307.470000", "103303.630000", "103307.580000", "103303.740000", "103307.690000", "103303.850000", "103307.800000", "103303.960000", "103307.907500", "103304.070000", "103308.017500", "103304.177500", "103308.127500", "103304.287500", "103308.237500", "103304.397500", "103308.347500", "103304.507500", "103308.457500", "103304.617500", "103308.567500", "103304.727500", "103308.677500", "103304.837500", "103308.787500", "103304.947500", "103308.895000", "103305.055000", "103309.005000", "103305.165000", "103312.975000", "103309.135000", "103313.085000", "103309.245000", "103313.195000", "103309.355000", "103313.305000", "103309.465000", "103313.415000", "103309.575000", "103313.525000", "103309.685000", "103313.635000", "103309.795000", "103313.742500", "103309.902500", "103313.852500", "103310.012500", "103313.962500", "103310.122500", "103314.072500", "103310.232500", "103314.182500", "103310.342500", "103314.292500", "103310.452500", "103314.402500", "103310.562500", "103314.512500", "103310.672500", "103314.620000", "103310.782500", "103314.730000", "103310.890000", "103314.840000", "103311.000000", "103314.950000", "103311.110000", "103315.060000", "103311.220000", "103315.170000", "103311.330000", "103315.280000", "103311.440000", "103315.390000", "103311.550000", "103315.500000", "103311.660000", "103315.607500", "103311.770000", "103315.717500", "103311.877500", "103315.827500", "103311.987500", "103315.937500", "103312.097500", "103316.047500", "103312.207500", "103316.157500", "103312.317500", "103316.267500", "103312.427500", "103316.377500", "103312.537500", "103316.487500", "103312.647500", "103316.595000", "103312.755000", "103316.705000", "103312.865000", "103320.675000", "103316.835000", "103320.785000", "103316.945000", "103320.895000", "103317.055000", "103321.005000", "103317.165000", "103321.115000", "103317.275000", "103321.225000", "103317.385000", "103321.335000", "103317.495000", "103321.442500", "103317.602500", "103321.552500", "103317.712500", "103321.662500", "103317.822500", "103321.772500", "103317.932500", "103321.882500", "103318.042500", "103321.992500", "103318.152500", "103322.102500", "103318.262500", "103322.212500", "103318.372500", "103322.320000", "103318.482500", "103322.430000", "103318.590000", "103322.540000", "103318.700000", "103322.650000", "103318.810000", "103322.760000", "103318.920000", "103322.870000", "103319.030000", "103322.980000", "103319.140000", "103323.090000", "103319.250000", "103323.200000", "103319.360000", "103323.307500", "103319.470000", "103323.417500", "103319.577500", "103323.527500", "103319.687500", "103323.637500", "103319.797500", "103323.747500", "103319.907500", "103323.857500", "103320.017500", "103323.967500", "103320.127500", "103324.077500", "103320.237500", "103324.187500", "103320.347500", "103324.295000", "103320.455000", "103324.405000", "103320.565000", "103328.375000", "103324.535000", "103328.485000", "103324.645000", "103328.595000", "103324.755000", "103328.705000", "103324.865000", "103328.815000", "103324.975000", "103328.925000", "103325.085000", "103329.035000", "103325.195000", "103329.142500", "103325.302500", "103329.252500", "103325.412500", "103329.362500", "103325.522500", "103329.472500", "103325.632500", "103329.582500", "103325.742500", "103329.692500", "103325.852500", "103329.802500", "103325.962500", "103329.912500", "103326.072500", "103330.020000", "103326.182500", "103330.130000", "103326.290000", "103330.240000", "103326.400000", "103330.350000", "103326.510000", "103330.460000", "103326.620000", "103330.570000", "103326.730000", "103330.680000", "103326.840000", "103330.790000", "103326.950000", "103330.900000", "103327.060000", "103331.007500", "103327.170000", "103331.117500", "103327.277500", "103331.227500", "103327.387500", "103331.337500", "103327.497500", "103331.447500", "103327.607500", "103331.557500", "103327.717500", "103331.667500", "103327.827500", "103331.777500", "103327.937500", "103331.887500", "103328.047500", "103331.995000", "103328.155000", "103332.105000", "103328.265000", "103336.075000", "103332.235000", "103336.185000", "103332.345000", "103336.295000", "103332.455000", "103336.405000", "103332.565000", "103336.515000", "103332.675000", "103336.625000", "103332.785000", "103336.735000", "103332.895000", "103336.842500", "103333.002500", "103336.952500", "103333.112500", "103337.062500", "103333.222500", "103337.172500", "103333.332500", "103337.282500", "103333.442500", "103337.392500", "103333.552500", "103337.502500", "103333.662500", "103337.612500", "103333.772500", "103337.720000", "103333.882500", "103337.830000", "103333.990000", "103337.94000