{
  "AcquisitionMatrixPE": 122,
  "AcquisitionNumber": 1,
  "AcquisitionTime": "10:35:20.455000",
  "BandwidthPerPixelPhaseEncode": 27.785,
  "BaseResolution": 122,
  "BodyPartExamined": "BRAIN",
  "CoilCombinationMethod": "Adaptive Combine",
  "ConsistencyInfo": "N4_VE11C_LATEST_20160120",
  "ConversionSoftware": "dcm2niix",
  "ConversionSoftwareVersion": "v1.0.20220720",
  "DerivedVendorReportedEchoSpacing": 0.000590011,
  "DeviceSerialNumber": "66112",
  "DiffusionScheme": "Monopolar",
  "DwellTime": 2e-06,
  "EchoTime": 0.068,
  "EchoTrainLength": 61,
  "EffectiveEchoSpacing": 0.000295005,
  "FlipAngle": 90,
  "HeudiconvVersion": "0.13.1",
  "ImageOrientationPatientDICOM": [0.981182, 0.192243, 0.0180127, -0.188768, 0.935447, 0.29884],
  "ImageOrientationText": "Tra>Cor(17.3)>Sag(-2.3)",
  "ImageType": [
    "ORIGINAL",
    "PRIMARY",
    "DIFFUSION",
    "NONE",
    "ND",
    "NORM"
],
  "ImagingFrequency": 123.252,
  "InPlanePhaseEncodingDirectionDICOM": "COL",
  "InstitutionAddress": "Maynard 3,Hanover,NH,US,03755",
  "InstitutionName": "Dartmouth College - PBS",
  "InstitutionalDepartmentName": "Department",
  "MRAcquisitionType": "2D",
  "MagneticFieldStrength": 3,
  "Manufacturer": "Siemens",
  "ManufacturersModelName": "Prisma",
  "Modality": "MR",
  "MultibandAccelerationFactor": 4,
  "NonlinearGradientCorrection": false,
  "ParallelReductionFactorInPlane": 2,
  "PartialFourier": 1,
  "PatientPosition": "HFS",
  "PercentPhaseFOV": 100,
  "PercentSampling": 100,
  "PhaseEncodingDirection": "j-",
  "PhaseEncodingSteps": 122,
  "PhaseResolution": 1,
  "PixelBandwidth": 2050,
  "ProcedureStepDescription": "dbic^QA",
  "ProtocolName": "dwi_acq-DTI-30-p2-s4",
  "PulseSequenceDetails": "%SiemensSeq%\\ep2d_diff",
  "ReceiveCoilActiveElements": "HEA;HEP",
  "ReceiveCoilName": "Head_32",
  "ReconMatrixPE": 122,
  "RefLinesPE": 38,
  "RepetitionTime": 3.6,
  "SAR": 0.141246,
  "ScanOptions": "FS",
  "ScanningSequence": "EP",
  "SequenceName": "*ep_b0",
  "SequenceVariant": "SK\\SP",
  "SeriesDescription": "dwi_acq-DTI-30-p2-s4",
  "SeriesNumber": 9,
  "ShimSetting": [4141, -7701, -7523, 287, -26, -187, 44, 36],
  "SliceThickness": 2,
  "SliceTiming": [2.58594, 0, 1.78906, 0.20312, 1.99219, 0.39844, 2.1875, 0.60156, 2.39062, 0.99219, 2.78906, 1.19531, 2.98438, 1.39062, 3.17969, 1.59375, 3.38281, 0.79688, 2.58594, 0, 1.78906, 0.20312, 1.99219, 0.39844, 2.1875, 0.60156, 2.39062, 0.99219, 2.78906, 1.19531, 2.98438, 1.39062, 3.17969, 1.59375, 3.38281, 0.79688, 2.58594, 0, 1.78906, 0.20312, 1.99219, 0.39844, 2.1875, 0.60156, 2.39062, 0.99219, 2.78906, 1.19531, 2.98438, 1.39062, 3.17969, 1.59375, 3.38281, 0.79688, 2.58594, 0, 1.78906, 0.20312, 1.99219, 0.39844, 2.1875, 0.60156, 2.39062, 0.99219, 2.78906, 1.19531, 2.98438, 1.39062, 3.17969, 1.59375, 3.38281, 0.79688],
  "SoftwareVersions": "syngo MR E11",
  "SpacingBetweenSlices": 2,
  "SpoilingState": true,
  "StationName": "AWP66112",
  "TotalReadoutTime": 0.0356956,
  "TxRefAmp": 228.143,
  "dcmmeta_affine": [
    [-1.9301941394805908, -0.37134748697280884, -0.08120059967041016, 153.91551208496094],
    [-0.3781830370426178, 1.8402234315872192, 0.5932331085205078, -105.78894805908203],
    [0.035434797406196594, -0.5878828763961792, 1.90826416015625, -34.021202087402344],
    [0.0, 0.0, 0.0, 1.0]
],
  "dcmmeta_reorient_transform": [
    [0.0, -1.0, 0.0, 121.0],
    [1.0, 0.0, 0.0, 0.0],
    [0.0, 0.0, -1.0, 71.0],
    [0.0, 0.0, 0.0, 1.0]
],
  "dcmmeta_shape": [122, 122, 72, 31],
  "dcmmeta_slice_dim": 2,
  "dcmmeta_version": 0.6,
  "global": {
    "const": {
      "AccessionNumber": "qa",
      "AcquisitionMatrix": [122, 0, 0, 122],
      "AngioFlag": "N",
      "BitsAllocated": 16,
      "BitsStored": 12,
      "BodyPartExamined": "BRAIN",
      "Columns": 122,
      "EchoNumbers": 1,
      "EchoTime": 68.0,
      "EchoTrainLength": 61,
      "FlipAngle": 90.0,
      "HighBit": 11,
      "ImageOrientationPatient": [0.98118202144035, 0.19224303326851, 0.01801268891521, -0.1887683085405, 0.93544690533819, 0.29884044736946],
      "ImageType": [
        "ORIGINAL",
        "PRIMARY",
        "DIFFUSION",
        "NONE",
        "ND",
        "NORM"
],
      "ImagedNucleus": "1H",
      "ImagingFrequency": 123.252426,
      "InPlanePhaseEncodingDirection": "COL",
      "MRAcquisitionType": "2D",
      "MagneticFieldStrength": 3.0,
      "Manufacturer": "SIEMENS",
      "ManufacturerModelName": "Prisma",
      "Modality": "MR",
      "NumberOfAverages": 1.0,
      "NumberOfPhaseEncodingSteps": 122,
      "PercentPhaseFieldOfView": 100.0,
      "PercentSampling": 100.0,
      "PerformedProcedureStepStartTime": "100933.276000",
      "PhotometricInterpretation": "MONOCHROME2",
      "PixelBandwidth": 2050.0,
      "PixelRepresentation": 0,
      "PixelSpacing": [1.9672131538391, 1.9672131538391],
      "ProtocolName": "dwi_acq-DTI-30-p2-s4",
      "RepetitionTime": 3600.0,
      "Rows": 122,
      "SAR": 0.14124628885911,
      "SamplesPerPixel": 1,
      "ScanOptions": "FS",
      "ScanningSequence": "EP",
      "SequenceVariant": [
        "SK",
        "SP"
],
      "SeriesDescription": "dwi_acq-DTI-30-p2-s4",
      "SeriesNumber": 9,
      "SeriesTime": "103529.978000",
      "SliceThickness": 2.0,
      "SmallestImagePixelValue": 0,
      "SoftwareVersions": "syngo MR E11",
      "SpacingBetweenSlices": 2.0,
      "SpecificCharacterSet": "ISO_IR 100",
      "StudyID": "101",
      "StudyTime": "100933.176000",
      "TransmitCoilName": "Body",
      "VariableFlipAngleFlag": "N",
      "WindowCenterWidthExplanation": "Algo1",
      "dBdt": 0.0},
    "slices": {
      "AcquisitionTime": ["103520.455000", "103517.867500", "103519.657500", "103518.067500", "103519.857500", "103518.267500", "103520.057500", "103518.465000", "103520.255000", "103518.862500", "103520.652500", "103519.062500", "103520.852500", "103519.260000", "103521.050000", "103519.460000", "103521.250000", "103518.665000", "103520.455000", "103517.867500", "103519.657500", "103518.067500", "103519.857500", "103518.267500", "103520.057500", "103518.465000", "103520.255000", "103518.862500", "103520.652500", "103519.062500", "103520.852500", "103519.260000", "103521.050000", "103519.460000", "103521.250000", "103518.665000", "103520.455000", "103517.867500", "103519.657500", "103518.067500", "103519.857500", "103518.267500", "103520.057500", "103518.465000", "103520.255000", "103518.862500", "103520.652500", "103519.062500", "103520.852500", "103519.260000", "103521.050000", "103519.460000", "103521.250000", "103518.665000", "103520.455000", "103517.867500", "103519.657500", "103518.067500", "103519.857500", "103518.267500", "103520.057500", "103518.465000", "103520.255000", "103518.862500", "103520.652500", "103519.062500", "103520.852500", "103519.260000", "103521.050000", "103519.460000", "103521.250000", "103518.665000", "103524.055000", "103521.467500", "103523.257500", "103521.667500", "103523.457500", "103521.867500", "103523.657500", "103522.065000", "103523.855000", "103522.462500", "103524.252500", "103522.662500", "103524.452500", "103522.860000", "103524.650000", "103523.060000", "103524.850000", "103522.265000", "103524.055000", "103521.467500", "103523.257500", "103521.667500", "103523.457500", "103521.867500", "103523.657500", "103522.065000", "103523.855000", "103522.462500", "103524.252500", "103522.662500", "103524.452500", "103522.860000", "103524.650000", "103523.060000", "103524.850000", "103522.265000", "103524.055000", "103521.467500", "103523.257500", "103521.667500", "103523.457500", "103521.867500", "103523.657500", "103522.065000", "103523.855000", "103522.462500", "103524.252500", "103522.662500", "103524.452500", "103522.860000", "103524.650000", "103523.060000", "103524.850000", "103522.265000", "103524.055000", "103521.467500", "103523.257500", "103521.667500", "103523.457500", "103521.867500", "103523.657500", "103522.065000", "103523.855000", "103522.462500", "103524.252500", "103522.662500", "103524.452500", "103522.860000", "103524.650000", "103523.060000", "103524.850000", "103522.265000", "103527.655000", "103525.067500", "103526.857500", "103525.267500", "103527.057500", "103525.467500", "103527.257500", "103525.665000", "103527.455000", "103526.062500", "103527.852500", "103526.262500", "103528.052500", "103526.460000", "103528.250000", "103526.660000", "103528.450000", "103525.865000", "103527.655000", "103525.067500", "103526.857500", "103525.267500", "103527.057500", "103525.467500", "103527.257500", "103525.665000", "103527.455000", "103526.062500", "103527.852500", "103526.262500", "103528.052500", "103526.460000", "103528.250000", "103526.660000", "103528.450000", "103525.865000", "103527.655000", "103525.067500", "103526.857500", "103525.267500", "103527.057500", "103525.467500", "103527.257500", "103525.665000", "103527.455000", "103526.062500", "103527.852500", "103526.262500", "103528.052500", "103526.460000", "103528.250000", "103526.660000", "103528.450000", "103525.865000", "103527.655000", "103525.067500", "103526.857500", "103525.267500", "103527.057500", "103525.467500", "103527.257500", "103525.665000", "103527.455000", "103526.062500", "103527.852500", "103526.262500", "103528.052500", "103526.460000", "103528.250000", "103526.660000", "103528.450000", "103525.865000", "103531.255000", "103528.667500", "103530.457500", "103528.867500", "103530.657500", "103529.067500", "103530.857500", "103529.265000", "103531.055000", "103529.662500", "103531.452500", "103529.862500", "103531.652500", "103530.060000", "103531.850000", "103530.260000", "103532.050000", "103529.465000", "103531.255000", "103528.667500", "103530.457500", "103528.867500", "103530.657500", "103529.067500", "103530.857500", "103529.265000", "103531.055000", "103529.662500", "103531.452500", "103529.862500", "103531.652500", "103530.060000", "103531.850000", "103530.260000", "103532.050000", "103529.465000", "103531.255000", "103528.667500", "103530.457500", "103528.867500", "103530.657500", "103529.067500", "103530.857500", "103529.265000", "103531.055000", "103529.662500", "103531.452500", "103529.862500", "103531.652500", "103530.060000", "103531.850000", "103530.260000", "103532.050000", "103529.465000", "103531.255000", "103528.667500", "103530.457500", "103528.867500", "103530.657500", "103529.067500", "103530.857500", "103529.265000", "103531.055000", "103529.662500", "103531.452500", "103529.862500", "103531.652500", "103530.060000", "103531.850000", "103530.260000", "103532.050000", "103529.465000", "103534.855000", "103532.267500", "103534.057500", "103532.467500", "103534.257500", "103532.667500", "103534.457500", "103532.865000", "103534.655000", "103533.262500", "103535.052500", "103533.462500", "103535.252500", "103533.660000", "103535.450000", "103533.860000", "103535.650000", "103533.065000", "103534.855000", "103532.267500", "103534.057500", "103532.467500", "103534.257500", "103532.667500", "103534.457500", "103532.865000", "103534.655000", "103533.262500", "103535.052500", "103533.462500", "103535.252500", "103533.660000", "103535.450000", "103533.860000", "103535.650000", "103533.065000", "103534.855000", "103532.267500", "103534.057500", "103532.467500", "103534.257500", "103532.667500", "103534.457500", "103532.865000", "103534.655000", "103533.262500", "103535.052500", "103533.462500", "103535.252500", "103533.660000", "103535.450000", "103533.860000", "103535.650000", "103533.065000", "103534.855000", "103532.267500", "103534.057500", "103532.467500", "103534.257500", "103532.667500", "103534.457500", "103532.865000", "103534.655000", "103533.262500", "103535.052500", "103533.462500", "103535.252500", "103533.660000", "103535.450000", "103533.860000", "103535.650000", "103533.065000", "103538.455000", "103535.867500", "103537.657500", "103536.067500", "103537.857500", "103536.267500", "103538.057500", "103536.465000", "103538.255000", "103536.862500", "103538.652500", "103537.062500", "103538.852500", "103537.260000", "103539.050000", "103537.460000", "103539.250000", "103536.665000", "103538.455000", "103535.867500", "103537.657500", "103536.067500", "103537.857500", "103536.267500", "103538.057500", "103536.465000", "103538.255000", "103536.862500", "103538.652500", "103537.062500", "103538.852500", "103537.260000", "103539.050000", "103537.460000", "103539.250000", "103536.665000", "103538.455000", "103535.867500", "103537.657500", "103536.067500", "103537.857500", "103536.267500", "103538.057500", "103536.465000", "103538.255000", "103536.862500", "103538.652500", "103537.062500", "103538.852500", "103537.260000", "103539.050000", "103537.460000", "103539.250000", "103536.665000", "103538.455000", "103535.867500", "103537.657500", "103536.067500", "103537.857500", "103536.267500", "103538.057500", "103536.465000", "103538.255000", "103536.862500", "103538.652500", "103537.062500", "103538.852500", "103537.260000", "103539.050000", "103537.460000", "103539.250000", "103536.665000", "103542.055000", "103539.467500", "103541.257500", "103539.667500", "103541.457500", "103539.867500", "103541.657500", "103540.065000", "103541.855000", "103540.462500", "103542.252500", "103540.662500", "103542.452500", "103540.860000", "103542.650000", "103541.060000", "103542.850000", "103540.265000", "103542.055000", "103539.467500", "103541.257500", "103539.667500", "103541.457500", "103539.867500", "103541.657500", "103540.065000", "103541.855000", "103540.462500", "103542.252500", "103540.662500", "103542.452500", "103540.860000", "103542.650000", "103541.060000", "103542.850000", "103540.265000", "103542.055000", "103539.467500", "103541.257500", "103539.667500", "103541.457500", "103539.867500", "103541.657500", "103540.065000", "103541.855000", "103540.462500", "103542.252500", "103540.662500", "103542.452500", "103540.860000", "103542.650000", "103541.060000", "103542.850000", "103540.265000", "103542.055000", "103539.467500", "103541.257500", "103539.667500", "103541.457500", "103539.867500", "103541.657500", "103540.065000", "103541.855000", "103540.462500", "103542.252500", "103540.662500", "103542.452500", "103540.860000", "103542.650000", "103541.060000", "103542.850000", "103540.265000", "103545.655000", "103543.067500", "103544.857500", "103543.267500", "103545.057500", "103543.467500", "103545.257500", "103543.665000", "103545.455000", "103544.062500", "103545.852500", "103544.262500", "103546.052500", "103544.460000", "103546.250000", "103544.660000", "103546.450000", "103543.865000", "103545.655000", "103543.067500", "103544.857500", "103543.267500", "103545.057500", "103543.467500", "103545.257500", "103543.665000", "103545.455000", "103544.062500", "103545.852500", "103544.262500", "103546.052500", "103544.460000", "103546.250000", "103544.660000", "103546.450000", "103543.865000", "103545.655000", "103543.067500", "103544.857500", "103543.267500", "103545.057500", "103543.467500", "103545.257500", "103543.665000", "103545.455000", "103544.062500", "103545.852500", "103544.262500", "103546.052500", "103544.460000", "103546.250000", "103544.660000", "103546.450000", "103543.865000", "103545.655000", "103543.067500", "103544.857500", "103543.267500", "103545.057500", "103543.467500", "103545.257500", "103543.665000", "103545.455000", "103544.062500", "103545.852500", "103544.262500", "103546.052500", "103544.460000", "103546.250000", "103544.660000", "103546.450000", "103543.865000", "103549.255000", "103546.667500", "103548.457500", "103546.867500", "103548.657500", "103547.067500", "103548.857500", "103547.265000", "103549.055000", "103547.662500", "103549.452500", "103547.862500", "103549.652500", "103548.060000", "103549.850000", "103548.260000", "103550.050000", "103547.465000", "103549.255000", "103546.667500", "103548.457500", "103546.867500", "103548.657500", "103547.067500", "103548.857500", "103547.265000", "103549.055000", "103547.662500", "103549.452500", "103547.862500", "103549.652500", "103548.060000", "103549.850000", "103548.260000", "103550.050000", "103547.465000", "103549.255000", "103546.667500", "103548.457500", "103546.867500", "103548.657500", "103547.067500", "103548.857500", "103547.265000", "103549.055000", "103547.662500", "103549.452500", "103547.862500", "103549.652500", "103548.060000", "103549.850000", "103548.260000", "103550.050000", "103547.465000", "103549.255000", "103546.667500", "103548.457500", "103546.867500", "103548.657500", "103547.067500", "103548.857500", "103547.265000", "103549.055000", "103547.662500", "103549.452500", "103547.862500", "103549.652500", "103548.060000", "103549.850000", "103548.260000", "103550.050000", "103547.465000", "103552.855000", "103550.267500", "103552.057500", "103550.467500", "103552.257500", "103550.667500", "103552.457500", "103550.865000", "103552.655000", "103551.262500", "103553.052500", "103551.462500", "103553.252500", "103551.660000", "103553.450000", "103551.860000", "103553.650000", "103551.065000", "103552.855000", "103550.267500", "103552.057500", "103550.467500", "103552.257500", "103550.667500", "103552.457500", "103550.865000", "103552.655000", "103551.262500", "103553.052500", "103551.462500", "103553.252500", "103551.660000", "103553.450000", "103551.860000", "103553.650000", "103551.065000", "103552.855000", "103550.267500", "103552.057500", "103550.467500", "103552.257500", "103550.667500", "103552.457500", "103550.865000", "103552.655000", "103551.262500", "103553.052500", "103551.462500", "103553.252500", "103551.660000", "103553.450000", "103551.860000", "103553.650000", "103551.065000", "103552.855000", "103550.267500", "103552.057500", "103550.467500", "103552.257500", "103550.667500", "103552.457500", "103550.865000", "103552.655000", "103551.262500", "103553.052500", "103551.462500", "103553.252500", "103551.660000", "103553.450000", "103551.860000", "103553.650000", "103551.065000", "103556.455000", "103553.867500", "103555.657500", "103554.067500", "103555.857500", "103554.267500", "103556.057500", "103554.465000", "103556.255000", "103554.862500", "103556.652500", "103555.062500", "103556.852500", "103555.260000", "103557.050000", "103555.460000", "103557.250000", "103554.665000", "103556.455000", "103553.867500", "103555.657500", "103554.067500", "103555.857500", "103554.267500", "103556.057500", "103554.465000", "103556.255000", "103554.862500", "103556.652500", "103555.062500", "103556.852500", "103555.260000", "103557.050000", "103555.460000", "103557.250000", "103554.665000", "103556.455000", "103553.867500", "103555.657500", "103554.067500", "103555.857500", "103554.267500", "103556.057500", "103554.465000", "103556.255000", "103554.862500", "103556.652500", "103555.062500", "103556.852500", "103555.260000", "103557.050000", "103555.460000", "103557.250000", "103554.665000", "103556.455000", "103553.867500", "103555.657500", "103554.067500", "103555.857500", "103554.267500", "103556.057500", "103554.465000", "103556.255000", "103554.862500", "103556.652500", "103555.062500", "103556.852500", "103555.260000", "103557.050000", "103555.460000", "103557.250000", "103554.665000", "103600.055000", "103557.467500", "103559.257500", "103557.667500", "103559.457500", "103557.867500", "103559.657500", "103558.065000", "103559.855000", "103558.462500", "103600.252500", "103558.662500", "103600.452500", "103558.860000", "103600.650000", "103559.060000", "103600.850000", "103558.265000", "103600.055000", "103557.467500", "103559.257500", "103557.667500", "103559.457500", "103557.867500", "103559.657500", "103558.065000", "103559.855000", "103558.462500", "103600.252500", "103558.662500", "103600.452500", "103558.860000", "103600.650000", "103559.060000", "103600.850000", "103558.265000", "103600.055000", "103557.467500", "103559.257500", "103557.667500", "103559.457500", "103557.867500", "103559.657500", "103558.065000", "103559.855000", "103558.462500", "103600.252500", "103558.662500", "103600.452500", "103558.860000", "103600.650000", "103559.060000", "103600.850000", "103558.265000", "103600.055000", "103557.467500", "103559.257500", "103557.667500", "103559.457500", "103557.867500", "103559.657500", "103558.065000", "103559.855000", "103558.462500", "103600.252500", "103558.662500", "103600.452500", "103558.860000", "103600.650000", "103559.060000", "103600.850000", "103558.265000", "103603.655000", "103601.067500", "103602.857500", "103601.267500", "103603.057500", "103601.467500", "103603.257500", "103601.665000", "103603.455000", "103602.062500", "103603.852500", "103602.262500", "103604.052500", "103602.460000", "103604.250000", "103602.660000", "103604.450000", "103601.865000", "103603.655000", "103601.067500", "103602.857500", "103601.267500", "103603.057500", "103601.467500", "103603.257500", "103601.665000", "103603.455000", "103602.062500", "103603.852500", "103602.262500", "103604.052500", "103602.460000", "103604.250000", "103602.660000", "103604.450000", "103601.865000", "103603.655000", "103601.067500", "103602.857500", "103601.267500", "103603.057500", "103601.467500", "103603.257500", "103601.665000", "103603.455000", "103602.062500", "103603.852500", "103602.262500", "103604.052500", "103602.460000", "103604.250000", "103602.660000", "103604.450000", "103601.865000", "103603.655000", "103601.067500", "103602.857500", "103601.267500", "103603.057500", "103601.467500", "103603.257500", "103601.665000", "103603.455000", "103602.062500", "103603.852500", "103602.262500", "103604.052500", "103602.460000", "103604.250000", "103602.660000", "103604.450000", "103601.865000", "103607.255000", "103604.667500", "103606.457500", "103604.867500", "103606.657500", "103605.067500", "103606.857500", "103605.265000", "103607.055000", "103605.662500", "103607.452500", "103605.862500", "103607.652500", "103606.060000", "103607.850000", "103606.260000", "103608.050000", "103605.465000", "103607.255000", "103604.667500", "103606.457500", "103604.867500", "103606.657500", "103605.067500", "103606.857500", "103605.265000", "103607.055000", "103605.662500", "103607.452500", "103605.862500", "103607.652500", "103606.060000", "103607.850000", "103606.260000", "103608.050000", "103605.465000", "103607.255000", "103604.667500", "103606.457500", "103604.867500", "103606.657500", "103605.067500", "103606.857500", "103605.265000", "103607.055000", "103605.662500", "103607.452500", "103605.862500", "103607.652500", "103606.060000", "103607.850000", "103606.260000", "103608.050000", "103605.465000", "103607.255000", "103604.667500", "103606.457500", "103604.867500", "103606.657500", "103605.067500", "103606.857500", "103605.265000", "103607.055000", "103605.662500", "103607.452500", "103605.862500", "103607.652500", "103606.060000", "103607.850000", "103606.260000", "103608.050000", "103605.465000", "103610.855000", "103608.267500", "103610.057500", "103608.467500", "103610.257500", "103608.667500", "103610.457500", "103608.865000", "103610.655000", "103609.262500", "103611.052500", "103609.462500", "103611.252500", "103609.660000", "103611.450000", "103609.860000", "103611.650000", "103609.065000", "103610.855000", "103608.267500", "103610.057500", "103608.467500", "103610.257500", "103608.667500", "103610.457500", "103608.865000", "103610.655000", "103609.262500", "103611.052500", "103609.462500", "103611.252500", "103609.660000", "103611.450000", "103609.860000", "103611.650000", "103609.065000", "103610.855000", "103608.267500", "103610.057500", "103608.467500", "103610.257500", "103608.667500", "103610.457500", "103608.865000", "103610.655000", "103609.262500", "103611.052500", "103609.462500", "103611.252500", "103609.660000", "103611.450000", "103609.860000", "103611.650000", "103609.065000", "103610.855000", "103608.267500", "103610.057500", "103608.467500", "103610.257500", "103608.667500", "103610.457500", "103608.865000", "103610.655000", "103609.262500", "103611.052500", "103609.462500", "103611.252500", "103609.660000", "103611.450000", "103609.860000", "103611.650000", "103609.065000", "103614.455000", "103611.867500", "103613.657500", "103612.067500", "103613.857500", "103612.267500", "103614.057500", "103612.465000", "103614.255000", "103612.862500", "103614.652500", "103613.062500", "103614.852500", "103613.260000", "103615.050000", "103613.460000", "103615.250000", "103612.665000", "103614.455000", "103611.867500", "103613.657500", "103612.067500", "103613.857500", "103612.267500", "103614.057500", "103612.465000", "103614.255000", "103612.862500", "103614.652500", "103613.062500", "103614.852500", "103613.260000", "103615.050000", "103613.460000", "103615.250000", "103612.665000", "103614.455000", "103611.867500", "103613.657500", "103612.067500", "103613.857500", "103612.267500", "103614.057500", "103612.465000", "103614.255000", "103612.862500", "103614.652500", "103613.062500", "103614.852500", "103613.260000", "103615.050000", "103613.460000", "103615.250000", "103612.665000", "103614.455000", "103611.867500", "103613.657500", "103612.067500", "103613.857500", "103612.267500", "103614.057500", "103612.465000", "103614.255000", "103612.862500", "103614.652500", "103613.062500", "103614.852500", "103613.260000", "103615.050000", "103613.460000", "103615.250000", "103612.665000", "103618.055000", "103615.467500", "103617.257500", "103615.667500", "103617.457500", "103615.867500", "103617.657500", "103616.065000", "103617.855000", "103616.462500", "103618.252500", "103616.662500", "103618.452500", "103616.860000", "103618.650000", "103617.060000", "103618.850000", "103616.265000", "103618.055000", "103615.467500", "103617.257500", "103615.667500", "103617.457500", "103615.867500", "103617.657500", "103616.065000", "103617.855000", "103616.462500", "103618.252500", "103616.662500", "103618.452500", "103616.860000", "103618.650000", "103617.060000", "103618.850000", "103616.265000", "103618.055000", "103615.467500", "103617.257500", "103615.667500", "103617.457500", "103615.867500", "103617.657500", "103616.065000", "103617.855000", "103616.462500", "103618.252500", "103616.662500", "103618.452500", "103616.860000", "103618.650000", "103617.060000", "103618.850000", "103616.265000", "103618.055000", "103615.467500", "103617.257500", "103615.667500", "103617.457500", "103615.867500", "103617.657500", "103616.065000", "103617.855000", "103616.462500", "103618.252500", "103616.662500", "103618.452500", "103616.860000", "103618.650000", "103617.060000", "103618.850000", "103616.265000", "103621.655000", "103619.067500", "103620.857500", "103619.267500", "103621.057500", "103619.467500", "103621.257500", "103619.665000", "103621.455000", "103620.062500", "103621.852500", "103620.262500", "103622.052500", "103620.460000", "103622.250000", "103620.660000", "103622.450000", "103619.865000", "103621.655000", "103619.067500", "103620.857500", "103619.267500", "103621.057500", "103619.467500", "103621.257500", "103619.665000", "103621.455000", "103620.062500", "103621.852500", "103620.262500", "103622.052500", "103620.460000", "103622.250000", "103620.660000", "103622.450000", "103619.865000", "103621.655000", "103619.067500", "103620.857500", "103619.267500", "103621.057500", "103619.467500", "103621.257500", "103619.665000", "103621.455000", "103620.062500", "103621.852500", "103620.262500", "103622.052500", "103620.460000", "103622.250000", "103620.660000", "103622.450000", "103619.865000", "103621.655000", "103619.067500", "103620.857500", "103619.267500", "103621.057500", "103619.467500", "103621.257500", "103619.665000", "103621.455000", "103620.062500", "103621.852500", "103620.262500", "103622.052500", "103620.460000", "103622.250000", "103620.660000", "103622.450000", "103619.865000", "103625.255000", "103622.667500", "103624.457500", "103622.867500", "103624.657500", "103623.067500", "103624.857500", "103623.265000", "103625.055000", "103623.662500", "103625.452500", "103623.862500", "103625.652500", "103624.060000", "103625.850000", "103624.260000", "103626.050000", "103623.465000", "103625.255000", "103622.667500", "103624.457500", "103622.867500", "103624.657500", "103623.067500", "103624.857500", "103623.265000", "103625.055000", "103623.662500", "103625.452500", "103623.862500", "103625.652500", "103624.060000", "103625.850000", "103624.260000", "103626.050000", "103623.465000", "103625.255000", "103622.667500", "103624.457500", "103622.867500", "103624.657500", "103623.067500", "103624.857500", "103623.265000", "103625.055000", "103623.662500", "103625.452500", "103623.862500", "103625.652500", "103624.060000", "103625.850000", "103624.260000", "103626.050000", "103623.465000", "103625.255000", "103622.667500", "103624.457500", "103622.867500", "103624.657500", "103623.067500", "103624.857500", "103623.265000", "103625.055000", "103623.662500", "103625.452500", "103623.862500", "103625.652500", "103624.060000", "103625.850000", "103624.260000", "103626.050000", "103623.465000", "103628.855000", "103626.267500", "103628.057500", "103626.467500", "103628.257500", "103626.667500", "103628.457500", "103626.865000", "103628.655000", "103627.262500", "103629.052500", "103627.462500", "103629.252500", "103627.660000", "103629.450000", "103627.860000", "103629.650000", "103627.065000", "103628.855000", "103626.267500", "103628.057500", "103626.467500", "103628.257500", "103626.667500", "103628.457500", "103626.865000", "103628.655000", "103627.262500", "103629.052500", "103627.462500", "103629.252500", "103627.660000", "103629.450000", "103627.860000", "103629.650000", "103627.065000", "103628.855000", "103626.267500", "103628.057500", "103626.467500", "103628.257500", "103626.667500", "103628.457500", "103626.865000", "103628.655000", "103627.262500", "103629.052500", "103627.462500", "103629.252500", "103627.660000", "103629.450000", "103627.860000", "103629.650000", "103627.065000", "103628.855000", "103626.267500", "103628.057500", "103626.467500", "103628.257500", "103626.667500", "103628.457500", "103626.865000", "103628.655000", "103627.262500", "103629.052500", "1