{
  "AcquisitionMatrixPE": 122,
  "AcquisitionNumber": 1,
  "AcquisitionTime": "11:14:10.500000",
  "BandwidthPerPixelPhaseEncode": 27.785,
  "BaseResolution": 122,
  "BodyPartExamined": "BRAIN",
  "CoilCombinationMethod": "Adaptive Combine",
  "ConsistencyInfo": "N4_VE11C_LATEST_20160120",
  "ConversionSoftware": "dcm2niix",
  "ConversionSoftwareVersion": "v1.0.20220720",
  "DerivedVendorReportedEchoSpacing": 0.000590011,
  "DeviceSerialNumber": "66112",
  "DiffusionScheme": "Monopolar",
  "DwellTime": 2e-06,
  "EchoTime": 0.068,
  "EchoTrainLength": 61,
  "EffectiveEchoSpacing": 0.000295005,
  "FlipAngle": 90,
  "HeudiconvVersion": "0.13.1",
  "ImageOrientationPatientDICOM": [0.989513, 0.144246, 0.00762044, -0.139595, 0.941389, 0.307083],
  "ImageOrientationText": "Tra>Cor(17.8)>Sag(-2.1)",
  "ImageType": [
    "ORIGINAL",
    "PRIMARY",
    "DIFFUSION",
    "NONE",
    "ND",
    "NORM"
],
  "ImagingFrequency": 123.252,
  "InPlanePhaseEncodingDirectionDICOM": "COL",
  "InstitutionAddress": "Maynard 3,Hanover,NH,US,03755",
  "InstitutionName": "Dartmouth College - PBS",
  "InstitutionalDepartmentName": "Department",
  "MRAcquisitionType": "2D",
  "MagneticFieldStrength": 3,
  "Manufacturer": "Siemens",
  "ManufacturersModelName": "Prisma",
  "Modality": "MR",
  "MultibandAccelerationFactor": 4,
  "NonlinearGradientCorrection": false,
  "ParallelReductionFactorInPlane": 2,
  "PartialFourier": 1,
  "PatientPosition": "HFS",
  "PercentPhaseFOV": 100,
  "PercentSampling": 100,
  "PhaseEncodingDirection": "j-",
  "PhaseEncodingSteps": 122,
  "PhaseResolution": 1,
  "PixelBandwidth": 2050,
  "ProcedureStepDescription": "dbic^QA",
  "ProtocolName": "dwi_acq-DTI-30-p2-s4",
  "PulseSequenceDetails": "%SiemensSeq%\\ep2d_diff",
  "ReceiveCoilActiveElements": "HEA;HEP",
  "ReceiveCoilName": "Head_32",
  "ReconMatrixPE": 122,
  "RefLinesPE": 38,
  "RepetitionTime": 3.6,
  "SAR": 0.13726,
  "ScanOptions": "FS",
  "ScanningSequence": "EP",
  "SequenceName": "*ep_b0",
  "SequenceVariant": "SK\\SP",
  "SeriesDescription": "dwi_acq-DTI-30-p2-s4",
  "SeriesNumber": 13,
  "ShimSetting": [4139, -7699, -7522, 261, -57, -150, -14, 50],
  "SliceThickness": 2,
  "SliceTiming": [2.58594, 0, 1.78906, 0.20312, 1.99219, 0.39844, 2.1875, 0.60156, 2.39062, 0.99219, 2.78906, 1.19531, 2.98438, 1.39062, 3.17969, 1.59375, 3.38281, 0.79688, 2.58594, 0, 1.78906, 0.20312, 1.99219, 0.39844, 2.1875, 0.60156, 2.39062, 0.99219, 2.78906, 1.19531, 2.98438, 1.39062, 3.17969, 1.59375, 3.38281, 0.79688, 2.58594, 0, 1.78906, 0.20312, 1.99219, 0.39844, 2.1875, 0.60156, 2.39062, 0.99219, 2.78906, 1.19531, 2.98438, 1.39062, 3.17969, 1.59375, 3.38281, 0.79688, 2.58594, 0, 1.78906, 0.20312, 1.99219, 0.39844, 2.1875, 0.60156, 2.39062, 0.99219, 2.78906, 1.19531, 2.98438, 1.39062, 3.17969, 1.59375, 3.38281, 0.79688],
  "SoftwareVersions": "syngo MR E11",
  "SpacingBetweenSlices": 2,
  "SpoilingState": true,
  "StationName": "AWP66112",
  "TotalReadoutTime": 0.0356956,
  "TxRefAmp": 219.61,
  "dcmmeta_affine": [
    [-1.9465821981430054, -0.27461376786231995, -0.07424330711364746, 139.143798828125],
    [-0.2837618887424469, 1.851912498474121, 0.6098537445068359, -116.70088195800781],
    [0.014991029165685177, -0.6040984392166138, 1.9033050537109375, -30.74134063720703],
    [0.0, 0.0, 0.0, 1.0]
],
  "dcmmeta_reorient_transform": [
    [0.0, -1.0, 0.0, 121.0],
    [1.0, 0.0, 0.0, 0.0],
    [0.0, 0.0, -1.0, 71.0],
    [0.0, 0.0, 0.0, 1.0]
],
  "dcmmeta_shape": [122, 122, 72, 31],
  "dcmmeta_slice_dim": 2,
  "dcmmeta_version": 0.6,
  "global": {
    "const": {
      "AccessionNumber": "qa",
      "AcquisitionMatrix": [122, 0, 0, 122],
      "AngioFlag": "N",
      "BitsAllocated": 16,
      "BitsStored": 12,
      "BodyPartExamined": "BRAIN",
      "Columns": 122,
      "EchoNumbers": 1,
      "EchoTime": 68.0,
      "EchoTrainLength": 61,
      "FlipAngle": 90.0,
      "HighBit": 11,
      "ImageOrientationPatient": [0.98951257133271, 0.14424562409893, 0.00762043980558, -0.1395953277496, 0.9413888451483, 0.30708335464631],
      "ImageType": [
        "ORIGINAL",
        "PRIMARY",
        "DIFFUSION",
        "NONE",
        "ND",
        "NORM"
],
      "ImagedNucleus": "1H",
      "ImagingFrequency": 123.25236,
      "InPlanePhaseEncodingDirection": "COL",
      "MRAcquisitionType": "2D",
      "MagneticFieldStrength": 3.0,
      "Manufacturer": "SIEMENS",
      "ManufacturerModelName": "Prisma",
      "Modality": "MR",
      "NumberOfAverages": 1.0,
      "NumberOfPhaseEncodingSteps": 122,
      "PercentPhaseFieldOfView": 100.0,
      "PercentSampling": 100.0,
      "PerformedProcedureStepStartTime": "104035.125000",
      "PhotometricInterpretation": "MONOCHROME2",
      "PixelBandwidth": 2050.0,
      "PixelRepresentation": 0,
      "PixelSpacing": [1.9672131538391, 1.9672131538391],
      "ProtocolName": "dwi_acq-DTI-30-p2-s4",
      "RepetitionTime": 3600.0,
      "Rows": 122,
      "SAR": 0.13725985649567,
      "SamplesPerPixel": 1,
      "ScanOptions": "FS",
      "ScanningSequence": "EP",
      "SequenceVariant": [
        "SK",
        "SP"
],
      "SeriesDescription": "dwi_acq-DTI-30-p2-s4",
      "SeriesNumber": 13,
      "SeriesTime": "111419.644000",
      "SliceThickness": 2.0,
      "SmallestImagePixelValue": 0,
      "SoftwareVersions": "syngo MR E11",
      "SpacingBetweenSlices": 2.0,
      "SpecificCharacterSet": "ISO_IR 100",
      "StudyID": "31",
      "StudyTime": "104035.096000",
      "TransmitCoilName": "Body",
      "VariableFlipAngleFlag": "N",
      "WindowCenterWidthExplanation": "Algo1",
      "dBdt": 0.0},
    "slices": {
      "AcquisitionTime": ["111410.500000", "111407.915000", "111409.705000", "111408.115000", "111409.905000", "111408.312500", "111410.102500", "111408.512500", "111410.302500", "111408.910000", "111410.700000", "111409.107500", "111410.897500", "111409.307500", "111411.097500", "111409.507500", "111411.295000", "111408.710000", "111410.500000", "111407.915000", "111409.705000", "111408.115000", "111409.905000", "111408.312500", "111410.102500", "111408.512500", "111410.302500", "111408.910000", "111410.700000", "111409.107500", "111410.897500", "111409.307500", "111411.097500", "111409.507500", "111411.295000", "111408.710000", "111410.500000", "111407.915000", "111409.705000", "111408.115000", "111409.905000", "111408.312500", "111410.102500", "111408.512500", "111410.302500", "111408.910000", "111410.700000", "111409.107500", "111410.897500", "111409.307500", "111411.097500", "111409.507500", "111411.295000", "111408.710000", "111410.500000", "111407.915000", "111409.705000", "111408.115000", "111409.905000", "111408.312500", "111410.102500", "111408.512500", "111410.302500", "111408.910000", "111410.700000", "111409.107500", "111410.897500", "111409.307500", "111411.097500", "111409.507500", "111411.295000", "111408.710000", "111414.100000", "111411.515000", "111413.305000", "111411.715000", "111413.505000", "111411.912500", "111413.702500", "111412.112500", "111413.902500", "111412.510000", "111414.300000", "111412.707500", "111414.497500", "111412.907500", "111414.697500", "111413.107500", "111414.895000", "111412.310000", "111414.100000", "111411.515000", "111413.305000", "111411.715000", "111413.505000", "111411.912500", "111413.702500", "111412.112500", "111413.902500", "111412.510000", "111414.300000", "111412.707500", "111414.497500", "111412.907500", "111414.697500", "111413.107500", "111414.895000", "111412.310000", "111414.100000", "111411.515000", "111413.305000", "111411.715000", "111413.505000", "111411.912500", "111413.702500", "111412.112500", "111413.902500", "111412.510000", "111414.300000", "111412.707500", "111414.497500", "111412.907500", "111414.697500", "111413.107500", "111414.895000", "111412.310000", "111414.100000", "111411.515000", "111413.305000", "111411.715000", "111413.505000", "111411.912500", "111413.702500", "111412.112500", "111413.902500", "111412.510000", "111414.300000", "111412.707500", "111414.497500", "111412.907500", "111414.697500", "111413.107500", "111414.895000", "111412.310000", "111417.700000", "111415.115000", "111416.905000", "111415.315000", "111417.105000", "111415.512500", "111417.302500", "111415.712500", "111417.502500", "111416.110000", "111417.900000", "111416.307500", "111418.097500", "111416.507500", "111418.297500", "111416.707500", "111418.495000", "111415.910000", "111417.700000", "111415.115000", "111416.905000", "111415.315000", "111417.105000", "111415.512500", "111417.302500", "111415.712500", "111417.502500", "111416.110000", "111417.900000", "111416.307500", "111418.097500", "111416.507500", "111418.297500", "111416.707500", "111418.495000", "111415.910000", "111417.700000", "111415.115000", "111416.905000", "111415.315000", "111417.105000", "111415.512500", "111417.302500", "111415.712500", "111417.502500", "111416.110000", "111417.900000", "111416.307500", "111418.097500", "111416.507500", "111418.297500", "111416.707500", "111418.495000", "111415.910000", "111417.700000", "111415.115000", "111416.905000", "111415.315000", "111417.105000", "111415.512500", "111417.302500", "111415.712500", "111417.502500", "111416.110000", "111417.900000", "111416.307500", "111418.097500", "111416.507500", "111418.297500", "111416.707500", "111418.495000", "111415.910000", "111421.300000", "111418.715000", "111420.505000", "111418.915000", "111420.705000", "111419.112500", "111420.902500", "111419.312500", "111421.102500", "111419.710000", "111421.500000", "111419.907500", "111421.697500", "111420.107500", "111421.897500", "111420.307500", "111422.095000", "111419.510000", "111421.300000", "111418.715000", "111420.505000", "111418.915000", "111420.705000", "111419.112500", "111420.902500", "111419.312500", "111421.102500", "111419.710000", "111421.500000", "111419.907500", "111421.697500", "111420.107500", "111421.897500", "111420.307500", "111422.095000", "111419.510000", "111421.300000", "111418.715000", "111420.505000", "111418.915000", "111420.705000", "111419.112500", "111420.902500", "111419.312500", "111421.102500", "111419.710000", "111421.500000", "111419.907500", "111421.697500", "111420.107500", "111421.897500", "111420.307500", "111422.095000", "111419.510000", "111421.300000", "111418.715000", "111420.505000", "111418.915000", "111420.705000", "111419.112500", "111420.902500", "111419.312500", "111421.102500", "111419.710000", "111421.500000", "111419.907500", "111421.697500", "111420.107500", "111421.897500", "111420.307500", "111422.095000", "111419.510000", "111424.900000", "111422.315000", "111424.105000", "111422.515000", "111424.305000", "111422.712500", "111424.502500", "111422.912500", "111424.702500", "111423.310000", "111425.100000", "111423.507500", "111425.297500", "111423.707500", "111425.497500", "111423.907500", "111425.695000", "111423.110000", "111424.900000", "111422.315000", "111424.105000", "111422.515000", "111424.305000", "111422.712500", "111424.502500", "111422.912500", "111424.702500", "111423.310000", "111425.100000", "111423.507500", "111425.297500", "111423.707500", "111425.497500", "111423.907500", "111425.695000", "111423.110000", "111424.900000", "111422.315000", "111424.105000", "111422.515000", "111424.305000", "111422.712500", "111424.502500", "111422.912500", "111424.702500", "111423.310000", "111425.100000", "111423.507500", "111425.297500", "111423.707500", "111425.497500", "111423.907500", "111425.695000", "111423.110000", "111424.900000", "111422.315000", "111424.105000", "111422.515000", "111424.305000", "111422.712500", "111424.502500", "111422.912500", "111424.702500", "111423.310000", "111425.100000", "111423.507500", "111425.297500", "111423.707500", "111425.497500", "111423.907500", "111425.695000", "111423.110000", "111428.500000", "111425.915000", "111427.705000", "111426.115000", "111427.905000", "111426.312500", "111428.102500", "111426.512500", "111428.302500", "111426.910000", "111428.700000", "111427.107500", "111428.897500", "111427.307500", "111429.097500", "111427.507500", "111429.295000", "111426.710000", "111428.500000", "111425.915000", "111427.705000", "111426.115000", "111427.905000", "111426.312500", "111428.102500", "111426.512500", "111428.302500", "111426.910000", "111428.700000", "111427.107500", "111428.897500", "111427.307500", "111429.097500", "111427.507500", "111429.295000", "111426.710000", "111428.500000", "111425.915000", "111427.705000", "111426.115000", "111427.905000", "111426.312500", "111428.102500", "111426.512500", "111428.302500", "111426.910000", "111428.700000", "111427.107500", "111428.897500", "111427.307500", "111429.097500", "111427.507500", "111429.295000", "111426.710000", "111428.500000", "111425.915000", "111427.705000", "111426.115000", "111427.905000", "111426.312500", "111428.102500", "111426.512500", "111428.302500", "111426.910000", "111428.700000", "111427.107500", "111428.897500", "111427.307500", "111429.097500", "111427.507500", "111429.295000", "111426.710000", "111432.100000", "111429.515000", "111431.305000", "111429.715000", "111431.505000", "111429.912500", "111431.702500", "111430.112500", "111431.902500", "111430.510000", "111432.300000", "111430.707500", "111432.497500", "111430.907500", "111432.697500", "111431.107500", "111432.895000", "111430.310000", "111432.100000", "111429.515000", "111431.305000", "111429.715000", "111431.505000", "111429.912500", "111431.702500", "111430.112500", "111431.902500", "111430.510000", "111432.300000", "111430.707500", "111432.497500", "111430.907500", "111432.697500", "111431.107500", "111432.895000", "111430.310000", "111432.100000", "111429.515000", "111431.305000", "111429.715000", "111431.505000", "111429.912500", "111431.702500", "111430.112500", "111431.902500", "111430.510000", "111432.300000", "111430.707500", "111432.497500", "111430.907500", "111432.697500", "111431.107500", "111432.895000", "111430.310000", "111432.100000", "111429.515000", "111431.305000", "111429.715000", "111431.505000", "111429.912500", "111431.702500", "111430.112500", "111431.902500", "111430.510000", "111432.300000", "111430.707500", "111432.497500", "111430.907500", "111432.697500", "111431.107500", "111432.895000", "111430.310000", "111435.700000", "111433.115000", "111434.905000", "111433.315000", "111435.105000", "111433.512500", "111435.302500", "111433.712500", "111435.502500", "111434.110000", "111435.900000", "111434.307500", "111436.097500", "111434.507500", "111436.297500", "111434.707500", "111436.495000", "111433.910000", "111435.700000", "111433.115000", "111434.905000", "111433.315000", "111435.105000", "111433.512500", "111435.302500", "111433.712500", "111435.502500", "111434.110000", "111435.900000", "111434.307500", "111436.097500", "111434.507500", "111436.297500", "111434.707500", "111436.495000", "111433.910000", "111435.700000", "111433.115000", "111434.905000", "111433.315000", "111435.105000", "111433.512500", "111435.302500", "111433.712500", "111435.502500", "111434.110000", "111435.900000", "111434.307500", "111436.097500", "111434.507500", "111436.297500", "111434.707500", "111436.495000", "111433.910000", "111435.700000", "111433.115000", "111434.905000", "111433.315000", "111435.105000", "111433.512500", "111435.302500", "111433.712500", "111435.502500", "111434.110000", "111435.900000", "111434.307500", "111436.097500", "111434.507500", "111436.297500", "111434.707500", "111436.495000", "111433.910000", "111439.300000", "111436.715000", "111438.505000", "111436.915000", "111438.705000", "111437.112500", "111438.902500", "111437.312500", "111439.102500", "111437.710000", "111439.500000", "111437.907500", "111439.697500", "111438.107500", "111439.897500", "111438.307500", "111440.095000", "111437.510000", "111439.300000", "111436.715000", "111438.505000", "111436.915000", "111438.705000", "111437.112500", "111438.902500", "111437.312500", "111439.102500", "111437.710000", "111439.500000", "111437.907500", "111439.697500", "111438.107500", "111439.897500", "111438.307500", "111440.095000", "111437.510000", "111439.300000", "111436.715000", "111438.505000", "111436.915000", "111438.705000", "111437.112500", "111438.902500", "111437.312500", "111439.102500", "111437.710000", "111439.500000", "111437.907500", "111439.697500", "111438.107500", "111439.897500", "111438.307500", "111440.095000", "111437.510000", "111439.300000", "111436.715000", "111438.505000", "111436.915000", "111438.705000", "111437.112500", "111438.902500", "111437.312500", "111439.102500", "111437.710000", "111439.500000", "111437.907500", "111439.697500", "111438.107500", "111439.897500", "111438.307500", "111440.095000", "111437.510000", "111442.900000", "111440.315000", "111442.105000", "111440.515000", "111442.305000", "111440.712500", "111442.502500", "111440.912500", "111442.702500", "111441.310000", "111443.100000", "111441.507500", "111443.297500", "111441.707500", "111443.497500", "111441.907500", "111443.695000", "111441.110000", "111442.900000", "111440.315000", "111442.105000", "111440.515000", "111442.305000", "111440.712500", "111442.502500", "111440.912500", "111442.702500", "111441.310000", "111443.100000", "111441.507500", "111443.297500", "111441.707500", "111443.497500", "111441.907500", "111443.695000", "111441.110000", "111442.900000", "111440.315000", "111442.105000", "111440.515000", "111442.305000", "111440.712500", "111442.502500", "111440.912500", "111442.702500", "111441.310000", "111443.100000", "111441.507500", "111443.297500", "111441.707500", "111443.497500", "111441.907500", "111443.695000", "111441.110000", "111442.900000", "111440.315000", "111442.105000", "111440.515000", "111442.305000", "111440.712500", "111442.502500", "111440.912500", "111442.702500", "111441.310000", "111443.100000", "111441.507500", "111443.297500", "111441.707500", "111443.497500", "111441.907500", "111443.695000", "111441.110000", "111446.500000", "111443.915000", "111445.705000", "111444.115000", "111445.905000", "111444.312500", "111446.102500", "111444.512500", "111446.302500", "111444.910000", "111446.700000", "111445.107500", "111446.897500", "111445.307500", "111447.097500", "111445.507500", "111447.295000", "111444.710000", "111446.500000", "111443.915000", "111445.705000", "111444.115000", "111445.905000", "111444.312500", "111446.102500", "111444.512500", "111446.302500", "111444.910000", "111446.700000", "111445.107500", "111446.897500", "111445.307500", "111447.097500", "111445.507500", "111447.295000", "111444.710000", "111446.500000", "111443.915000", "111445.705000", "111444.115000", "111445.905000", "111444.312500", "111446.102500", "111444.512500", "111446.302500", "111444.910000", "111446.700000", "111445.107500", "111446.897500", "111445.307500", "111447.097500", "111445.507500", "111447.295000", "111444.710000", "111446.500000", "111443.915000", "111445.705000", "111444.115000", "111445.905000", "111444.312500", "111446.102500", "111444.512500", "111446.302500", "111444.910000", "111446.700000", "111445.107500", "111446.897500", "111445.307500", "111447.097500", "111445.507500", "111447.295000", "111444.710000", "111450.100000", "111447.515000", "111449.305000", "111447.715000", "111449.505000", "111447.912500", "111449.702500", "111448.112500", "111449.902500", "111448.510000", "111450.300000", "111448.707500", "111450.497500", "111448.907500", "111450.697500", "111449.107500", "111450.895000", "111448.310000", "111450.100000", "111447.515000", "111449.305000", "111447.715000", "111449.505000", "111447.912500", "111449.702500", "111448.112500", "111449.902500", "111448.510000", "111450.300000", "111448.707500", "111450.497500", "111448.907500", "111450.697500", "111449.107500", "111450.895000", "111448.310000", "111450.100000", "111447.515000", "111449.305000", "111447.715000", "111449.505000", "111447.912500", "111449.702500", "111448.112500", "111449.902500", "111448.510000", "111450.300000", "111448.707500", "111450.497500", "111448.907500", "111450.697500", "111449.107500", "111450.895000", "111448.310000", "111450.100000", "111447.515000", "111449.305000", "111447.715000", "111449.505000", "111447.912500", "111449.702500", "111448.112500", "111449.902500", "111448.510000", "111450.300000", "111448.707500", "111450.497500", "111448.907500", "111450.697500", "111449.107500", "111450.895000", "111448.310000", "111453.700000", "111451.115000", "111452.905000", "111451.315000", "111453.105000", "111451.512500", "111453.302500", "111451.712500", "111453.502500", "111452.110000", "111453.900000", "111452.307500", "111454.097500", "111452.507500", "111454.297500", "111452.707500", "111454.495000", "111451.910000", "111453.700000", "111451.115000", "111452.905000", "111451.315000", "111453.105000", "111451.512500", "111453.302500", "111451.712500", "111453.502500", "111452.110000", "111453.900000", "111452.307500", "111454.097500", "111452.507500", "111454.297500", "111452.707500", "111454.495000", "111451.910000", "111453.700000", "111451.115000", "111452.905000", "111451.315000", "111453.105000", "111451.512500", "111453.302500", "111451.712500", "111453.502500", "111452.110000", "111453.900000", "111452.307500", "111454.097500", "111452.507500", "111454.297500", "111452.707500", "111454.495000", "111451.910000", "111453.700000", "111451.115000", "111452.905000", "111451.315000", "111453.105000", "111451.512500", "111453.302500", "111451.712500", "111453.502500", "111452.110000", "111453.900000", "111452.307500", "111454.097500", "111452.507500", "111454.297500", "111452.707500", "111454.495000", "111451.910000", "111457.300000", "111454.715000", "111456.505000", "111454.915000", "111456.705000", "111455.112500", "111456.902500", "111455.312500", "111457.102500", "111455.710000", "111457.500000", "111455.907500", "111457.697500", "111456.107500", "111457.897500", "111456.307500", "111458.095000", "111455.510000", "111457.300000", "111454.715000", "111456.505000", "111454.915000", "111456.705000", "111455.112500", "111456.902500", "111455.312500", "111457.102500", "111455.710000", "111457.500000", "111455.907500", "111457.697500", "111456.107500", "111457.897500", "111456.307500", "111458.095000", "111455.510000", "111457.300000", "111454.715000", "111456.505000", "111454.915000", "111456.705000", "111455.112500", "111456.902500", "111455.312500", "111457.102500", "111455.710000", "111457.500000", "111455.907500", "111457.697500", "111456.107500", "111457.897500", "111456.307500", "111458.095000", "111455.510000", "111457.300000", "111454.715000", "111456.505000", "111454.915000", "111456.705000", "111455.112500", "111456.902500", "111455.312500", "111457.102500", "111455.710000", "111457.500000", "111455.907500", "111457.697500", "111456.107500", "111457.897500", "111456.307500", "111458.095000", "111455.510000", "111500.900000", "111458.315000", "111500.105000", "111458.515000", "111500.305000", "111458.712500", "111500.502500", "111458.912500", "111500.702500", "111459.310000", "111501.100000", "111459.507500", "111501.297500", "111459.707500", "111501.497500", "111459.907500", "111501.695000", "111459.110000", "111500.900000", "111458.315000", "111500.105000", "111458.515000", "111500.305000", "111458.712500", "111500.502500", "111458.912500", "111500.702500", "111459.310000", "111501.100000", "111459.507500", "111501.297500", "111459.707500", "111501.497500", "111459.907500", "111501.695000", "111459.110000", "111500.900000", "111458.315000", "111500.105000", "111458.515000", "111500.305000", "111458.712500", "111500.502500", "111458.912500", "111500.702500", "111459.310000", "111501.100000", "111459.507500", "111501.297500", "111459.707500", "111501.497500", "111459.907500", "111501.695000", "111459.110000", "111500.900000", "111458.315000", "111500.105000", "111458.515000", "111500.305000", "111458.712500", "111500.502500", "111458.912500", "111500.702500", "111459.310000", "111501.100000", "111459.507500", "111501.297500", "111459.707500", "111501.497500", "111459.907500", "111501.695000", "111459.110000", "111504.500000", "111501.915000", "111503.705000", "111502.115000", "111503.905000", "111502.312500", "111504.102500", "111502.512500", "111504.302500", "111502.910000", "111504.700000", "111503.107500", "111504.897500", "111503.307500", "111505.097500", "111503.507500", "111505.295000", "111502.710000", "111504.500000", "111501.915000", "111503.705000", "111502.115000", "111503.905000", "111502.312500", "111504.102500", "111502.512500", "111504.302500", "111502.910000", "111504.700000", "111503.107500", "111504.897500", "111503.307500", "111505.097500", "111503.507500", "111505.295000", "111502.710000", "111504.500000", "111501.915000", "111503.705000", "111502.115000", "111503.905000", "111502.312500", "111504.102500", "111502.512500", "111504.302500", "111502.910000", "111504.700000", "111503.107500", "111504.897500", "111503.307500", "111505.097500", "111503.507500", "111505.295000", "111502.710000", "111504.500000", "111501.915000", "111503.705000", "111502.115000", "111503.905000", "111502.312500", "111504.102500", "111502.512500", "111504.302500", "111502.910000", "111504.700000", "111503.107500", "111504.897500", "111503.307500", "111505.097500", "111503.507500", "111505.295000", "111502.710000", "111508.100000", "111505.515000", "111507.305000", "111505.715000", "111507.505000", "111505.912500", "111507.702500", "111506.112500", "111507.902500", "111506.510000", "111508.300000", "111506.707500", "111508.497500", "111506.907500", "111508.697500", "111507.107500", "111508.895000", "111506.310000", "111508.100000", "111505.515000", "111507.305000", "111505.715000", "111507.505000", "111505.912500", "111507.702500", "111506.112500", "111507.902500", "111506.510000", "111508.300000", "111506.707500", "111508.497500", "111506.907500", "111508.697500", "111507.107500", "111508.895000", "111506.310000", "111508.100000", "111505.515000", "111507.305000", "111505.715000", "111507.505000", "111505.912500", "111507.702500", "111506.112500", "111507.902500", "111506.510000", "111508.300000", "111506.707500", "111508.497500", "111506.907500", "111508.697500", "111507.107500", "111508.895000", "111506.310000", "111508.100000", "111505.515000", "111507.305000", "111505.715000", "111507.505000", "111505.912500", "111507.702500", "111506.112500", "111507.902500", "111506.510000", "111508.300000", "111506.707500", "111508.497500", "111506.907500", "111508.697500", "111507.107500", "111508.895000", "111506.310000", "111511.700000", "111509.115000", "111510.905000", "111509.315000", "111511.105000", "111509.512500", "111511.302500", "111509.712500", "111511.502500", "111510.110000", "111511.900000", "111510.307500", "111512.097500", "111510.507500", "111512.297500", "111510.707500", "111512.495000", "111509.910000", "111511.700000", "111509.115000", "111510.905000", "111509.315000", "111511.105000", "111509.512500", "111511.302500", "111509.712500", "111511.502500", "111510.110000", "111511.900000", "111510.307500", "111512.097500", "111510.507500", "111512.297500", "111510.707500", "111512.495000", "111509.910000", "111511.700000", "111509.115000", "111510.905000", "111509.315000", "111511.105000", "111509.512500", "111511.302500", "111509.712500", "111511.502500", "111510.110000", "111511.900000", "111510.307500", "111512.097500", "111510.507500", "111512.297500", "111510.707500", "111512.495000", "111509.910000", "111511.700000", "111509.115000", "111510.905000", "111509.315000", "111511.105000", "111509.512500", "111511.302500", "111509.712500", "111511.502500", "111510.110000", "111511.900000", "111510.307500", "111512.097500", "111510.507500", "111512.297500", "111510.707500", "111512.495000", "111509.910000", "111515.300000", "111512.715000", "111514.505000", "111512.915000", "111514.705000", "111513.112500", "111514.902500", "111513.312500", "111515.102500", "111513.710000", "111515.500000", "111513.907500", "111515.697500", "111514.107500", "111515.897500", "111514.307500", "111516.095000", "111513.510000", "111515.300000", "111512.715000", "111514.505000", "111512.915000", "111514.705000", "111513.112500", "111514.902500", "111513.312500", "111515.102500", "111513.710000", "111515.500000", "111513.907500", "111515.697500", "111514.107500", "111515.897500", "111514.307500", "111516.095000", "111513.510000", "111515.300000", "111512.715000", "111514.505000", "111512.915000", "111514.705000", "111513.112500", "111514.902500", "111513.312500", "111515.102500", "111513.710000", "111515.500000", "111513.907500", "111515.697500", "111514.107500", "111515.897500", "111514.307500", "111516.095000", "111513.510000", "111515.300000", "111512.715000", "111514.505000", "111512.915000", "111514.705000", "111513.112500", "111514.902500", "111513.312500", "111515.102500", "111513.710000", "111515.500000", "111513.907500", "111515.697500", "111514.107500", "111515.897500", "111514.307500", "111516.095000", "111513.510000", "111518.900000", "111516.315000", "111518.105000", "111516.515000", "111518.305000", "111516.712500", "111518.502500", "111516.912500", "111518.702500", "111517.310000", "111519.100000", "111517.507500", "111519.297500", "111517.707500", "111519.497500", "111517.907500", "111519.695000", "111517.110000", "111518.900000", "111516.315000", "111518.105000", "111516.515000", "111518.305000", "111516.712500", "111518.502500", "111516.912500", "111518.702500", "111517.310000", "111519.100000", "111517.507500", "111519.297500", "111517.707500", "111519.497500", "111517.907500", "111519.695000", "111517.110000", "111518.900000", "111516.315000", "111518.105000", "111516.515000", "111518.305000", "111516.712500", "111518.502500", "111516.912500", "111518.702500", "111517.310000", "111519.100000", "111517.507500", "111519.297500", "111517.707500", "111519.497500", "111517.907500", "111519.695000", "111517.110000", "111518.900000", "111516.315000", "111518.105000", "111516.515000", "111518.305000", "111516.712500", "111518.502500", "111516.912500", "111518.702500", "111517.310000", "111519.100000", "111