{
  "AcquisitionMatrixPE": 80,
  "AcquisitionNumber": 1,
  "AcquisitionTime": "11:17:48.465000",
  "BandwidthPerPixelPhaseEncode": 25,
  "BaseResolution": 80,
  "BodyPartExamined": "BRAIN",
  "CoilCombinationMethod": "Sum of Squares",
  "ConsistencyInfo": "N4_VE11E_LATEST_20181129",
  "ConversionSoftware": "dcm2niix",
  "ConversionSoftwareVersion": "v1.0.20220720",
  "DerivedVendorReportedEchoSpacing": 0.0005,
  "DeviceSerialNumber": "66112",
  "DwellTime": 2.7e-06,
  "EchoTime": 0.03,
  "EchoTrainLength": 80,
  "EffectiveEchoSpacing": 0.0005,
  "FlipAngle": 10,
  "HeudiconvVersion": "0.13.1",
  "ImageOrientationPatientDICOM": [0.984816, 0.173123, 0.0128558, -0.165862, 0.916473, 0.364098],
  "ImageOrientationText": "Tra>Cor(21.2)>Sag(-2.9)",
  "ImageType": [
    "ORIGINAL",
    "PRIMARY",
    "M",
    "ND",
    "NORM",
    "MOSAIC"
],
  "ImagingFrequency": 123.259,
  "InPlanePhaseEncodingDirectionDICOM": "COL",
  "InstitutionAddress": "Maynard 3,Hanover,NH,US,03755",
  "InstitutionName": "Dartmouth College - PBS",
  "InstitutionalDepartmentName": "Department",
  "MRAcquisitionType": "2D",
  "MagneticFieldStrength": 3,
  "Manufacturer": "Siemens",
  "ManufacturersModelName": "Prisma",
  "MatrixCoilMode": "SENSE",
  "Modality": "MR",
  "NonlinearGradientCorrection": false,
  "PartialFourier": 1,
  "PatientPosition": "HFS",
  "PercentPhaseFOV": 100,
  "PercentSampling": 100,
  "PhaseEncodingDirection": "j-",
  "PhaseEncodingSteps": 80,
  "PhaseResolution": 1,
  "PixelBandwidth": 2315,
  "ProcedureStepDescription": "dbic^QA",
  "ProtocolName": "func-bold_fa-10",
  "PulseSequenceDetails": "%SiemensSeq%\\ep2d_bold",
  "ReceiveCoilActiveElements": "HEA;HEP",
  "ReceiveCoilName": "Head_32",
  "ReconMatrixPE": 80,
  "RepetitionTime": 2,
  "SAR": 0.0100461,
  "ScanOptions": "FS",
  "ScanningSequence": "EP",
  "SequenceName": "*epfid2d1_80",
  "SequenceVariant": "SK",
  "SeriesDescription": "func-bold_fa-10",
  "SeriesNumber": 10,
  "ShimSetting": [4222, -7732, -7492, -40, -129, 17, 19, 89],
  "SliceThickness": 3.5,
  "SliceTiming": [0.9875, 0, 1.055, 0.065, 1.12, 0.13, 1.1875, 0.1975, 1.2525, 0.2625, 1.3175, 0.33, 1.385, 0.395, 1.45, 0.46, 1.5175, 0.5275, 1.5825, 0.5925, 1.6475, 0.6575, 1.715, 0.725, 1.78, 0.79, 1.8475, 0.8575, 1.9125, 0.9225],
  "SoftwareVersions": "syngo MR E11",
  "SpacingBetweenSlices": 3.99,
  "StationName": "AWP66112",
  "TotalReadoutTime": 0.0395,
  "TxRefAmp": 227.681,
  "dcmmeta_affine": [
    [-2.954448699951172, -0.49758636951446533, -0.20449566841125488, 142.74424743652344],
    [-0.5193704962730408, 2.749417781829834, 1.4392023086547852, -91.05530548095703],
    [0.03856725990772247, -1.0922952890396118, 3.7157740592956543, -9.328948974609375],
    [0.0, 0.0, 0.0, 1.0]
],
  "dcmmeta_reorient_transform": [
    [0.0, -1.0, 0.0, 79.0],
    [1.0, 0.0, 0.0, 0.0],
    [0.0, 0.0, 1.0, 0.0],
    [0.0, 0.0, 0.0, 1.0]
],
  "dcmmeta_shape": [80, 80, 30, 200],
  "dcmmeta_slice_dim": 2,
  "dcmmeta_version": 0.6,
  "global": {
    "const": {
      "AccessionNumber": "qa",
      "AcquisitionMatrix": [80, 0, 0, 80],
      "AngioFlag": "N",
      "BitsAllocated": 16,
      "BitsStored": 12,
      "BodyPartExamined": "BRAIN",
      "Columns": 480,
      "EchoNumbers": 1,
      "EchoTime": 30.0,
      "EchoTrainLength": 80,
      "FlipAngle": 10.0,
      "HighBit": 11,
      "ImageOrientationPatient": [0.98481621833055, 0.17312349842706, 0.0128557537891, -0.1658621219785, 0.91647262926561, 0.36409844314384],
      "ImagePositionPatient": [-594.80738409637, -779.90638105188, -321.79279831149],
      "ImageType": [
        "ORIGINAL",
        "PRIMARY",
        "M",
        "ND",
        "NORM",
        "MOSAIC"
],
      "ImagedNucleus": "1H",
      "ImagingFrequency": 123.259279,
      "InPlanePhaseEncodingDirection": "COL",
      "MRAcquisitionType": "2D",
      "MagneticFieldStrength": 3.0,
      "Manufacturer": "SIEMENS",
      "ManufacturerModelName": "Prisma",
      "Modality": "MR",
      "NumberOfAverages": 1.0,
      "NumberOfPhaseEncodingSteps": 80,
      "PercentPhaseFieldOfView": 100.0,
      "PercentSampling": 100.0,
      "PerformedProcedureStepStartTime": "105109.630000",
      "PhotometricInterpretation": "MONOCHROME2",
      "PixelBandwidth": 2315.0,
      "PixelRepresentation": 0,
      "PixelSpacing": [3.0, 3.0],
      "ProtocolName": "func-bold_fa-10",
      "RepetitionTime": 2000.0,
      "Rows": 480,
      "SAR": 0.01004608508474,
      "SamplesPerPixel": 1,
      "ScanOptions": "FS",
      "ScanningSequence": "EP",
      "SequenceName": "*epfid2d1_80",
      "SequenceVariant": "SK",
      "SeriesDescription": "func-bold_fa-10",
      "SeriesNumber": 10,
      "SeriesTime": "111839.019000",
      "SliceLocation": -48.847584462614,
      "SliceThickness": 3.5,
      "SmallestImagePixelValue": 0,
      "SoftwareVersions": "syngo MR E11",
      "SpacingBetweenSlices": 3.9899999151774,
      "SpecificCharacterSet": "ISO_IR 100",
      "StudyID": "11",
      "StudyTime": "105109.560000",
      "TransmitCoilName": "Body",
      "VariableFlipAngleFlag": "N",
      "WindowCenterWidthExplanation": "Algo1"
    },
    "slices": {}
  },
  "time": {
    "samples": {
      "AcquisitionNumber": [1, 2, 3, 4, 5, 6, 7, 8, 9, 10, 11, 12, 13, 14, 15, 16, 17, 18, 19, 20, 21, 22, 23, 24, 25, 26, 27, 28, 29, 30, 31, 32, 33, 34, 35, 36, 37, 38, 39, 40, 41, 42, 43, 44, 45, 46, 47, 48, 49, 50, 51, 52, 53, 54, 55, 56, 57, 58, 59, 60, 61, 62, 63, 64, 65, 66, 67, 68, 69, 70, 71, 72, 73, 74, 75, 76, 77, 78, 79, 80, 81, 82, 83, 84, 85, 86, 87, 88, 89, 90, 91, 92, 93, 94, 95, 96, 97, 98, 99, 100, 101, 102, 103, 104, 105, 106, 107, 108, 109, 110, 111, 112, 113, 114, 115, 116, 117, 118, 119, 120, 121, 122, 123, 124, 125, 126, 127, 128, 129, 130, 131, 132, 133, 134, 135, 136, 137, 138, 139, 140, 141, 142, 143, 144, 145, 146, 147, 148, 149, 150, 151, 152, 153, 154, 155, 156, 157, 158, 159, 160, 161, 162, 163, 164, 165, 166, 167, 168, 169, 170, 171, 172, 173, 174, 175, 176, 177, 178, 179, 180, 181, 182, 183, 184, 185, 186, 187, 188, 189, 190, 191, 192, 193, 194, 195, 196, 197, 198, 199, 200],
      "AcquisitionTime": ["111748.465000", "111750.465000", "111752.465000", "111754.465000", "111756.465000", "111758.465000", "111800.465000", "111802.465000", "111804.465000", "111806.465000", "111808.465000", "111810.465000", "111812.465000", "111814.465000", "111816.465000", "111818.465000", "111820.465000", "111822.465000", "111824.465000", "111826.465000", "111828.465000", "111830.465000", "111832.465000", "111834.465000", "111836.465000", "111838.465000", "111840.465000", "111842.465000", "111844.465000", "111846.465000", "111848.465000", "111850.465000", "111852.465000", "111854.465000", "111856.465000", "111858.465000", "111900.465000", "111902.465000", "111904.465000", "111906.465000", "111908.465000", "111910.465000", "111912.465000", "111914.465000", "111916.465000", "111918.465000", "111920.465000", "111922.465000", "111924.465000", "111926.465000", "111928.465000", "111930.465000", "111932.465000", "111934.465000", "111936.465000", "111938.465000", "111940.465000", "111942.465000", "111944.465000", "111946.465000", "111948.465000", "111950.465000", "111952.465000", "111954.465000", "111956.465000", "111958.465000", "112000.465000", "112002.465000", "112004.465000", "112006.465000", "112008.465000", "112010.465000", "112012.465000", "112014.465000", "112016.465000", "112018.465000", "112020.465000", "112022.465000", "112024.465000", "112026.465000", "112028.465000", "112030.465000", "112032.465000", "112034.465000", "112036.465000", "112038.465000", "112040.465000", "112042.465000", "112044.465000", "112046.465000", "112048.465000", "112050.465000", "112052.465000", "112054.465000", "112056.465000", "112058.465000", "112100.465000", "112102.465000", "112104.465000", "112106.465000", "112108.465000", "112110.465000", "112112.465000", "112114.465000", "112116.465000", "112118.465000", "112120.465000", "112122.465000", "112124.465000", "112126.465000", "112128.465000", "112130.465000", "112132.465000", "112134.465000", "112136.465000", "112138.465000", "112140.465000", "112142.465000", "112144.465000", "112146.465000", "112148.465000", "112150.465000", "112152.465000", "112154.465000", "112156.465000", "112158.465000", "112200.465000", "112202.465000", "112204.465000", "112206.465000", "112208.465000", "112210.465000", "112212.465000", "112214.465000", "112216.465000", "112218.465000", "112220.465000", "112222.465000", "112224.465000", "112226.465000", "112228.465000", "112230.465000", "112232.465000", "112234.465000", "112236.465000", "112238.465000", "112240.465000", "112242.465000", "112244.465000", "112246.465000", "112248.465000", "112250.465000", "112252.465000", "112254.465000", "112256.465000", "112258.465000", "112300.465000", "112302.465000", "112304.465000", "112306.465000", "112308.465000", "112310.465000", "112312.465000", "112314.465000", "112316.465000", "112318.465000", "112320.465000", "112322.465000", "112324.465000", "112326.465000", "112328.465000", "112330.465000", "112332.465000", "112334.465000", "112336.465000", "112338.465000", "112340.465000", "112342.465000", "112344.465000", "112346.465000", "112348.465000", "112350.465000", "112352.465000", "112354.465000", "112356.465000", "112358.465000", "112400.465000", "112402.465000", "112404.465000", "112406.465000", "112408.465000", "112410.465000", "112412.465000", "112414.465000", "112416.465000", "112418.465000", "112420.465000", "112422.465000", "112424.465000", "112426.465000"],
      "ContentTime": ["111839.022000", "111839.025000", "111839.027000", "111839.030000", "111839.032000", "111839.034000", "111839.044000", "111839.046000", "111839.049000", "111839.051000", "111839.053000", "111839.055000", "111839.058000", "111839.060000", "111839.062000", "111839.064000", "111839.067000", "111839.069000", "111839.071000", "111839.073000", "111839.076000", "111839.078000", "111839.080000", "111839.083000", "111839.085000", "111919.017000", "111919.020000", "111919.022000", "111919.024000", "111919.027000", "111919.029000", "111919.031000", "111919.034000", "111919.036000", "111919.038000", "111919.040000", "111919.043000", "111919.045000", "111919.047000", "111919.050000", "111919.052000", "111919.054000", "111919.057000", "111919.059000", "111919.061000", "111959.017000", "111959.020000", "111959.022000", "111959.025000", "111959.027000", "111959.029000", "111959.031000", "111959.034000", "111959.036000", "111959.038000", "111959.041000", "111959.043000", "111959.045000", "111959.048000", "111959.050000", "111959.052000", "111959.055000", "111959.057000", "111959.059000", "111959.061000", "112039.018000", "112039.021000", "112039.033000", "112039.036000", "112039.038000", "112039.040000", "112039.043000", "112039.045000", "112039.047000", "112039.050000", "112039.052000", "112039.054000", "112039.056000", "112039.059000", "112039.061000", "112039.063000", "112039.065000", "112039.068000", "112039.070000", "112039.078000", "112059.017000", "112059.020000", "112059.022000", "112059.024000", "112059.027000", "112059.029000", "112059.031000", "112059.034000", "112059.036000", "112059.038000", "112139.017000", "112139.020000", "112139.022000", "112139.025000", "112139.027000", "112139.029000", "112139.031000", "112139.034000", "112139.036000", "112139.038000", "112139.041000", "112139.043000", "112139.045000", "112139.048000", "112139.050000", "112139.052000", "112139.055000", "112139.057000", "112139.059000", "112139.061000", "112219.017000", "112219.020000", "112219.022000", "112219.024000", "112219.027000", "112219.029000", "112219.031000", "112219.033000", "112219.036000", "112219.038000", "112219.040000", "112219.043000", "112219.045000", "112219.047000", "112219.050000", "112219.052000", "112219.054000", "112219.057000", "112219.059000", "112219.061000", "112259.018000", "112259.021000", "112259.023000", "112259.025000", "112259.028000", "112259.030000", "112259.032000", "112259.035000", "112259.037000", "112259.039000", "112259.041000", "112259.044000", "112259.046000", "112259.048000", "112259.051000", "112259.053000", "112259.055000", "112259.057000", "112259.060000", "112259.062000", "112339.017000", "112339.020000", "112339.022000", "112339.024000", "112339.027000", "112339.029000", "112339.031000", "112339.033000", "112339.036000", "112339.038000", "112339.040000", "112339.043000", "112339.045000", "112339.047000", "112339.049000", "112339.052000", "112339.054000", "112339.056000", "112339.059000", "112339.061000", "112419.017000", "112419.020000", "112419.022000", "112419.024000", "112419.027000", "112419.029000", "112419.031000", "112419.034000", "112419.036000", "112419.038000", "112419.041000", "112419.043000", "112419.045000", "112419.047000", "112419.050000", "112419.052000", "112419.054000", "112419.057000", "112419.059000", "112419.061000", "112427.888000", "112427.890000", "112427.893000", "112427.895000", "112427.898000"],
      "InstanceCreationTime": ["111839.022000", "111839.025000", "111839.027000", "111839.030000", "111839.032000", "111839.034000", "111839.044000", "111839.046000", "111839.049000", "111839.051000", "111839.053000", "111839.055000", "111839.058000", "111839.060000", "111839.062000", "111839.064000", "111839.067000", "111839.069000", "111839.071000", "111839.073000", "111839.076000", "111839.078000", "111839.080000", "111839.083000", "111839.085000", "111919.017000", "111919.020000", "111919.022000", "111919.024000", "111919.027000", "111919.029000", "111919.031000", "111919.034000", "111919.036000", "111919.038000", "111919.040000", "111919.043000", "111919.045000", "111919.047000", "111919.050000", "111919.052000", "111919.054000", "111919.057000", "111919.059000", "111919.061000", "111959.017000", "111959.020000", "111959.022000", "111959.025000", "111959.027000", "111959.029000", "111959.031000", "111959.034000", "111959.036000", "111959.038000", "111959.041000", "111959.043000", "111959.045000", "111959.048000", "111959.050000", "111959.052000", "111959.055000", "111959.057000", "111959.059000", "111959.061000", "112039.018000", "112039.021000", "112039.033000", "112039.036000", "112039.038000", "112039.040000", "112039.043000", "112039.045000", "112039.047000", "112039.050000", "112039.052000", "112039.054000", "112039.056000", "112039.059000", "112039.061000", "112039.063000", "112039.065000", "112039.068000", "112039.070000", "112039.078000", "112059.017000", "112059.020000", "112059.022000", "112059.024000", "112059.027000", "112059.029000", "112059.031000", "112059.034000", "112059.036000", "112059.038000", "112139.017000", "112139.020000", "112139.022000", "112139.025000", "112139.027000", "112139.029000", "112139.031000", "112139.034000", "112139.036000", "112139.038000", "112139.041000", "112139.043000", "112139.045000", "112139.048000", "112139.050000", "112139.052000", "112139.055000", "112139.057000", "112139.059000", "112139.061000", "112219.017000", "112219.020000", "112219.022000", "112219.024000", "112219.027000", "112219.029000", "112219.031000", "112219.033000", "112219.036000", "112219.038000", "112219.040000", "112219.043000", "112219.045000", "112219.047000", "112219.050000", "112219.052000", "112219.054000", "112219.057000", "112219.059000", "112219.061000", "112259.018000", "112259.021000", "112259.023000", "112259.025000", "112259.028000", "112259.030000", "112259.032000", "112259.035000", "112259.037000", "112259.039000", "112259.041000", "112259.044000", "112259.046000", "112259.048000", "112259.051000", "112259.053000", "112259.055000", "112259.057000", "112259.060000", "112259.062000", "112339.017000", "112339.020000", "112339.022000", "112339.024000", "112339.027000", "112339.029000", "112339.031000", "112339.033000", "112339.036000", "112339.038000", "112339.040000", "112339.043000", "112339.045000", "112339.047000", "112339.049000", "112339.052000", "112339.054000", "112339.056000", "112339.059000", "112339.061000", "112419.017000", "112419.020000", "112419.022000", "112419.024000", "112419.027000", "112419.029000", "112419.031000", "112419.034000", "112419.036000", "112419.038000", "112419.041000", "112419.043000", "112419.045000", "112419.047000", "112419.050000", "112419.052000", "112419.054000", "112419.057000", "112419.059000", "112419.061000", "112427.888000", "112427.890000", "112427.893000", "112427.895000", "112427.898000"],
      "InstanceNumber": [1, 2, 3, 4, 5, 6, 7, 8, 9, 10, 11, 12, 13, 14, 15, 16, 17, 18, 19, 20, 21, 22, 23, 24, 25, 26, 27, 28, 29, 30, 31, 32, 33, 34, 35, 36, 37, 38, 39, 40, 41, 42, 43, 44, 45, 46, 47, 48, 49, 50, 51, 52, 53, 54, 55, 56, 57, 58, 59, 60, 61, 62, 63, 64, 65, 66, 67, 68, 69, 70, 71, 72, 73, 74, 75, 76, 77, 78, 79, 80, 81, 82, 83, 84, 85, 86, 87, 88, 89, 90, 91, 92, 93, 94, 95, 96, 97, 98, 99, 100, 101, 102, 103, 104, 105, 106, 107, 108, 109, 110, 111, 112, 113, 114, 115, 116, 117, 118, 119, 120, 121, 122, 123, 124, 125, 126, 127, 128, 129, 130, 131, 132, 133, 134, 135, 136, 137, 138, 139, 140, 141, 142, 143, 144, 145, 146, 147, 148, 149, 150, 151, 152, 153, 154, 155, 156, 157, 158, 159, 160, 161, 162, 163, 164, 165, 166, 167, 168, 169, 170, 171, 172, 173, 174, 175, 176, 177, 178, 179, 180, 181, 182, 183, 184, 185, 186, 187, 188, 189, 190, 191, 192, 193, 194, 195, 196, 197, 198, 199, 200],
      "LargestImagePixelValue": [341, 343, 342, 344, 343, 346, 343, 344, 342, 347, 344, 343, 342, 343, 345, 343, 342, 343, 346, 346, 343, 344, 351, 342, 343, 343, 342, 345, 344, 344, 343, 341, 340, 343, 343, 343, 342, 342, 346, 343, 343, 342, 344, 345, 343, 344, 344, 344, 346, 343, 343, 344, 345, 345, 344, 344, 342, 346, 343, 342, 343, 345, 343, 342, 343, 344, 350, 346, 345, 343, 342, 345, 343, 341, 342, 346, 341, 344, 346, 343, 343, 344, 344, 343, 345, 342, 341, 342, 342, 345, 343, 344, 344, 345, 347, 347, 343, 345, 342, 343, 339, 343, 343, 344, 342, 345, 344, 347, 341, 343, 344, 344, 342, 341, 346, 343, 343, 343, 343, 344, 346, 344, 341, 339, 341, 345, 343, 344, 343, 344, 344, 345, 343, 346, 347, 342, 342, 345, 346, 343, 342, 344, 342, 346, 340, 343, 342, 344, 341, 343, 343, 340, 342, 343, 343, 341, 343, 344, 342, 345, 343, 341, 342, 347, 345, 343, 343, 341, 344, 342, 342, 342, 342, 344, 346, 341, 341, 340, 341, 343, 342, 348, 344, 343, 344, 344, 344, 344, 343, 342, 341, 344, 344, 341, 342, 340, 340, 347, 347, 344],
      "WindowCenter": [285.0, 284.0, 285.0, 285.0, 284.0, 284.0, 285.0, 285.0, 285.0, 285.0, 284.0, 284.0, 285.0, 285.0, 285.0, 284.0, 284.0, 284.0, 284.0, 285.0, 285.0, 285.0, 285.0, 284.0, 284.0, 284.0, 284.0, 285.0, 284.0, 284.0, 283.0, 284.0, 285.0, 284.0, 284.0, 284.0, 284.0, 284.0, 285.0, 284.0, 285.0, 284.0, 285.0, 284.0, 284.0, 284.0, 285.0, 284.0, 285.0, 285.0, 285.0, 285.0, 285.0, 284.0, 284.0, 284.0, 285.0, 285.0, 284.0, 284.0, 284.0, 284.0, 284.0, 284.0, 285.0, 285.0, 284.0, 284.0, 284.0, 284.0, 284.0, 285.0, 284.0, 284.0, 284.0, 284.0, 285.0, 284.0, 284.0, 284.0, 283.0, 284.0, 285.0, 284.0, 284.0, 284.0, 284.0, 284.0, 284.0, 284.0, 284.0, 284.0, 284.0, 284.0, 284.0, 284.0, 283.0, 284.0, 284.0, 284.0, 284.0, 284.0, 284.0, 284.0, 284.0, 284.0, 284.0, 284.0, 283.0, 284.0, 284.0, 284.0, 284.0, 283.0, 284.0, 284.0, 284.0, 283.0, 284.0, 284.0, 284.0, 284.0, 284.0, 284.0, 284.0, 284.0, 284.0, 284.0, 284.0, 284.0, 284.0, 284.0, 284.0, 284.0, 284.0, 283.0, 284.0, 284.0, 284.0, 283.0, 284.0, 284.0, 284.0, 284.0, 283.0, 284.0, 284.0, 284.0, 284.0, 284.0, 284.0, 284.0, 284.0, 284.0, 284.0, 284.0, 284.0, 284.0, 284.0, 284.0, 284.0, 284.0, 284.0, 283.0, 284.0, 284.0, 284.0, 284.0, 284.0, 284.0, 284.0, 284.0, 284.0, 284.0, 284.0, 283.0, 284.0, 284.0, 284.0, 284.0, 284.0, 284.0, 284.0, 284.0, 284.0, 283.0, 284.0, 284.0, 283.0, 284.0, 284.0, 284.0, 283.0, 283.0, 283.0, 284.0, 284.0, 283.0, 284.0, 284.0],
      "WindowWidth": [621.0, 621.0, 622.0, 621.0, 620.0, 621.0, 621.0, 621.0, 621.0, 621.0, 620.0, 620.0, 621.0, 621.0, 621.0, 621.0, 620.0, 620.0, 621.0, 621.0, 621.0, 622.0, 621.0, 620.0, 620.0, 620.0, 621.0, 621.0, 620.0, 620.0, 619.0, 620.0, 621.0, 620.0, 620.0, 620.0, 620.0, 620.0, 621.0, 620.0, 621.0, 620.0, 621.0, 620.0, 621.0, 621.0, 622.0, 620.0, 621.0, 621.0, 621.0, 621.0, 621.0, 621.0, 620.0, 621.0, 621.0, 622.0, 621.0, 620.0, 620.0, 621.0, 621.0, 621.0, 621.0, 621.0, 621.0, 620.0, 621.0, 621.0, 621.0, 621.0, 620.0, 620.0, 620.0, 621.0, 621.0, 621.0, 620.0, 620.0, 619.0, 620.0, 621.0, 620.0, 620.0, 620.0, 620.0, 620.0, 620.0, 620.0, 619.0, 620.0, 620.0, 620.0, 620.0, 620.0, 619.0, 620.0, 620.0, 620.0, 620.0, 620.0, 620.0, 619.0, 620.0, 620.0, 620.0, 620.0, 620.0, 620.0, 620.0, 620.0, 620.0, 620.0, 620.0, 620.0, 620.0, 619.0, 620.0, 620.0, 620.0, 620.0, 620.0, 620.0, 620.0, 620.0, 620.0, 620.0, 620.0, 620.0, 620.0, 620.0, 620.0, 620.0, 620.0, 619.0, 620.0, 620.0, 620.0, 619.0, 620.0, 620.0, 620.0, 620.0, 619.0, 620.0, 620.0, 619.0, 619.0, 620.0, 620.0, 620.0, 619.0, 620.0, 620.0, 619.0, 620.0, 619.0, 620.0, 620.0, 619.0, 620.0, 620.0, 619.0, 620.0, 620.0, 620.0, 620.0, 620.0, 619.0, 620.0, 620.0, 620.0, 620.0, 620.0, 619.0, 620.0, 620.0, 620.0, 619.0, 619.0, 619.0, 619.0, 620.0, 620.0, 619.0, 619.0, 620.0, 619.0, 620.0, 619.0, 620.0, 619.0, 619.0, 619.0, 620.0, 620.0, 619.0, 619.0, 619.0]
    },
    "slices": {}
  }
}