{
  "AcquisitionMatrixPE": 80,
  "AcquisitionNumber": 1,
  "AcquisitionTime": "11:11:2.470000",
  "BandwidthPerPixelPhaseEncode": 25,
  "BaseResolution": 80,
  "BodyPartExamined": "BRAIN",
  "CoilCombinationMethod": "Sum of Squares",
  "ConsistencyInfo": "N4_VE11E_LATEST_20181129",
  "ConversionSoftware": "dcm2niix",
  "ConversionSoftwareVersion": "v1.0.20220720",
  "DerivedVendorReportedEchoSpacing": 0.0005,
  "DeviceSerialNumber": "66112",
  "DwellTime": 2.7e-06,
  "EchoTime": 0.03,
  "EchoTrainLength": 80,
  "EffectiveEchoSpacing": 0.0005,
  "FlipAngle": 77,
  "HeudiconvVersion": "0.13.1",
  "ImageOrientationPatientDICOM": [0.984816, 0.173123, 0.0128558, -0.165862, 0.916473, 0.364098],
  "ImageOrientationText": "Tra>Cor(21.2)>Sag(-2.9)",
  "ImageType": [
    "ORIGINAL",
    "PRIMARY",
    "M",
    "ND",
    "NORM",
    "MOSAIC"
],
  "ImagingFrequency": 123.259,
  "InPlanePhaseEncodingDirectionDICOM": "COL",
  "InstitutionAddress": "Maynard 3,Hanover,NH,US,03755",
  "InstitutionName": "Dartmouth College - PBS",
  "InstitutionalDepartmentName": "Department",
  "MRAcquisitionType": "2D",
  "MagneticFieldStrength": 3,
  "Manufacturer": "Siemens",
  "ManufacturersModelName": "Prisma",
  "MatrixCoilMode": "SENSE",
  "Modality": "MR",
  "NonlinearGradientCorrection": false,
  "PartialFourier": 1,
  "PatientPosition": "HFS",
  "PercentPhaseFOV": 100,
  "PercentSampling": 100,
  "PhaseEncodingDirection": "j-",
  "PhaseEncodingSteps": 80,
  "PhaseResolution": 1,
  "PixelBandwidth": 2315,
  "ProcedureStepDescription": "dbic^QA",
  "ProtocolName": "func-bold_fa-77",
  "PulseSequenceDetails": "%SiemensSeq%\\ep2d_bold",
  "ReceiveCoilActiveElements": "HEA;HEP",
  "ReceiveCoilName": "Head_32",
  "ReconMatrixPE": 80,
  "RepetitionTime": 2,
  "SAR": 0.0374506,
  "ScanOptions": "FS",
  "ScanningSequence": "EP",
  "SequenceName": "*epfid2d1_80",
  "SequenceVariant": "SK",
  "SeriesDescription": "func-bold_fa-77",
  "SeriesNumber": 8,
  "ShimSetting": [4222, -7732, -7492, -40, -129, 17, 19, 89],
  "SliceThickness": 3.5,
  "SliceTiming": [0.99, 0, 1.055, 0.065, 1.1225, 0.1325, 1.1875, 0.1975, 1.255, 0.265, 1.32, 0.33, 1.385, 0.395, 1.4525, 0.4625, 1.5175, 0.5275, 1.585, 0.595, 1.65, 0.66, 1.715, 0.725, 1.7825, 0.7925, 1.8475, 0.8575, 1.915, 0.925],
  "SoftwareVersions": "syngo MR E11",
  "SpacingBetweenSlices": 3.99,
  "StationName": "AWP66112",
  "TotalReadoutTime": 0.0395,
  "TxRefAmp": 227.681,
  "dcmmeta_affine": [
    [-2.954448699951172, -0.49758636951446533, -0.20449566841125488, 142.74424743652344],
    [-0.5193704962730408, 2.749417781829834, 1.4392023086547852, -91.05530548095703],
    [0.03856725990772247, -1.0922952890396118, 3.7157740592956543, -9.328948974609375],
    [0.0, 0.0, 0.0, 1.0]
],
  "dcmmeta_reorient_transform": [
    [0.0, -1.0, 0.0, 79.0],
    [1.0, 0.0, 0.0, 0.0],
    [0.0, 0.0, 1.0, 0.0],
    [0.0, 0.0, 0.0, 1.0]
],
  "dcmmeta_shape": [80, 80, 30, 200],
  "dcmmeta_slice_dim": 2,
  "dcmmeta_version": 0.6,
  "global": {
    "const": {
      "AccessionNumber": "qa",
      "AcquisitionMatrix": [80, 0, 0, 80],
      "AngioFlag": "N",
      "BitsAllocated": 16,
      "BitsStored": 12,
      "BodyPartExamined": "BRAIN",
      "Columns": 480,
      "EchoNumbers": 1,
      "EchoTime": 30.0,
      "EchoTrainLength": 80,
      "FlipAngle": 77.0,
      "HighBit": 11,
      "ImageOrientationPatient": [0.98481621833055, 0.17312349842706, 0.0128557537891, -0.1658621219785, 0.91647262926561, 0.36409844314384],
      "ImagePositionPatient": [-594.80738409637, -779.90638105188, -321.79279831149],
      "ImageType": [
        "ORIGINAL",
        "PRIMARY",
        "M",
        "ND",
        "NORM",
        "MOSAIC"
],
      "ImagedNucleus": "1H",
      "ImagingFrequency": 123.259272,
      "InPlanePhaseEncodingDirection": "COL",
      "MRAcquisitionType": "2D",
      "MagneticFieldStrength": 3.0,
      "Manufacturer": "SIEMENS",
      "ManufacturerModelName": "Prisma",
      "Modality": "MR",
      "NumberOfAverages": 1.0,
      "NumberOfPhaseEncodingSteps": 80,
      "PercentPhaseFieldOfView": 100.0,
      "PercentSampling": 100.0,
      "PerformedProcedureStepStartTime": "105109.630000",
      "PhotometricInterpretation": "MONOCHROME2",
      "PixelBandwidth": 2315.0,
      "PixelRepresentation": 0,
      "PixelSpacing": [3.0, 3.0],
      "ProtocolName": "func-bold_fa-77",
      "RepetitionTime": 2000.0,
      "Rows": 480,
      "SAR": 0.03745058134886,
      "SamplesPerPixel": 1,
      "ScanOptions": "FS",
      "ScanningSequence": "EP",
      "SequenceName": "*epfid2d1_80",
      "SequenceVariant": "SK",
      "SeriesDescription": "func-bold_fa-77",
      "SeriesNumber": 8,
      "SeriesTime": "111158.922000",
      "SliceLocation": -48.847584462614,
      "SliceThickness": 3.5,
      "SmallestImagePixelValue": 0,
      "SoftwareVersions": "syngo MR E11",
      "SpacingBetweenSlices": 3.9899999151774,
      "SpecificCharacterSet": "ISO_IR 100",
      "StudyID": "11",
      "StudyTime": "105109.560000",
      "TransmitCoilName": "Body",
      "VariableFlipAngleFlag": "N",
      "WindowCenterWidthExplanation": "Algo1"
    },
    "slices": {}
  },
  "time": {
    "samples": {
      "AcquisitionNumber": [1, 2, 3, 4, 5, 6, 7, 8, 9, 10, 11, 12, 13, 14, 15, 16, 17, 18, 19, 20, 21, 22, 23, 24, 25, 26, 27, 28, 29, 30, 31, 32, 33, 34, 35, 36, 37, 38, 39, 40, 41, 42, 43, 44, 45, 46, 47, 48, 49, 50, 51, 52, 53, 54, 55, 56, 57, 58, 59, 60, 61, 62, 63, 64, 65, 66, 67, 68, 69, 70, 71, 72, 73, 74, 75, 76, 77, 78, 79, 80, 81, 82, 83, 84, 85, 86, 87, 88, 89, 90, 91, 92, 93, 94, 95, 96, 97, 98, 99, 100, 101, 102, 103, 104, 105, 106, 107, 108, 109, 110, 111, 112, 113, 114, 115, 116, 117, 118, 119, 120, 121, 122, 123, 124, 125, 126, 127, 128, 129, 130, 131, 132, 133, 134, 135, 136, 137, 138, 139, 140, 141, 142, 143, 144, 145, 146, 147, 148, 149, 150, 151, 152, 153, 154, 155, 156, 157, 158, 159, 160, 161, 162, 163, 164, 165, 166, 167, 168, 169, 170, 171, 172, 173, 174, 175, 176, 177, 178, 179, 180, 181, 182, 183, 184, 185, 186, 187, 188, 189, 190, 191, 192, 193, 194, 195, 196, 197, 198, 199, 200],
      "AcquisitionTime": ["111102.470000", "111104.470000", "111106.470000", "111108.470000", "111110.470000", "111112.470000", "111114.470000", "111116.470000", "111118.470000", "111120.470000", "111122.470000", "111124.470000", "111126.470000", "111128.470000", "111130.470000", "111132.470000", "111134.470000", "111136.470000", "111138.470000", "111140.470000", "111142.470000", "111144.470000", "111146.470000", "111148.470000", "111150.470000", "111152.470000", "111154.470000", "111156.470000", "111158.470000", "111200.470000", "111202.470000", "111204.470000", "111206.470000", "111208.470000", "111210.470000", "111212.470000", "111214.470000", "111216.470000", "111218.470000", "111220.470000", "111222.470000", "111224.470000", "111226.470000", "111228.470000", "111230.470000", "111232.470000", "111234.470000", "111236.470000", "111238.470000", "111240.470000", "111242.470000", "111244.470000", "111246.470000", "111248.470000", "111250.470000", "111252.470000", "111254.470000", "111256.470000", "111258.470000", "111300.470000", "111302.470000", "111304.470000", "111306.470000", "111308.470000", "111310.470000", "111312.470000", "111314.470000", "111316.470000", "111318.470000", "111320.470000", "111322.470000", "111324.470000", "111326.470000", "111328.470000", "111330.470000", "111332.470000", "111334.470000", "111336.470000", "111338.470000", "111340.470000", "111342.470000", "111344.470000", "111346.470000", "111348.470000", "111350.470000", "111352.470000", "111354.470000", "111356.470000", "111358.470000", "111400.470000", "111402.470000", "111404.470000", "111406.470000", "111408.470000", "111410.470000", "111412.470000", "111414.470000", "111416.470000", "111418.470000", "111420.470000", "111422.470000", "111424.470000", "111426.470000", "111428.470000", "111430.470000", "111432.470000", "111434.470000", "111436.470000", "111438.470000", "111440.470000", "111442.470000", "111444.470000", "111446.470000", "111448.470000", "111450.470000", "111452.470000", "111454.470000", "111456.470000", "111458.470000", "111500.470000", "111502.470000", "111504.470000", "111506.470000", "111508.470000", "111510.470000", "111512.470000", "111514.470000", "111516.470000", "111518.470000", "111520.470000", "111522.470000", "111524.470000", "111526.470000", "111528.470000", "111530.470000", "111532.470000", "111534.470000", "111536.470000", "111538.470000", "111540.470000", "111542.470000", "111544.470000", "111546.470000", "111548.470000", "111550.470000", "111552.470000", "111554.470000", "111556.470000", "111558.470000", "111600.470000", "111602.470000", "111604.470000", "111606.470000", "111608.470000", "111610.470000", "111612.470000", "111614.470000", "111616.470000", "111618.470000", "111620.470000", "111622.470000", "111624.470000", "111626.470000", "111628.470000", "111630.470000", "111632.470000", "111634.470000", "111636.470000", "111638.470000", "111640.470000", "111642.470000", "111644.470000", "111646.470000", "111648.470000", "111650.470000", "111652.470000", "111654.470000", "111656.470000", "111658.470000", "111700.470000", "111702.470000", "111704.470000", "111706.470000", "111708.470000", "111710.470000", "111712.470000", "111714.470000", "111716.470000", "111718.470000", "111720.470000", "111722.470000", "111724.470000", "111726.470000", "111728.470000", "111730.470000", "111732.470000", "111734.470000", "111736.470000", "111738.470000", "111740.470000"],
      "ContentTime": ["111158.925000", "111158.928000", "111158.931000", "111158.933000", "111158.935000", "111158.945000", "111158.947000", "111158.949000", "111158.951000", "111158.954000", "111158.956000", "111158.958000", "111158.961000", "111158.963000", "111158.965000", "111158.967000", "111158.970000", "111158.972000", "111158.974000", "111158.980000", "111158.982000", "111158.985000", "111158.987000", "111158.989000", "111158.991000", "111158.994000", "111158.996000", "111158.998000", "111238.920000", "111238.923000", "111238.925000", "111238.927000", "111238.930000", "111238.932000", "111238.934000", "111238.937000", "111238.939000", "111238.941000", "111238.944000", "111238.946000", "111238.948000", "111238.950000", "111238.953000", "111238.955000", "111238.957000", "111238.960000", "111238.962000", "111238.964000", "111318.920000", "111318.923000", "111318.925000", "111318.927000", "111318.930000", "111318.932000", "111318.934000", "111318.937000", "111318.939000", "111318.941000", "111318.943000", "111318.946000", "111318.948000", "111318.950000", "111318.953000", "111318.955000", "111318.957000", "111318.960000", "111318.962000", "111318.964000", "111358.920000", "111358.923000", "111358.925000", "111358.927000", "111358.930000", "111358.932000", "111358.934000", "111358.936000", "111358.939000", "111358.941000", "111358.943000", "111358.946000", "111358.948000", "111358.950000", "111358.953000", "111358.955000", "111358.957000", "111358.959000", "111358.962000", "111358.964000", "111438.920000", "111438.923000", "111438.925000", "111438.927000", "111438.930000", "111438.932000", "111438.934000", "111438.937000", "111438.939000", "111438.941000", "111438.944000", "111438.946000", "111438.948000", "111438.950000", "111438.953000", "111438.955000", "111438.958000", "111438.960000", "111438.962000", "111438.964000", "111518.920000", "111518.923000", "111518.925000", "111518.927000", "111518.930000", "111518.932000", "111518.934000", "111518.937000", "111518.939000", "111518.941000", "111518.944000", "111518.946000", "111518.948000", "111518.951000", "111518.953000", "111518.955000", "111518.958000", "111518.960000", "111518.962000", "111518.965000", "111558.921000", "111558.924000", "111558.926000", "111558.929000", "111558.931000", "111558.933000", "111558.935000", "111558.938000", "111558.940000", "111558.942000", "111558.945000", "111558.947000", "111558.949000", "111558.952000", "111558.954000", "111558.956000", "111558.959000", "111558.961000", "111558.963000", "111558.965000", "111638.920000", "111638.923000", "111638.925000", "111638.927000", "111638.930000", "111638.932000", "111638.934000", "111638.936000", "111638.939000", "111638.941000", "111638.943000", "111638.946000", "111638.948000", "111638.950000", "111638.953000", "111638.955000", "111638.957000", "111638.960000", "111638.962000", "111638.964000", "111718.920000", "111718.923000", "111718.925000", "111718.927000", "111718.943000", "111718.945000", "111718.947000", "111718.950000", "111718.952000", "111718.954000", "111718.957000", "111718.959000", "111718.961000", "111718.963000", "111718.966000", "111718.968000", "111718.971000", "111718.973000", "111718.975000", "111718.977000", "111741.514000", "111741.517000", "111741.520000", "111741.522000", "111741.524000", "111741.527000", "111741.529000", "111741.532000", "111741.534000", "111741.536000", "111741.539000", "111741.541000"],
      "InstanceCreationTime": ["111158.925000", "111158.928000", "111158.931000", "111158.933000", "111158.935000", "111158.945000", "111158.947000", "111158.949000", "111158.951000", "111158.954000", "111158.956000", "111158.958000", "111158.961000", "111158.963000", "111158.965000", "111158.967000", "111158.970000", "111158.972000", "111158.974000", "111158.980000", "111158.982000", "111158.985000", "111158.987000", "111158.989000", "111158.991000", "111158.994000", "111158.996000", "111158.998000", "111238.920000", "111238.923000", "111238.925000", "111238.927000", "111238.930000", "111238.932000", "111238.934000", "111238.937000", "111238.939000", "111238.941000", "111238.944000", "111238.946000", "111238.948000", "111238.950000", "111238.953000", "111238.955000", "111238.957000", "111238.960000", "111238.962000", "111238.964000", "111318.920000", "111318.923000", "111318.925000", "111318.927000", "111318.930000", "111318.932000", "111318.934000", "111318.937000", "111318.939000", "111318.941000", "111318.943000", "111318.946000", "111318.948000", "111318.950000", "111318.953000", "111318.955000", "111318.957000", "111318.960000", "111318.962000", "111318.964000", "111358.920000", "111358.923000", "111358.925000", "111358.927000", "111358.930000", "111358.932000", "111358.934000", "111358.936000", "111358.939000", "111358.941000", "111358.943000", "111358.946000", "111358.948000", "111358.950000", "111358.953000", "111358.955000", "111358.957000", "111358.959000", "111358.962000", "111358.964000", "111438.920000", "111438.923000", "111438.925000", "111438.927000", "111438.930000", "111438.932000", "111438.934000", "111438.937000", "111438.939000", "111438.941000", "111438.944000", "111438.946000", "111438.948000", "111438.950000", "111438.953000", "111438.955000", "111438.958000", "111438.960000", "111438.962000", "111438.964000", "111518.920000", "111518.923000", "111518.925000", "111518.927000", "111518.930000", "111518.932000", "111518.934000", "111518.937000", "111518.939000", "111518.941000", "111518.944000", "111518.946000", "111518.948000", "111518.951000", "111518.953000", "111518.955000", "111518.958000", "111518.960000", "111518.962000", "111518.965000", "111558.921000", "111558.924000", "111558.926000", "111558.929000", "111558.931000", "111558.933000", "111558.935000", "111558.938000", "111558.940000", "111558.942000", "111558.945000", "111558.947000", "111558.949000", "111558.952000", "111558.954000", "111558.956000", "111558.959000", "111558.961000", "111558.963000", "111558.965000", "111638.920000", "111638.923000", "111638.925000", "111638.927000", "111638.930000", "111638.932000", "111638.934000", "111638.936000", "111638.939000", "111638.941000", "111638.943000", "111638.946000", "111638.948000", "111638.950000", "111638.953000", "111638.955000", "111638.957000", "111638.960000", "111638.962000", "111638.964000", "111718.920000", "111718.923000", "111718.925000", "111718.927000", "111718.943000", "111718.945000", "111718.947000", "111718.950000", "111718.952000", "111718.954000", "111718.957000", "111718.959000", "111718.961000", "111718.963000", "111718.966000", "111718.968000", "111718.971000", "111718.973000", "111718.975000", "111718.977000", "111741.514000", "111741.517000", "111741.520000", "111741.522000", "111741.524000", "111741.527000", "111741.529000", "111741.532000", "111741.534000", "111741.536000", "111741.539000", "111741.541000"],
      "InstanceNumber": [1, 2, 3, 4, 5, 6, 7, 8, 9, 10, 11, 12, 13, 14, 15, 16, 17, 18, 19, 20, 21, 22, 23, 24, 25, 26, 27, 28, 29, 30, 31, 32, 33, 34, 35, 36, 37, 38, 39, 40, 41, 42, 43, 44, 45, 46, 47, 48, 49, 50, 51, 52, 53, 54, 55, 56, 57, 58, 59, 60, 61, 62, 63, 64, 65, 66, 67, 68, 69, 70, 71, 72, 73, 74, 75, 76, 77, 78, 79, 80, 81, 82, 83, 84, 85, 86, 87, 88, 89, 90, 91, 92, 93, 94, 95, 96, 97, 98, 99, 100, 101, 102, 103, 104, 105, 106, 107, 108, 109, 110, 111, 112, 113, 114, 115, 116, 117, 118, 119, 120, 121, 122, 123, 124, 125, 126, 127, 128, 129, 130, 131, 132, 133, 134, 135, 136, 137, 138, 139, 140, 141, 142, 143, 144, 145, 146, 147, 148, 149, 150, 151, 152, 153, 154, 155, 156, 157, 158, 159, 160, 161, 162, 163, 164, 165, 166, 167, 168, 169, 170, 171, 172, 173, 174, 175, 176, 177, 178, 179, 180, 181, 182, 183, 184, 185, 186, 187, 188, 189, 190, 191, 192, 193, 194, 195, 196, 197, 198, 199, 200],
      "LargestImagePixelValue": [1965, 1966, 1966, 1967, 1966, 1965, 1965, 1968, 1966, 1966, 1966, 1969, 1967, 1966, 1968, 1968, 1966, 1966, 1965, 1967, 1964, 1967, 1968, 1965, 1966, 1967, 1966, 1965, 1968, 1967, 1967, 1966, 1968, 1967, 1970, 1971, 1973, 1972, 1971, 1971, 1971, 1970, 1969, 1969, 1969, 1970, 1970, 1969, 1967, 1967, 1969, 1967, 1967, 1967, 1965, 1966, 1964, 1965, 1965, 1965, 1963, 1961, 1964, 1964, 1964, 1962, 1962, 1963, 1962, 1961, 1963, 1964, 1963, 1962, 1965, 1966, 1964, 1964, 1965, 1964, 1963, 1963, 1965, 1966, 1964, 1965, 1966, 1966, 1965, 1966, 1969, 1965, 1966, 1964, 1968, 1967, 1970, 1969, 1968, 1967, 1967, 1970, 1972, 1971, 1970, 1970, 1971, 1972, 1971, 1970, 1972, 1970, 1969, 1972, 1971, 1970, 1969, 1970, 1968, 1969, 1968, 1967, 1969, 1967, 1970, 1968, 1968, 1967, 1968, 1968, 1970, 1969, 1969, 1968, 1968, 1968, 1968, 1967, 1968, 1968, 1966, 1968, 1969, 1967, 1969, 1968, 1969, 1969, 1968, 1969, 1971, 1969, 1969, 1969, 1969, 1970, 1968, 1969, 1968, 1968, 1968, 1968, 1969, 1970, 1971, 1973, 1973, 1974, 1973, 1973, 1972, 1974, 1972, 1973, 1968, 1972, 1968, 1970, 1973, 1970, 1971, 1969, 1973, 1970, 1971, 1972, 1973, 1975, 1972, 1974, 1975, 1976, 1976, 1971, 1972, 1973, 1972, 1974, 1973, 1974],
      "WindowCenter": [985.0, 983.0, 985.0, 986.0, 984.0, 986.0, 984.0, 984.0, 986.0, 985.0, 984.0, 984.0, 983.0, 984.0, 983.0, 986.0, 986.0, 984.0, 984.0, 983.0, 984.0, 986.0, 985.0, 986.0, 985.0, 986.0, 985.0, 985.0, 984.0, 983.0, 985.0, 986.0, 985.0, 983.0, 983.0, 986.0, 983.0, 984.0, 984.0, 986.0, 983.0, 986.0, 982.0, 986.0, 984.0, 986.0, 984.0, 983.0, 985.0, 986.0, 985.0, 986.0, 986.0, 983.0, 986.0, 984.0, 986.0, 985.0, 984.0, 984.0, 983.0, 985.0, 986.0, 986.0, 986.0, 984.0, 986.0, 986.0, 982.0, 985.0, 983.0, 985.0, 985.0, 986.0, 983.0, 984.0, 984.0, 985.0, 984.0, 986.0, 985.0, 985.0, 984.0, 985.0, 984.0, 984.0, 985.0, 985.0, 984.0, 983.0, 984.0, 985.0, 984.0, 984.0, 985.0, 985.0, 982.0, 985.0, 984.0, 984.0, 983.0, 985.0, 985.0, 983.0, 984.0, 983.0, 984.0, 984.0, 984.0, 984.0, 984.0, 984.0, 985.0, 983.0, 984.0, 982.0, 984.0, 986.0, 985.0, 985.0, 985.0, 983.0, 983.0, 984.0, 984.0, 985.0, 985.0, 983.0, 985.0, 983.0, 984.0, 984.0, 985.0, 984.0, 985.0, 986.0, 985.0, 985.0, 984.0, 984.0, 985.0, 984.0, 984.0, 984.0, 984.0, 982.0, 983.0, 984.0, 984.0, 985.0, 985.0, 984.0, 984.0, 985.0, 985.0, 983.0, 984.0, 985.0, 985.0, 984.0, 984.0, 985.0, 984.0, 982.0, 985.0, 983.0, 983.0, 983.0, 983.0, 983.0, 985.0, 985.0, 985.0, 984.0, 985.0, 985.0, 985.0, 983.0, 983.0, 985.0, 983.0, 985.0, 984.0, 983.0, 985.0, 984.0, 984.0, 984.0, 984.0, 983.0, 983.0, 984.0, 983.0, 984.0, 983.0, 983.0, 985.0, 982.0, 985.0, 984.0],
      "WindowWidth": [2165.0, 2163.0, 2165.0, 2166.0, 2164.0, 2166.0, 2164.0, 2164.0, 2166.0, 2165.0, 2164.0, 2165.0, 2163.0, 2164.0, 2163.0, 2166.0, 2165.0, 2164.0, 2164.0, 2163.0, 2164.0, 2166.0, 2165.0, 2166.0, 2165.0, 2165.0, 2165.0, 2165.0, 2164.0, 2163.0, 2165.0, 2165.0, 2165.0, 2163.0, 2163.0, 2165.0, 2163.0, 2164.0, 2164.0, 2165.0, 2163.0, 2165.0, 2163.0, 2165.0, 2164.0, 2165.0, 2164.0, 2163.0, 2164.0, 2165.0, 2165.0, 2165.0, 2165.0, 2163.0, 2165.0, 2164.0, 2165.0, 2164.0, 2164.0, 2164.0, 2163.0, 2164.0, 2165.0, 2165.0, 2165.0, 2164.0, 2165.0, 2165.0, 2162.0, 2164.0, 2163.0, 2164.0, 2164.0, 2165.0, 2163.0, 2164.0, 2164.0, 2164.0, 2164.0, 2165.0, 2164.0, 2164.0, 2163.0, 2165.0, 2163.0, 2163.0, 2164.0, 2164.0, 2163.0, 2163.0, 2163.0, 2165.0, 2163.0, 2163.0, 2163.0, 2164.0, 2161.0, 2165.0, 2163.0, 2163.0, 2162.0, 2164.0, 2164.0, 2162.0, 2163.0, 2163.0, 2163.0, 2163.0, 2163.0, 2163.0, 2163.0, 2163.0, 2164.0, 2163.0, 2163.0, 2161.0, 2163.0, 2165.0, 2164.0, 2164.0, 2164.0, 2162.0, 2163.0, 2163.0, 2163.0, 2164.0, 2164.0, 2162.0, 2164.0, 2162.0, 2163.0, 2163.0, 2164.0, 2163.0, 2164.0, 2165.0, 2164.0, 2165.0, 2163.0, 2163.0, 2164.0, 2163.0, 2163.0, 2163.0, 2163.0, 2161.0, 2163.0, 2163.0, 2163.0, 2164.0, 2164.0, 2163.0, 2163.0, 2164.0, 2164.0, 2162.0, 2163.0, 2164.0, 2164.0, 2163.0, 2163.0, 2164.0, 2163.0, 2161.0, 2164.0, 2162.0, 2163.0, 2163.0, 2162.0, 2162.0, 2164.0, 2164.0, 2164.0, 2163.0, 2164.0, 2164.0, 2164.0, 2162.0, 2162.0, 2164.0, 2162.0, 2164.0, 2163.0, 2162.0, 2164.0, 2163.0, 2163.0, 2163.0, 2163.0, 2162.0, 2162.0, 2163.0, 2162.0, 2163.0, 2162.0, 2162.0, 2163.0, 2161.0, 2163.0, 2163.0]
    },
    "slices": {}
  }
}