{
  "AcquisitionMatrixPE": 122,
  "AcquisitionNumber": 1,
  "AcquisitionTime": "09:40:11.050000",
  "BandwidthPerPixelPhaseEncode": 28.76,
  "BaseResolution": 122,
  "BodyPartExamined": "BRAIN",
  "CoilCombinationMethod": "Adaptive Combine",
  "ConsistencyInfo": "N4_VE11C_LATEST_20160120",
  "ConversionSoftware": "dcm2niix",
  "ConversionSoftwareVersion": "v1.0.20220720",
  "DerivedVendorReportedEchoSpacing": 0.000570008,
  "DeviceSerialNumber": "66112",
  "DiffusionScheme": "Monopolar",
  "DwellTime": 2e-06,
  "EchoTime": 0.075,
  "EchoTrainLength": 61,
  "EffectiveEchoSpacing": 0.000285004,
  "FlipAngle": 90,
  "HeudiconvVersion": "0.13.1",
  "ImageOrientationPatientDICOM": [0.972311, 0.233447, 0.0107183, -0.225727, 0.926308, 0.301665],
  "ImageOrientationText": "Tra>Cor(17.2)>Sag(-3.5)",
  "ImageType": [
    "ORIGINAL",
    "PRIMARY",
    "DIFFUSION",
    "NONE",
    "ND",
    "NORM"
],
  "ImagingFrequency": 123.252,
  "InPlanePhaseEncodingDirectionDICOM": "COL",
  "InstitutionAddress": "Maynard 3,Hanover,NH,US,03755",
  "InstitutionName": "Dartmouth College - PBS",
  "InstitutionalDepartmentName": "Department",
  "MRAcquisitionType": "2D",
  "MagneticFieldStrength": 3,
  "Manufacturer": "Siemens",
  "ManufacturersModelName": "Prisma",
  "MatrixCoilMode": "GRAPPA",
  "Modality": "MR",
  "NonlinearGradientCorrection": false,
  "ParallelReductionFactorInPlane": 2,
  "PartialFourier": 1,
  "PatientPosition": "HFS",
  "PercentPhaseFOV": 100,
  "PercentSampling": 100,
  "PhaseEncodingDirection": "j-",
  "PhaseEncodingSteps": 122,
  "PhaseResolution": 1,
  "PixelBandwidth": 2050,
  "ProcedureStepDescription": "dbic^QA",
  "ProtocolName": "dwi_acq-DTI-30-p2",
  "PulseSequenceDetails": "%SiemensSeq%\\ep2d_diff",
  "ReceiveCoilActiveElements": "HEA;HEP",
  "ReceiveCoilName": "Head_32",
  "ReconMatrixPE": 122,
  "RefLinesPE": 38,
  "RepetitionTime": 7.7,
  "SAR": 0.102017,
  "ScanOptions": "FS",
  "ScanningSequence": "EP",
  "SequenceName": "*ep_b0",
  "SequenceVariant": "SK\\SP",
  "SeriesDescription": "dwi_acq-DTI-30-p2",
  "SeriesNumber": 12,
  "ShimSetting": [4145, -7693, -7509, 271, -56, -130, -36, 48],
  "SliceThickness": 2,
  "SliceTiming": [3.83594, 0, 3.94531, 0.10938, 4.0625, 0.21875, 4.17188, 0.32812, 4.28125, 0.4375, 4.39062, 0.54688, 4.5, 0.65625, 4.60938, 0.76562, 4.71875, 0.88281, 4.82812, 0.98438, 4.9375, 1.09375, 5.04688, 1.20312, 5.15625, 1.32031, 5.26562, 1.42969, 5.375, 1.53906, 5.48438, 1.64844, 5.59375, 1.75781, 5.70312, 1.86719, 5.8125, 1.97656, 5.92188, 2.08594, 6.03125, 2.19531, 6.14062, 2.30469, 6.25781, 2.41406, 6.36719, 2.52344, 6.47656, 2.63281, 6.58594, 2.74219, 6.69531, 2.85156, 6.80469, 2.96094, 6.91406, 3.07031, 7.02344, 3.17969, 7.13281, 3.28906, 7.24219, 3.39844, 7.35156, 3.50781, 7.46094, 3.625, 7.57031, 3.73438],
  "SoftwareVersions": "syngo MR E11",
  "SpacingBetweenSlices": 2,
  "SpoilingState": true,
  "StationName": "AWP66112",
  "TotalReadoutTime": 0.0344855,
  "TxRefAmp": 235.115,
  "dcmmeta_affine": [
    [-1.912742018699646, -0.4440532922744751, -0.12098813056945801, 149.48666381835938],
    [-0.45923948287963867, 1.8222445249557495, 0.5914630889892578, -96.44721221923828],
    [0.021085267886519432, -0.5934385061264038, 1.906707763671875, -24.929187774658203],
    [0.0, 0.0, 0.0, 1.0]
],
  "dcmmeta_reorient_transform": [
    [0.0, -1.0, 0.0, 121.0],
    [1.0, 0.0, 0.0, 0.0],
    [0.0, 0.0, -1.0, 69.0],
    [0.0, 0.0, 0.0, 1.0]
],
  "dcmmeta_shape": [122, 122, 70, 31],
  "dcmmeta_slice_dim": 2,
  "dcmmeta_version": 0.6,
  "global": {
    "const": {
      "AccessionNumber": "qa",
      "AcquisitionMatrix": [122, 0, 0, 122],
      "AngioFlag": "N",
      "BitsAllocated": 16,
      "BitsStored": 12,
      "BodyPartExamined": "BRAIN",
      "Columns": 122,
      "EchoNumbers": 1,
      "EchoTime": 75.0,
      "EchoTrainLength": 61,
      "FlipAngle": 90.0,
      "HighBit": 11,
      "ImageOrientationPatient": [0.97231051763003, 0.23344672711769, 0.01071834427818, -0.2257270878754, 0.92630759714586, 0.30166457741861],
      "ImageType": [
        "ORIGINAL",
        "PRIMARY",
        "DIFFUSION",
        "NONE",
        "ND",
        "NORM"
],
      "ImagedNucleus": "1H",
      "ImagingFrequency": 123.252456,
      "InPlanePhaseEncodingDirection": "COL",
      "MRAcquisitionType": "2D",
      "MagneticFieldStrength": 3.0,
      "Manufacturer": "SIEMENS",
      "ManufacturerModelName": "Prisma",
      "Modality": "MR",
      "NumberOfAverages": 1.0,
      "NumberOfPhaseEncodingSteps": 122,
      "PercentPhaseFieldOfView": 100.0,
      "PercentSampling": 100.0,
      "PerformedProcedureStepStartTime": "090057.598000",
      "PhotometricInterpretation": "MONOCHROME2",
      "PixelBandwidth": 2050.0,
      "PixelRepresentation": 0,
      "PixelSpacing": [1.9672131538391, 1.9672131538391],
      "ProtocolName": "dwi_acq-DTI-30-p2",
      "RepetitionTime": 7700.0,
      "Rows": 122,
      "SAR": 0.10201700200964,
      "SamplesPerPixel": 1,
      "ScanOptions": "FS",
      "ScanningSequence": "EP",
      "SequenceVariant": [
        "SK",
        "SP"
],
      "SeriesDescription": "dwi_acq-DTI-30-p2",
      "SeriesNumber": 12,
      "SeriesTime": "094015.384000",
      "SliceThickness": 2.0,
      "SmallestImagePixelValue": 0,
      "SoftwareVersions": "syngo MR E11",
      "SpacingBetweenSlices": 2.0,
      "SpecificCharacterSet": "ISO_IR 100",
      "StudyID": "108",
      "StudyTime": "090057.517000",
      "TransmitCoilName": "Body",
      "VariableFlipAngleFlag": "N",
      "WindowCenterWidthExplanation": "Algo1",
      "dBdt": 0.0},
    "slices": {
      "AcquisitionTime": ["094011.050000", "094007.212500", "094011.160000", "094007.320000", "094011.270000", "094007.430000", "094011.380000", "094007.540000", "094011.490000", "094007.650000", "094011.600000", "094007.760000", "094011.710000", "094007.870000", "094011.820000", "094007.980000", "094011.930000", "094008.090000", "094012.037500", "094008.197500", "094012.147500", "094008.307500", "094012.257500", "094008.417500", "094012.367500", "094008.527500", "094012.477500", "094008.637500", "094012.587500", "094008.747500", "094012.697500", "094008.857500", "094012.807500", "094008.967500", "094012.915000", "094009.077500", "094013.025000", "094009.185000", "094013.135000", "094009.295000", "094013.245000", "094009.405000", "094013.355000", "094009.515000", "094013.465000", "094009.625000", "094013.575000", "094009.735000", "094013.685000", "094009.845000", "094013.795000", "094009.955000", "094013.902500", "094010.062500", "094014.012500", "094010.172500", "094014.122500", "094010.282500", "094014.232500", "094010.392500", "094014.342500", "094010.502500", "094014.452500", "094010.612500", "094014.562500", "094010.722500", "094014.672500", "094010.832500", "094014.780000", "094010.942500", "094018.750000", "094014.912500", "094018.860000", "094015.020000", "094018.970000", "094015.130000", "094019.080000", "094015.240000", "094019.190000", "094015.350000", "094019.300000", "094015.460000", "094019.410000", "094015.570000", "094019.520000", "094015.680000", "094019.630000", "094015.790000", "094019.737500", "094015.897500", "094019.847500", "094016.007500", "094019.957500", "094016.117500", "094020.067500", "094016.227500", "094020.177500", "094016.337500", "094020.287500", "094016.447500", "094020.397500", "094016.557500", "094020.507500", "094016.667500", "094020.615000", "094016.777500", "094020.725000", "094016.885000", "094020.835000", "094016.995000", "094020.945000", "094017.105000", "094021.055000", "094017.215000", "094021.165000", "094017.325000", "094021.275000", "094017.435000", "094021.385000", "094017.545000", "094021.495000", "094017.655000", "094021.602500", "094017.762500", "094021.712500", "094017.872500", "094021.822500", "094017.982500", "094021.932500", "094018.092500", "094022.042500", "094018.202500", "094022.152500", "094018.312500", "094022.262500", "094018.422500", "094022.372500", "094018.532500", "094022.480000", "094018.642500", "094026.450000", "094022.612500", "094026.560000", "094022.720000", "094026.670000", "094022.830000", "094026.780000", "094022.940000", "094026.890000", "094023.050000", "094027.000000", "094023.160000", "094027.110000", "094023.270000", "094027.220000", "094023.380000", "094027.330000", "094023.490000", "094027.437500", "094023.597500", "094027.547500", "094023.707500", "094027.657500", "094023.817500", "094027.767500", "094023.927500", "094027.877500", "094024.037500", "094027.987500", "094024.147500", "094028.097500", "094024.257500", "094028.207500", "094024.367500", "094028.315000", "094024.477500", "094028.425000", "094024.585000", "094028.535000", "094024.695000", "094028.645000", "094024.805000", "094028.755000", "094024.915000", "094028.865000", "094025.025000", "094028.975000", "094025.135000", "094029.085000", "094025.245000", "094029.195000", "094025.355000", "094029.302500", "094025.462500", "094029.412500", "094025.572500", "094029.522500", "094025.682500", "094029.632500", "094025.792500", "094029.742500", "094025.902500", "094029.852500", "094026.012500", "094029.962500", "094026.122500", "094030.072500", "094026.232500", "094030.180000", "094026.342500", "094034.150000", "094030.312500", "094034.260000", "094030.420000", "094034.370000", "094030.530000", "094034.480000", "094030.640000", "094034.590000", "094030.750000", "094034.700000", "094030.860000", "094034.810000", "094030.970000", "094034.920000", "094031.080000", "094035.030000", "094031.190000", "094035.137500", "094031.297500", "094035.247500", "094031.407500", "094035.357500", "094031.517500", "094035.467500", "094031.627500", "094035.577500", "094031.737500", "094035.687500", "094031.847500", "094035.797500", "094031.957500", "094035.907500", "094032.067500", "094036.015000", "094032.177500", "094036.125000", "094032.285000", "094036.235000", "094032.395000", "094036.345000", "094032.505000", "094036.455000", "094032.615000", "094036.565000", "094032.725000", "094036.675000", "094032.835000", "094036.785000", "094032.945000", "094036.895000", "094033.055000", "094037.002500", "094033.162500", "094037.112500", "094033.272500", "094037.222500", "094033.382500", "094037.332500", "094033.492500", "094037.442500", "094033.602500", "094037.552500", "094033.712500", "094037.662500", "094033.822500", "094037.772500", "094033.932500", "094037.880000", "094034.042500", "094041.850000", "094038.012500", "094041.960000", "094038.120000", "094042.070000", "094038.230000", "094042.180000", "094038.340000", "094042.290000", "094038.450000", "094042.400000", "094038.560000", "094042.510000", "094038.670000", "094042.620000", "094038.780000", "094042.730000", "094038.890000", "094042.837500", "094038.997500", "094042.947500", "094039.107500", "094043.057500", "094039.217500", "094043.167500", "094039.327500", "094043.277500", "094039.437500", "094043.387500", "094039.547500", "094043.497500", "094039.657500", "094043.607500", "094039.767500", "094043.715000", "094039.877500", "094043.825000", "094039.985000", "094043.935000", "094040.095000", "094044.045000", "094040.205000", "094044.155000", "094040.315000", "094044.265000", "094040.425000", "094044.375000", "094040.535000", "094044.485000", "094040.645000", "094044.595000", "094040.755000", "094044.702500", "094040.862500", "094044.812500", "094040.972500", "094044.922500", "094041.082500", "094045.032500", "094041.192500", "094045.142500", "094041.302500", "094045.252500", "094041.412500", "094045.362500", "094041.522500", "094045.472500", "094041.632500", "094045.580000", "094041.742500", "094049.550000", "094045.712500", "094049.660000", "094045.820000", "094049.770000", "094045.930000", "094049.880000", "094046.040000", "094049.990000", "094046.150000", "094050.100000", "094046.260000", "094050.210000", "094046.370000", "094050.320000", "094046.480000", "094050.430000", "094046.590000", "094050.537500", "094046.697500", "094050.647500", "094046.807500", "094050.757500", "094046.917500", "094050.867500", "094047.027500", "094050.977500", "094047.137500", "094051.087500", "094047.247500", "094051.197500", "094047.357500", "094051.307500", "094047.467500", "094051.415000", "094047.577500", "094051.525000", "094047.685000", "094051.635000", "094047.795000", "094051.745000", "094047.905000", "094051.855000", "094048.015000", "094051.965000", "094048.125000", "094052.075000", "094048.235000", "094052.185000", "094048.345000", "094052.295000", "094048.455000", "094052.402500", "094048.562500", "094052.512500", "094048.672500", "094052.622500", "094048.782500", "094052.732500", "094048.892500", "094052.842500", "094049.002500", "094052.952500", "094049.112500", "094053.062500", "094049.222500", "094053.172500", "094049.332500", "094053.280000", "094049.442500", "094057.250000", "094053.412500", "094057.360000", "094053.520000", "094057.470000", "094053.630000", "094057.580000", "094053.740000", "094057.690000", "094053.850000", "094057.800000", "094053.960000", "094057.910000", "094054.070000", "094058.020000", "094054.180000", "094058.130000", "094054.290000", "094058.237500", "094054.397500", "094058.347500", "094054.507500", "094058.457500", "094054.617500", "094058.567500", "094054.727500", "094058.677500", "094054.837500", "094058.787500", "094054.947500", "094058.897500", "094055.057500", "094059.007500", "094055.167500", "094059.115000", "094055.277500", "094059.225000", "094055.385000", "094059.335000", "094055.495000", "094059.445000", "094055.605000", "094059.555000", "094055.715000", "094059.665000", "094055.825000", "094059.775000", "094055.935000", "094059.885000", "094056.045000", "094059.995000", "094056.155000", "094100.102500", "094056.262500", "094100.212500", "094056.372500", "094100.322500", "094056.482500", "094100.432500", "094056.592500", "094100.542500", "094056.702500", "094100.652500", "094056.812500", "094100.762500", "094056.922500", "094100.872500", "094057.032500", "094100.980000", "094057.142500", "094104.950000", "094101.112500", "094105.060000", "094101.220000", "094105.170000", "094101.330000", "094105.280000", "094101.440000", "094105.390000", "094101.550000", "094105.500000", "094101.660000", "094105.610000", "094101.770000", "094105.720000", "094101.880000", "094105.830000", "094101.990000", "094105.937500", "094102.097500", "094106.047500", "094102.207500", "094106.157500", "094102.317500", "094106.267500", "094102.427500", "094106.377500", "094102.537500", "094106.487500", "094102.647500", "094106.597500", "094102.757500", "094106.707500", "094102.867500", "094106.815000", "094102.977500", "094106.925000", "094103.085000", "094107.035000", "094103.195000", "094107.145000", "094103.305000", "094107.255000", "094103.415000", "094107.365000", "094103.525000", "094107.475000", "094103.635000", "094107.585000", "094103.745000", "094107.695000", "094103.855000", "094107.802500", "094103.962500", "094107.912500", "094104.072500", "094108.022500", "094104.182500", "094108.132500", "094104.292500", "094108.242500", "094104.402500", "094108.352500", "094104.512500", "094108.462500", "094104.622500", "094108.572500", "094104.732500", "094108.680000", "094104.842500", "094112.650000", "094108.812500", "094112.760000", "094108.920000", "094112.870000", "094109.030000", "094112.980000", "094109.140000", "094113.090000", "094109.250000", "094113.200000", "094109.360000", "094113.310000", "094109.470000", "094113.420000", "094109.580000", "094113.530000", "094109.690000", "094113.637500", "094109.797500", "094113.747500", "094109.907500", "094113.857500", "094110.017500", "094113.967500", "094110.127500", "094114.077500", "094110.237500", "094114.187500", "094110.347500", "094114.297500", "094110.457500", "094114.407500", "094110.567500", "094114.515000", "094110.677500", "094114.625000", "094110.785000", "094114.735000", "094110.895000", "094114.845000", "094111.005000", "094114.955000", "094111.115000", "094115.065000", "094111.225000", "094115.175000", "094111.335000", "094115.285000", "094111.445000", "094115.395000", "094111.555000", "094115.502500", "094111.662500", "094115.612500", "094111.772500", "094115.722500", "094111.882500", "094115.832500", "094111.992500", "094115.942500", "094112.102500", "094116.052500", "094112.212500", "094116.162500", "094112.322500", "094116.272500", "094112.432500", "094116.380000", "094112.542500", "094120.350000", "094116.512500", "094120.460000", "094116.620000", "094120.570000", "094116.730000", "094120.680000", "094116.840000", "094120.790000", "094116.950000", "094120.900000", "094117.060000", "094121.010000", "094117.170000", "094121.120000", "094117.280000", "094121.230000", "094117.390000", "094121.337500", "094117.497500", "094121.447500", "094117.607500", "094121.557500", "094117.717500", "094121.667500", "094117.827500", "094121.777500", "094117.937500", "094121.887500", "094118.047500", "094121.997500", "094118.157500", "094122.107500", "094118.267500", "094122.215000", "094118.377500", "094122.325000", "094118.485000", "094122.435000", "094118.595000", "094122.545000", "094118.705000", "094122.655000", "094118.815000", "094122.765000", "094118.925000", "094122.875000", "094119.035000", "094122.985000", "094119.145000", "094123.095000", "094119.255000", "094123.202500", "094119.362500", "094123.312500", "094119.472500", "094123.422500", "094119.582500", "094123.532500", "094119.692500", "094123.642500", "094119.802500", "094123.752500", "094119.912500", "094123.862500", "094120.022500", "094123.972500", "094120.132500", "094124.080000", "094120.242500", "094128.050000", "094124.212500", "094128.160000", "094124.320000", "094128.270000", "094124.430000", "094128.380000", "094124.540000", "094128.490000", "094124.650000", "094128.600000", "094124.760000", "094128.710000", "094124.870000", "094128.820000", "094124.980000", "094128.930000", "094125.090000", "094129.037500", "094125.197500", "094129.147500", "094125.307500", "094129.257500", "094125.417500", "094129.367500", "094125.527500", "094129.477500", "094125.637500", "094129.587500", "094125.747500", "094129.697500", "094125.857500", "094129.807500", "094125.967500", "094129.915000", "094126.077500", "094130.025000", "094126.185000", "094130.135000", "094126.295000", "094130.245000", "094126.405000", "094130.355000", "094126.515000", "094130.465000", "094126.625000", "094130.575000", "094126.735000", "094130.685000", "094126.845000", "094130.795000", "094126.955000", "094130.902500", "094127.062500", "094131.012500", "094127.172500", "094131.122500", "094127.282500", "094131.232500", "094127.392500", "094131.342500", "094127.502500", "094131.452500", "094127.612500", "094131.562500", "094127.722500", "094131.672500", "094127.832500", "094131.780000", "094127.942500", "094135.750000", "094131.912500", "094135.860000", "094132.020000", "094135.970000", "094132.130000", "094136.080000", "094132.240000", "094136.190000", "094132.350000", "094136.300000", "094132.460000", "094136.410000", "094132.570000", "094136.520000", "094132.680000", "094136.630000", "094132.790000", "094136.737500", "094132.897500", "094136.847500", "094133.007500", "094136.957500", "094133.117500", "094137.067500", "094133.227500", "094137.177500", "094133.337500", "094137.287500", "094133.447500", "094137.397500", "094133.557500", "094137.507500", "094133.667500", "094137.615000", "094133.777500", "094137.725000", "094133.885000", "094137.835000", "094133.995000", "094137.945000", "094134.105000", "094138.055000", "094134.215000", "094138.165000", "094134.325000", "094138.275000", "094134.435000", "094138.385000", "094134.545000", "094138.495000", "094134.655000", "094138.602500", "094134.762500", "094138.712500", "094134.872500", "094138.822500", "094134.982500", "094138.932500", "094135.092500", "094139.042500", "094135.202500", "094139.152500", "094135.312500", "094139.262500", "094135.422500", "094139.372500", "094135.532500", "094139.480000", "094135.642500", "094143.450000", "094139.612500", "094143.560000", "094139.720000", "094143.670000", "094139.830000", "094143.780000", "094139.940000", "094143.890000", "094140.050000", "094144.000000", "094140.160000", "094144.110000", "094140.270000", "094144.220000", "094140.380000", "094144.330000", "094140.490000", "094144.437500", "094140.597500", "094144.547500", "094140.707500", "094144.657500", "094140.817500", "094144.767500", "094140.927500", "094144.877500", "094141.037500", "094144.987500", "094141.147500", "094145.097500", "094141.257500", "094145.207500", "094141.367500", "094145.315000", "094141.477500", "094145.425000", "094141.585000", "094145.535000", "094141.695000", "094145.645000", "094141.805000", "094145.755000", "094141.915000", "094145.865000", "094142.025000", "094145.975000", "094142.135000", "094146.085000", "094142.245000", "094146.195000", "094142.355000", "094146.302500", "094142.462500", "094146.412500", "094142.572500", "094146.522500", "094142.682500", "094146.632500", "094142.792500", "094146.742500", "094142.902500", "094146.852500", "094143.012500", "094146.962500", "094143.122500", "094147.072500", "094143.232500", "094147.180000", "094143.342500", "094151.150000", "094147.312500", "094151.260000", "094147.420000", "094151.370000", "094147.530000", "094151.480000", "094147.640000", "094151.590000", "094147.750000", "094151.700000", "094147.860000", "094151.810000", "094147.970000", "094151.920000", "094148.080000", "094152.030000", "094148.190000", "094152.137500", "094148.297500", "094152.247500", "094148.407500", "094152.357500", "094148.517500", "094152.467500", "094148.627500", "094152.577500", "094148.737500", "094152.687500", "094148.847500", "094152.797500", "094148.957500", "094152.907500", "094149.067500", "094153.015000", "094149.177500", "094153.125000", "094149.285000", "094153.235000", "094149.395000", "094153.345000", "094149.505000", "094153.455000", "094149.615000", "094153.565000", "094149.725000", "094153.675000", "094149.835000", "094153.785000", "094149.945000", "094153.895000", "094150.055000", "094154.002500", "094150.162500", "094154.112500", "094150.272500", "094154.222500", "094150.382500", "094154.332500", "094150.492500", "094154.442500", "094150.602500", "094154.552500", "094150.712500", "094154.662500", "094150.822500", "094154.772500", "094150.932500", "094154.880000", "094151.042500", "094158.850000", "094155.012500", "094158.960000", "094155.120000", "094159.070000", "094155.230000", "094159.180000", "094155.340000", "094159.290000", "094155.450000", "094159.400000", "094155.560000", "094159.510000", "094155.670000", "094159.620000", "094155.780000", "094159.730000", "094155.890000", "094159.837500", "094155.997500", "094159.947500", "094156.107500", "094200.057500", "094156.217500", "094200.167500", "094156.327500", "094200.277500", "094156.437500", "094200.387500", "094156.547500", "094200.497500", "094156.657500", "094200.607500", "094156.767500", "094200.715000", "094156.877500", "094200.825000", "094156.985000", "094200.935000", "094157.095000", "094201.045000", "094157.205000", "094201.155000", "094157.315000", "094201.265000", "094157.425000", "094201.375000", "094157.535000", "094201.485000", "094157.645000", "094201.595000", "094157.755000", "094201.702500", "094157.862500", "094201.812500", "094157.972500", "094201.922500", "094158.082500", "094202.032500", "094158.192500", "094202.142500", "094158.302500", "094202.252500", "094158.412500", "094202.362500", "094158.522500", "094202.472500", "094158.632500", "094202.580000", "094158.742500", "094206.550000", "094202.712500", "094206.660000", "094202.820000", "094206.770000", "094202.930000", "094206.880000", "094203.040000", "094206.990000", "094203.150000", "094207.100000", "094203.260000", "094207.210000", "094203.370000", "094207.320000", "094203.480000", "094207.430000", "094203.590000", "094207.537500", "094203.697500", "094207.647500", "094203.807500", "094207.757500", "094203.917500", "094207.867500", "094204.027500", "094207.977500", "094204.137500", "094208.087500", "094204.247500", "094208.197500", "094204.357500", "094208.307500", "094204.467500", "094208.415000", "094204.577500", "094208.525000", "094204.685000", "094208.635000", "094204.795000", "094208.745000", "094204.905000", "094208.855000", "094205.015000", "094208.965000", "094205.125000", "094209.075000", "094205.235000", "094209.185000", "094205.345000", "094209.295000", "094205.455000", "094209.402500", "094205.562500", "094209.512500", "094205.672500", "094209.622500", "094205.782500", "094209.732500", "094205.892500", "094209.842500", "094206.002500", "094209.952500", "094206.112500", "094210.062500", "094206.222500", "094210.172500", "094206.332500", "094210.280000", "094206.442500", "094214.250000", "094210.412500", "094214.360000", "094210.520000", "094214.470000", "094210.630000", "094214.580000", "094210.740000", "094214.690000", "094210.850000", "094214.800000", "094210.960000", "094214.910000", "094211.070000", "094215.020000", "094211.180000", "094215.130000", "094211.290000", "094215.237500", "094211.397500", "094215.347500", "094211.507500", "094215.457500", "094211.617500", "094215.567500", "094211.727500", "094215.677500", "094211.837500", "094215.787500", "094211.947500", "094215.897500", "094212.057500", "094216.007500", "094212.167500", "094216.115000", "094212.277500", "094216.225000", "094212.385000", "094216.335000", "094212.495000", "094216.445000", "094212.605000", "094216.555000", "094212.715000", "094216.665000", "094212.825000", "094216.775000", "094212.935000", "094216.885000", "094213.045000", "094216.995000", "094213.155000", "094217.102500", "094213.262500", "094217.212500", "094213.372500", "094217.322500", "094213.482500", "094217.432500", "094213.592500", "094217.542500", "094213.702500", "094217.652500", "094213.812500", "094217.762500", "094213.922500", "094217.872500", "094214.032500", "094217.980000", "094214.142500", "094221.950000", "094218.112500", "094222.060000", "094218.220000", "094222.170000", "094218.330000", "094222.280000", "094218.440000", "094222.390000", "094218.550000", "094222.500000", "094218.660000", "094222.610000", "094218.770000", "094222.720000", "094218.880000", "094222.830000", "094218.990000", "094222.937500", "094219.097500", "094223.047500", "094219.207500", "094223.157500", "094219.317500", "094223.267500", "094219.427500", "094223.377500", "094219.537500", "094223.487500", "094219.647500", "094223.597500", "094219.757500", "094223.707500", "094219.867500", "094223.815000", "094219.977500", "094223.925000", "094220.085000", "094224.035000", "094220.195000", "094224.145000", "094220.305000", "094224.255000", "094220.415000", "094224.365000", "094220.525000", "094224.475000", "094220.635000", "094224.585000", "094220.745000", "094224.695000", "094220.855000", "094224.802500", "094220.962500", "094224.912500", "094221.072500", "094225.022500", "094221.182500", "094225.132500", "094221.292500", "094225.242500", "094221.402500", "094225.352500", "094221.512500", "094225.462500", "094221.622500", "094225.572500", "094221.732500", "094225.680000", "094221.842500", "094229.650000", "094225.812500", "094229.760000", "094225.920000", "094229.870000", "094226.030000", "094229.980000", "094226.140000", "094230.090000", "094226.250000", "094230.200000", "094226.360000", "094230.310000", "094226.470000", "094230.420000", "094226.580000", "094230.530000", "094226.690000", "094230.637500", "094226.797500", "094230.747500", "094226.907500", "094230.857500", "094227.017500", "094230.967500", "094227.127500", "094231.077500", "094227.237500", "094231.187500", "094227.347500", "094231.297500", "094227.457500", "094231.407500", "094227.567500", "094231.515000", "094227.677500", "094231.625000", "094227.785000", "094231.735000", "094227.895000", "094231.845000", "094228.005000", "094231.955000", "094228.115000", "094232.065000", "094228.225000", "094232.175000", "094228.335000", "094232.285000", "094228.445000", "094232.395000", "094228.555000", "094232.502500", "094228.662500", "094232.612500", "094228.772500", "094232.722500", "094228.882500", "094232.832500", "094228.992500", "094232.942500", "094229.102500", "094233.052500", "094229.212500", "094233.162500", "094229.322500", "094233.272500", "094229.432500", "094233.380000", "094229.542500", "094237.350000", "094233.512500", "094237.460000", "094233.620000", "094237.570000", "094233.730000", "094237.680000", "094233.840000", "094237.790000", "094233.950000", "094237.900000", "094234.060000", "094238.010000", "094234.170000", "094238.120000", "094234.280000", "094238.230000", "094234.390000", "094238.337500", "094234.497500", "094238.447500", "094234.607500", "094238.557500", "094234.717500", "094238.667500", "094234.827500", "094238.777500", "094234.937500", "094238.887500", "094235.047500", "094238.997500", "094235.157500", "094239.107500", "094235.267500", "094239.215000", "094235.377500", "094239.325000", "094235.485000", "094239.435000", "094235.595000", "094239.545000", "094235.705000", "094239.655000", "094235.815000", "094239.765000", "094235.925000", "094239.875000", "094236.035000", "094239.985000", "094236.145000", "094240.095000", "094236.255000", "094240.202500", "094236.362500", "094240.312500", "094236.472500", "094240.422500", "094236.582500", "094240.532500", "094236.692500", "094240.642500", "094236.802500", "094240.752500", "094236.912500", "094240.862500", "094237.022500", "094240.972500", "094237.132500", "094241.080000", "094237.242500", "094245.050000", "094241.212500", "094245.160000", "094241.320000", "094245.270000", "094241.430000", "094245.380000", "094241.540000", "094245.490000", "094241.650000", "094245.600000", "094241.760000", "094245.710000", "094241.870000", "094245.820000", "094241.980000", "094245.930000", "094242.090000", "094246.037500", "094242.197500", "094246.147500", "094242.307500", "094246.257500", "094242.417500", "094246.367500", "094242.527500", "094246.477500", "094242.637500", "094246.587500", "094242.747500", "094246.697500", "094242.857500", "094246.807500", "094242.967500", "094246.9