{
  "AcquisitionMatrixPE": 122,
  "AcquisitionNumber": 1,
  "AcquisitionTime": "12:13:23.040000",
  "BandwidthPerPixelPhaseEncode": 28.76,
  "BaseResolution": 122,
  "BodyPartExamined": "BRAIN",
  "CoilCombinationMethod": "Adaptive Combine",
  "ConsistencyInfo": "N4_VE11C_LATEST_20160120",
  "ConversionSoftware": "dcm2niix",
  "ConversionSoftwareVersion": "v1.0.20220720",
  "DerivedVendorReportedEchoSpacing": 0.000570008,
  "DeviceSerialNumber": "66112",
  "DiffusionScheme": "Monopolar",
  "DwellTime": 2e-06,
  "EchoTime": 0.075,
  "EchoTrainLength": 61,
  "EffectiveEchoSpacing": 0.000285004,
  "FlipAngle": 90,
  "HeudiconvVersion": "0.13.1",
  "ImageOrientationPatientDICOM": [0.981016, 0.193754, 0.00816615, -0.186961, 0.933764, 0.305172],
  "ImageOrientationText": "Tra>Cor(17.5)>Sag(-3.0)",
  "ImageType": [
    "ORIGINAL",
    "PRIMARY",
    "DIFFUSION",
    "NONE",
    "ND",
    "NORM"
],
  "ImagingFrequency": 123.252,
  "InPlanePhaseEncodingDirectionDICOM": "COL",
  "InstitutionAddress": "Maynard 3,Hanover,NH,US,03755",
  "InstitutionName": "Dartmouth College - PBS",
  "InstitutionalDepartmentName": "Department",
  "MRAcquisitionType": "2D",
  "MagneticFieldStrength": 3,
  "Manufacturer": "Siemens",
  "ManufacturersModelName": "Prisma",
  "MatrixCoilMode": "GRAPPA",
  "Modality": "MR",
  "NonlinearGradientCorrection": false,
  "ParallelReductionFactorInPlane": 2,
  "PartialFourier": 1,
  "PatientPosition": "HFS",
  "PercentPhaseFOV": 100,
  "PercentSampling": 100,
  "PhaseEncodingDirection": "j-",
  "PhaseEncodingSteps": 122,
  "PhaseResolution": 1,
  "PixelBandwidth": 2050,
  "ProcedureStepDescription": "dbic^QA",
  "ProtocolName": "dwi_acq-DTI-30-p2",
  "PulseSequenceDetails": "%SiemensSeq%\\ep2d_diff",
  "ReceiveCoilActiveElements": "HEA;HEP",
  "ReceiveCoilName": "Head_32",
  "ReconMatrixPE": 122,
  "RefLinesPE": 38,
  "RepetitionTime": 7.7,
  "SAR": 0.101769,
  "ScanOptions": "FS",
  "ScanningSequence": "EP",
  "SequenceName": "*ep_b0",
  "SequenceVariant": "SK\\SP",
  "SeriesDescription": "dwi_acq-DTI-30-p2",
  "SeriesNumber": 12,
  "ShimSetting": [4144, -7687, -7507, 284, -56, -61, -63, 63],
  "SliceThickness": 2,
  "SliceTiming": [3.83594, 0, 3.94531, 0.10938, 4.05469, 0.21875, 4.16406, 0.32812, 4.27344, 0.4375, 4.39062, 0.54688, 4.5, 0.65625, 4.60156, 0.76562, 4.71094, 0.875, 4.82812, 0.98438, 4.9375, 1.09375, 5.04688, 1.20312, 5.15625, 1.3125, 5.26562, 1.42188, 5.375, 1.53125, 5.48438, 1.64062, 5.59375, 1.75, 5.70312, 1.85938, 5.8125, 1.96875, 5.92188, 2.07812, 6.03125, 2.19531, 6.14062, 2.30469, 6.25, 2.41406, 6.35938, 2.52344, 6.46875, 2.63281, 6.57812, 2.74219, 6.6875, 2.85156, 6.79688, 2.96094, 6.90625, 3.07031, 7.01562, 3.17969, 7.13281, 3.28906, 7.24219, 3.39844, 7.35156, 3.50781, 7.45312, 3.61719, 7.57031, 3.72656],
  "SoftwareVersions": "syngo MR E11",
  "SpacingBetweenSlices": 2,
  "SpoilingState": true,
  "StationName": "AWP66112",
  "TotalReadoutTime": 0.0344855,
  "TxRefAmp": 222.905,
  "dcmmeta_affine": [
    [-1.9298681020736694, -0.3677929937839508, -0.10300591588020325, 146.39822387695312],
    [-0.3811545968055725, 1.8369128704071045, 0.6018123626708984, -98.89253234863281],
    [0.016064560040831566, -0.6003389954566956, 1.9045257568359375, -36.04482650756836],
    [0.0, 0.0, 0.0, 1.0]
],
  "dcmmeta_reorient_transform": [
    [0.0, -1.0, 0.0, 121.0],
    [1.0, 0.0, 0.0, 0.0],
    [0.0, 0.0, -1.0, 69.0],
    [0.0, 0.0, 0.0, 1.0]
],
  "dcmmeta_shape": [122, 122, 70, 31],
  "dcmmeta_slice_dim": 2,
  "dcmmeta_version": 0.6,
  "global": {
    "const": {
      "AccessionNumber": "qa",
      "AcquisitionMatrix": [122, 0, 0, 122],
      "AngioFlag": "N",
      "BitsAllocated": 16,
      "BitsStored": 12,
      "BodyPartExamined": "BRAIN",
      "Columns": 122,
      "EchoNumbers": 1,
      "EchoTime": 75.0,
      "EchoTrainLength": 61,
      "FlipAngle": 90.0,
      "HighBit": 11,
      "ImageOrientationPatient": [0.98101624078679, 0.19375357877377, 0.0081661511686, -0.1869614381895, 0.93376403748814, 0.30517231677193],
      "ImageType": [
        "ORIGINAL",
        "PRIMARY",
        "DIFFUSION",
        "NONE",
        "ND",
        "NORM"
],
      "ImagedNucleus": "1H",
      "ImagingFrequency": 123.252367,
      "InPlanePhaseEncodingDirection": "COL",
      "MRAcquisitionType": "2D",
      "MagneticFieldStrength": 3.0,
      "Manufacturer": "SIEMENS",
      "ManufacturerModelName": "Prisma",
      "Modality": "MR",
      "NumberOfAverages": 1.0,
      "NumberOfPhaseEncodingSteps": 122,
      "PercentPhaseFieldOfView": 100.0,
      "PercentSampling": 100.0,
      "PerformedProcedureStepStartTime": "114150.276000",
      "PhotometricInterpretation": "MONOCHROME2",
      "PixelBandwidth": 2050.0,
      "PixelRepresentation": 0,
      "PixelSpacing": [1.9672131538391, 1.9672131538391],
      "ProtocolName": "dwi_acq-DTI-30-p2",
      "RepetitionTime": 7700.0,
      "Rows": 122,
      "SAR": 0.10176949427709,
      "SamplesPerPixel": 1,
      "ScanOptions": "FS",
      "ScanningSequence": "EP",
      "SequenceVariant": [
        "SK",
        "SP"
],
      "SeriesDescription": "dwi_acq-DTI-30-p2",
      "SeriesNumber": 12,
      "SeriesTime": "121324.117000",
      "SliceThickness": 2.0,
      "SmallestImagePixelValue": 0,
      "SoftwareVersions": "syngo MR E11",
      "SpacingBetweenSlices": 2.0,
      "SpecificCharacterSet": "ISO_IR 100",
      "StudyID": "33",
      "StudyTime": "114150.217000",
      "TransmitCoilName": "Body",
      "VariableFlipAngleFlag": "N",
      "WindowCenterWidthExplanation": "Algo1",
      "dBdt": 0.0},
    "slices": {
      "AcquisitionTime": ["121323.040000", "121319.200000", "121323.150000", "121319.310000", "121323.260000", "121319.420000", "121323.370000", "121319.530000", "121323.480000", "121319.640000", "121323.590000", "121319.750000", "121323.700000", "121319.860000", "121323.807500", "121319.967500", "121323.917500", "121320.077500", "121324.027500", "121320.187500", "121324.137500", "121320.297500", "121324.247500", "121320.407500", "121324.357500", "121320.517500", "121324.467500", "121320.627500", "121324.577500", "121320.737500", "121324.685000", "121320.847500", "121324.795000", "121320.955000", "121324.905000", "121321.065000", "121325.015000", "121321.175000", "121325.125000", "121321.285000", "121325.235000", "121321.395000", "121325.345000", "121321.505000", "121325.455000", "121321.615000", "121325.565000", "121321.725000", "121325.672500", "121321.835000", "121325.782500", "121321.942500", "121325.892500", "121322.052500", "121326.002500", "121322.162500", "121326.112500", "121322.272500", "121326.222500", "121322.382500", "121326.332500", "121322.492500", "121326.442500", "121322.602500", "121326.552500", "121322.712500", "121326.660000", "121322.820000", "121326.770000", "121322.930000", "121330.740000", "121326.900000", "121330.850000", "121327.010000", "121330.960000", "121327.120000", "121331.070000", "121327.230000", "121331.180000", "121327.340000", "121331.290000", "121327.450000", "121331.400000", "121327.560000", "121331.507500", "121327.667500", "121331.617500", "121327.777500", "121331.727500", "121327.887500", "121331.837500", "121327.997500", "121331.947500", "121328.107500", "121332.057500", "121328.217500", "121332.167500", "121328.327500", "121332.277500", "121328.437500", "121332.385000", "121328.547500", "121332.495000", "121328.655000", "121332.605000", "121328.765000", "121332.715000", "121328.875000", "121332.825000", "121328.985000", "121332.935000", "121329.095000", "121333.045000", "121329.205000", "121333.155000", "121329.315000", "121333.265000", "121329.425000", "121333.372500", "121329.535000", "121333.482500", "121329.642500", "121333.592500", "121329.752500", "121333.702500", "121329.862500", "121333.812500", "121329.972500", "121333.922500", "121330.082500", "121334.032500", "121330.192500", "121334.142500", "121330.302500", "121334.252500", "121330.412500", "121334.360000", "121330.520000", "121334.470000", "121330.630000", "121338.440000", "121334.600000", "121338.550000", "121334.710000", "121338.660000", "121334.820000", "121338.770000", "121334.930000", "121338.880000", "121335.040000", "121338.990000", "121335.150000", "121339.100000", "121335.260000", "121339.207500", "121335.367500", "121339.317500", "121335.477500", "121339.427500", "121335.587500", "121339.537500", "121335.697500", "121339.647500", "121335.807500", "121339.757500", "121335.917500", "121339.867500", "121336.027500", "121339.977500", "121336.137500", "121340.085000", "121336.247500", "121340.195000", "121336.355000", "121340.305000", "121336.465000", "121340.415000", "121336.575000", "121340.525000", "121336.685000", "121340.635000", "121336.795000", "121340.745000", "121336.905000", "121340.855000", "121337.015000", "121340.965000", "121337.125000", "121341.072500", "121337.235000", "121341.182500", "121337.342500", "121341.292500", "121337.452500", "121341.402500", "121337.562500", "121341.512500", "121337.672500", "121341.622500", "121337.782500", "121341.732500", "121337.892500", "121341.842500", "121338.002500", "121341.952500", "121338.112500", "121342.060000", "121338.220000", "121342.170000", "121338.330000", "121346.140000", "121342.300000", "121346.250000", "121342.410000", "121346.360000", "121342.520000", "121346.470000", "121342.630000", "121346.580000", "121342.740000", "121346.690000", "121342.850000", "121346.800000", "121342.960000", "121346.907500", "121343.067500", "121347.017500", "121343.177500", "121347.127500", "121343.287500", "121347.237500", "121343.397500", "121347.347500", "121343.507500", "121347.457500", "121343.617500", "121347.567500", "121343.727500", "121347.677500", "121343.837500", "121347.785000", "121343.947500", "121347.895000", "121344.055000", "121348.005000", "121344.165000", "121348.115000", "121344.275000", "121348.225000", "121344.385000", "121348.335000", "121344.495000", "121348.445000", "121344.605000", "121348.555000", "121344.715000", "121348.665000", "121344.825000", "121348.772500", "121344.935000", "121348.882500", "121345.042500", "121348.992500", "121345.152500", "121349.102500", "121345.262500", "121349.212500", "121345.372500", "121349.322500", "121345.482500", "121349.432500", "121345.592500", "121349.542500", "121345.702500", "121349.652500", "121345.812500", "121349.760000", "121345.920000", "121349.870000", "121346.030000", "121353.840000", "121350.000000", "121353.950000", "121350.110000", "121354.060000", "121350.220000", "121354.170000", "121350.330000", "121354.280000", "121350.440000", "121354.390000", "121350.550000", "121354.500000", "121350.660000", "121354.607500", "121350.767500", "121354.717500", "121350.877500", "121354.827500", "121350.987500", "121354.937500", "121351.097500", "121355.047500", "121351.207500", "121355.157500", "121351.317500", "121355.267500", "121351.427500", "121355.377500", "121351.537500", "121355.485000", "121351.647500", "121355.595000", "121351.755000", "121355.705000", "121351.865000", "121355.815000", "121351.975000", "121355.925000", "121352.085000", "121356.035000", "121352.195000", "121356.145000", "121352.305000", "121356.255000", "121352.415000", "121356.365000", "121352.525000", "121356.472500", "121352.635000", "121356.582500", "121352.742500", "121356.692500", "121352.852500", "121356.802500", "121352.962500", "121356.912500", "121353.072500", "121357.022500", "121353.182500", "121357.132500", "121353.292500", "121357.242500", "121353.402500", "121357.352500", "121353.512500", "121357.460000", "121353.620000", "121357.570000", "121353.730000", "121401.540000", "121357.700000", "121401.650000", "121357.810000", "121401.760000", "121357.920000", "121401.870000", "121358.030000", "121401.980000", "121358.140000", "121402.090000", "121358.250000", "121402.200000", "121358.360000", "121402.307500", "121358.467500", "121402.417500", "121358.577500", "121402.527500", "121358.687500", "121402.637500", "121358.797500", "121402.747500", "121358.907500", "121402.857500", "121359.017500", "121402.967500", "121359.127500", "121403.077500", "121359.237500", "121403.185000", "121359.347500", "121403.295000", "121359.455000", "121403.405000", "121359.565000", "121403.515000", "121359.675000", "121403.625000", "121359.785000", "121403.735000", "121359.895000", "121403.845000", "121400.005000", "121403.955000", "121400.115000", "121404.065000", "121400.225000", "121404.172500", "121400.335000", "121404.282500", "121400.442500", "121404.392500", "121400.552500", "121404.502500", "121400.662500", "121404.612500", "121400.772500", "121404.722500", "121400.882500", "121404.832500", "121400.992500", "121404.942500", "121401.102500", "121405.052500", "121401.212500", "121405.160000", "121401.320000", "121405.270000", "121401.430000", "121409.240000", "121405.400000", "121409.350000", "121405.510000", "121409.460000", "121405.620000", "121409.570000", "121405.730000", "121409.680000", "121405.840000", "121409.790000", "121405.950000", "121409.900000", "121406.060000", "121410.007500", "121406.167500", "121410.117500", "121406.277500", "121410.227500", "121406.387500", "121410.337500", "121406.497500", "121410.447500", "121406.607500", "121410.557500", "121406.717500", "121410.667500", "121406.827500", "121410.777500", "121406.937500", "121410.885000", "121407.047500", "121410.995000", "121407.155000", "121411.105000", "121407.265000", "121411.215000", "121407.375000", "121411.325000", "121407.485000", "121411.435000", "121407.595000", "121411.545000", "121407.705000", "121411.655000", "121407.815000", "121411.765000", "121407.925000", "121411.872500", "121408.035000", "121411.982500", "121408.142500", "121412.092500", "121408.252500", "121412.202500", "121408.362500", "121412.312500", "121408.472500", "121412.422500", "121408.582500", "121412.532500", "121408.692500", "121412.642500", "121408.802500", "121412.752500", "121408.912500", "121412.860000", "121409.020000", "121412.970000", "121409.130000", "121416.940000", "121413.100000", "121417.050000", "121413.210000", "121417.160000", "121413.320000", "121417.270000", "121413.430000", "121417.380000", "121413.540000", "121417.490000", "121413.650000", "121417.600000", "121413.760000", "121417.707500", "121413.867500", "121417.817500", "121413.977500", "121417.927500", "121414.087500", "121418.037500", "121414.197500", "121418.147500", "121414.307500", "121418.257500", "121414.417500", "121418.367500", "121414.527500", "121418.477500", "121414.637500", "121418.585000", "121414.747500", "121418.695000", "121414.855000", "121418.805000", "121414.965000", "121418.915000", "121415.075000", "121419.025000", "121415.185000", "121419.135000", "121415.295000", "121419.245000", "121415.405000", "121419.355000", "121415.515000", "121419.465000", "121415.625000", "121419.572500", "121415.735000", "121419.682500", "121415.842500", "121419.792500", "121415.952500", "121419.902500", "121416.062500", "121420.012500", "121416.172500", "121420.122500", "121416.282500", "121420.232500", "121416.392500", "121420.342500", "121416.502500", "121420.452500", "121416.612500", "121420.560000", "121416.720000", "121420.670000", "121416.830000", "121424.640000", "121420.800000", "121424.750000", "121420.910000", "121424.860000", "121421.020000", "121424.970000", "121421.130000", "121425.080000", "121421.240000", "121425.190000", "121421.350000", "121425.300000", "121421.460000", "121425.407500", "121421.567500", "121425.517500", "121421.677500", "121425.627500", "121421.787500", "121425.737500", "121421.897500", "121425.847500", "121422.007500", "121425.957500", "121422.117500", "121426.067500", "121422.227500", "121426.177500", "121422.337500", "121426.285000", "121422.447500", "121426.395000", "121422.555000", "121426.505000", "121422.665000", "121426.615000", "121422.775000", "121426.725000", "121422.885000", "121426.835000", "121422.995000", "121426.945000", "121423.105000", "121427.055000", "121423.215000", "121427.165000", "121423.325000", "121427.272500", "121423.435000", "121427.382500", "121423.542500", "121427.492500", "121423.652500", "121427.602500", "121423.762500", "121427.712500", "121423.872500", "121427.822500", "121423.982500", "121427.932500", "121424.092500", "121428.042500", "121424.202500", "121428.152500", "121424.312500", "121428.260000", "121424.420000", "121428.370000", "121424.530000", "121432.340000", "121428.500000", "121432.450000", "121428.610000", "121432.560000", "121428.720000", "121432.670000", "121428.830000", "121432.780000", "121428.940000", "121432.890000", "121429.050000", "121433.000000", "121429.160000", "121433.107500", "121429.267500", "121433.217500", "121429.377500", "121433.327500", "121429.487500", "121433.437500", "121429.597500", "121433.547500", "121429.707500", "121433.657500", "121429.817500", "121433.767500", "121429.927500", "121433.877500", "121430.037500", "121433.985000", "121430.147500", "121434.095000", "121430.255000", "121434.205000", "121430.365000", "121434.315000", "121430.475000", "121434.425000", "121430.585000", "121434.535000", "121430.695000", "121434.645000", "121430.805000", "121434.755000", "121430.915000", "121434.865000", "121431.025000", "121434.972500", "121431.135000", "121435.082500", "121431.242500", "121435.192500", "121431.352500", "121435.302500", "121431.462500", "121435.412500", "121431.572500", "121435.522500", "121431.682500", "121435.632500", "121431.792500", "121435.742500", "121431.902500", "121435.852500", "121432.012500", "121435.960000", "121432.120000", "121436.070000", "121432.230000", "121440.040000", "121436.200000", "121440.150000", "121436.310000", "121440.260000", "121436.420000", "121440.370000", "121436.530000", "121440.480000", "121436.640000", "121440.590000", "121436.750000", "121440.700000", "121436.860000", "121440.807500", "121436.967500", "121440.917500", "121437.077500", "121441.027500", "121437.187500", "121441.137500", "121437.297500", "121441.247500", "121437.407500", "121441.357500", "121437.517500", "121441.467500", "121437.627500", "121441.577500", "121437.737500", "121441.685000", "121437.847500", "121441.795000", "121437.955000", "121441.905000", "121438.065000", "121442.015000", "121438.175000", "121442.125000", "121438.285000", "121442.235000", "121438.395000", "121442.345000", "121438.505000", "121442.455000", "121438.615000", "121442.565000", "121438.725000", "121442.672500", "121438.835000", "121442.782500", "121438.942500", "121442.892500", "121439.052500", "121443.002500", "121439.162500", "121443.112500", "121439.272500", "121443.222500", "121439.382500", "121443.332500", "121439.492500", "121443.442500", "121439.602500", "121443.552500", "121439.712500", "121443.660000", "121439.820000", "121443.770000", "121439.930000", "121447.740000", "121443.900000", "121447.850000", "121444.010000", "121447.960000", "121444.120000", "121448.070000", "121444.230000", "121448.180000", "121444.340000", "121448.290000", "121444.450000", "121448.400000", "121444.560000", "121448.507500", "121444.667500", "121448.617500", "121444.777500", "121448.727500", "121444.887500", "121448.837500", "121444.997500", "121448.947500", "121445.107500", "121449.057500", "121445.217500", "121449.167500", "121445.327500", "121449.277500", "121445.437500", "121449.385000", "121445.547500", "121449.495000", "121445.655000", "121449.605000", "121445.765000", "121449.715000", "121445.875000", "121449.825000", "121445.985000", "121449.935000", "121446.095000", "121450.045000", "121446.205000", "121450.155000", "121446.315000", "121450.265000", "121446.425000", "121450.372500", "121446.535000", "121450.482500", "121446.642500", "121450.592500", "121446.752500", "121450.702500", "121446.862500", "121450.812500", "121446.972500", "121450.922500", "121447.082500", "121451.032500", "121447.192500", "121451.142500", "121447.302500", "121451.252500", "121447.412500", "121451.360000", "121447.520000", "121451.470000", "121447.630000", "121455.440000", "121451.600000", "121455.550000", "121451.710000", "121455.660000", "121451.820000", "121455.770000", "121451.930000", "121455.880000", "121452.040000", "121455.990000", "121452.150000", "121456.100000", "121452.260000", "121456.207500", "121452.367500", "121456.317500", "121452.477500", "121456.427500", "121452.587500", "121456.537500", "121452.697500", "121456.647500", "121452.807500", "121456.757500", "121452.917500", "121456.867500", "121453.027500", "121456.977500", "121453.137500", "121457.085000", "121453.247500", "121457.195000", "121453.355000", "121457.305000", "121453.465000", "121457.415000", "121453.575000", "121457.525000", "121453.685000", "121457.635000", "121453.795000", "121457.745000", "121453.905000", "121457.855000", "121454.015000", "121457.965000", "121454.125000", "121458.072500", "121454.235000", "121458.182500", "121454.342500", "121458.292500", "121454.452500", "121458.402500", "121454.562500", "121458.512500", "121454.672500", "121458.622500", "121454.782500", "121458.732500", "121454.892500", "121458.842500", "121455.002500", "121458.952500", "121455.112500", "121459.060000", "121455.220000", "121459.170000", "121455.330000", "121503.140000", "121459.300000", "121503.250000", "121459.410000", "121503.360000", "121459.520000", "121503.470000", "121459.630000", "121503.580000", "121459.740000", "121503.690000", "121459.850000", "121503.800000", "121459.960000", "121503.907500", "121500.067500", "121504.017500", "121500.177500", "121504.127500", "121500.287500", "121504.237500", "121500.397500", "121504.347500", "121500.507500", "121504.457500", "121500.617500", "121504.567500", "121500.727500", "121504.677500", "121500.837500", "121504.785000", "121500.947500", "121504.895000", "121501.055000", "121505.005000", "121501.165000", "121505.115000", "121501.275000", "121505.225000", "121501.385000", "121505.335000", "121501.495000", "121505.445000", "121501.605000", "121505.555000", "121501.715000", "121505.665000", "121501.825000", "121505.772500", "121501.935000", "121505.882500", "121502.042500", "121505.992500", "121502.152500", "121506.102500", "121502.262500", "121506.212500", "121502.372500", "121506.322500", "121502.482500", "121506.432500", "121502.592500", "121506.542500", "121502.702500", "121506.652500", "121502.812500", "121506.760000", "121502.920000", "121506.870000", "121503.030000", "121510.840000", "121507.000000", "121510.950000", "121507.110000", "121511.060000", "121507.220000", "121511.170000", "121507.330000", "121511.280000", "121507.440000", "121511.390000", "121507.550000", "121511.500000", "121507.660000", "121511.607500", "121507.767500", "121511.717500", "121507.877500", "121511.827500", "121507.987500", "121511.937500", "121508.097500", "121512.047500", "121508.207500", "121512.157500", "121508.317500", "121512.267500", "121508.427500", "121512.377500", "121508.537500", "121512.485000", "121508.647500", "121512.595000", "121508.755000", "121512.705000", "121508.865000", "121512.815000", "121508.975000", "121512.925000", "121509.085000", "121513.035000", "121509.195000", "121513.145000", "121509.305000", "121513.255000", "121509.415000", "121513.365000", "121509.525000", "121513.472500", "121509.635000", "121513.582500", "121509.742500", "121513.692500", "121509.852500", "121513.802500", "121509.962500", "121513.912500", "121510.072500", "121514.022500", "121510.182500", "121514.132500", "121510.292500", "121514.242500", "121510.402500", "121514.352500", "121510.512500", "121514.460000", "121510.620000", "121514.570000", "121510.730000", "121518.540000", "121514.700000", "121518.650000", "121514.810000", "121518.760000", "121514.920000", "121518.870000", "121515.030000", "121518.980000", "121515.140000", "121519.090000", "121515.250000", "121519.200000", "121515.360000", "121519.307500", "121515.467500", "121519.417500", "121515.577500", "121519.527500", "121515.687500", "121519.637500", "121515.797500", "121519.747500", "121515.907500", "121519.857500", "121516.017500", "121519.967500", "121516.127500", "121520.077500", "121516.237500", "121520.185000", "121516.347500", "121520.295000", "121516.455000", "121520.405000", "121516.565000", "121520.515000", "121516.675000", "121520.625000", "121516.785000", "121520.735000", "121516.895000", "121520.845000", "121517.005000", "121520.955000", "121517.115000", "121521.065000", "121517.225000", "121521.172500", "121517.335000", "121521.282500", "121517.442500", "121521.392500", "121517.552500", "121521.502500", "121517.662500", "121521.612500", "121517.772500", "121521.722500", "121517.882500", "121521.832500", "121517.992500", "121521.942500", "121518.102500", "121522.052500", "121518.212500", "121522.160000", "121518.320000", "121522.270000", "121518.430000", "121526.240000", "121522.400000", "121526.350000", "121522.510000", "121526.460000", "121522.620000", "121526.570000", "121522.730000", "121526.680000", "121522.840000", "121526.790000", "121522.950000", "121526.900000", "121523.060000", "121527.007500", "121523.167500", "121527.117500", "121523.277500", "121527.227500", "121523.387500", "121527.337500", "121523.497500", "121527.447500", "121523.607500", "121527.557500", "121523.717500", "121527.667500", "121523.827500", "121527.777500", "121523.937500", "121527.885000", "121524.047500", "121527.995000", "121524.155000", "121528.105000", "121524.265000", "121528.215000", "121524.375000", "121528.325000", "121524.485000", "121528.435000", "121524.595000", "121528.545000", "121524.705000", "121528.655000", "121524.815000", "121528.765000", "121524.925000", "121528.872500", "121525.035000", "121528.982500", "121525.142500", "121529.092500", "121525.252500", "121529.202500", "121525.362500", "121529.312500", "121525.472500", "121529.422500", "121525.582500", "121529.532500", "121525.692500", "121529.642500", "121525.802500", "121529.752500", "121525.912500", "121529.860000", "121526.020000", "121529.970000", "121526.130000", "121533.940000", "121530.100000", "121534.050000", "121530.210000", "121534.160000", "121530.320000", "121534.270000", "121530.430000", "121534.380000", "121530.540000", "121534.490000", "121530.650000", "121534.600000", "121530.760000", "121534.707500", "121530.867500", "121534.817500", "121530.977500", "121534.927500", "121531.087500", "121535.037500", "121531.197500", "121535.147500", "121531.307500", "121535.257500", "121531.417500", "121535.367500", "121531.527500", "121535.477500", "121531.637500", "121535.585000", "121531.747500", "121535.695000", "121531.855000", "121535.805000", "121531.965000", "121535.915000", "121532.075000", "121536.025000", "121532.185000", "121536.135000", "121532.295000", "121536.245000", "121532.405000", "121536.355000", "121532.515000", "121536.465000", "121532.625000", "121536.572500", "121532.735000", "121536.682500", "121532.842500", "121536.792500", "121532.952500", "121536.902500", "121533.062500", "121537.012500", "121533.172500", "121537.122500", "121533.282500", "121537.232500", "121533.392500", "121537.342500", "121533.502500", "121537.452500", "121533.612500", "121537.560000", "121533.720000", "121537.670000", "121533.830000", "121541.640000", "121537.800000", "121541.750000", "121537.910000", "121541.860000", "121538.020000", "121541.970000", "121538.130000", "121542.080000", "121538.240000", "121542.190000", "121538.350000", "121542.300000", "121538.460000", "121542.407500", "121538.567500", "121542.517500", "121538.677500", "121542.627500", "121538.787500", "121542.737500", "121538.897500", "121542.847500", "121539.007500", "121542.957500", "121539.117500", "121543.067500", "121539.227500", "121543.177500", "121539.337500", "121543.285000", "121539.447500", "121543.395000", "121539.555000", "121543.505000", "121539.665000", "121543.615000", "121539.775000", "121543.725000", "121539.885000", "121543.835000", "121539.995000", "121543.945000", "121540.105000", "121544.055000", "121540.215000", "121544.165000", "121540.325000", "121544.272500", "121540.435000", "121544.382500", "121540.542500", "121544.492500", "121540.652500", "121544.602500", "121540.762500", "121544.712500", "121540.872500", "121544.822500", "121540.982500", "121544.932500", "121541.092500", "121545.042500", "121541.202500", "121545.152500", "121541.312500", "121545.260000", "121541.420000", "121545.370000", "121541.530000", "121549.340000", "121545.500000", "121549.450000", "121545.610000", "121549.560000", "121545.720000", "121549.670000", "121545.830000", "121549.780000", "121545.940000", "121549.890000", "121546.050000", "121550.000000", "121546.160000", "121550.107500", "121546.267500", "121550.217500", "121546.377500", "121550.327500", "121546.487500", "121550.437500", "121546.597500", "121550.547500", "121546.707500", "121550.657500", "121546.817500", "121550.767500", "121546.927500", "121550.877500", "121547.037500", "121550.985000", "121547.147500", "121551.095000", "121547.255000", "121551.205000", "121547.365000", "121551.315000", "121547.475000", "121551.425000", "121547.585000", "121551.535000", "121547.695000", "121551.645000", "121547.805000", "121551.755000", "121547.915000", "121551.865000", "121548.025000", "121551.972500", "121548.135000", "121552.082500", "121548.242500", "121552.192500", "121548.352500", "121552.302500", "121548.462500", "121552.412500", "121548.572500", "121552.522500", "121548.682500", "121552.632500", "121548.792500", "121552.742500", "121548.902500", "121552.852500", "121549.012500", "121552.960000", "121549.120000", "121553.070000", "121549.230000", "121557.040000", "121553.200000", "121557.150000", "121553.310000", "121557.260000", "121553.420000", "121557.370000", "121553.530000", "121557.480000", "121553.640000", "121557.590000", "121553.750000", "121557.700000", "121553.860000", "121557.807500", "121553.967500", "121557.917500", "121554.077500", "121558.027500", "121554.187500", "121558.137500", "121554.297500", "121558.247500", "121554.407500", "121558.357500", "121554.517500", "121558.467500", "121554.627500", "121558.577500", "121554.737500", "121558.685000", "121554.847500", "121558.795000", "121554.955000", "121558.905000", "