{
  "AcquisitionMatrixPE": 122,
  "AcquisitionNumber": 1,
  "AcquisitionTime": "12:17:45.475000",
  "BandwidthPerPixelPhaseEncode": 27.785,
  "BaseResolution": 122,
  "BodyPartExamined": "BRAIN",
  "CoilCombinationMethod": "Adaptive Combine",
  "ConsistencyInfo": "N4_VE11C_LATEST_20160120",
  "ConversionSoftware": "dcm2niix",
  "ConversionSoftwareVersion": "v1.0.20220720",
  "DerivedVendorReportedEchoSpacing": 0.000590011,
  "DeviceSerialNumber": "66112",
  "DiffusionScheme": "Monopolar",
  "DwellTime": 2e-06,
  "EchoTime": 0.068,
  "EchoTrainLength": 61,
  "EffectiveEchoSpacing": 0.000295005,
  "FlipAngle": 90,
  "HeudiconvVersion": "0.13.1",
  "ImageOrientationPatientDICOM": [0.981016, 0.193754, 0.00816615, -0.186961, 0.933764, 0.305172],
  "ImageOrientationText": "Tra>Cor(17.5)>Sag(-3.0)",
  "ImageType": [
    "ORIGINAL",
    "PRIMARY",
    "DIFFUSION",
    "NONE",
    "ND",
    "NORM"
],
  "ImagingFrequency": 123.252,
  "InPlanePhaseEncodingDirectionDICOM": "COL",
  "InstitutionAddress": "Maynard 3,Hanover,NH,US,03755",
  "InstitutionName": "Dartmouth College - PBS",
  "InstitutionalDepartmentName": "Department",
  "MRAcquisitionType": "2D",
  "MagneticFieldStrength": 3,
  "Manufacturer": "Siemens",
  "ManufacturersModelName": "Prisma",
  "Modality": "MR",
  "MultibandAccelerationFactor": 4,
  "NonlinearGradientCorrection": false,
  "ParallelReductionFactorInPlane": 2,
  "PartialFourier": 1,
  "PatientPosition": "HFS",
  "PercentPhaseFOV": 100,
  "PercentSampling": 100,
  "PhaseEncodingDirection": "j-",
  "PhaseEncodingSteps": 122,
  "PhaseResolution": 1,
  "PixelBandwidth": 2050,
  "ProcedureStepDescription": "dbic^QA",
  "ProtocolName": "dwi_acq-DTI-30-p2-s4",
  "PulseSequenceDetails": "%SiemensSeq%\\ep2d_diff",
  "ReceiveCoilActiveElements": "HEA;HEP",
  "ReceiveCoilName": "Head_32",
  "ReconMatrixPE": 122,
  "RefLinesPE": 38,
  "RepetitionTime": 3.6,
  "SAR": 0.161207,
  "ScanOptions": "FS",
  "ScanningSequence": "EP",
  "SequenceName": "*ep_b0",
  "SequenceVariant": "SK\\SP",
  "SeriesDescription": "dwi_acq-DTI-30-p2-s4",
  "SeriesNumber": 13,
  "ShimSetting": [4144, -7688, -7506, 284, -55, -58, -63, 64],
  "SliceThickness": 2,
  "SliceTiming": [2.58594, 0, 1.78906, 0.19531, 1.98438, 0.39844, 2.1875, 0.59375, 2.38281, 0.99219, 2.78125, 1.19531, 2.98438, 1.39062, 3.17969, 1.58594, 3.38281, 0.79688, 2.58594, 0, 1.78906, 0.19531, 1.98438, 0.39844, 2.1875, 0.59375, 2.38281, 0.99219, 2.78125, 1.19531, 2.98438, 1.39062, 3.17969, 1.58594, 3.38281, 0.79688, 2.58594, 0, 1.78906, 0.19531, 1.98438, 0.39844, 2.1875, 0.59375, 2.38281, 0.99219, 2.78125, 1.19531, 2.98438, 1.39062, 3.17969, 1.58594, 3.38281, 0.79688, 2.58594, 0, 1.78906, 0.19531, 1.98438, 0.39844, 2.1875, 0.59375, 2.38281, 0.99219, 2.78125, 1.19531, 2.98438, 1.39062, 3.17969, 1.58594, 3.38281, 0.79688],
  "SoftwareVersions": "syngo MR E11",
  "SpacingBetweenSlices": 2,
  "SpoilingState": true,
  "StationName": "AWP66112",
  "TotalReadoutTime": 0.0356956,
  "TxRefAmp": 222.905,
  "dcmmeta_affine": [
    [-1.9298681020736694, -0.3677929937839508, -0.10300594568252563, 146.501220703125],
    [-0.3811545968055725, 1.8369128704071045, 0.6018104553222656, -99.49421691894531],
    [0.016064560040831566, -0.6003389954566956, 1.9045219421386719, -37.9490852355957],
    [0.0, 0.0, 0.0, 1.0]
],
  "dcmmeta_reorient_transform": [
    [0.0, -1.0, 0.0, 121.0],
    [1.0, 0.0, 0.0, 0.0],
    [0.0, 0.0, -1.0, 71.0],
    [0.0, 0.0, 0.0, 1.0]
],
  "dcmmeta_shape": [122, 122, 72, 31],
  "dcmmeta_slice_dim": 2,
  "dcmmeta_version": 0.6,
  "global": {
    "const": {
      "AccessionNumber": "qa",
      "AcquisitionMatrix": [122, 0, 0, 122],
      "AngioFlag": "N",
      "BitsAllocated": 16,
      "BitsStored": 12,
      "BodyPartExamined": "BRAIN",
      "Columns": 122,
      "EchoNumbers": 1,
      "EchoTime": 68.0,
      "EchoTrainLength": 61,
      "FlipAngle": 90.0,
      "HighBit": 11,
      "ImageOrientationPatient": [0.98101624078679, 0.19375357877377, 0.0081661511686, -0.1869614381895, 0.93376403748814, 0.30517231677193],
      "ImageType": [
        "ORIGINAL",
        "PRIMARY",
        "DIFFUSION",
        "NONE",
        "ND",
        "NORM"
],
      "ImagedNucleus": "1H",
      "ImagingFrequency": 123.252371,
      "InPlanePhaseEncodingDirection": "COL",
      "MRAcquisitionType": "2D",
      "MagneticFieldStrength": 3.0,
      "Manufacturer": "SIEMENS",
      "ManufacturerModelName": "Prisma",
      "Modality": "MR",
      "NumberOfAverages": 1.0,
      "NumberOfPhaseEncodingSteps": 122,
      "PercentPhaseFieldOfView": 100.0,
      "PercentSampling": 100.0,
      "PerformedProcedureStepStartTime": "114150.276000",
      "PhotometricInterpretation": "MONOCHROME2",
      "PixelBandwidth": 2050.0,
      "PixelRepresentation": 0,
      "PixelSpacing": [1.9672131538391, 1.9672131538391],
      "ProtocolName": "dwi_acq-DTI-30-p2-s4",
      "RepetitionTime": 3600.0,
      "Rows": 122,
      "SAR": 0.16120729093628,
      "SamplesPerPixel": 1,
      "ScanOptions": "FS",
      "ScanningSequence": "EP",
      "SequenceVariant": [
        "SK",
        "SP"
],
      "SeriesDescription": "dwi_acq-DTI-30-p2-s4",
      "SeriesNumber": 13,
      "SeriesTime": "121754.402000",
      "SliceThickness": 2.0,
      "SmallestImagePixelValue": 0,
      "SoftwareVersions": "syngo MR E11",
      "SpacingBetweenSlices": 2.0,
      "SpecificCharacterSet": "ISO_IR 100",
      "StudyID": "33",
      "StudyTime": "114150.217000",
      "TransmitCoilName": "Body",
      "VariableFlipAngleFlag": "N",
      "WindowCenterWidthExplanation": "Algo1",
      "dBdt": 0.0},
    "slices": {
      "AcquisitionTime": ["121745.475000", "121742.890000", "121744.680000", "121743.087500", "121744.877500", "121743.287500", "121745.077500", "121743.487500", "121745.275000", "121743.885000", "121745.675000", "121744.082500", "121745.872500", "121744.282500", "121746.072500", "121744.480000", "121746.270000", "121743.685000", "121745.475000", "121742.890000", "121744.680000", "121743.087500", "121744.877500", "121743.287500", "121745.077500", "121743.487500", "121745.275000", "121743.885000", "121745.675000", "121744.082500", "121745.872500", "121744.282500", "121746.072500", "121744.480000", "121746.270000", "121743.685000", "121745.475000", "121742.890000", "121744.680000", "121743.087500", "121744.877500", "121743.287500", "121745.077500", "121743.487500", "121745.275000", "121743.885000", "121745.675000", "121744.082500", "121745.872500", "121744.282500", "121746.072500", "121744.480000", "121746.270000", "121743.685000", "121745.475000", "121742.890000", "121744.680000", "121743.087500", "121744.877500", "121743.287500", "121745.077500", "121743.487500", "121745.275000", "121743.885000", "121745.675000", "121744.082500", "121745.872500", "121744.282500", "121746.072500", "121744.480000", "121746.270000", "121743.685000", "121749.075000", "121746.490000", "121748.280000", "121746.687500", "121748.477500", "121746.887500", "121748.677500", "121747.087500", "121748.875000", "121747.485000", "121749.275000", "121747.682500", "121749.472500", "121747.882500", "121749.672500", "121748.080000", "121749.870000", "121747.285000", "121749.075000", "121746.490000", "121748.280000", "121746.687500", "121748.477500", "121746.887500", "121748.677500", "121747.087500", "121748.875000", "121747.485000", "121749.275000", "121747.682500", "121749.472500", "121747.882500", "121749.672500", "121748.080000", "121749.870000", "121747.285000", "121749.075000", "121746.490000", "121748.280000", "121746.687500", "121748.477500", "121746.887500", "121748.677500", "121747.087500", "121748.875000", "121747.485000", "121749.275000", "121747.682500", "121749.472500", "121747.882500", "121749.672500", "121748.080000", "121749.870000", "121747.285000", "121749.075000", "121746.490000", "121748.280000", "121746.687500", "121748.477500", "121746.887500", "121748.677500", "121747.087500", "121748.875000", "121747.485000", "121749.275000", "121747.682500", "121749.472500", "121747.882500", "121749.672500", "121748.080000", "121749.870000", "121747.285000", "121752.675000", "121750.090000", "121751.880000", "121750.287500", "121752.077500", "121750.487500", "121752.277500", "121750.687500", "121752.475000", "121751.085000", "121752.875000", "121751.282500", "121753.072500", "121751.482500", "121753.272500", "121751.680000", "121753.470000", "121750.885000", "121752.675000", "121750.090000", "121751.880000", "121750.287500", "121752.077500", "121750.487500", "121752.277500", "121750.687500", "121752.475000", "121751.085000", "121752.875000", "121751.282500", "121753.072500", "121751.482500", "121753.272500", "121751.680000", "121753.470000", "121750.885000", "121752.675000", "121750.090000", "121751.880000", "121750.287500", "121752.077500", "121750.487500", "121752.277500", "121750.687500", "121752.475000", "121751.085000", "121752.875000", "121751.282500", "121753.072500", "121751.482500", "121753.272500", "121751.680000", "121753.470000", "121750.885000", "121752.675000", "121750.090000", "121751.880000", "121750.287500", "121752.077500", "121750.487500", "121752.277500", "121750.687500", "121752.475000", "121751.085000", "121752.875000", "121751.282500", "121753.072500", "121751.482500", "121753.272500", "121751.680000", "121753.470000", "121750.885000", "121756.275000", "121753.690000", "121755.480000", "121753.887500", "121755.677500", "121754.087500", "121755.877500", "121754.287500", "121756.075000", "121754.685000", "121756.475000", "121754.882500", "121756.672500", "121755.082500", "121756.872500", "121755.280000", "121757.070000", "121754.485000", "121756.275000", "121753.690000", "121755.480000", "121753.887500", "121755.677500", "121754.087500", "121755.877500", "121754.287500", "121756.075000", "121754.685000", "121756.475000", "121754.882500", "121756.672500", "121755.082500", "121756.872500", "121755.280000", "121757.070000", "121754.485000", "121756.275000", "121753.690000", "121755.480000", "121753.887500", "121755.677500", "121754.087500", "121755.877500", "121754.287500", "121756.075000", "121754.685000", "121756.475000", "121754.882500", "121756.672500", "121755.082500", "121756.872500", "121755.280000", "121757.070000", "121754.485000", "121756.275000", "121753.690000", "121755.480000", "121753.887500", "121755.677500", "121754.087500", "121755.877500", "121754.287500", "121756.075000", "121754.685000", "121756.475000", "121754.882500", "121756.672500", "121755.082500", "121756.872500", "121755.280000", "121757.070000", "121754.485000", "121759.875000", "121757.290000", "121759.080000", "121757.487500", "121759.277500", "121757.687500", "121759.477500", "121757.887500", "121759.675000", "121758.285000", "121800.075000", "121758.482500", "121800.272500", "121758.682500", "121800.472500", "121758.880000", "121800.670000", "121758.085000", "121759.875000", "121757.290000", "121759.080000", "121757.487500", "121759.277500", "121757.687500", "121759.477500", "121757.887500", "121759.675000", "121758.285000", "121800.075000", "121758.482500", "121800.272500", "121758.682500", "121800.472500", "121758.880000", "121800.670000", "121758.085000", "121759.875000", "121757.290000", "121759.080000", "121757.487500", "121759.277500", "121757.687500", "121759.477500", "121757.887500", "121759.675000", "121758.285000", "121800.075000", "121758.482500", "121800.272500", "121758.682500", "121800.472500", "121758.880000", "121800.670000", "121758.085000", "121759.875000", "121757.290000", "121759.080000", "121757.487500", "121759.277500", "121757.687500", "121759.477500", "121757.887500", "121759.675000", "121758.285000", "121800.075000", "121758.482500", "121800.272500", "121758.682500", "121800.472500", "121758.880000", "121800.670000", "121758.085000", "121803.475000", "121800.890000", "121802.680000", "121801.087500", "121802.877500", "121801.287500", "121803.077500", "121801.487500", "121803.275000", "121801.885000", "121803.675000", "121802.082500", "121803.872500", "121802.282500", "121804.072500", "121802.480000", "121804.270000", "121801.685000", "121803.475000", "121800.890000", "121802.680000", "121801.087500", "121802.877500", "121801.287500", "121803.077500", "121801.487500", "121803.275000", "121801.885000", "121803.675000", "121802.082500", "121803.872500", "121802.282500", "121804.072500", "121802.480000", "121804.270000", "121801.685000", "121803.475000", "121800.890000", "121802.680000", "121801.087500", "121802.877500", "121801.287500", "121803.077500", "121801.487500", "121803.275000", "121801.885000", "121803.675000", "121802.082500", "121803.872500", "121802.282500", "121804.072500", "121802.480000", "121804.270000", "121801.685000", "121803.475000", "121800.890000", "121802.680000", "121801.087500", "121802.877500", "121801.287500", "121803.077500", "121801.487500", "121803.275000", "121801.885000", "121803.675000", "121802.082500", "121803.872500", "121802.282500", "121804.072500", "121802.480000", "121804.270000", "121801.685000", "121807.075000", "121804.490000", "121806.280000", "121804.687500", "121806.477500", "121804.887500", "121806.677500", "121805.087500", "121806.875000", "121805.485000", "121807.275000", "121805.682500", "121807.472500", "121805.882500", "121807.672500", "121806.080000", "121807.870000", "121805.285000", "121807.075000", "121804.490000", "121806.280000", "121804.687500", "121806.477500", "121804.887500", "121806.677500", "121805.087500", "121806.875000", "121805.485000", "121807.275000", "121805.682500", "121807.472500", "121805.882500", "121807.672500", "121806.080000", "121807.870000", "121805.285000", "121807.075000", "121804.490000", "121806.280000", "121804.687500", "121806.477500", "121804.887500", "121806.677500", "121805.087500", "121806.875000", "121805.485000", "121807.275000", "121805.682500", "121807.472500", "121805.882500", "121807.672500", "121806.080000", "121807.870000", "121805.285000", "121807.075000", "121804.490000", "121806.280000", "121804.687500", "121806.477500", "121804.887500", "121806.677500", "121805.087500", "121806.875000", "121805.485000", "121807.275000", "121805.682500", "121807.472500", "121805.882500", "121807.672500", "121806.080000", "121807.870000", "121805.285000", "121810.675000", "121808.090000", "121809.880000", "121808.287500", "121810.077500", "121808.487500", "121810.277500", "121808.687500", "121810.475000", "121809.085000", "121810.875000", "121809.282500", "121811.072500", "121809.482500", "121811.272500", "121809.680000", "121811.470000", "121808.885000", "121810.675000", "121808.090000", "121809.880000", "121808.287500", "121810.077500", "121808.487500", "121810.277500", "121808.687500", "121810.475000", "121809.085000", "121810.875000", "121809.282500", "121811.072500", "121809.482500", "121811.272500", "121809.680000", "121811.470000", "121808.885000", "121810.675000", "121808.090000", "121809.880000", "121808.287500", "121810.077500", "121808.487500", "121810.277500", "121808.687500", "121810.475000", "121809.085000", "121810.875000", "121809.282500", "121811.072500", "121809.482500", "121811.272500", "121809.680000", "121811.470000", "121808.885000", "121810.675000", "121808.090000", "121809.880000", "121808.287500", "121810.077500", "121808.487500", "121810.277500", "121808.687500", "121810.475000", "121809.085000", "121810.875000", "121809.282500", "121811.072500", "121809.482500", "121811.272500", "121809.680000", "121811.470000", "121808.885000", "121814.275000", "121811.690000", "121813.480000", "121811.887500", "121813.677500", "121812.087500", "121813.877500", "121812.287500", "121814.075000", "121812.685000", "121814.475000", "121812.882500", "121814.672500", "121813.082500", "121814.872500", "121813.280000", "121815.070000", "121812.485000", "121814.275000", "121811.690000", "121813.480000", "121811.887500", "121813.677500", "121812.087500", "121813.877500", "121812.287500", "121814.075000", "121812.685000", "121814.475000", "121812.882500", "121814.672500", "121813.082500", "121814.872500", "121813.280000", "121815.070000", "121812.485000", "121814.275000", "121811.690000", "121813.480000", "121811.887500", "121813.677500", "121812.087500", "121813.877500", "121812.287500", "121814.075000", "121812.685000", "121814.475000", "121812.882500", "121814.672500", "121813.082500", "121814.872500", "121813.280000", "121815.070000", "121812.485000", "121814.275000", "121811.690000", "121813.480000", "121811.887500", "121813.677500", "121812.087500", "121813.877500", "121812.287500", "121814.075000", "121812.685000", "121814.475000", "121812.882500", "121814.672500", "121813.082500", "121814.872500", "121813.280000", "121815.070000", "121812.485000", "121817.875000", "121815.290000", "121817.080000", "121815.487500", "121817.277500", "121815.687500", "121817.477500", "121815.887500", "121817.675000", "121816.285000", "121818.075000", "121816.482500", "121818.272500", "121816.682500", "121818.472500", "121816.880000", "121818.670000", "121816.085000", "121817.875000", "121815.290000", "121817.080000", "121815.487500", "121817.277500", "121815.687500", "121817.477500", "121815.887500", "121817.675000", "121816.285000", "121818.075000", "121816.482500", "121818.272500", "121816.682500", "121818.472500", "121816.880000", "121818.670000", "121816.085000", "121817.875000", "121815.290000", "121817.080000", "121815.487500", "121817.277500", "121815.687500", "121817.477500", "121815.887500", "121817.675000", "121816.285000", "121818.075000", "121816.482500", "121818.272500", "121816.682500", "121818.472500", "121816.880000", "121818.670000", "121816.085000", "121817.875000", "121815.290000", "121817.080000", "121815.487500", "121817.277500", "121815.687500", "121817.477500", "121815.887500", "121817.675000", "121816.285000", "121818.075000", "121816.482500", "121818.272500", "121816.682500", "121818.472500", "121816.880000", "121818.670000", "121816.085000", "121821.475000", "121818.890000", "121820.680000", "121819.087500", "121820.877500", "121819.287500", "121821.077500", "121819.487500", "121821.275000", "121819.885000", "121821.675000", "121820.082500", "121821.872500", "121820.282500", "121822.072500", "121820.480000", "121822.270000", "121819.685000", "121821.475000", "121818.890000", "121820.680000", "121819.087500", "121820.877500", "121819.287500", "121821.077500", "121819.487500", "121821.275000", "121819.885000", "121821.675000", "121820.082500", "121821.872500", "121820.282500", "121822.072500", "121820.480000", "121822.270000", "121819.685000", "121821.475000", "121818.890000", "121820.680000", "121819.087500", "121820.877500", "121819.287500", "121821.077500", "121819.487500", "121821.275000", "121819.885000", "121821.675000", "121820.082500", "121821.872500", "121820.282500", "121822.072500", "121820.480000", "121822.270000", "121819.685000", "121821.475000", "121818.890000", "121820.680000", "121819.087500", "121820.877500", "121819.287500", "121821.077500", "121819.487500", "121821.275000", "121819.885000", "121821.675000", "121820.082500", "121821.872500", "121820.282500", "121822.072500", "121820.480000", "121822.270000", "121819.685000", "121825.075000", "121822.490000", "121824.280000", "121822.687500", "121824.477500", "121822.887500", "121824.677500", "121823.087500", "121824.875000", "121823.485000", "121825.275000", "121823.682500", "121825.472500", "121823.882500", "121825.672500", "121824.080000", "121825.870000", "121823.285000", "121825.075000", "121822.490000", "121824.280000", "121822.687500", "121824.477500", "121822.887500", "121824.677500", "121823.087500", "121824.875000", "121823.485000", "121825.275000", "121823.682500", "121825.472500", "121823.882500", "121825.672500", "121824.080000", "121825.870000", "121823.285000", "121825.075000", "121822.490000", "121824.280000", "121822.687500", "121824.477500", "121822.887500", "121824.677500", "121823.087500", "121824.875000", "121823.485000", "121825.275000", "121823.682500", "121825.472500", "121823.882500", "121825.672500", "121824.080000", "121825.870000", "121823.285000", "121825.075000", "121822.490000", "121824.280000", "121822.687500", "121824.477500", "121822.887500", "121824.677500", "121823.087500", "121824.875000", "121823.485000", "121825.275000", "121823.682500", "121825.472500", "121823.882500", "121825.672500", "121824.080000", "121825.870000", "121823.285000", "121828.675000", "121826.090000", "121827.880000", "121826.287500", "121828.077500", "121826.487500", "121828.277500", "121826.687500", "121828.475000", "121827.085000", "121828.875000", "121827.282500", "121829.072500", "121827.482500", "121829.272500", "121827.680000", "121829.470000", "121826.885000", "121828.675000", "121826.090000", "121827.880000", "121826.287500", "121828.077500", "121826.487500", "121828.277500", "121826.687500", "121828.475000", "121827.085000", "121828.875000", "121827.282500", "121829.072500", "121827.482500", "121829.272500", "121827.680000", "121829.470000", "121826.885000", "121828.675000", "121826.090000", "121827.880000", "121826.287500", "121828.077500", "121826.487500", "121828.277500", "121826.687500", "121828.475000", "121827.085000", "121828.875000", "121827.282500", "121829.072500", "121827.482500", "121829.272500", "121827.680000", "121829.470000", "121826.885000", "121828.675000", "121826.090000", "121827.880000", "121826.287500", "121828.077500", "121826.487500", "121828.277500", "121826.687500", "121828.475000", "121827.085000", "121828.875000", "121827.282500", "121829.072500", "121827.482500", "121829.272500", "121827.680000", "121829.470000", "121826.885000", "121832.275000", "121829.690000", "121831.480000", "121829.887500", "121831.677500", "121830.087500", "121831.877500", "121830.287500", "121832.075000", "121830.685000", "121832.475000", "121830.882500", "121832.672500", "121831.082500", "121832.872500", "121831.280000", "121833.070000", "121830.485000", "121832.275000", "121829.690000", "121831.480000", "121829.887500", "121831.677500", "121830.087500", "121831.877500", "121830.287500", "121832.075000", "121830.685000", "121832.475000", "121830.882500", "121832.672500", "121831.082500", "121832.872500", "121831.280000", "121833.070000", "121830.485000", "121832.275000", "121829.690000", "121831.480000", "121829.887500", "121831.677500", "121830.087500", "121831.877500", "121830.287500", "121832.075000", "121830.685000", "121832.475000", "121830.882500", "121832.672500", "121831.082500", "121832.872500", "121831.280000", "121833.070000", "121830.485000", "121832.275000", "121829.690000", "121831.480000", "121829.887500", "121831.677500", "121830.087500", "121831.877500", "121830.287500", "121832.075000", "121830.685000", "121832.475000", "121830.882500", "121832.672500", "121831.082500", "121832.872500", "121831.280000", "121833.070000", "121830.485000", "121835.875000", "121833.290000", "121835.080000", "121833.487500", "121835.277500", "121833.687500", "121835.477500", "121833.887500", "121835.675000", "121834.285000", "121836.075000", "121834.482500", "121836.272500", "121834.682500", "121836.472500", "121834.880000", "121836.670000", "121834.085000", "121835.875000", "121833.290000", "121835.080000", "121833.487500", "121835.277500", "121833.687500", "121835.477500", "121833.887500", "121835.675000", "121834.285000", "121836.075000", "121834.482500", "121836.272500", "121834.682500", "121836.472500", "121834.880000", "121836.670000", "121834.085000", "121835.875000", "121833.290000", "121835.080000", "121833.487500", "121835.277500", "121833.687500", "121835.477500", "121833.887500", "121835.675000", "121834.285000", "121836.075000", "121834.482500", "121836.272500", "121834.682500", "121836.472500", "121834.880000", "121836.670000", "121834.085000", "121835.875000", "121833.290000", "121835.080000", "121833.487500", "121835.277500", "121833.687500", "121835.477500", "121833.887500", "121835.675000", "121834.285000", "121836.075000", "121834.482500", "121836.272500", "121834.682500", "121836.472500", "121834.880000", "121836.670000", "121834.085000", "121839.475000", "121836.890000", "121838.680000", "121837.087500", "121838.877500", "121837.287500", "121839.077500", "121837.487500", "121839.275000", "121837.885000", "121839.675000", "121838.082500", "121839.872500", "121838.282500", "121840.072500", "121838.480000", "121840.270000", "121837.685000", "121839.475000", "121836.890000", "121838.680000", "121837.087500", "121838.877500", "121837.287500", "121839.077500", "121837.487500", "121839.275000", "121837.885000", "121839.675000", "121838.082500", "121839.872500", "121838.282500", "121840.072500", "121838.480000", "121840.270000", "121837.685000", "121839.475000", "121836.890000", "121838.680000", "121837.087500", "121838.877500", "121837.287500", "121839.077500", "121837.487500", "121839.275000", "121837.885000", "121839.675000", "121838.082500", "121839.872500", "121838.282500", "121840.072500", "121838.480000", "121840.270000", "121837.685000", "121839.475000", "121836.890000", "121838.680000", "121837.087500", "121838.877500", "121837.287500", "121839.077500", "121837.487500", "121839.275000", "121837.885000", "121839.675000", "121838.082500", "121839.872500", "121838.282500", "121840.072500", "121838.480000", "121840.270000", "121837.685000", "121843.075000", "121840.490000", "121842.280000", "121840.687500", "121842.477500", "121840.887500", "121842.677500", "121841.087500", "121842.875000", "121841.485000", "121843.275000", "121841.682500", "121843.472500", "121841.882500", "121843.672500", "121842.080000", "121843.870000", "121841.285000", "121843.075000", "121840.490000", "121842.280000", "121840.687500", "121842.477500", "121840.887500", "121842.677500", "121841.087500", "121842.875000", "121841.485000", "121843.275000", "121841.682500", "121843.472500", "121841.882500", "121843.672500", "121842.080000", "121843.870000", "121841.285000", "121843.075000", "121840.490000", "121842.280000", "121840.687500", "121842.477500", "121840.887500", "121842.677500", "121841.087500", "121842.875000", "121841.485000", "121843.275000", "121841.682500", "121843.472500", "121841.882500", "121843.672500", "121842.080000", "121843.870000", "121841.285000", "121843.075000", "121840.490000", "121842.280000", "121840.687500", "121842.477500", "121840.887500", "121842.677500", "121841.087500", "121842.875000", "121841.485000", "121843.275000", "121841.682500", "121843.472500", "121841.882500", "121843.672500", "121842.080000", "121843.870000", "121841.285000", "121846.675000", "121844.090000", "121845.880000", "121844.287500", "121846.077500", "121844.487500", "121846.277500", "121844.687500", "121846.475000", "121845.085000", "121846.875000", "121845.282500", "121847.072500", "121845.482500", "121847.272500", "121845.680000", "121847.470000", "121844.885000", "121846.675000", "121844.090000", "121845.880000", "121844.287500", "121846.077500", "121844.487500", "121846.277500", "121844.687500", "121846.475000", "121845.085000", "121846.875000", "121845.282500", "121847.072500", "121845.482500", "121847.272500", "121845.680000", "121847.470000", "121844.885000", "121846.675000", "121844.090000", "121845.880000", "121844.287500", "121846.077500", "121844.487500", "121846.277500", "121844.687500", "121846.475000", "121845.085000", "121846.875000", "121845.282500", "121847.072500", "121845.482500", "121847.272500", "121845.680000", "121847.470000", "121844.885000", "121846.675000", "121844.090000", "121845.880000", "121844.287500", "121846.077500", "121844.487500", "121846.277500", "121844.687500", "121846.475000", "121845.085000", "121846.875000", "121845.282500", "121847.072500", "121845.482500", "121847.272500", "121845.680000", "121847.470000", "121844.885000", "121850.275000", "121847.690000", "121849.480000", "121847.887500", "121849.677500", "121848.087500", "121849.877500", "121848.287500", "121850.075000", "121848.685000", "121850.475000", "121848.882500", "121850.672500", "121849.082500", "121850.872500", "121849.280000", "121851.070000", "121848.485000", "121850.275000", "121847.690000", "121849.480000", "121847.887500", "121849.677500", "121848.087500", "121849.877500", "121848.287500", "121850.075000", "121848.685000", "121850.475000", "121848.882500", "121850.672500", "121849.082500", "121850.872500", "121849.280000", "121851.070000", "121848.485000", "121850.275000", "121847.690000", "121849.480000", "121847.887500", "121849.677500", "121848.087500", "121849.877500", "121848.287500", "121850.075000", "121848.685000", "121850.475000", "121848.882500", "121850.672500", "121849.082500", "121850.872500", "121849.280000", "121851.070000", "121848.485000", "121850.275000", "121847.690000", "121849.480000", "121847.887500", "121849.677500", "121848.087500", "121849.877500", "121848.287500", "121850.075000", "121848.685000", "121850.475000", "121848.882500", "121850.672500", "121849.082500", "121850.872500", "121849.280000", "121851.070000", "121848.485000", "121853.875000", "121851.290000", "121853.080000", "121851.487500", "121853.277500", "121851.687500", "121853.477500", "121851.887500", "121853.675000", "121852.285000", "121854.075000", "121852.482500", "121854.272500", "121852.682500", "121854.472500", "121852.880000", "121854.670000", "121852.085000", "121853.875000", "121851.290000", "121853.080000", "121851.487500", "121853.277500", "121851.687500", "121853.477500", "121851.887500", "121853.675000", "121852.285000", "121854.075000", "121852.482500", "121854.272500", "121852.682500", "121854.472500", "121852.880000", "121854.670000", "121852.085000", "121853.875000", "121851.290000", "121853.080000", "121851.487500", "121853.277500", "121851.687500", "121853.477500", "121851.887500", "121853.675000", "121852.285000", "121854.075000", "121852.482500", "121854.272500", "121852.682500", "121854.472500", "121852.880000", "121854.670000", "121852.085000", "121853.875000", "121851.290000", "121853.080000", "121851.487500", "121853.277500", "121851.687500", "121853.477500", "121851.887500", "121853.675000", "121852.285000", "121854.075000", "121