{
  "AcquisitionMatrixPE": 80,
  "AcquisitionNumber": 1,
  "AcquisitionTime": "08:38:56.495000",
  "BandwidthPerPixelPhaseEncode": 25,
  "BaseResolution": 80,
  "BodyPartExamined": "BRAIN",
  "CoilCombinationMethod": "Sum of Squares",
  "ConsistencyInfo": "N4_VE11E_LATEST_20181129",
  "ConversionSoftware": "dcm2niix",
  "ConversionSoftwareVersion": "v1.0.20220720",
  "DerivedVendorReportedEchoSpacing": 0.0005,
  "DeviceSerialNumber": "66112",
  "DwellTime": 2.7e-06,
  "EchoTime": 0.03,
  "EchoTrainLength": 80,
  "EffectiveEchoSpacing": 0.0005,
  "FlipAngle": 10,
  "HeudiconvVersion": "0.13.1",
  "ImageOrientationPatientDICOM": [0.98613, -0.165974, 0.00058662, 0.157952, 0.939545, 0.30382],
  "ImageOrientationText": "Tra>Cor(17.5)>Sag(2.9)",
  "ImageType": [
    "ORIGINAL",
    "PRIMARY",
    "M",
    "ND",
    "NORM",
    "MOSAIC"
],
  "ImagingFrequency": 123.259,
  "InPlanePhaseEncodingDirectionDICOM": "COL",
  "InstitutionAddress": "Maynard 3,Hanover,NH,US,03755",
  "InstitutionName": "Dartmouth College - PBS",
  "InstitutionalDepartmentName": "Department",
  "MRAcquisitionType": "2D",
  "MagneticFieldStrength": 3,
  "Manufacturer": "Siemens",
  "ManufacturersModelName": "Prisma",
  "MatrixCoilMode": "SENSE",
  "Modality": "MR",
  "NonlinearGradientCorrection": false,
  "PartialFourier": 1,
  "PatientPosition": "HFS",
  "PercentPhaseFOV": 100,
  "PercentSampling": 100,
  "PhaseEncodingDirection": "j-",
  "PhaseEncodingSteps": 80,
  "PhaseResolution": 1,
  "PixelBandwidth": 2315,
  "ProcedureStepDescription": "dbic^QA",
  "ProtocolName": "func-bold_fa-10",
  "PulseSequenceDetails": "%SiemensSeq%\\ep2d_bold",
  "ReceiveCoilActiveElements": "HC1-7;NC1,2",
  "ReceiveCoilName": "HeadNeck_64",
  "ReconMatrixPE": 80,
  "RepetitionTime": 2,
  "SAR": 0.00759222,
  "ScanOptions": "FS",
  "ScanningSequence": "EP",
  "SequenceName": "*epfid2d1_80",
  "SequenceVariant": "SK",
  "SeriesDescription": "func-bold_fa-10",
  "SeriesNumber": 7,
  "ShimSetting": [4216, -7726, -7478, -196, -155, -297, -96, 69],
  "SliceThickness": 3.5,
  "SliceTiming": [0.99, 0, 1.0575, 0.0675, 1.1225, 0.1325, 1.1875, 0.1975, 1.255, 0.265, 1.32, 0.33, 1.3875, 0.3975, 1.4525, 0.4625, 1.5175, 0.5275, 1.585, 0.595, 1.65, 0.66, 1.7175, 0.7275, 1.7825, 0.7925, 1.8475, 0.8575, 1.915, 0.925],
  "SoftwareVersions": "syngo MR E11",
  "SpacingBetweenSlices": 3.99,
  "StationName": "AWP66112",
  "TotalReadoutTime": 0.0395,
  "TxRefAmp": 211.861,
  "dcmmeta_affine": [
    [-2.9583899974823, 0.4738573133945465, 0.20339921116828918, 96.37920379638672],
    [0.4979214370250702, 2.8186347484588623, 1.1950565576553345, -142.431396484375],
    [0.0017598592676222324, -0.9114586710929871, 3.8013901710510254, -30.198570251464844],
    [0.0, 0.0, 0.0, 1.0]
],
  "dcmmeta_reorient_transform": [
    [0.0, -1.0, 0.0, 79.0],
    [1.0, 0.0, 0.0, 0.0],
    [0.0, 0.0, 1.0, 0.0],
    [0.0, 0.0, 0.0, 1.0]
],
  "dcmmeta_shape": [80, 80, 30, 200],
  "dcmmeta_slice_dim": 2,
  "dcmmeta_version": 0.6,
  "global": {
    "const": {
      "AccessionNumber": "qa64",
      "AcquisitionMatrix": [80, 0, 0, 80],
      "AngioFlag": "N",
      "BitsAllocated": 16,
      "BitsStored": 12,
      "BodyPartExamined": "BRAIN",
      "Columns": 480,
      "EchoNumbers": 1,
      "EchoTime": 30.0,
      "EchoTrainLength": 80,
      "FlipAngle": 10.0,
      "HighBit": 11,
      "ImageOrientationPatient": [0.98612998588597, -0.1659738136387, 0.0005866197728, 0.1579524336142, 0.93954494550821, 0.3038195584312],
      "ImagePositionPatient": [-820.26338273913, -544.38342922522, -284.84751239379],
      "ImageType": [
        "ORIGINAL",
        "PRIMARY",
        "M",
        "ND",
        "NORM",
        "MOSAIC"
],
      "ImagedNucleus": "1H",
      "ImagingFrequency": 123.25925,
      "InPlanePhaseEncodingDirection": "COL",
      "MRAcquisitionType": "2D",
      "MagneticFieldStrength": 3.0,
      "Manufacturer": "SIEMENS",
      "ManufacturerModelName": "Prisma",
      "Modality": "MR",
      "NumberOfAverages": 1.0,
      "NumberOfPhaseEncodingSteps": 80,
      "PercentPhaseFieldOfView": 100.0,
      "PercentSampling": 100.0,
      "PerformedProcedureStepStartTime": "081853.013000",
      "PhotometricInterpretation": "MONOCHROME2",
      "PixelBandwidth": 2315.0,
      "PixelRepresentation": 0,
      "PixelSpacing": [3.0, 3.0],
      "ProtocolName": "func-bold_fa-10",
      "RepetitionTime": 2000.0,
      "Rows": 480,
      "SAR": 0.00759222129272,
      "SamplesPerPixel": 1,
      "ScanOptions": "FS",
      "ScanningSequence": "EP",
      "SequenceName": "*epfid2d1_80",
      "SequenceVariant": "SK",
      "SeriesDescription": "func-bold_fa-10",
      "SeriesNumber": 7,
      "SeriesTime": "083943.614000",
      "SliceLocation": -66.517964443405,
      "SliceThickness": 3.5,
      "SmallestImagePixelValue": 0,
      "SoftwareVersions": "syngo MR E11",
      "SpacingBetweenSlices": 3.9899999288492,
      "SpecificCharacterSet": "ISO_IR 100",
      "StudyID": "15",
      "StudyTime": "081852.929000",
      "TransmitCoilName": "Body",
      "VariableFlipAngleFlag": "N",
      "WindowCenterWidthExplanation": "Algo1"
    },
    "slices": {}
  },
  "time": {
    "samples": {
      "AcquisitionNumber": [1, 2, 3, 4, 5, 6, 7, 8, 9, 10, 11, 12, 13, 14, 15, 16, 17, 18, 19, 20, 21, 22, 23, 24, 25, 26, 27, 28, 29, 30, 31, 32, 33, 34, 35, 36, 37, 38, 39, 40, 41, 42, 43, 44, 45, 46, 47, 48, 49, 50, 51, 52, 53, 54, 55, 56, 57, 58, 59, 60, 61, 62, 63, 64, 65, 66, 67, 68, 69, 70, 71, 72, 73, 74, 75, 76, 77, 78, 79, 80, 81, 82, 83, 84, 85, 86, 87, 88, 89, 90, 91, 92, 93, 94, 95, 96, 97, 98, 99, 100, 101, 102, 103, 104, 105, 106, 107, 108, 109, 110, 111, 112, 113, 114, 115, 116, 117, 118, 119, 120, 121, 122, 123, 124, 125, 126, 127, 128, 129, 130, 131, 132, 133, 134, 135, 136, 137, 138, 139, 140, 141, 142, 143, 144, 145, 146, 147, 148, 149, 150, 151, 152, 153, 154, 155, 156, 157, 158, 159, 160, 161, 162, 163, 164, 165, 166, 167, 168, 169, 170, 171, 172, 173, 174, 175, 176, 177, 178, 179, 180, 181, 182, 183, 184, 185, 186, 187, 188, 189, 190, 191, 192, 193, 194, 195, 196, 197, 198, 199, 200],
      "AcquisitionTime": ["083856.495000", "083858.495000", "083900.495000", "083902.495000", "083904.495000", "083906.495000", "083908.495000", "083910.495000", "083912.495000", "083914.495000", "083916.495000", "083918.495000", "083920.495000", "083922.495000", "083924.495000", "083926.495000", "083928.495000", "083930.495000", "083932.495000", "083934.495000", "083936.495000", "083938.495000", "083940.495000", "083942.495000", "083944.495000", "083946.495000", "083948.495000", "083950.495000", "083952.495000", "083954.495000", "083956.495000", "083958.495000", "084000.495000", "084002.495000", "084004.495000", "084006.495000", "084008.495000", "084010.495000", "084012.495000", "084014.495000", "084016.495000", "084018.495000", "084020.495000", "084022.495000", "084024.495000", "084026.495000", "084028.495000", "084030.495000", "084032.495000", "084034.495000", "084036.495000", "084038.495000", "084040.495000", "084042.495000", "084044.495000", "084046.495000", "084048.495000", "084050.495000", "084052.495000", "084054.495000", "084056.495000", "084058.495000", "084100.495000", "084102.495000", "084104.495000", "084106.495000", "084108.495000", "084110.495000", "084112.495000", "084114.495000", "084116.495000", "084118.495000", "084120.495000", "084122.495000", "084124.495000", "084126.495000", "084128.495000", "084130.495000", "084132.495000", "084134.495000", "084136.495000", "084138.495000", "084140.495000", "084142.495000", "084144.495000", "084146.495000", "084148.495000", "084150.495000", "084152.495000", "084154.495000", "084156.495000", "084158.495000", "084200.495000", "084202.495000", "084204.495000", "084206.495000", "084208.495000", "084210.495000", "084212.495000", "084214.495000", "084216.495000", "084218.495000", "084220.495000", "084222.495000", "084224.495000", "084226.495000", "084228.495000", "084230.495000", "084232.495000", "084234.495000", "084236.495000", "084238.495000", "084240.495000", "084242.495000", "084244.495000", "084246.495000", "084248.495000", "084250.495000", "084252.495000", "084254.495000", "084256.495000", "084258.495000", "084300.495000", "084302.495000", "084304.495000", "084306.495000", "084308.495000", "084310.495000", "084312.495000", "084314.495000", "084316.495000", "084318.495000", "084320.495000", "084322.495000", "084324.495000", "084326.495000", "084328.495000", "084330.495000", "084332.495000", "084334.495000", "084336.495000", "084338.495000", "084340.495000", "084342.495000", "084344.495000", "084346.495000", "084348.495000", "084350.495000", "084352.495000", "084354.495000", "084356.495000", "084358.495000", "084400.495000", "084402.495000", "084404.495000", "084406.495000", "084408.495000", "084410.495000", "084412.495000", "084414.495000", "084416.495000", "084418.495000", "084420.495000", "084422.495000", "084424.495000", "084426.495000", "084428.495000", "084430.495000", "084432.495000", "084434.495000", "084436.495000", "084438.495000", "084440.495000", "084442.495000", "084444.495000", "084446.495000", "084448.495000", "084450.495000", "084452.495000", "084454.495000", "084456.495000", "084458.495000", "084500.495000", "084502.495000", "084504.495000", "084506.495000", "084508.495000", "084510.495000", "084512.495000", "084514.495000", "084516.495000", "084518.495000", "084520.495000", "084522.495000", "084524.495000", "084526.495000", "084528.495000", "084530.495000", "084532.495000", "084534.495000"],
      "ContentTime": ["083943.617000", "083943.620000", "083943.623000", "083943.625000", "083943.627000", "083943.635000", "083943.638000", "083943.645000", "083943.647000", "083943.649000", "083943.652000", "083943.654000", "083943.656000", "083943.658000", "083943.661000", "083943.663000", "083943.665000", "083943.668000", "083943.670000", "083943.672000", "083943.674000", "083943.677000", "083943.679000", "084023.613000", "084023.616000", "084023.618000", "084023.620000", "084023.623000", "084023.625000", "084023.627000", "084023.630000", "084023.632000", "084023.634000", "084023.637000", "084023.639000", "084023.641000", "084023.643000", "084023.646000", "084023.648000", "084023.650000", "084023.653000", "084023.655000", "084023.657000", "084103.612000", "084103.615000", "084103.617000", "084103.619000", "084103.622000", "084103.624000", "084103.638000", "084103.640000", "084103.643000", "084103.645000", "084103.647000", "084103.650000", "084103.652000", "084103.654000", "084103.656000", "084103.659000", "084103.661000", "084103.663000", "084103.666000", "084103.668000", "084143.612000", "084143.615000", "084143.618000", "084143.620000", "084143.622000", "084143.625000", "084143.627000", "084143.629000", "084143.632000", "084143.634000", "084143.636000", "084143.639000", "084143.641000", "084143.643000", "084143.646000", "084143.648000", "084143.650000", "084143.653000", "084143.655000", "084143.657000", "084223.612000", "084223.615000", "084223.617000", "084223.620000", "084223.622000", "084223.624000", "084223.626000", "084223.629000", "084223.631000", "084223.633000", "084223.636000", "084223.638000", "084223.640000", "084223.642000", "084223.645000", "084223.647000", "084223.649000", "084223.652000", "084223.654000", "084223.656000", "084303.613000", "084303.616000", "084303.618000", "084303.621000", "084303.623000", "084303.625000", "084303.628000", "084303.630000", "084303.632000", "084303.634000", "084303.637000", "084303.639000", "084303.641000", "084303.644000", "084303.646000", "084303.649000", "084303.651000", "084303.653000", "084303.655000", "084303.658000", "084343.612000", "084343.615000", "084343.617000", "084343.619000", "084343.622000", "084343.624000", "084343.626000", "084343.629000", "084343.631000", "084343.633000", "084343.636000", "084343.645000", "084343.648000", "084343.650000", "084343.652000", "084343.655000", "084343.657000", "084343.659000", "084343.661000", "084343.664000", "084423.612000", "084423.615000", "084423.617000", "084423.619000", "084423.622000", "084423.624000", "084423.626000", "084423.629000", "084423.631000", "084423.633000", "084423.636000", "084423.638000", "084423.640000", "084423.643000", "084423.645000", "084423.647000", "084423.650000", "084423.652000", "084423.654000", "084423.656000", "084503.613000", "084503.616000", "084503.618000", "084503.620000", "084503.623000", "084503.625000", "084503.627000", "084503.630000", "084503.632000", "084503.634000", "084503.637000", "084503.639000", "084503.641000", "084503.644000", "084503.655000", "084503.657000", "084503.659000", "084503.662000", "084503.664000", "084503.666000", "084536.336000", "084536.339000", "084536.341000", "084536.344000", "084536.346000", "084536.348000", "084536.351000", "084536.353000", "084536.355000", "084536.358000", "084536.360000", "084536.362000", "084536.365000", "084536.372000", "084536.376000", "084536.379000", "084536.381000"],
      "InstanceCreationTime": ["083943.617000", "083943.620000", "083943.623000", "083943.625000", "083943.627000", "083943.635000", "083943.638000", "083943.645000", "083943.647000", "083943.649000", "083943.652000", "083943.654000", "083943.656000", "083943.658000", "083943.661000", "083943.663000", "083943.665000", "083943.668000", "083943.670000", "083943.672000", "083943.674000", "083943.677000", "083943.679000", "084023.613000", "084023.616000", "084023.618000", "084023.620000", "084023.623000", "084023.625000", "084023.627000", "084023.630000", "084023.632000", "084023.634000", "084023.637000", "084023.639000", "084023.641000", "084023.643000", "084023.646000", "084023.648000", "084023.650000", "084023.653000", "084023.655000", "084023.657000", "084103.612000", "084103.615000", "084103.617000", "084103.619000", "084103.622000", "084103.624000", "084103.638000", "084103.640000", "084103.643000", "084103.645000", "084103.647000", "084103.650000", "084103.652000", "084103.654000", "084103.656000", "084103.659000", "084103.661000", "084103.663000", "084103.666000", "084103.668000", "084143.612000", "084143.615000", "084143.618000", "084143.620000", "084143.622000", "084143.625000", "084143.627000", "084143.629000", "084143.632000", "084143.634000", "084143.636000", "084143.639000", "084143.641000", "084143.643000", "084143.646000", "084143.648000", "084143.650000", "084143.653000", "084143.655000", "084143.657000", "084223.612000", "084223.615000", "084223.617000", "084223.620000", "084223.622000", "084223.624000", "084223.626000", "084223.629000", "084223.631000", "084223.633000", "084223.636000", "084223.638000", "084223.640000", "084223.642000", "084223.645000", "084223.647000", "084223.649000", "084223.652000", "084223.654000", "084223.656000", "084303.613000", "084303.616000", "084303.618000", "084303.621000", "084303.623000", "084303.625000", "084303.628000", "084303.630000", "084303.632000", "084303.634000", "084303.637000", "084303.639000", "084303.641000", "084303.644000", "084303.646000", "084303.649000", "084303.651000", "084303.653000", "084303.655000", "084303.658000", "084343.612000", "084343.615000", "084343.617000", "084343.619000", "084343.622000", "084343.624000", "084343.626000", "084343.629000", "084343.631000", "084343.633000", "084343.636000", "084343.645000", "084343.648000", "084343.650000", "084343.652000", "084343.655000", "084343.657000", "084343.659000", "084343.661000", "084343.664000", "084423.612000", "084423.615000", "084423.617000", "084423.619000", "084423.622000", "084423.624000", "084423.626000", "084423.629000", "084423.631000", "084423.633000", "084423.636000", "084423.638000", "084423.640000", "084423.643000", "084423.645000", "084423.647000", "084423.650000", "084423.652000", "084423.654000", "084423.656000", "084503.613000", "084503.616000", "084503.618000", "084503.620000", "084503.623000", "084503.625000", "084503.627000", "084503.630000", "084503.632000", "084503.634000", "084503.637000", "084503.639000", "084503.641000", "084503.644000", "084503.655000", "084503.657000", "084503.659000", "084503.662000", "084503.664000", "084503.666000", "084536.336000", "084536.339000", "084536.341000", "084536.344000", "084536.346000", "084536.348000", "084536.351000", "084536.353000", "084536.355000", "084536.358000", "084536.360000", "084536.362000", "084536.365000", "084536.372000", "084536.376000", "084536.379000", "084536.381000"],
      "InstanceNumber": [1, 2, 3, 4, 5, 6, 7, 8, 9, 10, 11, 12, 13, 14, 15, 16, 17, 18, 19, 20, 21, 22, 23, 24, 25, 26, 27, 28, 29, 30, 31, 32, 33, 34, 35, 36, 37, 38, 39, 40, 41, 42, 43, 44, 45, 46, 47, 48, 49, 50, 51, 52, 53, 54, 55, 56, 57, 58, 59, 60, 61, 62, 63, 64, 65, 66, 67, 68, 69, 70, 71, 72, 73, 74, 75, 76, 77, 78, 79, 80, 81, 82, 83, 84, 85, 86, 87, 88, 89, 90, 91, 92, 93, 94, 95, 96, 97, 98, 99, 100, 101, 102, 103, 104, 105, 106, 107, 108, 109, 110, 111, 112, 113, 114, 115, 116, 117, 118, 119, 120, 121, 122, 123, 124, 125, 126, 127, 128, 129, 130, 131, 132, 133, 134, 135, 136, 137, 138, 139, 140, 141, 142, 143, 144, 145, 146, 147, 148, 149, 150, 151, 152, 153, 154, 155, 156, 157, 158, 159, 160, 161, 162, 163, 164, 165, 166, 167, 168, 169, 170, 171, 172, 173, 174, 175, 176, 177, 178, 179, 180, 181, 182, 183, 184, 185, 186, 187, 188, 189, 190, 191, 192, 193, 194, 195, 196, 197, 198, 199, 200],
      "LargestImagePixelValue": [641, 642, 641, 642, 640, 643, 642, 643, 642, 641, 638, 640, 644, 641, 642, 643, 640, 645, 644, 640, 642, 642, 645, 644, 642, 638, 641, 644, 644, 639, 637, 643, 645, 646, 641, 638, 645, 643, 640, 641, 643, 635, 644, 641, 640, 638, 639, 641, 643, 643, 638, 640, 644, 640, 638, 638, 640, 641, 642, 640, 637, 643, 640, 644, 641, 642, 642, 640, 645, 639, 639, 644, 642, 640, 641, 640, 641, 643, 641, 641, 637, 640, 642, 646, 643, 637, 643, 645, 645, 638, 641, 646, 642, 641, 639, 641, 638, 643, 641, 638, 638, 641, 641, 642, 643, 640, 641, 642, 641, 638, 640, 641, 641, 640, 640, 641, 642, 645, 643, 639, 639, 643, 639, 643, 636, 640, 643, 644, 642, 640, 640, 642, 640, 644, 638, 636, 640, 642, 639, 641, 641, 639, 640, 642, 642, 636, 640, 643, 642, 639, 637, 640, 639, 643, 637, 637, 639, 640, 639, 640, 639, 643, 642, 642, 639, 640, 642, 642, 640, 637, 638, 641, 635, 640, 639, 637, 641, 638, 645, 639, 637, 642, 642, 639, 642, 637, 639, 642, 639, 638, 639, 641, 640, 643, 641, 638, 639, 643, 642, 637],
      "WindowCenter": [457.0, 457.0, 457.0, 457.0, 457.0, 457.0, 457.0, 457.0, 457.0, 457.0, 457.0, 457.0, 457.0, 457.0, 457.0, 457.0, 457.0, 457.0, 457.0, 457.0, 457.0, 457.0, 457.0, 457.0, 457.0, 457.0, 457.0, 457.0, 457.0, 457.0, 457.0, 457.0, 457.0, 457.0, 457.0, 457.0, 457.0, 457.0, 457.0, 457.0, 457.0, 457.0, 457.0, 457.0, 457.0, 457.0, 457.0, 457.0, 456.0, 457.0, 457.0, 457.0, 457.0, 457.0, 457.0, 456.0, 457.0, 457.0, 456.0, 457.0, 457.0, 457.0, 457.0, 456.0, 456.0, 457.0, 456.0, 456.0, 457.0, 457.0, 457.0, 457.0, 456.0, 456.0, 456.0, 457.0, 457.0, 456.0, 456.0, 457.0, 457.0, 456.0, 456.0, 457.0, 457.0, 457.0, 456.0, 456.0, 456.0, 456.0, 456.0, 456.0, 456.0, 456.0, 457.0, 456.0, 456.0, 456.0, 456.0, 457.0, 456.0, 456.0, 456.0, 456.0, 456.0, 456.0, 456.0, 456.0, 456.0, 456.0, 456.0, 456.0, 456.0, 456.0, 456.0, 456.0, 456.0, 456.0, 456.0, 456.0, 457.0, 456.0, 456.0, 456.0, 456.0, 456.0, 456.0, 456.0, 456.0, 456.0, 456.0, 456.0, 456.0, 456.0, 456.0, 456.0, 456.0, 456.0, 456.0, 456.0, 456.0, 456.0, 456.0, 456.0, 456.0, 456.0, 456.0, 456.0, 456.0, 456.0, 456.0, 456.0, 456.0, 456.0, 456.0, 456.0, 456.0, 456.0, 456.0, 456.0, 456.0, 456.0, 455.0, 456.0, 456.0, 456.0, 456.0, 456.0, 456.0, 456.0, 456.0, 456.0, 456.0, 456.0, 456.0, 456.0, 456.0, 456.0, 456.0, 456.0, 456.0, 456.0, 456.0, 456.0, 455.0, 456.0, 456.0, 456.0, 455.0, 456.0, 455.0, 456.0, 456.0, 455.0, 456.0, 456.0, 456.0, 455.0, 455.0, 456.0],
      "WindowWidth": [950.0, 950.0, 950.0, 950.0, 950.0, 950.0, 950.0, 950.0, 950.0, 950.0, 950.0, 950.0, 950.0, 950.0, 950.0, 950.0, 950.0, 950.0, 950.0, 950.0, 950.0, 950.0, 950.0, 950.0, 950.0, 950.0, 950.0, 950.0, 950.0, 950.0, 950.0, 950.0, 950.0, 950.0, 950.0, 950.0, 950.0, 950.0, 950.0, 950.0, 950.0, 950.0, 950.0, 950.0, 950.0, 950.0, 950.0, 950.0, 949.0, 950.0, 950.0, 950.0, 950.0, 950.0, 950.0, 949.0, 950.0, 950.0, 949.0, 950.0, 950.0, 950.0, 950.0, 949.0, 949.0, 950.0, 949.0, 949.0, 950.0, 950.0, 950.0, 950.0, 949.0, 949.0, 949.0, 950.0, 950.0, 949.0, 949.0, 950.0, 950.0, 949.0, 949.0, 950.0, 950.0, 950.0, 949.0, 949.0, 949.0, 949.0, 949.0, 949.0, 949.0, 949.0, 950.0, 949.0, 949.0, 949.0, 949.0, 950.0, 949.0, 949.0, 949.0, 949.0, 949.0, 949.0, 949.0, 949.0, 949.0, 949.0, 949.0, 949.0, 949.0, 949.0, 949.0, 949.0, 949.0, 949.0, 949.0, 949.0, 949.0, 949.0, 949.0, 949.0, 949.0, 949.0, 949.0, 948.0, 949.0, 949.0, 949.0, 949.0, 948.0, 948.0, 949.0, 949.0, 949.0, 948.0, 948.0, 949.0, 949.0, 949.0, 948.0, 948.0, 949.0, 949.0, 948.0, 948.0, 948.0, 949.0, 949.0, 948.0, 948.0, 948.0, 948.0, 948.0, 948.0, 948.0, 948.0, 948.0, 949.0, 948.0, 948.0, 948.0, 948.0, 948.0, 948.0, 948.0, 948.0, 948.0, 948.0, 948.0, 948.0, 948.0, 948.0, 948.0, 948.0, 948.0, 948.0, 948.0, 948.0, 948.0, 948.0, 948.0, 948.0, 948.0, 948.0, 948.0, 947.0, 948.0, 948.0, 948.0, 948.0, 947.0, 948.0, 948.0, 948.0, 947.0, 947.0, 948.0]
    },
    "slices": {}
  }
}