{
  "AcquisitionMatrixPE": 80,
  "AcquisitionNumber": 1,
  "AcquisitionTime": "08:25:19.707500",
  "BandwidthPerPixelPhaseEncode": 48.077,
  "BaseResolution": 80,
  "BodyPartExamined": "BRAIN",
  "CoilCombinationMethod": "Sum of Squares",
  "ConsistencyInfo": "N4_VE11E_LATEST_20181129",
  "ConversionSoftware": "dcm2niix",
  "ConversionSoftwareVersion": "v1.0.20220720",
  "DerivedVendorReportedEchoSpacing": 0.000519999,
  "DeviceSerialNumber": "66112",
  "DwellTime": 2.7e-06,
  "EchoTime": 0.035,
  "EchoTrainLength": 39,
  "EffectiveEchoSpacing": 0.00026,
  "FlipAngle": 90,
  "HeudiconvVersion": "0.13.1",
  "ImageOrientationPatientDICOM": [0.98613, -0.165974, 0.00058662, 0.157952, 0.939545, 0.30382],
  "ImageOrientationText": "Tra>Cor(17.5)>Sag(2.9)",
  "ImageType": [
    "ORIGINAL",
    "PRIMARY",
    "M",
    "ND",
    "NORM",
    "MOSAIC"
],
  "ImagingFrequency": 123.259,
  "InPlanePhaseEncodingDirectionDICOM": "COL",
  "InstitutionAddress": "Maynard 3,Hanover,NH,US,03755",
  "InstitutionName": "Dartmouth College - PBS",
  "InstitutionalDepartmentName": "Department",
  "MRAcquisitionType": "2D",
  "MagneticFieldStrength": 3,
  "Manufacturer": "Siemens",
  "ManufacturersModelName": "Prisma",
  "MatrixCoilMode": "GRAPPA",
  "Modality": "MR",
  "NonlinearGradientCorrection": false,
  "ParallelReductionFactorInPlane": 2,
  "PartialFourier": 1,
  "PatientPosition": "HFS",
  "PercentPhaseFOV": 100,
  "PercentSampling": 100,
  "PhaseEncodingDirection": "j-",
  "PhaseEncodingSteps": 79,
  "PhaseResolution": 1,
  "PixelBandwidth": 2315,
  "ProcedureStepDescription": "dbic^QA",
  "ProtocolName": "func-bold_task-rest_acq-p2",
  "PulseSequenceDetails": "%SiemensSeq%\\ep2d_bold",
  "ReceiveCoilActiveElements": "HC1-7;NC1,2",
  "ReceiveCoilName": "HeadNeck_64",
  "ReconMatrixPE": 80,
  "RefLinesPE": 24,
  "RepetitionTime": 2,
  "SAR": 0.0360156,
  "ScanOptions": "FS",
  "ScanningSequence": "EP",
  "SequenceName": "*epfid2d1_80",
  "SequenceVariant": "SK",
  "SeriesDescription": "func-bold_task-rest_acq-p2",
  "SeriesNumber": 5,
  "ShimSetting": [4217, -7726, -7478, -197, -154, -299, -98, 69],
  "SliceThickness": 3.5,
  "SliceTiming": [0.99, 0, 1.0575, 0.0675, 1.1225, 0.1325, 1.1875, 0.1975, 1.255, 0.265, 1.32, 0.33, 1.385, 0.3975, 1.4525, 0.4625, 1.5175, 0.5275, 1.585, 0.595, 1.65, 0.66, 1.715, 0.7275, 1.7825, 0.7925, 1.8475, 0.8575, 1.915, 0.925],
  "SoftwareVersions": "syngo MR E11",
  "SpacingBetweenSlices": 3.99,
  "StationName": "AWP66112",
  "TaskName": "rest",
  "TotalReadoutTime": 0.02054,
  "TxRefAmp": 211.861,
  "dcmmeta_affine": [
    [-2.9583899974823, 0.4738573133945465, 0.20339921116828918, 97.90389251708984],
    [0.4979214370250702, 2.8186347484588623, 1.1950565576553345, -144.93817138671875],
    [0.0017598592676222324, -0.9114586710929871, 3.8013904094696045, -30.83403778076172],
    [0.0, 0.0, 0.0, 1.0]
],
  "dcmmeta_reorient_transform": [
    [0.0, -1.0, 0.0, 79.0],
    [1.0, 0.0, 0.0, 0.0],
    [0.0, 0.0, 1.0, 0.0],
    [0.0, 0.0, 0.0, 1.0]
],
  "dcmmeta_shape": [80, 80, 30, 200],
  "dcmmeta_slice_dim": 2,
  "dcmmeta_version": 0.6,
  "global": {
    "const": {
      "AccessionNumber": "qa64",
      "AcquisitionMatrix": [80, 0, 0, 80],
      "AngioFlag": "N",
      "BitsAllocated": 16,
      "BitsStored": 12,
      "BodyPartExamined": "BRAIN",
      "Columns": 480,
      "EchoNumbers": 1,
      "EchoTime": 35.0,
      "EchoTrainLength": 39,
      "FlipAngle": 90.0,
      "HighBit": 11,
      "ImageOrientationPatient": [0.98612998588597, -0.1659738136387, 0.0005866197728, 0.1579524336142, 0.93954494550821, 0.3038195584312],
      "ImagePositionPatient": [-821.78807098299, -541.87666576697, -285.48297992309],
      "ImageType": [
        "ORIGINAL",
        "PRIMARY",
        "M",
        "ND",
        "NORM",
        "MOSAIC"
],
      "ImagedNucleus": "1H",
      "ImagingFrequency": 123.259246,
      "InPlanePhaseEncodingDirection": "COL",
      "MRAcquisitionType": "2D",
      "MagneticFieldStrength": 3.0,
      "Manufacturer": "SIEMENS",
      "ManufacturerModelName": "Prisma",
      "Modality": "MR",
      "NumberOfAverages": 1.0,
      "NumberOfPhaseEncodingSteps": 79,
      "PercentPhaseFieldOfView": 100.0,
      "PercentSampling": 100.0,
      "PerformedProcedureStepStartTime": "081853.013000",
      "PhotometricInterpretation": "MONOCHROME2",
      "PixelBandwidth": 2315.0,
      "PixelRepresentation": 0,
      "PixelSpacing": [3.0, 3.0],
      "ProtocolName": "func-bold_task-rest_acq-p2",
      "RepetitionTime": 2000.0,
      "Rows": 480,
      "SAR": 0.03601562553609,
      "SamplesPerPixel": 1,
      "ScanOptions": "FS",
      "ScanningSequence": "EP",
      "SequenceName": "*epfid2d1_80",
      "SequenceVariant": "SK",
      "SeriesDescription": "func-bold_task-rest_acq-p2",
      "SeriesNumber": 5,
      "SeriesTime": "082603.727000",
      "SliceLocation": -67.796476680633,
      "SliceThickness": 3.5,
      "SmallestImagePixelValue": 0,
      "SoftwareVersions": "syngo MR E11",
      "SpacingBetweenSlices": 3.9900000541725,
      "SpecificCharacterSet": "ISO_IR 100",
      "StudyID": "15",
      "StudyTime": "081852.929000",
      "TransmitCoilName": "Body",
      "VariableFlipAngleFlag": "N",
      "WindowCenterWidthExplanation": "Algo1"
    },
    "slices": {}
  },
  "time": {
    "samples": {
      "AcquisitionNumber": [1, 2, 3, 4, 5, 6, 7, 8, 9, 10, 11, 12, 13, 14, 15, 16, 17, 18, 19, 20, 21, 22, 23, 24, 25, 26, 27, 28, 29, 30, 31, 32, 33, 34, 35, 36, 37, 38, 39, 40, 41, 42, 43, 44, 45, 46, 47, 48, 49, 50, 51, 52, 53, 54, 55, 56, 57, 58, 59, 60, 61, 62, 63, 64, 65, 66, 67, 68, 69, 70, 71, 72, 73, 74, 75, 76, 77, 78, 79, 80, 81, 82, 83, 84, 85, 86, 87, 88, 89, 90, 91, 92, 93, 94, 95, 96, 97, 98, 99, 100, 101, 102, 103, 104, 105, 106, 107, 108, 109, 110, 111, 112, 113, 114, 115, 116, 117, 118, 119, 120, 121, 122, 123, 124, 125, 126, 127, 128, 129, 130, 131, 132, 133, 134, 135, 136, 137, 138, 139, 140, 141, 142, 143, 144, 145, 146, 147, 148, 149, 150, 151, 152, 153, 154, 155, 156, 157, 158, 159, 160, 161, 162, 163, 164, 165, 166, 167, 168, 169, 170, 171, 172, 173, 174, 175, 176, 177, 178, 179, 180, 181, 182, 183, 184, 185, 186, 187, 188, 189, 190, 191, 192, 193, 194, 195, 196, 197, 198, 199, 200],
      "AcquisitionTime": ["082519.707500", "082521.707500", "082523.707500", "082525.707500", "082527.707500", "082529.707500", "082531.707500", "082533.707500", "082535.707500", "082537.707500", "082539.707500", "082541.707500", "082543.707500", "082545.707500", "082547.707500", "082549.707500", "082551.707500", "082553.707500", "082555.707500", "082557.707500", "082559.707500", "082601.707500", "082603.707500", "082605.707500", "082607.707500", "082609.707500", "082611.707500", "082613.707500", "082615.707500", "082617.707500", "082619.707500", "082621.707500", "082623.707500", "082625.707500", "082627.707500", "082629.707500", "082631.707500", "082633.707500", "082635.707500", "082637.707500", "082639.707500", "082641.707500", "082643.707500", "082645.707500", "082647.707500", "082649.707500", "082651.707500", "082653.707500", "082655.707500", "082657.707500", "082659.707500", "082701.707500", "082703.707500", "082705.707500", "082707.707500", "082709.707500", "082711.707500", "082713.707500", "082715.707500", "082717.707500", "082719.707500", "082721.707500", "082723.707500", "082725.707500", "082727.707500", "082729.707500", "082731.707500", "082733.707500", "082735.707500", "082737.707500", "082739.707500", "082741.707500", "082743.707500", "082745.707500", "082747.707500", "082749.707500", "082751.707500", "082753.707500", "082755.707500", "082757.707500", "082759.707500", "082801.707500", "082803.707500", "082805.707500", "082807.707500", "082809.707500", "082811.707500", "082813.707500", "082815.707500", "082817.707500", "082819.707500", "082821.707500", "082823.707500", "082825.707500", "082827.707500", "082829.707500", "082831.707500", "082833.707500", "082835.707500", "082837.707500", "082839.707500", "082841.707500", "082843.707500", "082845.707500", "082847.707500", "082849.707500", "082851.707500", "082853.707500", "082855.707500", "082857.707500", "082859.707500", "082901.707500", "082903.707500", "082905.707500", "082907.707500", "082909.707500", "082911.707500", "082913.707500", "082915.707500", "082917.707500", "082919.707500", "082921.707500", "082923.707500", "082925.707500", "082927.707500", "082929.707500", "082931.707500", "082933.707500", "082935.707500", "082937.707500", "082939.707500", "082941.707500", "082943.707500", "082945.707500", "082947.707500", "082949.707500", "082951.707500", "082953.707500", "082955.707500", "082957.707500", "082959.707500", "083001.707500", "083003.707500", "083005.707500", "083007.707500", "083009.707500", "083011.707500", "083013.707500", "083015.707500", "083017.707500", "083019.707500", "083021.707500", "083023.707500", "083025.707500", "083027.707500", "083029.707500", "083031.707500", "083033.707500", "083035.707500", "083037.707500", "083039.707500", "083041.707500", "083043.707500", "083045.707500", "083047.707500", "083049.707500", "083051.707500", "083053.707500", "083055.707500", "083057.707500", "083059.707500", "083101.707500", "083103.707500", "083105.707500", "083107.707500", "083109.707500", "083111.707500", "083113.707500", "083115.707500", "083117.707500", "083119.707500", "083121.707500", "083123.707500", "083125.707500", "083127.707500", "083129.707500", "083131.707500", "083133.707500", "083135.707500", "083137.707500", "083139.707500", "083141.707500", "083143.707500", "083145.707500", "083147.707500", "083149.707500", "083151.707500", "083153.707500", "083155.707500", "083157.707500"],
      "ContentTime": ["082603.731000", "082603.734000", "082603.736000", "082603.748000", "082603.750000", "082603.753000", "082603.755000", "082603.757000", "082603.760000", "082603.762000", "082603.764000", "082603.767000", "082603.771000", "082603.773000", "082603.775000", "082603.778000", "082603.780000", "082603.782000", "082603.785000", "082603.787000", "082603.789000", "082603.792000", "082643.726000", "082643.729000", "082643.731000", "082643.734000", "082643.736000", "082643.738000", "082643.741000", "082643.743000", "082643.745000", "082643.748000", "082643.750000", "082643.752000", "082643.755000", "082643.757000", "082643.759000", "082643.762000", "082643.764000", "082643.766000", "082643.769000", "082643.771000", "082723.725000", "082723.738000", "082723.740000", "082723.742000", "082723.744000", "082723.747000", "082723.749000", "082723.751000", "082723.754000", "082723.756000", "082723.758000", "082723.761000", "082723.763000", "082723.765000", "082723.768000", "082723.770000", "082723.772000", "082723.775000", "082723.777000", "082723.779000", "082803.725000", "082803.728000", "082803.730000", "082803.732000", "082803.735000", "082803.737000", "082803.739000", "082803.742000", "082803.744000", "082803.746000", "082803.749000", "082803.751000", "082803.753000", "082803.755000", "082803.758000", "082803.760000", "082803.762000", "082803.765000", "082803.767000", "082803.769000", "082843.726000", "082843.729000", "082843.731000", "082843.733000", "082843.736000", "082843.738000", "082843.740000", "082843.743000", "082843.745000", "082843.747000", "082843.749000", "082843.752000", "082843.754000", "082843.756000", "082843.759000", "082843.761000", "082843.763000", "082843.766000", "082843.768000", "082843.771000", "082923.725000", "082923.728000", "082923.730000", "082923.732000", "082923.735000", "082923.737000", "082923.739000", "082923.742000", "082923.744000", "082923.746000", "082923.749000", "082923.751000", "082923.753000", "082923.755000", "082923.758000", "082923.760000", "082923.763000", "082923.765000", "082923.767000", "082923.770000", "083003.725000", "083003.728000", "083003.730000", "083003.732000", "083003.735000", "083003.737000", "083003.739000", "083003.742000", "083003.744000", "083003.746000", "083003.749000", "083003.751000", "083003.753000", "083003.755000", "083003.758000", "083003.760000", "083003.762000", "083003.765000", "083003.767000", "083003.769000", "083043.725000", "083043.728000", "083043.730000", "083043.732000", "083043.735000", "083043.737000", "083043.739000", "083043.742000", "083043.744000", "083043.746000", "083043.749000", "083043.751000", "083043.753000", "083043.756000", "083043.758000", "083043.760000", "083043.763000", "083043.765000", "083043.767000", "083043.770000", "083123.727000", "083123.729000", "083123.731000", "083123.734000", "083123.736000", "083123.738000", "083123.741000", "083123.743000", "083123.745000", "083123.748000", "083123.750000", "083123.752000", "083123.755000", "083123.757000", "083123.759000", "083123.762000", "083123.764000", "083123.766000", "083123.769000", "083123.771000", "083159.055000", "083159.058000", "083159.060000", "083159.063000", "083159.065000", "083159.067000", "083159.070000", "083159.072000", "083159.074000", "083159.095000", "083159.099000", "083159.101000", "083159.104000", "083159.107000", "083159.111000", "083159.114000", "083159.117000", "083159.120000"],
      "InstanceCreationTime": ["082603.731000", "082603.734000", "082603.736000", "082603.748000", "082603.750000", "082603.753000", "082603.755000", "082603.757000", "082603.760000", "082603.762000", "082603.764000", "082603.767000", "082603.771000", "082603.773000", "082603.775000", "082603.778000", "082603.780000", "082603.782000", "082603.785000", "082603.787000", "082603.789000", "082603.792000", "082643.726000", "082643.729000", "082643.731000", "082643.734000", "082643.736000", "082643.738000", "082643.741000", "082643.743000", "082643.745000", "082643.748000", "082643.750000", "082643.752000", "082643.755000", "082643.757000", "082643.759000", "082643.762000", "082643.764000", "082643.766000", "082643.769000", "082643.771000", "082723.725000", "082723.738000", "082723.740000", "082723.742000", "082723.744000", "082723.747000", "082723.749000", "082723.751000", "082723.754000", "082723.756000", "082723.758000", "082723.761000", "082723.763000", "082723.765000", "082723.768000", "082723.770000", "082723.772000", "082723.775000", "082723.777000", "082723.779000", "082803.725000", "082803.728000", "082803.730000", "082803.732000", "082803.735000", "082803.737000", "082803.739000", "082803.742000", "082803.744000", "082803.746000", "082803.749000", "082803.751000", "082803.753000", "082803.755000", "082803.758000", "082803.760000", "082803.762000", "082803.765000", "082803.767000", "082803.769000", "082843.726000", "082843.729000", "082843.731000", "082843.733000", "082843.736000", "082843.738000", "082843.740000", "082843.743000", "082843.745000", "082843.747000", "082843.749000", "082843.752000", "082843.754000", "082843.756000", "082843.759000", "082843.761000", "082843.763000", "082843.766000", "082843.768000", "082843.771000", "082923.725000", "082923.728000", "082923.730000", "082923.732000", "082923.735000", "082923.737000", "082923.739000", "082923.742000", "082923.744000", "082923.746000", "082923.749000", "082923.751000", "082923.753000", "082923.755000", "082923.758000", "082923.760000", "082923.763000", "082923.765000", "082923.767000", "082923.770000", "083003.725000", "083003.728000", "083003.730000", "083003.732000", "083003.735000", "083003.737000", "083003.739000", "083003.742000", "083003.744000", "083003.746000", "083003.749000", "083003.751000", "083003.753000", "083003.755000", "083003.758000", "083003.760000", "083003.762000", "083003.765000", "083003.767000", "083003.769000", "083043.725000", "083043.728000", "083043.730000", "083043.732000", "083043.735000", "083043.737000", "083043.739000", "083043.742000", "083043.744000", "083043.746000", "083043.749000", "083043.751000", "083043.753000", "083043.756000", "083043.758000", "083043.760000", "083043.763000", "083043.765000", "083043.767000", "083043.770000", "083123.727000", "083123.729000", "083123.731000", "083123.734000", "083123.736000", "083123.738000", "083123.741000", "083123.743000", "083123.745000", "083123.748000", "083123.750000", "083123.752000", "083123.755000", "083123.757000", "083123.759000", "083123.762000", "083123.764000", "083123.766000", "083123.769000", "083123.771000", "083159.055000", "083159.058000", "083159.060000", "083159.063000", "083159.065000", "083159.067000", "083159.070000", "083159.072000", "083159.074000", "083159.095000", "083159.099000", "083159.101000", "083159.104000", "083159.107000", "083159.111000", "083159.114000", "083159.117000", "083159.120000"],
      "InstanceNumber": [1, 2, 3, 4, 5, 6, 7, 8, 9, 10, 11, 12, 13, 14, 15, 16, 17, 18, 19, 20, 21, 22, 23, 24, 25, 26, 27, 28, 29, 30, 31, 32, 33, 34, 35, 36, 37, 38, 39, 40, 41, 42, 43, 44, 45, 46, 47, 48, 49, 50, 51, 52, 53, 54, 55, 56, 57, 58, 59, 60, 61, 62, 63, 64, 65, 66, 67, 68, 69, 70, 71, 72, 73, 74, 75, 76, 77, 78, 79, 80, 81, 82, 83, 84, 85, 86, 87, 88, 89, 90, 91, 92, 93, 94, 95, 96, 97, 98, 99, 100, 101, 102, 103, 104, 105, 106, 107, 108, 109, 110, 111, 112, 113, 114, 115, 116, 117, 118, 119, 120, 121, 122, 123, 124, 125, 126, 127, 128, 129, 130, 131, 132, 133, 134, 135, 136, 137, 138, 139, 140, 141, 142, 143, 144, 145, 146, 147, 148, 149, 150, 151, 152, 153, 154, 155, 156, 157, 158, 159, 160, 161, 162, 163, 164, 165, 166, 167, 168, 169, 170, 171, 172, 173, 174, 175, 176, 177, 178, 179, 180, 181, 182, 183, 184, 185, 186, 187, 188, 189, 190, 191, 192, 193, 194, 195, 196, 197, 198, 199, 200],
      "LargestImagePixelValue": [3938, 3929, 3944, 3924, 3932, 3946, 3925, 3935, 3927, 3931, 3928, 3916, 3922, 3924, 3926, 3935, 3938, 3927, 3922, 3929, 3923, 3929, 3927, 3941, 3927, 3915, 3922, 3920, 3923, 3930, 3914, 3931, 3930, 3913, 3931, 3918, 3924, 3906, 3914, 3937, 3926, 3920, 3924, 3913, 3916, 3920, 3917, 3921, 3923, 3912, 3922, 3914, 3914, 3926, 3909, 3919, 3918, 3933, 3920, 3901, 3930, 3907, 3909, 3924, 3922, 3916, 3918, 3925, 3917, 3915, 3917, 3911, 3918, 3927, 3930, 3910, 3922, 3916, 3899, 3918, 3910, 3921, 3922, 3917, 3910, 3916, 3910, 3909, 3927, 3907, 3912, 3920, 3922, 3913, 3905, 3916, 3910, 3913, 3931, 3906, 3921, 3908, 3909, 3922, 3908, 3898, 3895, 3926, 3907, 3904, 3912, 3909, 3897, 3908, 3909, 3914, 3910, 3913, 3911, 3905, 3912, 3916, 3899, 3910, 3914, 3916, 3897, 3923, 3890, 3900, 3911, 3916, 3913, 3914, 3913, 3900, 3907, 3903, 3893, 3904, 3909, 3903, 3917, 3910, 3906, 3905, 3905, 3919, 3912, 3917, 3918, 3898, 3904, 3897, 3904, 3915, 3901, 3899, 3897, 3906, 3903, 3904, 3897, 3905, 3915, 3906, 3902, 3902, 3900, 3909, 3895, 3909, 3916, 3911, 3905, 3909, 3888, 3903, 3900, 3904, 3897, 3903, 3906, 3906, 3899, 3908, 3896, 3907, 3899, 3898, 3910, 3908, 3899, 3900, 3904, 3888, 3903, 3901, 3905, 3905],
      "WindowCenter": [1460.0, 1460.0, 1459.0, 1459.0, 1459.0, 1460.0, 1458.0, 1460.0, 1459.0, 1459.0, 1459.0, 1458.0, 1459.0, 1459.0, 1459.0, 1458.0, 1459.0, 1459.0, 1459.0, 1458.0, 1458.0, 1458.0, 1459.0, 1459.0, 1459.0, 1458.0, 1458.0, 1458.0, 1458.0, 1457.0, 1458.0, 1458.0, 1458.0, 1458.0, 1458.0, 1458.0, 1457.0, 1459.0, 1457.0, 1458.0, 1457.0, 1457.0, 1457.0, 1457.0, 1457.0, 1457.0, 1457.0, 1457.0, 1457.0, 1457.0, 1457.0, 1457.0, 1456.0, 1457.0, 1457.0, 1457.0, 1457.0, 1457.0, 1457.0, 1457.0, 1456.0, 1457.0, 1456.0, 1456.0, 1456.0, 1456.0, 1457.0, 1456.0, 1457.0, 1457.0, 1457.0, 1455.0, 1455.0, 1456.0, 1457.0, 1456.0, 1456.0, 1456.0, 1456.0, 1456.0, 1456.0, 1456.0, 1456.0, 1456.0, 1455.0, 1456.0, 1456.0, 1455.0, 1455.0, 1456.0, 1456.0, 1456.0, 1456.0, 1455.0, 1456.0, 1455.0, 1455.0, 1455.0, 1455.0, 1455.0, 1456.0, 1455.0, 1456.0, 1456.0, 1455.0, 1455.0, 1454.0, 1454.0, 1454.0, 1455.0, 1455.0, 1455.0, 1455.0, 1455.0, 1455.0, 1455.0, 1455.0, 1455.0, 1455.0, 1455.0, 1455.0, 1455.0, 1455.0, 1455.0, 1455.0, 1455.0, 1454.0, 1454.0, 1455.0, 1455.0, 1454.0, 1454.0, 1454.0, 1454.0, 1454.0, 1454.0, 1454.0, 1455.0, 1455.0, 1454.0, 1455.0, 1454.0, 1454.0, 1454.0, 1454.0, 1454.0, 1453.0, 1454.0, 1454.0, 1453.0, 1454.0, 1454.0, 1454.0, 1454.0, 1454.0, 1454.0, 1454.0, 1455.0, 1454.0, 1455.0, 1454.0, 1454.0, 1453.0, 1454.0, 1453.0, 1453.0, 1454.0, 1454.0, 1454.0, 1454.0, 1454.0, 1454.0, 1454.0, 1453.0, 1454.0, 1452.0, 1454.0, 1453.0, 1454.0, 1453.0, 1453.0, 1453.0, 1453.0, 1454.0, 1453.0, 1453.0, 1454.0, 1453.0, 1453.0, 1454.0, 1454.0, 1453.0, 1453.0, 1453.0, 1453.0, 1453.0, 1453.0, 1453.0, 1454.0, 1453.0],
      "WindowWidth": [3358.0, 3356.0, 3357.0, 3356.0, 3356.0, 3356.0, 3356.0, 3356.0, 3356.0, 3356.0, 3356.0, 3356.0, 3356.0, 3356.0, 3356.0, 3356.0, 3356.0, 3356.0, 3356.0, 3356.0, 3356.0, 3356.0, 3356.0, 3356.0, 3356.0, 3356.0, 3356.0, 3356.0, 3356.0, 3356.0, 3356.0, 3356.0, 3356.0, 3356.0, 3356.0, 3356.0, 3356.0, 3355.0, 3356.0, 3355.0, 3356.0, 3356.0, 3356.0, 3356.0, 3356.0, 3356.0, 3356.0, 3356.0, 3356.0, 3356.0, 3356.0, 3356.0, 3356.0, 3356.0, 3355.0, 3356.0, 3355.0, 3356.0, 3356.0, 3356.0, 3356.0, 3355.0, 3356.0, 3356.0, 3356.0, 3356.0, 3355.0, 3356.0, 3355.0, 3355.0, 3355.0, 3355.0, 3355.0, 3355.0, 3355.0, 3355.0, 3355.0, 3355.0, 3355.0, 3355.0, 3355.0, 3355.0, 3354.0, 3355.0, 3355.0, 3355.0, 3355.0, 3355.0, 3355.0, 3354.0, 3354.0, 3354.0, 3354.0, 3355.0, 3354.0, 3355.0, 3355.0, 3355.0, 3355.0, 3354.0, 3354.0, 3355.0, 3354.0, 3354.0, 3354.0, 3354.0, 3355.0, 3355.0, 3355.0, 3354.0, 3354.0, 3354.0, 3354.0, 3354.0, 3354.0, 3354.0, 3354.0, 3354.0, 3354.0, 3354.0, 3354.0, 3354.0, 3354.0, 3354.0, 3354.0, 3354.0, 3354.0, 3354.0, 3354.0, 3354.0, 3354.0, 3354.0, 3354.0, 3354.0, 3354.0, 3354.0, 3354.0, 3354.0, 3353.0, 3354.0, 3353.0, 3354.0, 3354.0, 3354.0, 3354.0, 3354.0, 3354.0, 3354.0, 3354.0, 3354.0, 3354.0, 3354.0, 3353.0, 3354.0, 3354.0, 3354.0, 3354.0, 3353.0, 3354.0, 3353.0, 3354.0, 3354.0, 3354.0, 3354.0, 3354.0, 3354.0, 3354.0, 3354.0, 3354.0, 3353.0, 3354.0, 3353.0, 3354.0, 3354.0, 3353.0, 3354.0, 3353.0, 3354.0, 3353.0, 3354.0, 3354.0, 3354.0, 3354.0, 3353.0, 3354.0, 3354.0, 3353.0, 3354.0, 3353.0, 3353.0, 3353.0, 3354.0, 3353.0, 3353.0, 3353.0, 3353.0, 3353.0, 3353.0, 3353.0, 3353.0]
    },
    "slices": {}
  }
}