{
  "AcquisitionMatrixPE": 122,
  "AcquisitionNumber": 1,
  "AcquisitionTime": "11:22:8.472500",
  "BandwidthPerPixelPhaseEncode": 27.785,
  "BaseResolution": 122,
  "BodyPartExamined": "BRAIN",
  "CoilCombinationMethod": "Adaptive Combine",
  "ConsistencyInfo": "N4_VE11C_LATEST_20160120",
  "ConversionSoftware": "dcm2niix",
  "ConversionSoftwareVersion": "v1.0.20220720",
  "DerivedVendorReportedEchoSpacing": 0.000590011,
  "DeviceSerialNumber": "66112",
  "DiffusionScheme": "Monopolar",
  "DwellTime": 2e-06,
  "EchoTime": 0.068,
  "EchoTrainLength": 61,
  "EffectiveEchoSpacing": 0.000295005,
  "FlipAngle": 90,
  "HeudiconvVersion": "0.13.1",
  "ImageOrientationPatientDICOM": [0.989288, 0.145424, 0.0127016, -0.14203, 0.938783, 0.31387],
  "ImageOrientationText": "Tra>Cor(18.2)>Sag(-1.9)",
  "ImageType": [
    "ORIGINAL",
    "PRIMARY",
    "DIFFUSION",
    "NONE",
    "ND",
    "NORM"
],
  "ImagingFrequency": 123.252,
  "InPlanePhaseEncodingDirectionDICOM": "COL",
  "InstitutionAddress": "Maynard 3,Hanover,NH,US,03755",
  "InstitutionName": "Dartmouth College - PBS",
  "InstitutionalDepartmentName": "Department",
  "MRAcquisitionType": "2D",
  "MagneticFieldStrength": 3,
  "Manufacturer": "Siemens",
  "ManufacturersModelName": "Prisma",
  "Modality": "MR",
  "MultibandAccelerationFactor": 4,
  "NonlinearGradientCorrection": false,
  "ParallelReductionFactorInPlane": 2,
  "PartialFourier": 1,
  "PatientPosition": "HFS",
  "PercentPhaseFOV": 100,
  "PercentSampling": 100,
  "PhaseEncodingDirection": "j-",
  "PhaseEncodingSteps": 122,
  "PhaseResolution": 1,
  "PixelBandwidth": 2050,
  "ProcedureStepDescription": "dbic^QA",
  "ProtocolName": "dwi_acq-DTI-30-p2-s4",
  "PulseSequenceDetails": "%SiemensSeq%\\ep2d_diff",
  "ReceiveCoilActiveElements": "HEA;HEP",
  "ReceiveCoilName": "Head_32",
  "ReconMatrixPE": 122,
  "RefLinesPE": 38,
  "RepetitionTime": 3.6,
  "SAR": 0.159485,
  "ScanOptions": "FS",
  "ScanningSequence": "EP",
  "SequenceName": "*ep_b0",
  "SequenceVariant": "SK\\SP",
  "SeriesDescription": "dwi_acq-DTI-30-p2-s4",
  "SeriesNumber": 13,
  "ShimSetting": [4143, -7696, -7517, 301, -81, -65, -61, 38],
  "SliceThickness": 2,
  "SliceTiming": [2.57812, 0, 1.78906, 0.19531, 1.98438, 0.39062, 2.1875, 0.59375, 2.38281, 0.99219, 2.78125, 1.1875, 2.97656, 1.39062, 3.17969, 1.58594, 3.375, 0.78906, 2.57812, 0, 1.78906, 0.19531, 1.98438, 0.39062, 2.1875, 0.59375, 2.38281, 0.99219, 2.78125, 1.1875, 2.97656, 1.39062, 3.17969, 1.58594, 3.375, 0.78906, 2.57812, 0, 1.78906, 0.19531, 1.98438, 0.39062, 2.1875, 0.59375, 2.38281, 0.99219, 2.78125, 1.1875, 2.97656, 1.39062, 3.17969, 1.58594, 3.375, 0.78906, 2.57812, 0, 1.78906, 0.19531, 1.98438, 0.39062, 2.1875, 0.59375, 2.38281, 0.99219, 2.78125, 1.1875, 2.97656, 1.39062, 3.17969, 1.58594, 3.375, 0.78906],
  "SoftwareVersions": "syngo MR E11",
  "SpacingBetweenSlices": 2,
  "SpoilingState": true,
  "StationName": "AWP66112",
  "TotalReadoutTime": 0.0356956,
  "TxRefAmp": 217.636,
  "dcmmeta_affine": [
    [-1.9461400508880615, -0.27940303087234497, -0.06744062900543213, 141.63125610351562],
    [-0.2860805094242096, 1.8467856645584106, 0.6246242523193359, -114.66532897949219],
    [0.024986734613776207, -0.6174498796463013, 1.8987617492675781, -40.3428955078125],
    [0.0, 0.0, 0.0, 1.0]
],
  "dcmmeta_reorient_transform": [
    [0.0, -1.0, 0.0, 121.0],
    [1.0, 0.0, 0.0, 0.0],
    [0.0, 0.0, -1.0, 71.0],
    [0.0, 0.0, 0.0, 1.0]
],
  "dcmmeta_shape": [122, 122, 72, 31],
  "dcmmeta_slice_dim": 2,
  "dcmmeta_version": 0.6,
  "global": {
    "const": {
      "AccessionNumber": "qa",
      "AcquisitionMatrix": [122, 0, 0, 122],
      "AngioFlag": "N",
      "BitsAllocated": 16,
      "BitsStored": 12,
      "BodyPartExamined": "BRAIN",
      "Columns": 122,
      "EchoNumbers": 1,
      "EchoTime": 68.0,
      "EchoTrainLength": 61,
      "FlipAngle": 90.0,
      "HighBit": 11,
      "ImageOrientationPatient": [0.98928785359204, 0.14542424953191, 0.01270158979563, -0.1420298642054, 0.93878268318664, 0.31387034173793],
      "ImageType": [
        "ORIGINAL",
        "PRIMARY",
        "DIFFUSION",
        "NONE",
        "ND",
        "NORM"
],
      "ImagedNucleus": "1H",
      "ImagingFrequency": 123.252358,
      "InPlanePhaseEncodingDirection": "COL",
      "MRAcquisitionType": "2D",
      "MagneticFieldStrength": 3.0,
      "Manufacturer": "SIEMENS",
      "ManufacturerModelName": "Prisma",
      "Modality": "MR",
      "NumberOfAverages": 1.0,
      "NumberOfPhaseEncodingSteps": 122,
      "PercentPhaseFieldOfView": 100.0,
      "PercentSampling": 100.0,
      "PerformedProcedureStepStartTime": "103632.269000",
      "PhotometricInterpretation": "MONOCHROME2",
      "PixelBandwidth": 2050.0,
      "PixelRepresentation": 0,
      "PixelSpacing": [1.9672131538391, 1.9672131538391],
      "ProtocolName": "dwi_acq-DTI-30-p2-s4",
      "RepetitionTime": 3600.0,
      "Rows": 122,
      "SAR": 0.15948543101435,
      "SamplesPerPixel": 1,
      "ScanOptions": "FS",
      "ScanningSequence": "EP",
      "SequenceVariant": [
        "SK",
        "SP"
],
      "SeriesDescription": "dwi_acq-DTI-30-p2-s4",
      "SeriesNumber": 13,
      "SeriesTime": "112217.267000",
      "SliceThickness": 2.0,
      "SmallestImagePixelValue": 0,
      "SoftwareVersions": "syngo MR E11",
      "SpacingBetweenSlices": 2.0,
      "SpecificCharacterSet": "ISO_IR 100",
      "StudyID": "39",
      "StudyTime": "103632.229000",
      "TransmitCoilName": "Body",
      "VariableFlipAngleFlag": "N",
      "WindowCenterWidthExplanation": "Algo1",
      "dBdt": 0.0},
    "slices": {
      "AcquisitionTime": ["112208.472500", "112205.887500", "112207.677500", "112206.085000", "112207.875000", "112206.285000", "112208.075000", "112206.485000", "112208.275000", "112206.882500", "112208.672500", "112207.080000", "112208.870000", "112207.280000", "112209.070000", "112207.477500", "112209.267500", "112206.682500", "112208.472500", "112205.887500", "112207.677500", "112206.085000", "112207.875000", "112206.285000", "112208.075000", "112206.485000", "112208.275000", "112206.882500", "112208.672500", "112207.080000", "112208.870000", "112207.280000", "112209.070000", "112207.477500", "112209.267500", "112206.682500", "112208.472500", "112205.887500", "112207.677500", "112206.085000", "112207.875000", "112206.285000", "112208.075000", "112206.485000", "112208.275000", "112206.882500", "112208.672500", "112207.080000", "112208.870000", "112207.280000", "112209.070000", "112207.477500", "112209.267500", "112206.682500", "112208.472500", "112205.887500", "112207.677500", "112206.085000", "112207.875000", "112206.285000", "112208.075000", "112206.485000", "112208.275000", "112206.882500", "112208.672500", "112207.080000", "112208.870000", "112207.280000", "112209.070000", "112207.477500", "112209.267500", "112206.682500", "112212.072500", "112209.487500", "112211.277500", "112209.685000", "112211.475000", "112209.885000", "112211.675000", "112210.085000", "112211.875000", "112210.482500", "112212.272500", "112210.680000", "112212.470000", "112210.880000", "112212.670000", "112211.077500", "112212.867500", "112210.282500", "112212.072500", "112209.487500", "112211.277500", "112209.685000", "112211.475000", "112209.885000", "112211.675000", "112210.085000", "112211.875000", "112210.482500", "112212.272500", "112210.680000", "112212.470000", "112210.880000", "112212.670000", "112211.077500", "112212.867500", "112210.282500", "112212.072500", "112209.487500", "112211.277500", "112209.685000", "112211.475000", "112209.885000", "112211.675000", "112210.085000", "112211.875000", "112210.482500", "112212.272500", "112210.680000", "112212.470000", "112210.880000", "112212.670000", "112211.077500", "112212.867500", "112210.282500", "112212.072500", "112209.487500", "112211.277500", "112209.685000", "112211.475000", "112209.885000", "112211.675000", "112210.085000", "112211.875000", "112210.482500", "112212.272500", "112210.680000", "112212.470000", "112210.880000", "112212.670000", "112211.077500", "112212.867500", "112210.282500", "112215.672500", "112213.087500", "112214.877500", "112213.285000", "112215.075000", "112213.485000", "112215.275000", "112213.685000", "112215.475000", "112214.082500", "112215.872500", "112214.280000", "112216.070000", "112214.480000", "112216.270000", "112214.677500", "112216.467500", "112213.882500", "112215.672500", "112213.087500", "112214.877500", "112213.285000", "112215.075000", "112213.485000", "112215.275000", "112213.685000", "112215.475000", "112214.082500", "112215.872500", "112214.280000", "112216.070000", "112214.480000", "112216.270000", "112214.677500", "112216.467500", "112213.882500", "112215.672500", "112213.087500", "112214.877500", "112213.285000", "112215.075000", "112213.485000", "112215.275000", "112213.685000", "112215.475000", "112214.082500", "112215.872500", "112214.280000", "112216.070000", "112214.480000", "112216.270000", "112214.677500", "112216.467500", "112213.882500", "112215.672500", "112213.087500", "112214.877500", "112213.285000", "112215.075000", "112213.485000", "112215.275000", "112213.685000", "112215.475000", "112214.082500", "112215.872500", "112214.280000", "112216.070000", "112214.480000", "112216.270000", "112214.677500", "112216.467500", "112213.882500", "112219.272500", "112216.687500", "112218.477500", "112216.885000", "112218.675000", "112217.085000", "112218.875000", "112217.285000", "112219.075000", "112217.682500", "112219.472500", "112217.880000", "112219.670000", "112218.080000", "112219.870000", "112218.277500", "112220.067500", "112217.482500", "112219.272500", "112216.687500", "112218.477500", "112216.885000", "112218.675000", "112217.085000", "112218.875000", "112217.285000", "112219.075000", "112217.682500", "112219.472500", "112217.880000", "112219.670000", "112218.080000", "112219.870000", "112218.277500", "112220.067500", "112217.482500", "112219.272500", "112216.687500", "112218.477500", "112216.885000", "112218.675000", "112217.085000", "112218.875000", "112217.285000", "112219.075000", "112217.682500", "112219.472500", "112217.880000", "112219.670000", "112218.080000", "112219.870000", "112218.277500", "112220.067500", "112217.482500", "112219.272500", "112216.687500", "112218.477500", "112216.885000", "112218.675000", "112217.085000", "112218.875000", "112217.285000", "112219.075000", "112217.682500", "112219.472500", "112217.880000", "112219.670000", "112218.080000", "112219.870000", "112218.277500", "112220.067500", "112217.482500", "112222.872500", "112220.287500", "112222.077500", "112220.485000", "112222.275000", "112220.685000", "112222.475000", "112220.885000", "112222.675000", "112221.282500", "112223.072500", "112221.480000", "112223.270000", "112221.680000", "112223.470000", "112221.877500", "112223.667500", "112221.082500", "112222.872500", "112220.287500", "112222.077500", "112220.485000", "112222.275000", "112220.685000", "112222.475000", "112220.885000", "112222.675000", "112221.282500", "112223.072500", "112221.480000", "112223.270000", "112221.680000", "112223.470000", "112221.877500", "112223.667500", "112221.082500", "112222.872500", "112220.287500", "112222.077500", "112220.485000", "112222.275000", "112220.685000", "112222.475000", "112220.885000", "112222.675000", "112221.282500", "112223.072500", "112221.480000", "112223.270000", "112221.680000", "112223.470000", "112221.877500", "112223.667500", "112221.082500", "112222.872500", "112220.287500", "112222.077500", "112220.485000", "112222.275000", "112220.685000", "112222.475000", "112220.885000", "112222.675000", "112221.282500", "112223.072500", "112221.480000", "112223.270000", "112221.680000", "112223.470000", "112221.877500", "112223.667500", "112221.082500", "112226.472500", "112223.887500", "112225.677500", "112224.085000", "112225.875000", "112224.285000", "112226.075000", "112224.485000", "112226.275000", "112224.882500", "112226.672500", "112225.080000", "112226.870000", "112225.280000", "112227.070000", "112225.477500", "112227.267500", "112224.682500", "112226.472500", "112223.887500", "112225.677500", "112224.085000", "112225.875000", "112224.285000", "112226.075000", "112224.485000", "112226.275000", "112224.882500", "112226.672500", "112225.080000", "112226.870000", "112225.280000", "112227.070000", "112225.477500", "112227.267500", "112224.682500", "112226.472500", "112223.887500", "112225.677500", "112224.085000", "112225.875000", "112224.285000", "112226.075000", "112224.485000", "112226.275000", "112224.882500", "112226.672500", "112225.080000", "112226.870000", "112225.280000", "112227.070000", "112225.477500", "112227.267500", "112224.682500", "112226.472500", "112223.887500", "112225.677500", "112224.085000", "112225.875000", "112224.285000", "112226.075000", "112224.485000", "112226.275000", "112224.882500", "112226.672500", "112225.080000", "112226.870000", "112225.280000", "112227.070000", "112225.477500", "112227.267500", "112224.682500", "112230.072500", "112227.487500", "112229.277500", "112227.685000", "112229.475000", "112227.885000", "112229.675000", "112228.085000", "112229.875000", "112228.482500", "112230.272500", "112228.680000", "112230.470000", "112228.880000", "112230.670000", "112229.077500", "112230.867500", "112228.282500", "112230.072500", "112227.487500", "112229.277500", "112227.685000", "112229.475000", "112227.885000", "112229.675000", "112228.085000", "112229.875000", "112228.482500", "112230.272500", "112228.680000", "112230.470000", "112228.880000", "112230.670000", "112229.077500", "112230.867500", "112228.282500", "112230.072500", "112227.487500", "112229.277500", "112227.685000", "112229.475000", "112227.885000", "112229.675000", "112228.085000", "112229.875000", "112228.482500", "112230.272500", "112228.680000", "112230.470000", "112228.880000", "112230.670000", "112229.077500", "112230.867500", "112228.282500", "112230.072500", "112227.487500", "112229.277500", "112227.685000", "112229.475000", "112227.885000", "112229.675000", "112228.085000", "112229.875000", "112228.482500", "112230.272500", "112228.680000", "112230.470000", "112228.880000", "112230.670000", "112229.077500", "112230.867500", "112228.282500", "112233.672500", "112231.087500", "112232.877500", "112231.285000", "112233.075000", "112231.485000", "112233.275000", "112231.685000", "112233.475000", "112232.082500", "112233.872500", "112232.280000", "112234.070000", "112232.480000", "112234.270000", "112232.677500", "112234.467500", "112231.882500", "112233.672500", "112231.087500", "112232.877500", "112231.285000", "112233.075000", "112231.485000", "112233.275000", "112231.685000", "112233.475000", "112232.082500", "112233.872500", "112232.280000", "112234.070000", "112232.480000", "112234.270000", "112232.677500", "112234.467500", "112231.882500", "112233.672500", "112231.087500", "112232.877500", "112231.285000", "112233.075000", "112231.485000", "112233.275000", "112231.685000", "112233.475000", "112232.082500", "112233.872500", "112232.280000", "112234.070000", "112232.480000", "112234.270000", "112232.677500", "112234.467500", "112231.882500", "112233.672500", "112231.087500", "112232.877500", "112231.285000", "112233.075000", "112231.485000", "112233.275000", "112231.685000", "112233.475000", "112232.082500", "112233.872500", "112232.280000", "112234.070000", "112232.480000", "112234.270000", "112232.677500", "112234.467500", "112231.882500", "112237.272500", "112234.687500", "112236.477500", "112234.885000", "112236.675000", "112235.085000", "112236.875000", "112235.285000", "112237.075000", "112235.682500", "112237.472500", "112235.880000", "112237.670000", "112236.080000", "112237.870000", "112236.277500", "112238.067500", "112235.482500", "112237.272500", "112234.687500", "112236.477500", "112234.885000", "112236.675000", "112235.085000", "112236.875000", "112235.285000", "112237.075000", "112235.682500", "112237.472500", "112235.880000", "112237.670000", "112236.080000", "112237.870000", "112236.277500", "112238.067500", "112235.482500", "112237.272500", "112234.687500", "112236.477500", "112234.885000", "112236.675000", "112235.085000", "112236.875000", "112235.285000", "112237.075000", "112235.682500", "112237.472500", "112235.880000", "112237.670000", "112236.080000", "112237.870000", "112236.277500", "112238.067500", "112235.482500", "112237.272500", "112234.687500", "112236.477500", "112234.885000", "112236.675000", "112235.085000", "112236.875000", "112235.285000", "112237.075000", "112235.682500", "112237.472500", "112235.880000", "112237.670000", "112236.080000", "112237.870000", "112236.277500", "112238.067500", "112235.482500", "112240.872500", "112238.287500", "112240.077500", "112238.485000", "112240.275000", "112238.685000", "112240.475000", "112238.885000", "112240.675000", "112239.282500", "112241.072500", "112239.480000", "112241.270000", "112239.680000", "112241.470000", "112239.877500", "112241.667500", "112239.082500", "112240.872500", "112238.287500", "112240.077500", "112238.485000", "112240.275000", "112238.685000", "112240.475000", "112238.885000", "112240.675000", "112239.282500", "112241.072500", "112239.480000", "112241.270000", "112239.680000", "112241.470000", "112239.877500", "112241.667500", "112239.082500", "112240.872500", "112238.287500", "112240.077500", "112238.485000", "112240.275000", "112238.685000", "112240.475000", "112238.885000", "112240.675000", "112239.282500", "112241.072500", "112239.480000", "112241.270000", "112239.680000", "112241.470000", "112239.877500", "112241.667500", "112239.082500", "112240.872500", "112238.287500", "112240.077500", "112238.485000", "112240.275000", "112238.685000", "112240.475000", "112238.885000", "112240.675000", "112239.282500", "112241.072500", "112239.480000", "112241.270000", "112239.680000", "112241.470000", "112239.877500", "112241.667500", "112239.082500", "112244.472500", "112241.887500", "112243.677500", "112242.085000", "112243.875000", "112242.285000", "112244.075000", "112242.485000", "112244.275000", "112242.882500", "112244.672500", "112243.080000", "112244.870000", "112243.280000", "112245.070000", "112243.477500", "112245.267500", "112242.682500", "112244.472500", "112241.887500", "112243.677500", "112242.085000", "112243.875000", "112242.285000", "112244.075000", "112242.485000", "112244.275000", "112242.882500", "112244.672500", "112243.080000", "112244.870000", "112243.280000", "112245.070000", "112243.477500", "112245.267500", "112242.682500", "112244.472500", "112241.887500", "112243.677500", "112242.085000", "112243.875000", "112242.285000", "112244.075000", "112242.485000", "112244.275000", "112242.882500", "112244.672500", "112243.080000", "112244.870000", "112243.280000", "112245.070000", "112243.477500", "112245.267500", "112242.682500", "112244.472500", "112241.887500", "112243.677500", "112242.085000", "112243.875000", "112242.285000", "112244.075000", "112242.485000", "112244.275000", "112242.882500", "112244.672500", "112243.080000", "112244.870000", "112243.280000", "112245.070000", "112243.477500", "112245.267500", "112242.682500", "112248.072500", "112245.487500", "112247.277500", "112245.685000", "112247.475000", "112245.885000", "112247.675000", "112246.085000", "112247.875000", "112246.482500", "112248.272500", "112246.680000", "112248.470000", "112246.880000", "112248.670000", "112247.077500", "112248.867500", "112246.282500", "112248.072500", "112245.487500", "112247.277500", "112245.685000", "112247.475000", "112245.885000", "112247.675000", "112246.085000", "112247.875000", "112246.482500", "112248.272500", "112246.680000", "112248.470000", "112246.880000", "112248.670000", "112247.077500", "112248.867500", "112246.282500", "112248.072500", "112245.487500", "112247.277500", "112245.685000", "112247.475000", "112245.885000", "112247.675000", "112246.085000", "112247.875000", "112246.482500", "112248.272500", "112246.680000", "112248.470000", "112246.880000", "112248.670000", "112247.077500", "112248.867500", "112246.282500", "112248.072500", "112245.487500", "112247.277500", "112245.685000", "112247.475000", "112245.885000", "112247.675000", "112246.085000", "112247.875000", "112246.482500", "112248.272500", "112246.680000", "112248.470000", "112246.880000", "112248.670000", "112247.077500", "112248.867500", "112246.282500", "112251.672500", "112249.087500", "112250.877500", "112249.285000", "112251.075000", "112249.485000", "112251.275000", "112249.685000", "112251.475000", "112250.082500", "112251.872500", "112250.280000", "112252.070000", "112250.480000", "112252.270000", "112250.677500", "112252.467500", "112249.882500", "112251.672500", "112249.087500", "112250.877500", "112249.285000", "112251.075000", "112249.485000", "112251.275000", "112249.685000", "112251.475000", "112250.082500", "112251.872500", "112250.280000", "112252.070000", "112250.480000", "112252.270000", "112250.677500", "112252.467500", "112249.882500", "112251.672500", "112249.087500", "112250.877500", "112249.285000", "112251.075000", "112249.485000", "112251.275000", "112249.685000", "112251.475000", "112250.082500", "112251.872500", "112250.280000", "112252.070000", "112250.480000", "112252.270000", "112250.677500", "112252.467500", "112249.882500", "112251.672500", "112249.087500", "112250.877500", "112249.285000", "112251.075000", "112249.485000", "112251.275000", "112249.685000", "112251.475000", "112250.082500", "112251.872500", "112250.280000", "112252.070000", "112250.480000", "112252.270000", "112250.677500", "112252.467500", "112249.882500", "112255.272500", "112252.687500", "112254.477500", "112252.885000", "112254.675000", "112253.085000", "112254.875000", "112253.285000", "112255.075000", "112253.682500", "112255.472500", "112253.880000", "112255.670000", "112254.080000", "112255.870000", "112254.277500", "112256.067500", "112253.482500", "112255.272500", "112252.687500", "112254.477500", "112252.885000", "112254.675000", "112253.085000", "112254.875000", "112253.285000", "112255.075000", "112253.682500", "112255.472500", "112253.880000", "112255.670000", "112254.080000", "112255.870000", "112254.277500", "112256.067500", "112253.482500", "112255.272500", "112252.687500", "112254.477500", "112252.885000", "112254.675000", "112253.085000", "112254.875000", "112253.285000", "112255.075000", "112253.682500", "112255.472500", "112253.880000", "112255.670000", "112254.080000", "112255.870000", "112254.277500", "112256.067500", "112253.482500", "112255.272500", "112252.687500", "112254.477500", "112252.885000", "112254.675000", "112253.085000", "112254.875000", "112253.285000", "112255.075000", "112253.682500", "112255.472500", "112253.880000", "112255.670000", "112254.080000", "112255.870000", "112254.277500", "112256.067500", "112253.482500", "112258.872500", "112256.287500", "112258.077500", "112256.485000", "112258.275000", "112256.685000", "112258.475000", "112256.885000", "112258.675000", "112257.282500", "112259.072500", "112257.480000", "112259.270000", "112257.680000", "112259.470000", "112257.877500", "112259.667500", "112257.082500", "112258.872500", "112256.287500", "112258.077500", "112256.485000", "112258.275000", "112256.685000", "112258.475000", "112256.885000", "112258.675000", "112257.282500", "112259.072500", "112257.480000", "112259.270000", "112257.680000", "112259.470000", "112257.877500", "112259.667500", "112257.082500", "112258.872500", "112256.287500", "112258.077500", "112256.485000", "112258.275000", "112256.685000", "112258.475000", "112256.885000", "112258.675000", "112257.282500", "112259.072500", "112257.480000", "112259.270000", "112257.680000", "112259.470000", "112257.877500", "112259.667500", "112257.082500", "112258.872500", "112256.287500", "112258.077500", "112256.485000", "112258.275000", "112256.685000", "112258.475000", "112256.885000", "112258.675000", "112257.282500", "112259.072500", "112257.480000", "112259.270000", "112257.680000", "112259.470000", "112257.877500", "112259.667500", "112257.082500", "112302.472500", "112259.887500", "112301.677500", "112300.085000", "112301.875000", "112300.285000", "112302.075000", "112300.485000", "112302.275000", "112300.882500", "112302.672500", "112301.080000", "112302.870000", "112301.280000", "112303.070000", "112301.477500", "112303.267500", "112300.682500", "112302.472500", "112259.887500", "112301.677500", "112300.085000", "112301.875000", "112300.285000", "112302.075000", "112300.485000", "112302.275000", "112300.882500", "112302.672500", "112301.080000", "112302.870000", "112301.280000", "112303.070000", "112301.477500", "112303.267500", "112300.682500", "112302.472500", "112259.887500", "112301.677500", "112300.085000", "112301.875000", "112300.285000", "112302.075000", "112300.485000", "112302.275000", "112300.882500", "112302.672500", "112301.080000", "112302.870000", "112301.280000", "112303.070000", "112301.477500", "112303.267500", "112300.682500", "112302.472500", "112259.887500", "112301.677500", "112300.085000", "112301.875000", "112300.285000", "112302.075000", "112300.485000", "112302.275000", "112300.882500", "112302.672500", "112301.080000", "112302.870000", "112301.280000", "112303.070000", "112301.477500", "112303.267500", "112300.682500", "112306.072500", "112303.487500", "112305.277500", "112303.685000", "112305.475000", "112303.885000", "112305.675000", "112304.085000", "112305.875000", "112304.482500", "112306.272500", "112304.680000", "112306.470000", "112304.880000", "112306.670000", "112305.077500", "112306.867500", "112304.282500", "112306.072500", "112303.487500", "112305.277500", "112303.685000", "112305.475000", "112303.885000", "112305.675000", "112304.085000", "112305.875000", "112304.482500", "112306.272500", "112304.680000", "112306.470000", "112304.880000", "112306.670000", "112305.077500", "112306.867500", "112304.282500", "112306.072500", "112303.487500", "112305.277500", "112303.685000", "112305.475000", "112303.885000", "112305.675000", "112304.085000", "112305.875000", "112304.482500", "112306.272500", "112304.680000", "112306.470000", "112304.880000", "112306.670000", "112305.077500", "112306.867500", "112304.282500", "112306.072500", "112303.487500", "112305.277500", "112303.685000", "112305.475000", "112303.885000", "112305.675000", "112304.085000", "112305.875000", "112304.482500", "112306.272500", "112304.680000", "112306.470000", "112304.880000", "112306.670000", "112305.077500", "112306.867500", "112304.282500", "112309.672500", "112307.087500", "112308.877500", "112307.285000", "112309.075000", "112307.485000", "112309.275000", "112307.685000", "112309.475000", "112308.082500", "112309.872500", "112308.280000", "112310.070000", "112308.480000", "112310.270000", "112308.677500", "112310.467500", "112307.882500", "112309.672500", "112307.087500", "112308.877500", "112307.285000", "112309.075000", "112307.485000", "112309.275000", "112307.685000", "112309.475000", "112308.082500", "112309.872500", "112308.280000", "112310.070000", "112308.480000", "112310.270000", "112308.677500", "112310.467500", "112307.882500", "112309.672500", "112307.087500", "112308.877500", "112307.285000", "112309.075000", "112307.485000", "112309.275000", "112307.685000", "112309.475000", "112308.082500", "112309.872500", "112308.280000", "112310.070000", "112308.480000", "112310.270000", "112308.677500", "112310.467500", "112307.882500", "112309.672500", "112307.087500", "112308.877500", "112307.285000", "112309.075000", "112307.485000", "112309.275000", "112307.685000", "112309.475000", "112308.082500", "112309.872500", "112308.280000", "112310.070000", "112308.480000", "112310.270000", "112308.677500", "112310.467500", "112307.882500", "112313.272500", "112310.687500", "112312.477500", "112310.885000", "112312.675000", "112311.085000", "112312.875000", "112311.285000", "112313.075000", "112311.682500", "112313.472500", "112311.880000", "112313.670000", "112312.080000", "112313.870000", "112312.277500", "112314.067500", "112311.482500", "112313.272500", "112310.687500", "112312.477500", "112310.885000", "112312.675000", "112311.085000", "112312.875000", "112311.285000", "112313.075000", "112311.682500", "112313.472500", "112311.880000", "112313.670000", "112312.080000", "112313.870000", "112312.277500", "112314.067500", "112311.482500", "112313.272500", "112310.687500", "112312.477500", "112310.885000", "112312.675000", "112311.085000", "112312.875000", "112311.285000", "112313.075000", "112311.682500", "112313.472500", "112311.880000", "112313.670000", "112312.080000", "112313.870000", "112312.277500", "112314.067500", "112311.482500", "112313.272500", "112310.687500", "112312.477500", "112310.885000", "112312.675000", "112311.085000", "112312.875000", "112311.285000", "112313.075000", "112311.682500", "112313.472500", "112311.880000", "112313.670000", "112312.080000", "112313.870000", "112312.277500", "112314.067500", "112311.482500", "112316.872500", "112314.287500", "112316.077500", "112314.485000", "112316.275000", "112314.685000", "112316.475000", "112314.885000", "112316.675000", "112315.282500", "112317.072500", "112315.480000", "112317.270000", "112315.680000", "112317.470000", "112315.877500", "112317.667500", "112315.082500", "112316.872500", "112314.287500", "112316.077500", "112314.485000", "112316.275000", "112314.685000", "112316.475000", "112314.885000", "112316.675000", "112315.282500", "112317.072500", "112315.480000", "112317.270000", "112315.680000", "112317.470000", "112315.877500", "112317.667500", "112315.082500", "112316.872500", "112314.287500", "112316.077500", "112314.485000", "112316.275000", "112314.685000", "112316.475000", "112314.885000", "112316.675000", "112315.282500", "112317.072500", "112315.480000", "112317.270000", "112315.680000", "112317.470000", "112315.877500", "112317.667500", "112315.082500", "112316.872500", "112314.287500", "112316.077500", "112314.485000", "112316.275000", "112314.685000", "112316.475000", "112314.885000", "112316.675000", "112315.282500", "112317.072500", "112315.480000"