{
  "AcquisitionMatrixPE": 80,
  "AcquisitionNumber": 1,
  "AcquisitionTime": "09:34:28.495000",
  "BandwidthPerPixelPhaseEncode": 25,
  "BaseResolution": 80,
  "BodyPartExamined": "BRAIN",
  "CoilCombinationMethod": "Sum of Squares",
  "ConsistencyInfo": "N4_VE11E_LATEST_20181129",
  "ConversionSoftware": "dcm2niix",
  "ConversionSoftwareVersion": "v1.0.20220720",
  "DerivedVendorReportedEchoSpacing": 0.0005,
  "DeviceSerialNumber": "66112",
  "DwellTime": 2.7e-06,
  "EchoTime": 0.03,
  "EchoTrainLength": 80,
  "EffectiveEchoSpacing": 0.0005,
  "FlipAngle": 10,
  "HeudiconvVersion": "0.13.1",
  "ImageOrientationPatientDICOM": [0.987981, -0.154525, -0.00382928, 0.148007, 0.938586, 0.311689],
  "ImageOrientationText": "Tra>Cor(18.0)>Sag(2.6)",
  "ImageType": [
    "ORIGINAL",
    "PRIMARY",
    "M",
    "ND",
    "NORM",
    "MOSAIC"
],
  "ImagingFrequency": 123.259,
  "InPlanePhaseEncodingDirectionDICOM": "COL",
  "InstitutionAddress": "Maynard 3,Hanover,NH,US,03755",
  "InstitutionName": "Dartmouth College - PBS",
  "InstitutionalDepartmentName": "Department",
  "MRAcquisitionType": "2D",
  "MagneticFieldStrength": 3,
  "Manufacturer": "Siemens",
  "ManufacturersModelName": "Prisma",
  "MatrixCoilMode": "SENSE",
  "Modality": "MR",
  "NonlinearGradientCorrection": false,
  "PartialFourier": 1,
  "PatientPosition": "HFS",
  "PercentPhaseFOV": 100,
  "PercentSampling": 100,
  "PhaseEncodingDirection": "j-",
  "PhaseEncodingSteps": 80,
  "PhaseResolution": 1,
  "PixelBandwidth": 2315,
  "ProcedureStepDescription": "dbic^QA",
  "ProtocolName": "func-bold_fa-10",
  "PulseSequenceDetails": "%SiemensSeq%\\ep2d_bold",
  "ReceiveCoilActiveElements": "HC1-7;NC1,2",
  "ReceiveCoilName": "HeadNeck_64",
  "ReconMatrixPE": 80,
  "RepetitionTime": 2,
  "SAR": 0.0071436,
  "ScanOptions": "FS",
  "ScanningSequence": "EP",
  "SequenceName": "*epfid2d1_80",
  "SequenceVariant": "SK",
  "SeriesDescription": "func-bold_fa-10",
  "SeriesNumber": 9,
  "ShimSetting": [4213, -7719, -7475, -170, -151, -221, -60, 104],
  "SliceThickness": 3.5,
  "SliceTiming": [0.99, 0, 1.055, 0.0675, 1.1225, 0.1325, 1.1875, 0.1975, 1.255, 0.265, 1.32, 0.33, 1.385, 0.3975, 1.4525, 0.4625, 1.5175, 0.5275, 1.585, 0.595, 1.65, 0.66, 1.715, 0.725, 1.7825, 0.7925, 1.8475, 0.8575, 1.915, 0.925],
  "SoftwareVersions": "syngo MR E11",
  "SpacingBetweenSlices": 3.99,
  "StationName": "AWP66112",
  "TotalReadoutTime": 0.0395,
  "TxRefAmp": 221.967,
  "dcmmeta_affine": [
    [-2.963944435119629, 0.4440220296382904, 0.1778327226638794, 101.54999542236328],
    [0.4635748565196991, 2.815758228302002, 1.2309534549713135, -128.72117614746094],
    [-0.011487849056720734, -0.9350667595863342, 3.7912042140960693, -44.07569885253906],
    [0.0, 0.0, 0.0, 1.0]
],
  "dcmmeta_reorient_transform": [
    [0.0, -1.0, 0.0, 79.0],
    [1.0, 0.0, 0.0, 0.0],
    [0.0, 0.0, 1.0, 0.0],
    [0.0, 0.0, 0.0, 1.0]
],
  "dcmmeta_shape": [80, 80, 30, 200],
  "dcmmeta_slice_dim": 2,
  "dcmmeta_version": 0.6,
  "global": {
    "const": {
      "AccessionNumber": "qa64",
      "AcquisitionMatrix": [80, 0, 0, 80],
      "AngioFlag": "N",
      "BitsAllocated": 16,
      "BitsStored": 12,
      "BodyPartExamined": "BRAIN",
      "Columns": 480,
      "EchoNumbers": 1,
      "EchoTime": 30.0,
      "EchoTrainLength": 80,
      "FlipAngle": 10.0,
      "HighBit": 11,
      "ImageOrientationPatient": [0.98798146590872, -0.1545249481861, -0.0038292830851, 0.14800734276533, 0.93858608625769, 0.31168892372207],
      "ImagePositionPatient": [-818.22102272685, -564.16041188574, -302.66175650523],
      "ImageType": [
        "ORIGINAL",
        "PRIMARY",
        "M",
        "ND",
        "NORM",
        "MOSAIC"
],
      "ImagedNucleus": "1H",
      "ImagingFrequency": 123.259345,
      "InPlanePhaseEncodingDirection": "COL",
      "MRAcquisitionType": "2D",
      "MagneticFieldStrength": 3.0,
      "Manufacturer": "SIEMENS",
      "ManufacturerModelName": "Prisma",
      "Modality": "MR",
      "NumberOfAverages": 1.0,
      "NumberOfPhaseEncodingSteps": 80,
      "PercentPhaseFieldOfView": 100.0,
      "PercentSampling": 100.0,
      "PerformedProcedureStepStartTime": "091815.241000",
      "PhotometricInterpretation": "MONOCHROME2",
      "PixelBandwidth": 2315.0,
      "PixelRepresentation": 0,
      "PixelSpacing": [3.0, 3.0],
      "ProtocolName": "func-bold_fa-10",
      "RepetitionTime": 2000.0,
      "Rows": 480,
      "SAR": 0.00714359964133,
      "SamplesPerPixel": 1,
      "ScanOptions": "FS",
      "ScanningSequence": "EP",
      "SequenceName": "*epfid2d1_80",
      "SequenceVariant": "SK",
      "SeriesDescription": "func-bold_fa-10",
      "SeriesNumber": 9,
      "SeriesTime": "093525.390000",
      "SliceLocation": -77.065371046999,
      "SliceThickness": 3.5,
      "SmallestImagePixelValue": 0,
      "SoftwareVersions": "syngo MR E11",
      "SpacingBetweenSlices": 3.9900001053295,
      "SpecificCharacterSet": "ISO_IR 100",
      "StudyID": "4",
      "StudyTime": "091815.153000",
      "TransmitCoilName": "Body",
      "VariableFlipAngleFlag": "N",
      "WindowCenterWidthExplanation": "Algo1"
    },
    "slices": {}
  },
  "time": {
    "samples": {
      "AcquisitionNumber": [1, 2, 3, 4, 5, 6, 7, 8, 9, 10, 11, 12, 13, 14, 15, 16, 17, 18, 19, 20, 21, 22, 23, 24, 25, 26, 27, 28, 29, 30, 31, 32, 33, 34, 35, 36, 37, 38, 39, 40, 41, 42, 43, 44, 45, 46, 47, 48, 49, 50, 51, 52, 53, 54, 55, 56, 57, 58, 59, 60, 61, 62, 63, 64, 65, 66, 67, 68, 69, 70, 71, 72, 73, 74, 75, 76, 77, 78, 79, 80, 81, 82, 83, 84, 85, 86, 87, 88, 89, 90, 91, 92, 93, 94, 95, 96, 97, 98, 99, 100, 101, 102, 103, 104, 105, 106, 107, 108, 109, 110, 111, 112, 113, 114, 115, 116, 117, 118, 119, 120, 121, 122, 123, 124, 125, 126, 127, 128, 129, 130, 131, 132, 133, 134, 135, 136, 137, 138, 139, 140, 141, 142, 143, 144, 145, 146, 147, 148, 149, 150, 151, 152, 153, 154, 155, 156, 157, 158, 159, 160, 161, 162, 163, 164, 165, 166, 167, 168, 169, 170, 171, 172, 173, 174, 175, 176, 177, 178, 179, 180, 181, 182, 183, 184, 185, 186, 187, 188, 189, 190, 191, 192, 193, 194, 195, 196, 197, 198, 199, 200],
      "AcquisitionTime": ["093428.495000", "093430.495000", "093432.495000", "093434.495000", "093436.495000", "093438.495000", "093440.495000", "093442.495000", "093444.495000", "093446.495000", "093448.495000", "093450.495000", "093452.495000", "093454.495000", "093456.495000", "093458.495000", "093500.495000", "093502.495000", "093504.495000", "093506.495000", "093508.495000", "093510.495000", "093512.495000", "093514.495000", "093516.495000", "093518.495000", "093520.495000", "093522.495000", "093524.495000", "093526.495000", "093528.495000", "093530.495000", "093532.495000", "093534.495000", "093536.495000", "093538.495000", "093540.495000", "093542.495000", "093544.495000", "093546.495000", "093548.495000", "093550.495000", "093552.495000", "093554.495000", "093556.495000", "093558.495000", "093600.495000", "093602.495000", "093604.495000", "093606.495000", "093608.495000", "093610.495000", "093612.495000", "093614.495000", "093616.495000", "093618.495000", "093620.495000", "093622.495000", "093624.495000", "093626.495000", "093628.495000", "093630.495000", "093632.495000", "093634.495000", "093636.495000", "093638.495000", "093640.495000", "093642.495000", "093644.495000", "093646.495000", "093648.495000", "093650.495000", "093652.495000", "093654.495000", "093656.495000", "093658.495000", "093700.495000", "093702.495000", "093704.495000", "093706.495000", "093708.495000", "093710.495000", "093712.495000", "093714.495000", "093716.495000", "093718.495000", "093720.495000", "093722.495000", "093724.495000", "093726.495000", "093728.495000", "093730.495000", "093732.495000", "093734.495000", "093736.495000", "093738.495000", "093740.495000", "093742.495000", "093744.495000", "093746.495000", "093748.495000", "093750.495000", "093752.495000", "093754.495000", "093756.495000", "093758.495000", "093800.495000", "093802.495000", "093804.495000", "093806.495000", "093808.495000", "093810.495000", "093812.495000", "093814.495000", "093816.495000", "093818.495000", "093820.495000", "093822.495000", "093824.495000", "093826.495000", "093828.495000", "093830.495000", "093832.495000", "093834.495000", "093836.495000", "093838.495000", "093840.495000", "093842.495000", "093844.495000", "093846.495000", "093848.495000", "093850.495000", "093852.495000", "093854.495000", "093856.495000", "093858.495000", "093900.495000", "093902.495000", "093904.495000", "093906.495000", "093908.495000", "093910.495000", "093912.495000", "093914.495000", "093916.495000", "093918.495000", "093920.495000", "093922.495000", "093924.495000", "093926.495000", "093928.495000", "093930.495000", "093932.495000", "093934.495000", "093936.495000", "093938.495000", "093940.495000", "093942.495000", "093944.495000", "093946.495000", "093948.495000", "093950.495000", "093952.495000", "093954.495000", "093956.495000", "093958.495000", "094000.495000", "094002.495000", "094004.495000", "094006.495000", "094008.495000", "094010.495000", "094012.495000", "094014.495000", "094016.495000", "094018.495000", "094020.495000", "094022.495000", "094024.495000", "094026.495000", "094028.495000", "094030.495000", "094032.495000", "094034.495000", "094036.495000", "094038.495000", "094040.495000", "094042.495000", "094044.495000", "094046.495000", "094048.495000", "094050.495000", "094052.495000", "094054.495000", "094056.495000", "094058.495000", "094100.495000", "094102.495000", "094104.495000", "094106.495000"],
      "ContentTime": ["093525.394000", "093525.397000", "093525.399000", "093525.401000", "093525.404000", "093525.406000", "093525.408000", "093525.411000", "093525.413000", "093525.415000", "093525.418000", "093525.420000", "093525.422000", "093525.425000", "093525.427000", "093525.429000", "093525.431000", "093525.434000", "093525.436000", "093525.438000", "093525.441000", "093525.449000", "093525.452000", "093525.454000", "093525.456000", "093525.459000", "093525.461000", "093525.463000", "093545.389000", "093545.392000", "093545.394000", "093545.396000", "093545.399000", "093545.401000", "093545.404000", "093545.406000", "093545.409000", "093545.411000", "093625.388000", "093625.391000", "093625.393000", "093625.396000", "093625.398000", "093625.400000", "093625.402000", "093625.410000", "093625.413000", "093625.415000", "093625.417000", "093625.420000", "093625.422000", "093625.424000", "093625.426000", "093625.429000", "093625.431000", "093625.433000", "093625.436000", "093625.438000", "093705.388000", "093705.391000", "093705.393000", "093705.396000", "093705.398000", "093705.400000", "093705.402000", "093705.405000", "093705.407000", "093705.409000", "093705.412000", "093705.414000", "093705.416000", "093705.419000", "093705.427000", "093705.429000", "093705.431000", "093705.434000", "093705.436000", "093705.438000", "093745.389000", "093745.392000", "093745.394000", "093745.396000", "093745.399000", "093745.401000", "093745.403000", "093745.406000", "093745.408000", "093745.410000", "093745.412000", "093745.415000", "093745.417000", "093745.419000", "093745.422000", "093745.424000", "093745.426000", "093745.429000", "093745.431000", "093745.433000", "093825.388000", "093825.391000", "093825.393000", "093825.396000", "093825.398000", "093825.400000", "093825.402000", "093825.405000", "093825.407000", "093825.409000", "093825.412000", "093825.414000", "093825.416000", "093825.418000", "093825.421000", "093825.423000", "093825.425000", "093825.428000", "093825.430000", "093825.432000", "093905.388000", "093905.391000", "093905.393000", "093905.395000", "093905.398000", "093905.400000", "093905.402000", "093905.405000", "093905.407000", "093905.409000", "093905.411000", "093905.414000", "093905.416000", "093905.418000", "093905.421000", "093905.423000", "093905.425000", "093905.428000", "093905.430000", "093905.432000", "093945.388000", "093945.391000", "093945.393000", "093945.395000", "093945.398000", "093945.400000", "093945.402000", "093945.405000", "093945.407000", "093945.409000", "093945.411000", "093945.414000", "093945.416000", "093945.418000", "093945.420000", "093945.423000", "093945.425000", "093945.427000", "093945.430000", "093945.432000", "094025.388000", "094025.391000", "094025.393000", "094025.395000", "094025.398000", "094025.400000", "094025.402000", "094025.404000", "094025.407000", "094025.409000", "094025.411000", "094025.414000", "094025.416000", "094025.418000", "094025.421000", "094025.423000", "094025.425000", "094025.427000", "094025.430000", "094025.432000", "094105.388000", "094105.391000", "094105.393000", "094105.396000", "094105.398000", "094105.400000", "094105.402000", "094105.405000", "094105.407000", "094105.409000", "094105.412000", "094105.414000", "094105.416000", "094105.419000", "094105.421000", "094105.423000", "094105.426000", "094105.428000", "094105.430000", "094105.432000", "094107.556000", "094107.559000"],
      "InstanceCreationTime": ["093525.394000", "093525.397000", "093525.399000", "093525.401000", "093525.404000", "093525.406000", "093525.408000", "093525.411000", "093525.413000", "093525.415000", "093525.418000", "093525.420000", "093525.422000", "093525.425000", "093525.427000", "093525.429000", "093525.431000", "093525.434000", "093525.436000", "093525.438000", "093525.441000", "093525.449000", "093525.452000", "093525.454000", "093525.456000", "093525.459000", "093525.461000", "093525.463000", "093545.389000", "093545.392000", "093545.394000", "093545.396000", "093545.399000", "093545.401000", "093545.404000", "093545.406000", "093545.409000", "093545.411000", "093625.388000", "093625.391000", "093625.393000", "093625.396000", "093625.398000", "093625.400000", "093625.402000", "093625.410000", "093625.413000", "093625.415000", "093625.417000", "093625.420000", "093625.422000", "093625.424000", "093625.426000", "093625.429000", "093625.431000", "093625.433000", "093625.436000", "093625.438000", "093705.388000", "093705.391000", "093705.393000", "093705.396000", "093705.398000", "093705.400000", "093705.402000", "093705.405000", "093705.407000", "093705.409000", "093705.412000", "093705.414000", "093705.416000", "093705.419000", "093705.427000", "093705.429000", "093705.431000", "093705.434000", "093705.436000", "093705.438000", "093745.389000", "093745.392000", "093745.394000", "093745.396000", "093745.399000", "093745.401000", "093745.403000", "093745.406000", "093745.408000", "093745.410000", "093745.412000", "093745.415000", "093745.417000", "093745.419000", "093745.422000", "093745.424000", "093745.426000", "093745.429000", "093745.431000", "093745.433000", "093825.388000", "093825.391000", "093825.393000", "093825.396000", "093825.398000", "093825.400000", "093825.402000", "093825.405000", "093825.407000", "093825.409000", "093825.412000", "093825.414000", "093825.416000", "093825.418000", "093825.421000", "093825.423000", "093825.425000", "093825.428000", "093825.430000", "093825.432000", "093905.388000", "093905.391000", "093905.393000", "093905.395000", "093905.398000", "093905.400000", "093905.402000", "093905.405000", "093905.407000", "093905.409000", "093905.411000", "093905.414000", "093905.416000", "093905.418000", "093905.421000", "093905.423000", "093905.425000", "093905.428000", "093905.430000", "093905.432000", "093945.388000", "093945.391000", "093945.393000", "093945.395000", "093945.398000", "093945.400000", "093945.402000", "093945.405000", "093945.407000", "093945.409000", "093945.411000", "093945.414000", "093945.416000", "093945.418000", "093945.420000", "093945.423000", "093945.425000", "093945.427000", "093945.430000", "093945.432000", "094025.388000", "094025.391000", "094025.393000", "094025.395000", "094025.398000", "094025.400000", "094025.402000", "094025.404000", "094025.407000", "094025.409000", "094025.411000", "094025.414000", "094025.416000", "094025.418000", "094025.421000", "094025.423000", "094025.425000", "094025.427000", "094025.430000", "094025.432000", "094105.388000", "094105.391000", "094105.393000", "094105.396000", "094105.398000", "094105.400000", "094105.402000", "094105.405000", "094105.407000", "094105.409000", "094105.412000", "094105.414000", "094105.416000", "094105.419000", "094105.421000", "094105.423000", "094105.426000", "094105.428000", "094105.430000", "094105.432000", "094107.556000", "094107.559000"],
      "InstanceNumber": [1, 2, 3, 4, 5, 6, 7, 8, 9, 10, 11, 12, 13, 14, 15, 16, 17, 18, 19, 20, 21, 22, 23, 24, 25, 26, 27, 28, 29, 30, 31, 32, 33, 34, 35, 36, 37, 38, 39, 40, 41, 42, 43, 44, 45, 46, 47, 48, 49, 50, 51, 52, 53, 54, 55, 56, 57, 58, 59, 60, 61, 62, 63, 64, 65, 66, 67, 68, 69, 70, 71, 72, 73, 74, 75, 76, 77, 78, 79, 80, 81, 82, 83, 84, 85, 86, 87, 88, 89, 90, 91, 92, 93, 94, 95, 96, 97, 98, 99, 100, 101, 102, 103, 104, 105, 106, 107, 108, 109, 110, 111, 112, 113, 114, 115, 116, 117, 118, 119, 120, 121, 122, 123, 124, 125, 126, 127, 128, 129, 130, 131, 132, 133, 134, 135, 136, 137, 138, 139, 140, 141, 142, 143, 144, 145, 146, 147, 148, 149, 150, 151, 152, 153, 154, 155, 156, 157, 158, 159, 160, 161, 162, 163, 164, 165, 166, 167, 168, 169, 170, 171, 172, 173, 174, 175, 176, 177, 178, 179, 180, 181, 182, 183, 184, 185, 186, 187, 188, 189, 190, 191, 192, 193, 194, 195, 196, 197, 198, 199, 200],
      "LargestImagePixelValue": [642, 649, 645, 646, 647, 648, 645, 642, 644, 647, 642, 643, 639, 643, 645, 648, 644, 642, 644, 645, 646, 647, 648, 644, 644, 648, 646, 646, 645, 650, 646, 644, 649, 645, 643, 647, 643, 643, 644, 649, 645, 649, 650, 650, 645, 646, 650, 645, 649, 648, 647, 646, 649, 650, 652, 648, 654, 646, 646, 653, 648, 648, 651, 650, 646, 646, 646, 648, 646, 647, 647, 646, 647, 645, 646, 645, 651, 650, 648, 650, 647, 646, 648, 647, 646, 647, 649, 648, 647, 650, 647, 645, 648, 648, 649, 647, 649, 649, 647, 649, 651, 651, 649, 647, 645, 647, 649, 646, 648, 652, 650, 649, 646, 650, 646, 648, 650, 647, 646, 649, 652, 646, 643, 650, 652, 651, 647, 645, 647, 648, 648, 646, 648, 650, 647, 645, 646, 645, 650, 648, 652, 647, 648, 650, 645, 644, 647, 647, 643, 643, 647, 649, 646, 649, 649, 647, 647, 647, 649, 645, 648, 647, 645, 647, 646, 645, 649, 649, 647, 647, 648, 650, 645, 650, 648, 647, 645, 649, 650, 651, 651, 650, 647, 644, 650, 647, 649, 645, 648, 651, 646, 652, 648, 649, 646, 648, 645, 651, 647, 650],
      "WindowCenter": [452.0, 452.0, 452.0, 452.0, 452.0, 452.0, 452.0, 452.0, 452.0, 452.0, 452.0, 452.0, 452.0, 452.0, 452.0, 452.0, 452.0, 452.0, 452.0, 452.0, 452.0, 452.0, 452.0, 452.0, 452.0, 452.0, 452.0, 452.0, 452.0, 453.0, 452.0, 452.0, 452.0, 452.0, 452.0, 452.0, 452.0, 452.0, 452.0, 452.0, 452.0, 452.0, 452.0, 453.0, 452.0, 452.0, 452.0, 452.0, 452.0, 452.0, 452.0, 452.0, 452.0, 452.0, 452.0, 452.0, 452.0, 452.0, 452.0, 452.0, 452.0, 452.0, 452.0, 452.0, 452.0, 451.0, 452.0, 452.0, 452.0, 452.0, 452.0, 452.0, 452.0, 452.0, 452.0, 452.0, 452.0, 452.0, 452.0, 452.0, 452.0, 452.0, 452.0, 452.0, 451.0, 452.0, 452.0, 452.0, 452.0, 452.0, 452.0, 452.0, 451.0, 451.0, 452.0, 452.0, 452.0, 452.0, 452.0, 451.0, 452.0, 452.0, 452.0, 452.0, 452.0, 452.0, 452.0, 452.0, 452.0, 452.0, 452.0, 452.0, 451.0, 452.0, 452.0, 451.0, 452.0, 452.0, 452.0, 452.0, 452.0, 451.0, 451.0, 452.0, 452.0, 452.0, 451.0, 452.0, 452.0, 451.0, 452.0, 451.0, 452.0, 452.0, 452.0, 451.0, 451.0, 452.0, 452.0, 451.0, 452.0, 452.0, 451.0, 452.0, 452.0, 451.0, 451.0, 451.0, 451.0, 451.0, 451.0, 452.0, 451.0, 451.0, 451.0, 451.0, 451.0, 451.0, 452.0, 451.0, 451.0, 451.0, 451.0, 451.0, 451.0, 451.0, 451.0, 451.0, 451.0, 451.0, 451.0, 452.0, 451.0, 451.0, 451.0, 451.0, 451.0, 451.0, 452.0, 451.0, 451.0, 452.0, 451.0, 451.0, 451.0, 451.0, 451.0, 451.0, 451.0, 451.0, 451.0, 451.0, 451.0, 451.0, 451.0, 451.0, 451.0, 451.0, 451.0, 451.0],
      "WindowWidth": [939.0, 939.0, 940.0, 939.0, 939.0, 939.0, 940.0, 939.0, 939.0, 940.0, 939.0, 939.0, 939.0, 939.0, 939.0, 939.0, 940.0, 939.0, 939.0, 939.0, 939.0, 939.0, 940.0, 939.0, 939.0, 939.0, 940.0, 939.0, 939.0, 940.0, 939.0, 939.0, 939.0, 939.0, 939.0, 939.0, 939.0, 939.0, 939.0, 939.0, 939.0, 939.0, 940.0, 940.0, 939.0, 939.0, 940.0, 939.0, 939.0, 939.0, 939.0, 939.0, 939.0, 940.0, 939.0, 939.0, 940.0, 939.0, 939.0, 939.0, 939.0, 939.0, 939.0, 940.0, 939.0, 938.0, 939.0, 939.0, 939.0, 939.0, 939.0, 939.0, 939.0, 939.0, 939.0, 939.0, 939.0, 939.0, 939.0, 939.0, 939.0, 939.0, 939.0, 939.0, 938.0, 939.0, 939.0, 939.0, 939.0, 939.0, 939.0, 939.0, 938.0, 938.0, 939.0, 939.0, 939.0, 939.0, 939.0, 938.0, 939.0, 939.0, 938.0, 939.0, 939.0, 938.0, 938.0, 939.0, 938.0, 939.0, 939.0, 939.0, 938.0, 939.0, 939.0, 938.0, 939.0, 939.0, 938.0, 938.0, 939.0, 938.0, 938.0, 939.0, 939.0, 938.0, 938.0, 938.0, 938.0, 938.0, 938.0, 938.0, 938.0, 939.0, 938.0, 938.0, 938.0, 938.0, 939.0, 938.0, 938.0, 938.0, 938.0, 939.0, 938.0, 938.0, 938.0, 938.0, 938.0, 937.0, 938.0, 938.0, 938.0, 938.0, 938.0, 938.0, 937.0, 938.0, 938.0, 937.0, 937.0, 938.0, 937.0, 937.0, 938.0, 937.0, 937.0, 937.0, 938.0, 937.0, 937.0, 939.0, 937.0, 938.0, 937.0, 937.0, 937.0, 937.0, 938.0, 938.0, 938.0, 938.0, 937.0, 937.0, 938.0, 937.0, 937.0, 937.0, 937.0, 938.0, 937.0, 938.0, 937.0, 937.0, 937.0, 937.0, 937.0, 938.0, 937.0, 938.0]
    },
    "slices": {}
  }
}