{
  "AcquisitionMatrixPE": 80,
  "AcquisitionNumber": 1,
  "AcquisitionTime": "09:27:41.510000",
  "BandwidthPerPixelPhaseEncode": 25,
  "BaseResolution": 80,
  "BodyPartExamined": "BRAIN",
  "CoilCombinationMethod": "Sum of Squares",
  "ConsistencyInfo": "N4_VE11E_LATEST_20181129",
  "ConversionSoftware": "dcm2niix",
  "ConversionSoftwareVersion": "v1.0.20220720",
  "DerivedVendorReportedEchoSpacing": 0.0005,
  "DeviceSerialNumber": "66112",
  "DwellTime": 2.7e-06,
  "EchoTime": 0.03,
  "EchoTrainLength": 80,
  "EffectiveEchoSpacing": 0.0005,
  "FlipAngle": 77,
  "HeudiconvVersion": "0.13.1",
  "ImageOrientationPatientDICOM": [0.987981, -0.154525, -0.00382928, 0.148007, 0.938586, 0.311689],
  "ImageOrientationText": "Tra>Cor(18.0)>Sag(2.6)",
  "ImageType": [
    "ORIGINAL",
    "PRIMARY",
    "M",
    "ND",
    "NORM",
    "MOSAIC"
],
  "ImagingFrequency": 123.259,
  "InPlanePhaseEncodingDirectionDICOM": "COL",
  "InstitutionAddress": "Maynard 3,Hanover,NH,US,03755",
  "InstitutionName": "Dartmouth College - PBS",
  "InstitutionalDepartmentName": "Department",
  "MRAcquisitionType": "2D",
  "MagneticFieldStrength": 3,
  "Manufacturer": "Siemens",
  "ManufacturersModelName": "Prisma",
  "MatrixCoilMode": "SENSE",
  "Modality": "MR",
  "NonlinearGradientCorrection": false,
  "PartialFourier": 1,
  "PatientPosition": "HFS",
  "PercentPhaseFOV": 100,
  "PercentSampling": 100,
  "PhaseEncodingDirection": "j-",
  "PhaseEncodingSteps": 80,
  "PhaseResolution": 1,
  "PixelBandwidth": 2315,
  "ProcedureStepDescription": "dbic^QA",
  "ProtocolName": "func-bold_fa-77",
  "PulseSequenceDetails": "%SiemensSeq%\\ep2d_bold",
  "ReceiveCoilActiveElements": "HC1-7;NC1,2",
  "ReceiveCoilName": "HeadNeck_64",
  "ReconMatrixPE": 80,
  "RepetitionTime": 2,
  "SAR": 0.0266305,
  "ScanOptions": "FS",
  "ScanningSequence": "EP",
  "SequenceName": "*epfid2d1_80",
  "SequenceVariant": "SK",
  "SeriesDescription": "func-bold_fa-77",
  "SeriesNumber": 7,
  "ShimSetting": [4213, -7719, -7475, -170, -151, -221, -60, 104],
  "SliceThickness": 3.5,
  "SliceTiming": [0.99, 0, 1.055, 0.065, 1.1225, 0.1325, 1.1875, 0.1975, 1.255, 0.265, 1.32, 0.33, 1.385, 0.395, 1.4525, 0.4625, 1.5175, 0.5275, 1.585, 0.595, 1.65, 0.66, 1.715, 0.725, 1.7825, 0.7925, 1.8475, 0.8575, 1.915, 0.925],
  "SoftwareVersions": "syngo MR E11",
  "SpacingBetweenSlices": 3.99,
  "StationName": "AWP66112",
  "TotalReadoutTime": 0.0395,
  "TxRefAmp": 221.967,
  "dcmmeta_affine": [
    [-2.963944435119629, 0.4440220296382904, 0.1778327226638794, 101.54999542236328],
    [0.4635748565196991, 2.815758228302002, 1.2309534549713135, -128.72117614746094],
    [-0.011487849056720734, -0.9350667595863342, 3.7912042140960693, -44.07569885253906],
    [0.0, 0.0, 0.0, 1.0]
],
  "dcmmeta_reorient_transform": [
    [0.0, -1.0, 0.0, 79.0],
    [1.0, 0.0, 0.0, 0.0],
    [0.0, 0.0, 1.0, 0.0],
    [0.0, 0.0, 0.0, 1.0]
],
  "dcmmeta_shape": [80, 80, 30, 200],
  "dcmmeta_slice_dim": 2,
  "dcmmeta_version": 0.6,
  "global": {
    "const": {
      "AccessionNumber": "qa64",
      "AcquisitionMatrix": [80, 0, 0, 80],
      "AngioFlag": "N",
      "BitsAllocated": 16,
      "BitsStored": 12,
      "BodyPartExamined": "BRAIN",
      "Columns": 480,
      "EchoNumbers": 1,
      "EchoTime": 30.0,
      "EchoTrainLength": 80,
      "FlipAngle": 77.0,
      "HighBit": 11,
      "ImageOrientationPatient": [0.98798146590872, -0.1545249481861, -0.0038292830851, 0.14800734276533, 0.93858608625769, 0.31168892372207],
      "ImagePositionPatient": [-818.22102272685, -564.16041188574, -302.66175650523],
      "ImageType": [
        "ORIGINAL",
        "PRIMARY",
        "M",
        "ND",
        "NORM",
        "MOSAIC"
],
      "ImagedNucleus": "1H",
      "ImagingFrequency": 123.259344,
      "InPlanePhaseEncodingDirection": "COL",
      "MRAcquisitionType": "2D",
      "MagneticFieldStrength": 3.0,
      "Manufacturer": "SIEMENS",
      "ManufacturerModelName": "Prisma",
      "Modality": "MR",
      "NumberOfAverages": 1.0,
      "NumberOfPhaseEncodingSteps": 80,
      "PercentPhaseFieldOfView": 100.0,
      "PercentSampling": 100.0,
      "PerformedProcedureStepStartTime": "091815.241000",
      "PhotometricInterpretation": "MONOCHROME2",
      "PixelBandwidth": 2315.0,
      "PixelRepresentation": 0,
      "PixelSpacing": [3.0, 3.0],
      "ProtocolName": "func-bold_fa-77",
      "RepetitionTime": 2000.0,
      "Rows": 480,
      "SAR": 0.02663047176741,
      "SamplesPerPixel": 1,
      "ScanOptions": "FS",
      "ScanningSequence": "EP",
      "SequenceName": "*epfid2d1_80",
      "SequenceVariant": "SK",
      "SeriesDescription": "func-bold_fa-77",
      "SeriesNumber": 7,
      "SeriesTime": "092825.562000",
      "SliceLocation": -77.065371046999,
      "SliceThickness": 3.5,
      "SmallestImagePixelValue": 0,
      "SoftwareVersions": "syngo MR E11",
      "SpacingBetweenSlices": 3.9900001053295,
      "SpecificCharacterSet": "ISO_IR 100",
      "StudyID": "4",
      "StudyTime": "091815.153000",
      "TransmitCoilName": "Body",
      "VariableFlipAngleFlag": "N",
      "WindowCenterWidthExplanation": "Algo1"
    },
    "slices": {}
  },
  "time": {
    "samples": {
      "AcquisitionNumber": [1, 2, 3, 4, 5, 6, 7, 8, 9, 10, 11, 12, 13, 14, 15, 16, 17, 18, 19, 20, 21, 22, 23, 24, 25, 26, 27, 28, 29, 30, 31, 32, 33, 34, 35, 36, 37, 38, 39, 40, 41, 42, 43, 44, 45, 46, 47, 48, 49, 50, 51, 52, 53, 54, 55, 56, 57, 58, 59, 60, 61, 62, 63, 64, 65, 66, 67, 68, 69, 70, 71, 72, 73, 74, 75, 76, 77, 78, 79, 80, 81, 82, 83, 84, 85, 86, 87, 88, 89, 90, 91, 92, 93, 94, 95, 96, 97, 98, 99, 100, 101, 102, 103, 104, 105, 106, 107, 108, 109, 110, 111, 112, 113, 114, 115, 116, 117, 118, 119, 120, 121, 122, 123, 124, 125, 126, 127, 128, 129, 130, 131, 132, 133, 134, 135, 136, 137, 138, 139, 140, 141, 142, 143, 144, 145, 146, 147, 148, 149, 150, 151, 152, 153, 154, 155, 156, 157, 158, 159, 160, 161, 162, 163, 164, 165, 166, 167, 168, 169, 170, 171, 172, 173, 174, 175, 176, 177, 178, 179, 180, 181, 182, 183, 184, 185, 186, 187, 188, 189, 190, 191, 192, 193, 194, 195, 196, 197, 198, 199, 200],
      "AcquisitionTime": ["092741.510000", "092743.510000", "092745.510000", "092747.510000", "092749.510000", "092751.510000", "092753.510000", "092755.510000", "092757.510000", "092759.510000", "092801.510000", "092803.510000", "092805.510000", "092807.510000", "092809.510000", "092811.510000", "092813.510000", "092815.510000", "092817.510000", "092819.510000", "092821.510000", "092823.510000", "092825.510000", "092827.510000", "092829.510000", "092831.510000", "092833.510000", "092835.510000", "092837.510000", "092839.510000", "092841.510000", "092843.510000", "092845.510000", "092847.510000", "092849.510000", "092851.510000", "092853.510000", "092855.510000", "092857.510000", "092859.510000", "092901.510000", "092903.510000", "092905.510000", "092907.510000", "092909.510000", "092911.510000", "092913.510000", "092915.510000", "092917.510000", "092919.510000", "092921.510000", "092923.510000", "092925.510000", "092927.510000", "092929.510000", "092931.510000", "092933.510000", "092935.510000", "092937.510000", "092939.510000", "092941.510000", "092943.510000", "092945.510000", "092947.510000", "092949.510000", "092951.510000", "092953.510000", "092955.510000", "092957.510000", "092959.510000", "093001.510000", "093003.510000", "093005.510000", "093007.510000", "093009.510000", "093011.510000", "093013.510000", "093015.510000", "093017.510000", "093019.510000", "093021.510000", "093023.510000", "093025.510000", "093027.510000", "093029.510000", "093031.510000", "093033.510000", "093035.510000", "093037.510000", "093039.510000", "093041.510000", "093043.510000", "093045.510000", "093047.510000", "093049.510000", "093051.510000", "093053.510000", "093055.510000", "093057.510000", "093059.510000", "093101.510000", "093103.510000", "093105.510000", "093107.510000", "093109.510000", "093111.510000", "093113.510000", "093115.510000", "093117.510000", "093119.510000", "093121.510000", "093123.510000", "093125.510000", "093127.510000", "093129.510000", "093131.510000", "093133.510000", "093135.510000", "093137.510000", "093139.510000", "093141.510000", "093143.510000", "093145.510000", "093147.510000", "093149.510000", "093151.510000", "093153.510000", "093155.510000", "093157.510000", "093159.510000", "093201.510000", "093203.510000", "093205.510000", "093207.510000", "093209.510000", "093211.510000", "093213.510000", "093215.510000", "093217.510000", "093219.510000", "093221.510000", "093223.510000", "093225.510000", "093227.510000", "093229.510000", "093231.510000", "093233.510000", "093235.510000", "093237.510000", "093239.510000", "093241.510000", "093243.510000", "093245.510000", "093247.510000", "093249.510000", "093251.510000", "093253.510000", "093255.510000", "093257.510000", "093259.510000", "093301.510000", "093303.510000", "093305.510000", "093307.510000", "093309.510000", "093311.510000", "093313.510000", "093315.510000", "093317.510000", "093319.510000", "093321.510000", "093323.510000", "093325.510000", "093327.510000", "093329.510000", "093331.510000", "093333.510000", "093335.510000", "093337.510000", "093339.510000", "093341.510000", "093343.510000", "093345.510000", "093347.510000", "093349.510000", "093351.510000", "093353.510000", "093355.510000", "093357.510000", "093359.510000", "093401.510000", "093403.510000", "093405.510000", "093407.510000", "093409.510000", "093411.510000", "093413.510000", "093415.510000", "093417.510000", "093419.510000"],
      "ContentTime": ["092825.565000", "092825.569000", "092825.571000", "092825.574000", "092825.585000", "092825.588000", "092825.590000", "092825.592000", "092825.595000", "092825.597000", "092825.599000", "092825.602000", "092825.604000", "092825.607000", "092825.609000", "092825.611000", "092825.618000", "092825.620000", "092825.623000", "092825.625000", "092825.627000", "092825.630000", "092905.559000", "092905.562000", "092905.564000", "092905.567000", "092905.569000", "092905.571000", "092905.574000", "092905.576000", "092905.579000", "092905.581000", "092905.584000", "092905.586000", "092905.589000", "092905.591000", "092905.593000", "092905.596000", "092905.598000", "092905.600000", "092905.603000", "092905.605000", "092945.559000", "092945.562000", "092945.564000", "092945.567000", "092945.569000", "092945.571000", "092945.574000", "092945.576000", "092945.579000", "092945.581000", "092945.583000", "092945.586000", "092945.588000", "092945.591000", "092945.593000", "092945.595000", "092945.598000", "092945.600000", "092945.602000", "092945.605000", "093025.559000", "093025.562000", "093025.564000", "093025.567000", "093025.569000", "093025.571000", "093025.574000", "093025.576000", "093025.579000", "093025.581000", "093025.583000", "093025.586000", "093025.588000", "093025.591000", "093025.593000", "093025.595000", "093025.598000", "093025.600000", "093025.603000", "093025.605000", "093105.560000", "093105.563000", "093105.565000", "093105.568000", "093105.570000", "093105.573000", "093105.575000", "093105.578000", "093105.580000", "093105.582000", "093105.585000", "093105.587000", "093105.590000", "093105.592000", "093105.594000", "093105.597000", "093105.599000", "093105.602000", "093105.604000", "093105.606000", "093145.559000", "093145.562000", "093145.564000", "093145.567000", "093145.569000", "093145.571000", "093145.574000", "093145.576000", "093145.579000", "093145.581000", "093145.583000", "093145.586000", "093145.588000", "093145.591000", "093145.593000", "093145.595000", "093145.598000", "093145.600000", "093145.602000", "093145.605000", "093225.559000", "093225.562000", "093225.564000", "093225.567000", "093225.569000", "093225.571000", "093225.574000", "093225.577000", "093225.579000", "093225.581000", "093225.584000", "093225.586000", "093225.589000", "093225.591000", "093225.593000", "093225.596000", "093225.598000", "093225.600000", "093225.603000", "093225.605000", "093305.560000", "093305.563000", "093305.565000", "093305.568000", "093305.570000", "093305.572000", "093305.575000", "093305.577000", "093305.580000", "093305.582000", "093305.584000", "093305.587000", "093305.589000", "093305.616000", "093305.618000", "093305.621000", "093305.623000", "093305.625000", "093305.628000", "093305.630000", "093345.559000", "093345.562000", "093345.564000", "093345.567000", "093345.569000", "093345.571000", "093345.574000", "093345.576000", "093345.578000", "093345.581000", "093345.583000", "093345.586000", "093345.588000", "093345.590000", "093345.593000", "093345.595000", "093345.598000", "093345.600000", "093345.602000", "093345.605000", "093420.975000", "093420.978000", "093420.980000", "093420.983000", "093420.985000", "093420.988000", "093420.990000", "093420.992000", "093420.995000", "093420.997000", "093421.001000", "093421.003000", "093421.010000", "093421.013000", "093421.016000", "093421.019000", "093421.021000", "093421.024000"],
      "InstanceCreationTime": ["092825.565000", "092825.569000", "092825.571000", "092825.574000", "092825.585000", "092825.588000", "092825.590000", "092825.592000", "092825.595000", "092825.597000", "092825.599000", "092825.602000", "092825.604000", "092825.607000", "092825.609000", "092825.611000", "092825.618000", "092825.620000", "092825.623000", "092825.625000", "092825.627000", "092825.630000", "092905.559000", "092905.562000", "092905.564000", "092905.567000", "092905.569000", "092905.571000", "092905.574000", "092905.576000", "092905.579000", "092905.581000", "092905.584000", "092905.586000", "092905.589000", "092905.591000", "092905.593000", "092905.596000", "092905.598000", "092905.600000", "092905.603000", "092905.605000", "092945.559000", "092945.562000", "092945.564000", "092945.567000", "092945.569000", "092945.571000", "092945.574000", "092945.576000", "092945.579000", "092945.581000", "092945.583000", "092945.586000", "092945.588000", "092945.591000", "092945.593000", "092945.595000", "092945.598000", "092945.600000", "092945.602000", "092945.605000", "093025.559000", "093025.562000", "093025.564000", "093025.567000", "093025.569000", "093025.571000", "093025.574000", "093025.576000", "093025.579000", "093025.581000", "093025.583000", "093025.586000", "093025.588000", "093025.591000", "093025.593000", "093025.595000", "093025.598000", "093025.600000", "093025.603000", "093025.605000", "093105.560000", "093105.563000", "093105.565000", "093105.568000", "093105.570000", "093105.573000", "093105.575000", "093105.578000", "093105.580000", "093105.582000", "093105.585000", "093105.587000", "093105.590000", "093105.592000", "093105.594000", "093105.597000", "093105.599000", "093105.602000", "093105.604000", "093105.606000", "093145.559000", "093145.562000", "093145.564000", "093145.567000", "093145.569000", "093145.571000", "093145.574000", "093145.576000", "093145.579000", "093145.581000", "093145.583000", "093145.586000", "093145.588000", "093145.591000", "093145.593000", "093145.595000", "093145.598000", "093145.600000", "093145.602000", "093145.605000", "093225.559000", "093225.562000", "093225.564000", "093225.567000", "093225.569000", "093225.571000", "093225.574000", "093225.577000", "093225.579000", "093225.581000", "093225.584000", "093225.586000", "093225.589000", "093225.591000", "093225.593000", "093225.596000", "093225.598000", "093225.600000", "093225.603000", "093225.605000", "093305.560000", "093305.563000", "093305.565000", "093305.568000", "093305.570000", "093305.572000", "093305.575000", "093305.577000", "093305.580000", "093305.582000", "093305.584000", "093305.587000", "093305.589000", "093305.616000", "093305.618000", "093305.621000", "093305.623000", "093305.625000", "093305.628000", "093305.630000", "093345.559000", "093345.562000", "093345.564000", "093345.567000", "093345.569000", "093345.571000", "093345.574000", "093345.576000", "093345.578000", "093345.581000", "093345.583000", "093345.586000", "093345.588000", "093345.590000", "093345.593000", "093345.595000", "093345.598000", "093345.600000", "093345.602000", "093345.605000", "093420.975000", "093420.978000", "093420.980000", "093420.983000", "093420.985000", "093420.988000", "093420.990000", "093420.992000", "093420.995000", "093420.997000", "093421.001000", "093421.003000", "093421.010000", "093421.013000", "093421.016000", "093421.019000", "093421.021000", "093421.024000"],
      "InstanceNumber": [1, 2, 3, 4, 5, 6, 7, 8, 9, 10, 11, 12, 13, 14, 15, 16, 17, 18, 19, 20, 21, 22, 23, 24, 25, 26, 27, 28, 29, 30, 31, 32, 33, 34, 35, 36, 37, 38, 39, 40, 41, 42, 43, 44, 45, 46, 47, 48, 49, 50, 51, 52, 53, 54, 55, 56, 57, 58, 59, 60, 61, 62, 63, 64, 65, 66, 67, 68, 69, 70, 71, 72, 73, 74, 75, 76, 77, 78, 79, 80, 81, 82, 83, 84, 85, 86, 87, 88, 89, 90, 91, 92, 93, 94, 95, 96, 97, 98, 99, 100, 101, 102, 103, 104, 105, 106, 107, 108, 109, 110, 111, 112, 113, 114, 115, 116, 117, 118, 119, 120, 121, 122, 123, 124, 125, 126, 127, 128, 129, 130, 131, 132, 133, 134, 135, 136, 137, 138, 139, 140, 141, 142, 143, 144, 145, 146, 147, 148, 149, 150, 151, 152, 153, 154, 155, 156, 157, 158, 159, 160, 161, 162, 163, 164, 165, 166, 167, 168, 169, 170, 171, 172, 173, 174, 175, 176, 177, 178, 179, 180, 181, 182, 183, 184, 185, 186, 187, 188, 189, 190, 191, 192, 193, 194, 195, 196, 197, 198, 199, 200],
      "LargestImagePixelValue": [3756, 3760, 3759, 3762, 3761, 3759, 3764, 3762, 3760, 3761, 3761, 3761, 3758, 3758, 3762, 3760, 3759, 3760, 3765, 3763, 3761, 3758, 3767, 3762, 3758, 3761, 3766, 3764, 3762, 3760, 3762, 3764, 3765, 3759, 3762, 3762, 3764, 3764, 3765, 3764, 3759, 3766, 3763, 3766, 3761, 3767, 3763, 3762, 3766, 3761, 3766, 3766, 3770, 3762, 3765, 3766, 3768, 3762, 3761, 3767, 3761, 3763, 3763, 3763, 3761, 3766, 3765, 3765, 3766, 3763, 3768, 3766, 3768, 3768, 3762, 3765, 3767, 3766, 3763, 3764, 3764, 3765, 3761, 3761, 3762, 3761, 3760, 3763, 3763, 3765, 3765, 3763, 3763, 3762, 3758, 3763, 3763, 3767, 3764, 3765, 3766, 3766, 3770, 3765, 3763, 3764, 3768, 3764, 3764, 3768, 3763, 3767, 3765, 3763, 3763, 3763, 3763, 3762, 3764, 3764, 3766, 3758, 3766, 3765, 3761, 3762, 3760, 3766, 3765, 3764, 3762, 3760, 3767, 3764, 3766, 3771, 3763, 3763, 3762, 3764, 3766, 3765, 3761, 3766, 3762, 3761, 3766, 3763, 3763, 3763, 3765, 3766, 3765, 3767, 3762, 3762, 3764, 3759, 3766, 3763, 3763, 3765, 3765, 3768, 3769, 3763, 3764, 3764, 3764, 3764, 3764, 3761, 3767, 3766, 3761, 3761, 3762, 3760, 3757, 3757, 3759, 3754, 3758, 3751, 3748, 3750, 3749, 3758, 3759, 3754, 3760, 3759, 3763, 3759, 3758, 3750, 3748, 3740, 3740, 3739],
      "WindowCenter": [1365.0, 1364.0, 1365.0, 1365.0, 1364.0, 1364.0, 1364.0, 1364.0, 1364.0, 1364.0, 1364.0, 1364.0, 1364.0, 1364.0, 1364.0, 1364.0, 1364.0, 1364.0, 1363.0, 1363.0, 1364.0, 1363.0, 1364.0, 1363.0, 1363.0, 1364.0, 1363.0, 1363.0, 1363.0, 1363.0, 1363.0, 1363.0, 1363.0, 1363.0, 1363.0, 1363.0, 1363.0, 1364.0, 1363.0, 1363.0, 1363.0, 1363.0, 1363.0, 1363.0, 1363.0, 1363.0, 1363.0, 1363.0, 1363.0, 1363.0, 1363.0, 1363.0, 1363.0, 1363.0, 1363.0, 1363.0, 1363.0, 1363.0, 1363.0, 1363.0, 1363.0, 1363.0, 1363.0, 1363.0, 1363.0, 1363.0, 1362.0, 1363.0, 1362.0, 1363.0, 1363.0, 1362.0, 1362.0, 1363.0, 1362.0, 1363.0, 1363.0, 1362.0, 1362.0, 1363.0, 1362.0, 1362.0, 1362.0, 1362.0, 1362.0, 1363.0, 1363.0, 1362.0, 1362.0, 1363.0, 1363.0, 1362.0, 1361.0, 1363.0, 1362.0, 1362.0, 1362.0, 1362.0, 1362.0, 1362.0, 1362.0, 1362.0, 1363.0, 1362.0, 1363.0, 1363.0, 1362.0, 1362.0, 1362.0, 1362.0, 1362.0, 1362.0, 1362.0, 1363.0, 1362.0, 1362.0, 1362.0, 1362.0, 1362.0, 1362.0, 1362.0, 1362.0, 1361.0, 1361.0, 1361.0, 1361.0, 1362.0, 1362.0, 1362.0, 1362.0, 1362.0, 1362.0, 1361.0, 1362.0, 1362.0, 1361.0, 1362.0, 1361.0, 1362.0, 1361.0, 1362.0, 1362.0, 1361.0, 1362.0, 1361.0, 1362.0, 1361.0, 1361.0, 1361.0, 1361.0, 1361.0, 1361.0, 1361.0, 1361.0, 1360.0, 1361.0, 1361.0, 1361.0, 1361.0, 1361.0, 1361.0, 1361.0, 1361.0, 1361.0, 1361.0, 1361.0, 1361.0, 1361.0, 1360.0, 1361.0, 1361.0, 1360.0, 1360.0, 1360.0, 1361.0, 1360.0, 1360.0, 1360.0, 1361.0, 1360.0, 1360.0, 1360.0, 1360.0, 1360.0, 1361.0, 1360.0, 1360.0, 1361.0, 1360.0, 1360.0, 1361.0, 1361.0, 1360.0, 1360.0, 1361.0, 1361.0, 1360.0, 1360.0, 1361.0, 1361.0],
      "WindowWidth": [3255.0, 3255.0, 3255.0, 3255.0, 3255.0, 3254.0, 3255.0, 3254.0, 3254.0, 3254.0, 3254.0, 3254.0, 3254.0, 3254.0, 3254.0, 3254.0, 3254.0, 3254.0, 3254.0, 3254.0, 3254.0, 3254.0, 3254.0, 3254.0, 3254.0, 3254.0, 3254.0, 3254.0, 3254.0, 3254.0, 3254.0, 3254.0, 3254.0, 3254.0, 3254.0, 3253.0, 3254.0, 3254.0, 3254.0, 3254.0, 3254.0, 3254.0, 3254.0, 3254.0, 3253.0, 3253.0, 3253.0, 3253.0, 3253.0, 3253.0, 3253.0, 3253.0, 3253.0, 3254.0, 3254.0, 3253.0, 3253.0, 3253.0, 3253.0, 3253.0, 3253.0, 3253.0, 3253.0, 3253.0, 3253.0, 3253.0, 3253.0, 3253.0, 3253.0, 3253.0, 3253.0, 3253.0, 3253.0, 3253.0, 3253.0, 3253.0, 3253.0, 3253.0, 3253.0, 3253.0, 3253.0, 3253.0, 3253.0, 3253.0, 3253.0, 3253.0, 3253.0, 3253.0, 3253.0, 3253.0, 3253.0, 3253.0, 3253.0, 3253.0, 3253.0, 3253.0, 3253.0, 3253.0, 3253.0, 3253.0, 3253.0, 3253.0, 3252.0, 3252.0, 3252.0, 3252.0, 3252.0, 3252.0, 3252.0, 3252.0, 3252.0, 3252.0, 3252.0, 3252.0, 3252.0, 3252.0, 3252.0, 3252.0, 3252.0, 3252.0, 3252.0, 3252.0, 3252.0, 3252.0, 3252.0, 3252.0, 3252.0, 3252.0, 3252.0, 3252.0, 3252.0, 3252.0, 3252.0, 3252.0, 3252.0, 3252.0, 3252.0, 3252.0, 3252.0, 3252.0, 3252.0, 3252.0, 3252.0, 3252.0, 3252.0, 3252.0, 3251.0, 3252.0, 3252.0, 3251.0, 3251.0, 3251.0, 3252.0, 3252.0, 3252.0, 3252.0, 3251.0, 3251.0, 3251.0, 3251.0, 3251.0, 3251.0, 3251.0, 3251.0, 3251.0, 3251.0, 3251.0, 3251.0, 3251.0, 3251.0, 3251.0, 3251.0, 3251.0, 3251.0, 3251.0, 3251.0, 3251.0, 3251.0, 3251.0, 3251.0, 3251.0, 3251.0, 3251.0, 3251.0, 3251.0, 3251.0, 3251.0, 3251.0, 3251.0, 3251.0, 3251.0, 3251.0, 3251.0, 3251.0, 3251.0, 3251.0, 3251.0, 3251.0, 3251.0, 3251.0]
    },
    "slices": {}
  }
}