{
  "AcquisitionMatrixPE": 80,
  "AcquisitionNumber": 1,
  "AcquisitionTime": "10:12:10.492500",
  "BandwidthPerPixelPhaseEncode": 48.077,
  "BaseResolution": 80,
  "BodyPartExamined": "BRAIN",
  "CoilCombinationMethod": "Sum of Squares",
  "ConsistencyInfo": "N4_VE11C_LATEST_20160120",
  "ConversionSoftware": "dcm2niix",
  "ConversionSoftwareVersion": "v1.0.20220720",
  "DerivedVendorReportedEchoSpacing": 0.000519999,
  "DeviceSerialNumber": "66112",
  "DwellTime": 2.7e-06,
  "EchoTime": 0.035,
  "EchoTrainLength": 39,
  "EffectiveEchoSpacing": 0.00026,
  "FlipAngle": 90,
  "HeudiconvVersion": "0.13.1",
  "ImageOrientationPatientDICOM": [0.986075, 0.165974, 0.0104574, -0.160946, 0.936587, 0.311289],
  "ImageOrientationText": "Tra>Cor(18.0)>Sag(-2.4)",
  "ImageType": [
    "ORIGINAL",
    "PRIMARY",
    "M",
    "ND",
    "NORM",
    "MOSAIC"
],
  "ImagingFrequency": 123.252,
  "InPlanePhaseEncodingDirectionDICOM": "COL",
  "InstitutionAddress": "Maynard 3,Hanover,NH,US,03755",
  "InstitutionName": "Dartmouth College - PBS",
  "InstitutionalDepartmentName": "Department",
  "MRAcquisitionType": "2D",
  "MagneticFieldStrength": 3,
  "Manufacturer": "Siemens",
  "ManufacturersModelName": "Prisma",
  "MatrixCoilMode": "GRAPPA",
  "Modality": "MR",
  "NonlinearGradientCorrection": false,
  "ParallelReductionFactorInPlane": 2,
  "PartialFourier": 1,
  "PatientPosition": "HFS",
  "PercentPhaseFOV": 100,
  "PercentSampling": 100,
  "PhaseEncodingDirection": "j-",
  "PhaseEncodingSteps": 79,
  "PhaseResolution": 1,
  "PixelBandwidth": 2315,
  "ProcedureStepDescription": "dbic^QA",
  "ProtocolName": "func-bold_task-rest_acq-p2",
  "PulseSequenceDetails": "%SiemensSeq%\\ep2d_bold",
  "ReceiveCoilActiveElements": "HEA;HEP",
  "ReceiveCoilName": "Head_32",
  "ReconMatrixPE": 80,
  "RefLinesPE": 24,
  "RepetitionTime": 2,
  "SAR": 0.05545,
  "ScanOptions": "FS",
  "ScanningSequence": "EP",
  "SequenceName": "*epfid2d1_80",
  "SequenceVariant": "SK",
  "SeriesDescription": "func-bold_task-rest_acq-p2",
  "SeriesNumber": 5,
  "ShimSetting": [4142, -7694, -7520, 301, -45, -69, -33, 69],
  "SliceThickness": 3.5,
  "SliceTiming": [0.99, 0, 1.055, 0.065, 1.1225, 0.1325, 1.1875, 0.1975, 1.255, 0.265, 1.32, 0.33, 1.385, 0.395, 1.4525, 0.4625, 1.5175, 0.5275, 1.585, 0.595, 1.65, 0.66, 1.715, 0.725, 1.7825, 0.7925, 1.8475, 0.8575, 1.915, 0.925],
  "SoftwareVersions": "syngo MR E11",
  "SpacingBetweenSlices": 3.99,
  "StationName": "AWP66112",
  "TaskName": "rest",
  "TotalReadoutTime": 0.02054,
  "TxRefAmp": 220.322,
  "dcmmeta_affine": [
    [-2.958224058151245, -0.48283737897872925, -0.16706818342208862, 142.68179321289062],
    [-0.4979225695133209, 2.8097615242004395, 1.2314633131027222, -105.0719985961914],
    [0.03137211874127388, -0.9338674545288086, 3.7915284633636475, -22.60852813720703],
    [0.0, 0.0, 0.0, 1.0]
],
  "dcmmeta_reorient_transform": [
    [0.0, -1.0, 0.0, 79.0],
    [1.0, 0.0, 0.0, 0.0],
    [0.0, 0.0, 1.0, 0.0],
    [0.0, 0.0, 0.0, 1.0]
],
  "dcmmeta_shape": [80, 80, 30, 200],
  "dcmmeta_slice_dim": 2,
  "dcmmeta_version": 0.6,
  "global": {
    "const": {
      "AccessionNumber": "qa",
      "AcquisitionMatrix": [80, 0, 0, 80],
      "AngioFlag": "N",
      "BitsAllocated": 16,
      "BitsStored": 12,
      "BodyPartExamined": "BRAIN",
      "Columns": 480,
      "EchoNumbers": 1,
      "EchoTime": 35.0,
      "EchoTrainLength": 39,
      "FlipAngle": 90.0,
      "HighBit": 11,
      "ImageOrientationPatient": [0.98607464740375, 0.16597419406917, 0.01045737302902, -0.1609457933454, 0.93658716345516, 0.31128915312847],
      "ImagePositionPatient": [-599.61495738663, -778.43597619987, -289.43197393105],
      "ImageType": [
        "ORIGINAL",
        "PRIMARY",
        "M",
        "ND",
        "NORM",
        "MOSAIC"
],
      "ImagedNucleus": "1H",
      "ImagingFrequency": 123.252353,
      "InPlanePhaseEncodingDirection": "COL",
      "MRAcquisitionType": "2D",
      "MagneticFieldStrength": 3.0,
      "Manufacturer": "SIEMENS",
      "ManufacturerModelName": "Prisma",
      "Modality": "MR",
      "NumberOfAverages": 1.0,
      "NumberOfPhaseEncodingSteps": 79,
      "PercentPhaseFieldOfView": 100.0,
      "PercentSampling": 100.0,
      "PerformedProcedureStepStartTime": "100811.067000",
      "PhotometricInterpretation": "MONOCHROME2",
      "PixelBandwidth": 2315.0,
      "PixelRepresentation": 0,
      "PixelSpacing": [3.0, 3.0],
      "ProtocolName": "func-bold_task-rest_acq-p2",
      "RepetitionTime": 2000.0,
      "Rows": 480,
      "SAR": 0.05545001988279,
      "SamplesPerPixel": 1,
      "ScanOptions": "FS",
      "ScanningSequence": "EP",
      "SequenceName": "*epfid2d1_80",
      "SequenceVariant": "SK",
      "SeriesDescription": "func-bold_task-rest_acq-p2",
      "SeriesNumber": 5,
      "SeriesTime": "101257.493000",
      "SliceLocation": -59.887410786056,
      "SliceThickness": 3.5,
      "SmallestImagePixelValue": 0,
      "SoftwareVersions": "syngo MR E11",
      "SpacingBetweenSlices": 3.9900001204856,
      "SpecificCharacterSet": "ISO_IR 100",
      "StudyID": "35",
      "StudyTime": "100811.025000",
      "TransmitCoilName": "Body",
      "VariableFlipAngleFlag": "N",
      "WindowCenterWidthExplanation": "Algo1",
      "dBdt": 0.0},
    "slices": {}
  },
  "time": {
    "samples": {
      "AcquisitionNumber": [1, 2, 3, 4, 5, 6, 7, 8, 9, 10, 11, 12, 13, 14, 15, 16, 17, 18, 19, 20, 21, 22, 23, 24, 25, 26, 27, 28, 29, 30, 31, 32, 33, 34, 35, 36, 37, 38, 39, 40, 41, 42, 43, 44, 45, 46, 47, 48, 49, 50, 51, 52, 53, 54, 55, 56, 57, 58, 59, 60, 61, 62, 63, 64, 65, 66, 67, 68, 69, 70, 71, 72, 73, 74, 75, 76, 77, 78, 79, 80, 81, 82, 83, 84, 85, 86, 87, 88, 89, 90, 91, 92, 93, 94, 95, 96, 97, 98, 99, 100, 101, 102, 103, 104, 105, 106, 107, 108, 109, 110, 111, 112, 113, 114, 115, 116, 117, 118, 119, 120, 121, 122, 123, 124, 125, 126, 127, 128, 129, 130, 131, 132, 133, 134, 135, 136, 137, 138, 139, 140, 141, 142, 143, 144, 145, 146, 147, 148, 149, 150, 151, 152, 153, 154, 155, 156, 157, 158, 159, 160, 161, 162, 163, 164, 165, 166, 167, 168, 169, 170, 171, 172, 173, 174, 175, 176, 177, 178, 179, 180, 181, 182, 183, 184, 185, 186, 187, 188, 189, 190, 191, 192, 193, 194, 195, 196, 197, 198, 199, 200],
      "AcquisitionTime": ["101210.492500", "101212.492500", "101214.492500", "101216.492500", "101218.492500", "101220.492500", "101222.492500", "101224.492500", "101226.492500", "101228.492500", "101230.492500", "101232.492500", "101234.492500", "101236.492500", "101238.492500", "101240.492500", "101242.492500", "101244.492500", "101246.492500", "101248.492500", "101250.492500", "101252.492500", "101254.492500", "101256.492500", "101258.492500", "101300.492500", "101302.492500", "101304.492500", "101306.492500", "101308.492500", "101310.492500", "101312.492500", "101314.492500", "101316.492500", "101318.492500", "101320.492500", "101322.492500", "101324.492500", "101326.492500", "101328.492500", "101330.492500", "101332.492500", "101334.492500", "101336.492500", "101338.492500", "101340.492500", "101342.492500", "101344.492500", "101346.492500", "101348.492500", "101350.492500", "101352.492500", "101354.492500", "101356.492500", "101358.492500", "101400.492500", "101402.492500", "101404.492500", "101406.492500", "101408.492500", "101410.492500", "101412.492500", "101414.492500", "101416.492500", "101418.492500", "101420.492500", "101422.492500", "101424.492500", "101426.492500", "101428.492500", "101430.492500", "101432.492500", "101434.492500", "101436.492500", "101438.492500", "101440.492500", "101442.492500", "101444.492500", "101446.492500", "101448.492500", "101450.492500", "101452.492500", "101454.492500", "101456.492500", "101458.492500", "101500.492500", "101502.492500", "101504.492500", "101506.492500", "101508.492500", "101510.492500", "101512.492500", "101514.492500", "101516.492500", "101518.492500", "101520.492500", "101522.492500", "101524.492500", "101526.492500", "101528.492500", "101530.492500", "101532.492500", "101534.492500", "101536.492500", "101538.492500", "101540.492500", "101542.492500", "101544.492500", "101546.492500", "101548.492500", "101550.492500", "101552.492500", "101554.492500", "101556.492500", "101558.492500", "101600.492500", "101602.492500", "101604.492500", "101606.492500", "101608.492500", "101610.492500", "101612.492500", "101614.492500", "101616.492500", "101618.492500", "101620.492500", "101622.492500", "101624.492500", "101626.492500", "101628.492500", "101630.492500", "101632.492500", "101634.492500", "101636.492500", "101638.492500", "101640.492500", "101642.492500", "101644.492500", "101646.492500", "101648.492500", "101650.492500", "101652.492500", "101654.492500", "101656.492500", "101658.492500", "101700.492500", "101702.492500", "101704.492500", "101706.492500", "101708.492500", "101710.492500", "101712.492500", "101714.492500", "101716.492500", "101718.492500", "101720.492500", "101722.492500", "101724.492500", "101726.492500", "101728.492500", "101730.492500", "101732.492500", "101734.492500", "101736.492500", "101738.492500", "101740.492500", "101742.492500", "101744.492500", "101746.492500", "101748.492500", "101750.492500", "101752.492500", "101754.492500", "101756.492500", "101758.492500", "101800.492500", "101802.492500", "101804.492500", "101806.492500", "101808.492500", "101810.492500", "101812.492500", "101814.492500", "101816.492500", "101818.492500", "101820.492500", "101822.492500", "101824.492500", "101826.492500", "101828.492500", "101830.492500", "101832.492500", "101834.492500", "101836.492500", "101838.492500", "101840.492500", "101842.492500", "101844.492500", "101846.492500", "101848.492500"],
      "ContentTime": ["101257.496000", "101257.500000", "101257.502000", "101257.505000", "101257.507000", "101257.510000", "101257.512000", "101257.515000", "101257.517000", "101257.529000", "101257.531000", "101257.534000", "101257.536000", "101257.539000", "101257.541000", "101257.544000", "101257.546000", "101257.549000", "101257.551000", "101257.554000", "101257.556000", "101257.559000", "101257.561000", "101337.491000", "101337.494000", "101337.497000", "101337.499000", "101337.502000", "101337.504000", "101337.507000", "101337.509000", "101337.512000", "101337.515000", "101337.517000", "101337.520000", "101337.522000", "101337.525000", "101337.527000", "101337.530000", "101337.532000", "101337.535000", "101337.537000", "101337.540000", "101417.490000", "101417.493000", "101417.496000", "101417.498000", "101417.501000", "101417.503000", "101417.506000", "101417.515000", "101417.517000", "101417.520000", "101417.523000", "101417.525000", "101417.528000", "101417.530000", "101417.533000", "101417.535000", "101417.538000", "101417.540000", "101417.543000", "101417.545000", "101457.491000", "101457.494000", "101457.497000", "101457.499000", "101457.502000", "101457.504000", "101457.507000", "101457.509000", "101457.512000", "101457.514000", "101457.517000", "101457.519000", "101457.522000", "101457.524000", "101457.527000", "101457.529000", "101457.532000", "101457.535000", "101457.537000", "101457.540000", "101537.493000", "101537.496000", "101537.498000", "101537.501000", "101537.504000", "101537.506000", "101537.509000", "101537.511000", "101537.514000", "101537.516000", "101537.519000", "101537.521000", "101537.524000", "101537.526000", "101537.529000", "101537.531000", "101537.534000", "101537.536000", "101537.539000", "101537.541000", "101617.490000", "101617.493000", "101617.496000", "101617.499000", "101617.501000", "101617.504000", "101617.519000", "101617.521000", "101617.524000", "101617.526000", "101617.529000", "101617.531000", "101617.534000", "101617.536000", "101617.539000", "101617.542000", "101617.544000", "101617.547000", "101617.549000", "101617.552000", "101657.490000", "101657.493000", "101657.496000", "101657.498000", "101657.501000", "101657.503000", "101657.506000", "101657.508000", "101657.511000", "101657.514000", "101657.521000", "101657.524000", "101657.527000", "101657.529000", "101657.532000", "101657.534000", "101657.537000", "101657.539000", "101657.542000", "101657.544000", "101737.491000", "101737.494000", "101737.497000", "101737.499000", "101737.502000", "101737.504000", "101737.507000", "101737.510000", "101737.512000", "101737.515000", "101737.517000", "101737.520000", "101737.522000", "101737.525000", "101737.527000", "101737.530000", "101737.532000", "101737.535000", "101737.537000", "101737.540000", "101817.491000", "101817.494000", "101817.497000", "101817.499000", "101817.502000", "101817.504000", "101817.507000", "101817.510000", "101817.512000", "101817.515000", "101817.517000", "101817.520000", "101817.522000", "101817.525000", "101817.527000", "101817.530000", "101817.532000", "101817.535000", "101817.537000", "101817.540000", "101850.076000", "101850.079000", "101850.081000", "101850.084000", "101850.087000", "101850.089000", "101850.092000", "101850.094000", "101850.097000", "101850.099000", "101850.102000", "101850.112000", "101850.116000", "101850.119000", "101850.123000", "101850.126000", "101850.131000"],
      "InstanceCreationTime": ["101257.496000", "101257.500000", "101257.502000", "101257.505000", "101257.507000", "101257.510000", "101257.512000", "101257.515000", "101257.517000", "101257.529000", "101257.531000", "101257.534000", "101257.536000", "101257.539000", "101257.541000", "101257.544000", "101257.546000", "101257.549000", "101257.551000", "101257.554000", "101257.556000", "101257.559000", "101257.561000", "101337.491000", "101337.494000", "101337.497000", "101337.499000", "101337.502000", "101337.504000", "101337.507000", "101337.509000", "101337.512000", "101337.515000", "101337.517000", "101337.520000", "101337.522000", "101337.525000", "101337.527000", "101337.530000", "101337.532000", "101337.535000", "101337.537000", "101337.540000", "101417.490000", "101417.493000", "101417.496000", "101417.498000", "101417.501000", "101417.503000", "101417.506000", "101417.515000", "101417.517000", "101417.520000", "101417.523000", "101417.525000", "101417.528000", "101417.530000", "101417.533000", "101417.535000", "101417.538000", "101417.540000", "101417.543000", "101417.545000", "101457.491000", "101457.494000", "101457.497000", "101457.499000", "101457.502000", "101457.504000", "101457.507000", "101457.509000", "101457.512000", "101457.514000", "101457.517000", "101457.519000", "101457.522000", "101457.524000", "101457.527000", "101457.529000", "101457.532000", "101457.535000", "101457.537000", "101457.540000", "101537.493000", "101537.496000", "101537.498000", "101537.501000", "101537.504000", "101537.506000", "101537.509000", "101537.511000", "101537.514000", "101537.516000", "101537.519000", "101537.521000", "101537.524000", "101537.526000", "101537.529000", "101537.531000", "101537.534000", "101537.536000", "101537.539000", "101537.541000", "101617.490000", "101617.493000", "101617.496000", "101617.499000", "101617.501000", "101617.504000", "101617.519000", "101617.521000", "101617.524000", "101617.526000", "101617.529000", "101617.531000", "101617.534000", "101617.536000", "101617.539000", "101617.542000", "101617.544000", "101617.547000", "101617.549000", "101617.552000", "101657.490000", "101657.493000", "101657.496000", "101657.498000", "101657.501000", "101657.503000", "101657.506000", "101657.508000", "101657.511000", "101657.514000", "101657.521000", "101657.524000", "101657.527000", "101657.529000", "101657.532000", "101657.534000", "101657.537000", "101657.539000", "101657.542000", "101657.544000", "101737.491000", "101737.494000", "101737.497000", "101737.499000", "101737.502000", "101737.504000", "101737.507000", "101737.510000", "101737.512000", "101737.515000", "101737.517000", "101737.520000", "101737.522000", "101737.525000", "101737.527000", "101737.530000", "101737.532000", "101737.535000", "101737.537000", "101737.540000", "101817.491000", "101817.494000", "101817.497000", "101817.499000", "101817.502000", "101817.504000", "101817.507000", "101817.510000", "101817.512000", "101817.515000", "101817.517000", "101817.520000", "101817.522000", "101817.525000", "101817.527000", "101817.530000", "101817.532000", "101817.535000", "101817.537000", "101817.540000", "101850.076000", "101850.079000", "101850.081000", "101850.084000", "101850.087000", "101850.089000", "101850.092000", "101850.094000", "101850.097000", "101850.099000", "101850.102000", "101850.112000", "101850.116000", "101850.119000", "101850.123000", "101850.126000", "101850.131000"],
      "InstanceNumber": [1, 2, 3, 4, 5, 6, 7, 8, 9, 10, 11, 12, 13, 14, 15, 16, 17, 18, 19, 20, 21, 22, 23, 24, 25, 26, 27, 28, 29, 30, 31, 32, 33, 34, 35, 36, 37, 38, 39, 40, 41, 42, 43, 44, 45, 46, 47, 48, 49, 50, 51, 52, 53, 54, 55, 56, 57, 58, 59, 60, 61, 62, 63, 64, 65, 66, 67, 68, 69, 70, 71, 72, 73, 74, 75, 76, 77, 78, 79, 80, 81, 82, 83, 84, 85, 86, 87, 88, 89, 90, 91, 92, 93, 94, 95, 96, 97, 98, 99, 100, 101, 102, 103, 104, 105, 106, 107, 108, 109, 110, 111, 112, 113, 114, 115, 116, 117, 118, 119, 120, 121, 122, 123, 124, 125, 126, 127, 128, 129, 130, 131, 132, 133, 134, 135, 136, 137, 138, 139, 140, 141, 142, 143, 144, 145, 146, 147, 148, 149, 150, 151, 152, 153, 154, 155, 156, 157, 158, 159, 160, 161, 162, 163, 164, 165, 166, 167, 168, 169, 170, 171, 172, 173, 174, 175, 176, 177, 178, 179, 180, 181, 182, 183, 184, 185, 186, 187, 188, 189, 190, 191, 192, 193, 194, 195, 196, 197, 198, 199, 200],
      "LargestImagePixelValue": [2167, 2174, 2168, 2174, 2166, 2172, 2174, 2173, 2171, 2165, 2171, 2171, 2171, 2168, 2165, 2174, 2166, 2170, 2174, 2166, 2169, 2165, 2165, 2165, 2165, 2168, 2167, 2162, 2161, 2169, 2164, 2161, 2164, 2165, 2169, 2167, 2165, 2168, 2165, 2165, 2164, 2169, 2163, 2158, 2166, 2166, 2161, 2165, 2168, 2163, 2167, 2160, 2159, 2169, 2168, 2163, 2164, 2164, 2164, 2163, 2165, 2159, 2163, 2171, 2158, 2163, 2165, 2166, 2168, 2158, 2170, 2164, 2159, 2162, 2169, 2157, 2159, 2167, 2162, 2163, 2171, 2163, 2166, 2166, 2168, 2166, 2155, 2155, 2169, 2164, 2165, 2159, 2168, 2164, 2169, 2160, 2164, 2166, 2160, 2168, 2154, 2164, 2158, 2166, 2161, 2159, 2163, 2161, 2162, 2154, 2158, 2162, 2161, 2166, 2164, 2155, 2165, 2166, 2168, 2162, 2168, 2165, 2166, 2163, 2158, 2157, 2160, 2162, 2155, 2158, 2163, 2163, 2160, 2163, 2159, 2158, 2167, 2160, 2161, 2161, 2165, 2158, 2162, 2159, 2157, 2163, 2161, 2162, 2166, 2159, 2167, 2165, 2162, 2162, 2159, 2162, 2161, 2166, 2166, 2163, 2164, 2163, 2160, 2156, 2158, 2157, 2173, 2164, 2161, 2165, 2164, 2167, 2164, 2162, 2170, 2165, 2168, 2171, 2163, 2161, 2156, 2164, 2157, 2158, 2164, 2159, 2158, 2163, 2161, 2159, 2161, 2160, 2158, 2164, 2162, 2164, 2155, 2160, 2156, 2156],
      "WindowCenter": [1016.0, 1016.0, 1017.0, 1016.0, 1016.0, 1016.0, 1017.0, 1017.0, 1017.0, 1016.0, 1016.0, 1016.0, 1016.0, 1016.0, 1016.0, 1016.0, 1016.0, 1016.0, 1016.0, 1016.0, 1017.0, 1016.0, 1016.0, 1016.0, 1016.0, 1016.0, 1016.0, 1016.0, 1016.0, 1016.0, 1016.0, 1017.0, 1016.0, 1016.0, 1016.0, 1016.0, 1016.0, 1016.0, 1016.0, 1016.0, 1016.0, 1016.0, 1016.0, 1017.0, 1017.0, 1016.0, 1016.0, 1016.0, 1016.0, 1016.0, 1017.0, 1017.0, 1016.0, 1016.0, 1016.0, 1016.0, 1016.0, 1016.0, 1016.0, 1016.0, 1016.0, 1016.0, 1015.0, 1016.0, 1015.0, 1015.0, 1015.0, 1016.0, 1016.0, 1015.0, 1015.0, 1015.0, 1015.0, 1015.0, 1015.0, 1015.0, 1015.0, 1015.0, 1015.0, 1015.0, 1016.0, 1015.0, 1015.0, 1015.0, 1015.0, 1015.0, 1015.0, 1015.0, 1015.0, 1015.0, 1015.0, 1016.0, 1015.0, 1015.0, 1015.0, 1015.0, 1015.0, 1015.0, 1015.0, 1015.0, 1015.0, 1015.0, 1015.0, 1015.0, 1015.0, 1015.0, 1015.0, 1015.0, 1015.0, 1015.0, 1016.0, 1016.0, 1015.0, 1015.0, 1016.0, 1015.0, 1016.0, 1015.0, 1015.0, 1015.0, 1015.0, 1016.0, 1016.0, 1015.0, 1015.0, 1015.0, 1015.0, 1015.0, 1015.0, 1015.0, 1015.0, 1014.0, 1015.0, 1015.0, 1016.0, 1015.0, 1015.0, 1016.0, 1015.0, 1015.0, 1015.0, 1015.0, 1016.0, 1016.0, 1016.0, 1016.0, 1015.0, 1016.0, 1015.0, 1015.0, 1016.0, 1015.0, 1016.0, 1015.0, 1015.0, 1016.0, 1015.0, 1015.0, 1015.0, 1016.0, 1015.0, 1015.0, 1015.0, 1016.0, 1015.0, 1015.0, 1015.0, 1015.0, 1015.0, 1015.0, 1015.0, 1015.0, 1015.0, 1016.0, 1016.0, 1015.0, 1015.0, 1016.0, 1015.0, 1017.0, 1015.0, 1015.0, 1015.0, 1016.0, 1015.0, 1015.0, 1015.0, 1015.0, 1016.0, 1015.0, 1015.0, 1015.0, 1015.0, 1015.0, 1016.0, 1015.0, 1015.0, 1015.0, 1015.0, 1015.0],
      "WindowWidth": [2253.0, 2253.0, 2253.0, 2253.0, 2253.0, 2252.0, 2253.0, 2253.0, 2254.0, 2252.0, 2252.0, 2252.0, 2252.0, 2252.0, 2252.0, 2253.0, 2252.0, 2252.0, 2252.0, 2252.0, 2253.0, 2252.0, 2252.0, 2252.0, 2252.0, 2252.0, 2252.0, 2252.0, 2252.0, 2252.0, 2252.0, 2252.0, 2252.0, 2251.0, 2252.0, 2252.0, 2252.0, 2251.0, 2252.0, 2251.0, 2252.0, 2252.0, 2251.0, 2252.0, 2252.0, 2251.0, 2251.0, 2251.0, 2251.0, 2251.0, 2252.0, 2252.0, 2252.0, 2251.0, 2251.0, 2251.0, 2251.0, 2251.0, 2251.0, 2251.0, 2252.0, 2252.0, 2251.0, 2251.0, 2251.0, 2251.0, 2251.0, 2251.0, 2251.0, 2251.0, 2251.0, 2250.0, 2251.0, 2251.0, 2251.0, 2251.0, 2251.0, 2250.0, 2250.0, 2251.0, 2252.0, 2251.0, 2250.0, 2251.0, 2250.0, 2250.0, 2251.0, 2251.0, 2251.0, 2250.0, 2250.0, 2251.0, 2250.0, 2250.0, 2250.0, 2250.0, 2250.0, 2250.0, 2250.0, 2250.0, 2250.0, 2250.0, 2250.0, 2250.0, 2250.0, 2250.0, 2249.0, 2249.0, 2250.0, 2250.0, 2251.0, 2251.0, 2250.0, 2250.0, 2251.0, 2250.0, 2251.0, 2250.0, 2250.0, 2250.0, 2250.0, 2251.0, 2251.0, 2250.0, 2250.0, 2250.0, 2250.0, 2250.0, 2250.0, 2250.0, 2250.0, 2249.0, 2249.0, 2250.0, 2250.0, 2250.0, 2250.0, 2251.0, 2250.0, 2250.0, 2250.0, 2250.0, 2251.0, 2251.0, 2251.0, 2251.0, 2251.0, 2251.0, 2251.0, 2251.0, 2251.0, 2250.0, 2251.0, 2251.0, 2250.0, 2251.0, 2251.0, 2250.0, 2250.0, 2251.0, 2250.0, 2251.0, 2250.0, 2251.0, 2251.0, 2250.0, 2251.0, 2251.0, 2250.0, 2251.0, 2251.0, 2250.0, 2250.0, 2251.0, 2251.0, 2250.0, 2249.0, 2251.0, 2250.0, 2251.0, 2250.0, 2250.0, 2250.0, 2251.0, 2250.0, 2250.0, 2250.0, 2250.0, 2250.0, 2250.0, 2250.0, 2250.0, 2250.0, 2250.0, 2250.0, 2250.0, 2250.0, 2250.0, 2250.0, 2249.0]
    },
    "slices": {}
  }
}