{
  "AcquisitionMatrixPE": 122,
  "AcquisitionNumber": 1,
  "AcquisitionTime": "10:12:34.487500",
  "BandwidthPerPixelPhaseEncode": 27.785,
  "BaseResolution": 122,
  "BodyPartExamined": "BRAIN",
  "CoilCombinationMethod": "Adaptive Combine",
  "ConsistencyInfo": "N4_VE11C_LATEST_20160120",
  "ConversionSoftware": "dcm2niix",
  "ConversionSoftwareVersion": "v1.0.20220720",
  "DerivedVendorReportedEchoSpacing": 0.000590011,
  "DeviceSerialNumber": "66112",
  "DiffusionScheme": "Monopolar",
  "DwellTime": 2e-06,
  "EchoTime": 0.068,
  "EchoTrainLength": 61,
  "EffectiveEchoSpacing": 0.000295005,
  "FlipAngle": 90,
  "HeudiconvVersion": "0.13.1",
  "ImageOrientationPatientDICOM": [0.99259, 0.120365, 0.0166514, -0.112565, 0.859224, 0.499063],
  "ImageOrientationText": "Tra>Cor(29.9)>Sag(-2.6)",
  "ImageType": [
    "ORIGINAL",
    "PRIMARY",
    "DIFFUSION",
    "NONE",
    "ND",
    "NORM"
],
  "ImagingFrequency": 123.252,
  "InPlanePhaseEncodingDirectionDICOM": "COL",
  "InstitutionAddress": "Maynard 3,Hanover,NH,US,03755",
  "InstitutionName": "Dartmouth College - PBS",
  "InstitutionalDepartmentName": "Department",
  "MRAcquisitionType": "2D",
  "MagneticFieldStrength": 3,
  "Manufacturer": "Siemens",
  "ManufacturersModelName": "Prisma",
  "Modality": "MR",
  "MultibandAccelerationFactor": 4,
  "NonlinearGradientCorrection": false,
  "ParallelReductionFactorInPlane": 2,
  "PartialFourier": 1,
  "PatientPosition": "HFS",
  "PercentPhaseFOV": 100,
  "PercentSampling": 100,
  "PhaseEncodingDirection": "j-",
  "PhaseEncodingSteps": 122,
  "PhaseResolution": 1,
  "PixelBandwidth": 2050,
  "ProcedureStepDescription": "dbic^QA",
  "ProtocolName": "dwi_acq-DTI-30-p2-s4",
  "PulseSequenceDetails": "%SiemensSeq%\\ep2d_diff",
  "ReceiveCoilActiveElements": "HEA;HEP",
  "ReceiveCoilName": "Head_32",
  "ReconMatrixPE": 122,
  "RefLinesPE": 38,
  "RepetitionTime": 3.6,
  "SAR": 0.186635,
  "ScanOptions": "FS",
  "ScanningSequence": "EP",
  "SequenceName": "*ep_b0",
  "SequenceVariant": "SK\\SP",
  "SeriesDescription": "dwi_acq-DTI-30-p2-s4",
  "SeriesNumber": 13,
  "ShimSetting": [4148, -7707, -7514, 207, -55, -47, -22, 25],
  "SliceThickness": 2,
  "SliceTiming": [2.58594, 0, 1.78906, 0.20312, 1.99219, 0.39844, 2.19531, 0.60156, 2.39062, 1, 2.78906, 1.19531, 2.98438, 1.39062, 3.1875, 1.59375, 3.38281, 0.79688, 2.58594, 0, 1.78906, 0.20312, 1.99219, 0.39844, 2.19531, 0.60156, 2.39062, 1, 2.78906, 1.19531, 2.98438, 1.39062, 3.1875, 1.59375, 3.38281, 0.79688, 2.58594, 0, 1.78906, 0.20312, 1.99219, 0.39844, 2.19531, 0.60156, 2.39062, 1, 2.78906, 1.19531, 2.98438, 1.39062, 3.1875, 1.59375, 3.38281, 0.79688, 2.58594, 0, 1.78906, 0.20312, 1.99219, 0.39844, 2.19531, 0.60156, 2.39062, 1, 2.78906, 1.19531, 2.98438, 1.39062, 3.1875, 1.59375, 3.38281, 0.79688],
  "SoftwareVersions": "syngo MR E11",
  "SpacingBetweenSlices": 2,
  "SpoilingState": true,
  "StationName": "AWP66112",
  "TotalReadoutTime": 0.0356956,
  "TxRefAmp": 235.012,
  "dcmmeta_affine": [
    [-1.9526361227035522, -0.22143913805484772, -0.09152519702911377, 140.65162658691406],
    [-0.2367841899394989, 1.6902759075164795, 0.9944801330566406, -112.83554077148438],
    [0.03275682404637337, -0.9817636013031006, 1.7328109741210938, 12.314777374267578],
    [0.0, 0.0, 0.0, 1.0]
],
  "dcmmeta_reorient_transform": [
    [0.0, -1.0, 0.0, 121.0],
    [1.0, 0.0, 0.0, 0.0],
    [0.0, 0.0, -1.0, 71.0],
    [0.0, 0.0, 0.0, 1.0]
],
  "dcmmeta_shape": [122, 122, 72, 31],
  "dcmmeta_slice_dim": 2,
  "dcmmeta_version": 0.6,
  "global": {
    "const": {
      "AccessionNumber": "qa",
      "AcquisitionMatrix": [122, 0, 0, 122],
      "AngioFlag": "N",
      "BitsAllocated": 16,
      "BitsStored": 12,
      "BodyPartExamined": "BRAIN",
      "Columns": 122,
      "EchoNumbers": 1,
      "EchoTime": 68.0,
      "EchoTrainLength": 61,
      "FlipAngle": 90.0,
      "HighBit": 11,
      "ImageOrientationPatient": [0.99259000993804, 0.12036529206528, 0.01665138544486, -0.1125648915761, 0.85922355313291, 0.49906315324427],
      "ImageType": [
        "ORIGINAL",
        "PRIMARY",
        "DIFFUSION",
        "NONE",
        "ND",
        "NORM"
],
      "ImagedNucleus": "1H",
      "ImagingFrequency": 123.252343,
      "InPlanePhaseEncodingDirection": "COL",
      "MRAcquisitionType": "2D",
      "MagneticFieldStrength": 3.0,
      "Manufacturer": "SIEMENS",
      "ManufacturerModelName": "Prisma",
      "Modality": "MR",
      "NumberOfAverages": 1.0,
      "NumberOfPhaseEncodingSteps": 122,
      "PercentPhaseFieldOfView": 100.0,
      "PercentSampling": 100.0,
      "PerformedProcedureStepStartTime": "092904.384000",
      "PhotometricInterpretation": "MONOCHROME2",
      "PixelBandwidth": 2050.0,
      "PixelRepresentation": 0,
      "PixelSpacing": [1.9672131538391, 1.9672131538391],
      "ProtocolName": "dwi_acq-DTI-30-p2-s4",
      "RepetitionTime": 3600.0,
      "Rows": 122,
      "SAR": 0.18663540511048,
      "SamplesPerPixel": 1,
      "ScanOptions": "FS",
      "ScanningSequence": "EP",
      "SequenceVariant": [
        "SK",
        "SP"
],
      "SeriesDescription": "dwi_acq-DTI-30-p2-s4",
      "SeriesNumber": 13,
      "SeriesTime": "101243.474000",
      "SliceThickness": 2.0,
      "SmallestImagePixelValue": 0,
      "SoftwareVersions": "syngo MR E11",
      "SpacingBetweenSlices": 2.0,
      "SpecificCharacterSet": "ISO_IR 100",
      "StudyID": "1",
      "StudyTime": "092904.321000",
      "TransmitCoilName": "Body",
      "VariableFlipAngleFlag": "N",
      "WindowCenterWidthExplanation": "Algo1",
      "dBdt": 0.0},
    "slices": {
      "AcquisitionTime": ["101234.487500", "101231.900000", "101233.690000", "101232.100000", "101233.890000", "101232.300000", "101234.090000", "101232.497500", "101234.287500", "101232.895000", "101234.685000", "101233.095000", "101234.885000", "101233.292500", "101235.082500", "101233.492500", "101235.282500", "101232.697500", "101234.487500", "101231.900000", "101233.690000", "101232.100000", "101233.890000", "101232.300000", "101234.090000", "101232.497500", "101234.287500", "101232.895000", "101234.685000", "101233.095000", "101234.885000", "101233.292500", "101235.082500", "101233.492500", "101235.282500", "101232.697500", "101234.487500", "101231.900000", "101233.690000", "101232.100000", "101233.890000", "101232.300000", "101234.090000", "101232.497500", "101234.287500", "101232.895000", "101234.685000", "101233.095000", "101234.885000", "101233.292500", "101235.082500", "101233.492500", "101235.282500", "101232.697500", "101234.487500", "101231.900000", "101233.690000", "101232.100000", "101233.890000", "101232.300000", "101234.090000", "101232.497500", "101234.287500", "101232.895000", "101234.685000", "101233.095000", "101234.885000", "101233.292500", "101235.082500", "101233.492500", "101235.282500", "101232.697500", "101238.087500", "101235.500000", "101237.290000", "101235.700000", "101237.490000", "101235.900000", "101237.690000", "101236.097500", "101237.887500", "101236.495000", "101238.285000", "101236.695000", "101238.485000", "101236.892500", "101238.682500", "101237.092500", "101238.882500", "101236.297500", "101238.087500", "101235.500000", "101237.290000", "101235.700000", "101237.490000", "101235.900000", "101237.690000", "101236.097500", "101237.887500", "101236.495000", "101238.285000", "101236.695000", "101238.485000", "101236.892500", "101238.682500", "101237.092500", "101238.882500", "101236.297500", "101238.087500", "101235.500000", "101237.290000", "101235.700000", "101237.490000", "101235.900000", "101237.690000", "101236.097500", "101237.887500", "101236.495000", "101238.285000", "101236.695000", "101238.485000", "101236.892500", "101238.682500", "101237.092500", "101238.882500", "101236.297500", "101238.087500", "101235.500000", "101237.290000", "101235.700000", "101237.490000", "101235.900000", "101237.690000", "101236.097500", "101237.887500", "101236.495000", "101238.285000", "101236.695000", "101238.485000", "101236.892500", "101238.682500", "101237.092500", "101238.882500", "101236.297500", "101241.687500", "101239.100000", "101240.890000", "101239.300000", "101241.090000", "101239.500000", "101241.290000", "101239.697500", "101241.487500", "101240.095000", "101241.885000", "101240.295000", "101242.085000", "101240.492500", "101242.282500", "101240.692500", "101242.482500", "101239.897500", "101241.687500", "101239.100000", "101240.890000", "101239.300000", "101241.090000", "101239.500000", "101241.290000", "101239.697500", "101241.487500", "101240.095000", "101241.885000", "101240.295000", "101242.085000", "101240.492500", "101242.282500", "101240.692500", "101242.482500", "101239.897500", "101241.687500", "101239.100000", "101240.890000", "101239.300000", "101241.090000", "101239.500000", "101241.290000", "101239.697500", "101241.487500", "101240.095000", "101241.885000", "101240.295000", "101242.085000", "101240.492500", "101242.282500", "101240.692500", "101242.482500", "101239.897500", "101241.687500", "101239.100000", "101240.890000", "101239.300000", "101241.090000", "101239.500000", "101241.290000", "101239.697500", "101241.487500", "101240.095000", "101241.885000", "101240.295000", "101242.085000", "101240.492500", "101242.282500", "101240.692500", "101242.482500", "101239.897500", "101245.287500", "101242.700000", "101244.490000", "101242.900000", "101244.690000", "101243.100000", "101244.890000", "101243.297500", "101245.087500", "101243.695000", "101245.485000", "101243.895000", "101245.685000", "101244.092500", "101245.882500", "101244.292500", "101246.082500", "101243.497500", "101245.287500", "101242.700000", "101244.490000", "101242.900000", "101244.690000", "101243.100000", "101244.890000", "101243.297500", "101245.087500", "101243.695000", "101245.485000", "101243.895000", "101245.685000", "101244.092500", "101245.882500", "101244.292500", "101246.082500", "101243.497500", "101245.287500", "101242.700000", "101244.490000", "101242.900000", "101244.690000", "101243.100000", "101244.890000", "101243.297500", "101245.087500", "101243.695000", "101245.485000", "101243.895000", "101245.685000", "101244.092500", "101245.882500", "101244.292500", "101246.082500", "101243.497500", "101245.287500", "101242.700000", "101244.490000", "101242.900000", "101244.690000", "101243.100000", "101244.890000", "101243.297500", "101245.087500", "101243.695000", "101245.485000", "101243.895000", "101245.685000", "101244.092500", "101245.882500", "101244.292500", "101246.082500", "101243.497500", "101248.887500", "101246.300000", "101248.090000", "101246.500000", "101248.290000", "101246.700000", "101248.490000", "101246.897500", "101248.687500", "101247.295000", "101249.085000", "101247.495000", "101249.285000", "101247.692500", "101249.482500", "101247.892500", "101249.682500", "101247.097500", "101248.887500", "101246.300000", "101248.090000", "101246.500000", "101248.290000", "101246.700000", "101248.490000", "101246.897500", "101248.687500", "101247.295000", "101249.085000", "101247.495000", "101249.285000", "101247.692500", "101249.482500", "101247.892500", "101249.682500", "101247.097500", "101248.887500", "101246.300000", "101248.090000", "101246.500000", "101248.290000", "101246.700000", "101248.490000", "101246.897500", "101248.687500", "101247.295000", "101249.085000", "101247.495000", "101249.285000", "101247.692500", "101249.482500", "101247.892500", "101249.682500", "101247.097500", "101248.887500", "101246.300000", "101248.090000", "101246.500000", "101248.290000", "101246.700000", "101248.490000", "101246.897500", "101248.687500", "101247.295000", "101249.085000", "101247.495000", "101249.285000", "101247.692500", "101249.482500", "101247.892500", "101249.682500", "101247.097500", "101252.487500", "101249.900000", "101251.690000", "101250.100000", "101251.890000", "101250.300000", "101252.090000", "101250.497500", "101252.287500", "101250.895000", "101252.685000", "101251.095000", "101252.885000", "101251.292500", "101253.082500", "101251.492500", "101253.282500", "101250.697500", "101252.487500", "101249.900000", "101251.690000", "101250.100000", "101251.890000", "101250.300000", "101252.090000", "101250.497500", "101252.287500", "101250.895000", "101252.685000", "101251.095000", "101252.885000", "101251.292500", "101253.082500", "101251.492500", "101253.282500", "101250.697500", "101252.487500", "101249.900000", "101251.690000", "101250.100000", "101251.890000", "101250.300000", "101252.090000", "101250.497500", "101252.287500", "101250.895000", "101252.685000", "101251.095000", "101252.885000", "101251.292500", "101253.082500", "101251.492500", "101253.282500", "101250.697500", "101252.487500", "101249.900000", "101251.690000", "101250.100000", "101251.890000", "101250.300000", "101252.090000", "101250.497500", "101252.287500", "101250.895000", "101252.685000", "101251.095000", "101252.885000", "101251.292500", "101253.082500", "101251.492500", "101253.282500", "101250.697500", "101256.087500", "101253.500000", "101255.290000", "101253.700000", "101255.490000", "101253.900000", "101255.690000", "101254.097500", "101255.887500", "101254.495000", "101256.285000", "101254.695000", "101256.485000", "101254.892500", "101256.682500", "101255.092500", "101256.882500", "101254.297500", "101256.087500", "101253.500000", "101255.290000", "101253.700000", "101255.490000", "101253.900000", "101255.690000", "101254.097500", "101255.887500", "101254.495000", "101256.285000", "101254.695000", "101256.485000", "101254.892500", "101256.682500", "101255.092500", "101256.882500", "101254.297500", "101256.087500", "101253.500000", "101255.290000", "101253.700000", "101255.490000", "101253.900000", "101255.690000", "101254.097500", "101255.887500", "101254.495000", "101256.285000", "101254.695000", "101256.485000", "101254.892500", "101256.682500", "101255.092500", "101256.882500", "101254.297500", "101256.087500", "101253.500000", "101255.290000", "101253.700000", "101255.490000", "101253.900000", "101255.690000", "101254.097500", "101255.887500", "101254.495000", "101256.285000", "101254.695000", "101256.485000", "101254.892500", "101256.682500", "101255.092500", "101256.882500", "101254.297500", "101259.687500", "101257.100000", "101258.890000", "101257.300000", "101259.090000", "101257.500000", "101259.290000", "101257.697500", "101259.487500", "101258.095000", "101259.885000", "101258.295000", "101300.085000", "101258.492500", "101300.282500", "101258.692500", "101300.482500", "101257.897500", "101259.687500", "101257.100000", "101258.890000", "101257.300000", "101259.090000", "101257.500000", "101259.290000", "101257.697500", "101259.487500", "101258.095000", "101259.885000", "101258.295000", "101300.085000", "101258.492500", "101300.282500", "101258.692500", "101300.482500", "101257.897500", "101259.687500", "101257.100000", "101258.890000", "101257.300000", "101259.090000", "101257.500000", "101259.290000", "101257.697500", "101259.487500", "101258.095000", "101259.885000", "101258.295000", "101300.085000", "101258.492500", "101300.282500", "101258.692500", "101300.482500", "101257.897500", "101259.687500", "101257.100000", "101258.890000", "101257.300000", "101259.090000", "101257.500000", "101259.290000", "101257.697500", "101259.487500", "101258.095000", "101259.885000", "101258.295000", "101300.085000", "101258.492500", "101300.282500", "101258.692500", "101300.482500", "101257.897500", "101303.287500", "101300.700000", "101302.490000", "101300.900000", "101302.690000", "101301.100000", "101302.890000", "101301.297500", "101303.087500", "101301.695000", "101303.485000", "101301.895000", "101303.685000", "101302.092500", "101303.882500", "101302.292500", "101304.082500", "101301.497500", "101303.287500", "101300.700000", "101302.490000", "101300.900000", "101302.690000", "101301.100000", "101302.890000", "101301.297500", "101303.087500", "101301.695000", "101303.485000", "101301.895000", "101303.685000", "101302.092500", "101303.882500", "101302.292500", "101304.082500", "101301.497500", "101303.287500", "101300.700000", "101302.490000", "101300.900000", "101302.690000", "101301.100000", "101302.890000", "101301.297500", "101303.087500", "101301.695000", "101303.485000", "101301.895000", "101303.685000", "101302.092500", "101303.882500", "101302.292500", "101304.082500", "101301.497500", "101303.287500", "101300.700000", "101302.490000", "101300.900000", "101302.690000", "101301.100000", "101302.890000", "101301.297500", "101303.087500", "101301.695000", "101303.485000", "101301.895000", "101303.685000", "101302.092500", "101303.882500", "101302.292500", "101304.082500", "101301.497500", "101306.887500", "101304.300000", "101306.090000", "101304.500000", "101306.290000", "101304.700000", "101306.490000", "101304.897500", "101306.687500", "101305.295000", "101307.085000", "101305.495000", "101307.285000", "101305.692500", "101307.482500", "101305.892500", "101307.682500", "101305.097500", "101306.887500", "101304.300000", "101306.090000", "101304.500000", "101306.290000", "101304.700000", "101306.490000", "101304.897500", "101306.687500", "101305.295000", "101307.085000", "101305.495000", "101307.285000", "101305.692500", "101307.482500", "101305.892500", "101307.682500", "101305.097500", "101306.887500", "101304.300000", "101306.090000", "101304.500000", "101306.290000", "101304.700000", "101306.490000", "101304.897500", "101306.687500", "101305.295000", "101307.085000", "101305.495000", "101307.285000", "101305.692500", "101307.482500", "101305.892500", "101307.682500", "101305.097500", "101306.887500", "101304.300000", "101306.090000", "101304.500000", "101306.290000", "101304.700000", "101306.490000", "101304.897500", "101306.687500", "101305.295000", "101307.085000", "101305.495000", "101307.285000", "101305.692500", "101307.482500", "101305.892500", "101307.682500", "101305.097500", "101310.487500", "101307.900000", "101309.690000", "101308.100000", "101309.890000", "101308.300000", "101310.090000", "101308.497500", "101310.287500", "101308.895000", "101310.685000", "101309.095000", "101310.885000", "101309.292500", "101311.082500", "101309.492500", "101311.282500", "101308.697500", "101310.487500", "101307.900000", "101309.690000", "101308.100000", "101309.890000", "101308.300000", "101310.090000", "101308.497500", "101310.287500", "101308.895000", "101310.685000", "101309.095000", "101310.885000", "101309.292500", "101311.082500", "101309.492500", "101311.282500", "101308.697500", "101310.487500", "101307.900000", "101309.690000", "101308.100000", "101309.890000", "101308.300000", "101310.090000", "101308.497500", "101310.287500", "101308.895000", "101310.685000", "101309.095000", "101310.885000", "101309.292500", "101311.082500", "101309.492500", "101311.282500", "101308.697500", "101310.487500", "101307.900000", "101309.690000", "101308.100000", "101309.890000", "101308.300000", "101310.090000", "101308.497500", "101310.287500", "101308.895000", "101310.685000", "101309.095000", "101310.885000", "101309.292500", "101311.082500", "101309.492500", "101311.282500", "101308.697500", "101314.087500", "101311.500000", "101313.290000", "101311.700000", "101313.490000", "101311.900000", "101313.690000", "101312.097500", "101313.887500", "101312.495000", "101314.285000", "101312.695000", "101314.485000", "101312.892500", "101314.682500", "101313.092500", "101314.882500", "101312.297500", "101314.087500", "101311.500000", "101313.290000", "101311.700000", "101313.490000", "101311.900000", "101313.690000", "101312.097500", "101313.887500", "101312.495000", "101314.285000", "101312.695000", "101314.485000", "101312.892500", "101314.682500", "101313.092500", "101314.882500", "101312.297500", "101314.087500", "101311.500000", "101313.290000", "101311.700000", "101313.490000", "101311.900000", "101313.690000", "101312.097500", "101313.887500", "101312.495000", "101314.285000", "101312.695000", "101314.485000", "101312.892500", "101314.682500", "101313.092500", "101314.882500", "101312.297500", "101314.087500", "101311.500000", "101313.290000", "101311.700000", "101313.490000", "101311.900000", "101313.690000", "101312.097500", "101313.887500", "101312.495000", "101314.285000", "101312.695000", "101314.485000", "101312.892500", "101314.682500", "101313.092500", "101314.882500", "101312.297500", "101317.687500", "101315.100000", "101316.890000", "101315.300000", "101317.090000", "101315.500000", "101317.290000", "101315.697500", "101317.487500", "101316.095000", "101317.885000", "101316.295000", "101318.085000", "101316.492500", "101318.282500", "101316.692500", "101318.482500", "101315.897500", "101317.687500", "101315.100000", "101316.890000", "101315.300000", "101317.090000", "101315.500000", "101317.290000", "101315.697500", "101317.487500", "101316.095000", "101317.885000", "101316.295000", "101318.085000", "101316.492500", "101318.282500", "101316.692500", "101318.482500", "101315.897500", "101317.687500", "101315.100000", "101316.890000", "101315.300000", "101317.090000", "101315.500000", "101317.290000", "101315.697500", "101317.487500", "101316.095000", "101317.885000", "101316.295000", "101318.085000", "101316.492500", "101318.282500", "101316.692500", "101318.482500", "101315.897500", "101317.687500", "101315.100000", "101316.890000", "101315.300000", "101317.090000", "101315.500000", "101317.290000", "101315.697500", "101317.487500", "101316.095000", "101317.885000", "101316.295000", "101318.085000", "101316.492500", "101318.282500", "101316.692500", "101318.482500", "101315.897500", "101321.287500", "101318.700000", "101320.490000", "101318.900000", "101320.690000", "101319.100000", "101320.890000", "101319.297500", "101321.087500", "101319.695000", "101321.485000", "101319.895000", "101321.685000", "101320.092500", "101321.882500", "101320.292500", "101322.082500", "101319.497500", "101321.287500", "101318.700000", "101320.490000", "101318.900000", "101320.690000", "101319.100000", "101320.890000", "101319.297500", "101321.087500", "101319.695000", "101321.485000", "101319.895000", "101321.685000", "101320.092500", "101321.882500", "101320.292500", "101322.082500", "101319.497500", "101321.287500", "101318.700000", "101320.490000", "101318.900000", "101320.690000", "101319.100000", "101320.890000", "101319.297500", "101321.087500", "101319.695000", "101321.485000", "101319.895000", "101321.685000", "101320.092500", "101321.882500", "101320.292500", "101322.082500", "101319.497500", "101321.287500", "101318.700000", "101320.490000", "101318.900000", "101320.690000", "101319.100000", "101320.890000", "101319.297500", "101321.087500", "101319.695000", "101321.485000", "101319.895000", "101321.685000", "101320.092500", "101321.882500", "101320.292500", "101322.082500", "101319.497500", "101324.887500", "101322.300000", "101324.090000", "101322.500000", "101324.290000", "101322.700000", "101324.490000", "101322.897500", "101324.687500", "101323.295000", "101325.085000", "101323.495000", "101325.285000", "101323.692500", "101325.482500", "101323.892500", "101325.682500", "101323.097500", "101324.887500", "101322.300000", "101324.090000", "101322.500000", "101324.290000", "101322.700000", "101324.490000", "101322.897500", "101324.687500", "101323.295000", "101325.085000", "101323.495000", "101325.285000", "101323.692500", "101325.482500", "101323.892500", "101325.682500", "101323.097500", "101324.887500", "101322.300000", "101324.090000", "101322.500000", "101324.290000", "101322.700000", "101324.490000", "101322.897500", "101324.687500", "101323.295000", "101325.085000", "101323.495000", "101325.285000", "101323.692500", "101325.482500", "101323.892500", "101325.682500", "101323.097500", "101324.887500", "101322.300000", "101324.090000", "101322.500000", "101324.290000", "101322.700000", "101324.490000", "101322.897500", "101324.687500", "101323.295000", "101325.085000", "101323.495000", "101325.285000", "101323.692500", "101325.482500", "101323.892500", "101325.682500", "101323.097500", "101328.487500", "101325.900000", "101327.690000", "101326.100000", "101327.890000", "101326.300000", "101328.090000", "101326.497500", "101328.287500", "101326.895000", "101328.685000", "101327.095000", "101328.885000", "101327.292500", "101329.082500", "101327.492500", "101329.282500", "101326.697500", "101328.487500", "101325.900000", "101327.690000", "101326.100000", "101327.890000", "101326.300000", "101328.090000", "101326.497500", "101328.287500", "101326.895000", "101328.685000", "101327.095000", "101328.885000", "101327.292500", "101329.082500", "101327.492500", "101329.282500", "101326.697500", "101328.487500", "101325.900000", "101327.690000", "101326.100000", "101327.890000", "101326.300000", "101328.090000", "101326.497500", "101328.287500", "101326.895000", "101328.685000", "101327.095000", "101328.885000", "101327.292500", "101329.082500", "101327.492500", "101329.282500", "101326.697500", "101328.487500", "101325.900000", "101327.690000", "101326.100000", "101327.890000", "101326.300000", "101328.090000", "101326.497500", "101328.287500", "101326.895000", "101328.685000", "101327.095000", "101328.885000", "101327.292500", "101329.082500", "101327.492500", "101329.282500", "101326.697500", "101332.087500", "101329.500000", "101331.290000", "101329.700000", "101331.490000", "101329.900000", "101331.690000", "101330.097500", "101331.887500", "101330.495000", "101332.285000", "101330.695000", "101332.485000", "101330.892500", "101332.682500", "101331.092500", "101332.882500", "101330.297500", "101332.087500", "101329.500000", "101331.290000", "101329.700000", "101331.490000", "101329.900000", "101331.690000", "101330.097500", "101331.887500", "101330.495000", "101332.285000", "101330.695000", "101332.485000", "101330.892500", "101332.682500", "101331.092500", "101332.882500", "101330.297500", "101332.087500", "101329.500000", "101331.290000", "101329.700000", "101331.490000", "101329.900000", "101331.690000", "101330.097500", "101331.887500", "101330.495000", "101332.285000", "101330.695000", "101332.485000", "101330.892500", "101332.682500", "101331.092500", "101332.882500", "101330.297500", "101332.087500", "101329.500000", "101331.290000", "101329.700000", "101331.490000", "101329.900000", "101331.690000", "101330.097500", "101331.887500", "101330.495000", "101332.285000", "101330.695000", "101332.485000", "101330.892500", "101332.682500", "101331.092500", "101332.882500", "101330.297500", "101335.687500", "101333.100000", "101334.890000", "101333.300000", "101335.090000", "101333.500000", "101335.290000", "101333.697500", "101335.487500", "101334.095000", "101335.885000", "101334.295000", "101336.085000", "101334.492500", "101336.282500", "101334.692500", "101336.482500", "101333.897500", "101335.687500", "101333.100000", "101334.890000", "101333.300000", "101335.090000", "101333.500000", "101335.290000", "101333.697500", "101335.487500", "101334.095000", "101335.885000", "101334.295000", "101336.085000", "101334.492500", "101336.282500", "101334.692500", "101336.482500", "101333.897500", "101335.687500", "101333.100000", "101334.890000", "101333.300000", "101335.090000", "101333.500000", "101335.290000", "101333.697500", "101335.487500", "101334.095000", "101335.885000", "101334.295000", "101336.085000", "101334.492500", "101336.282500", "101334.692500", "101336.482500", "101333.897500", "101335.687500", "101333.100000", "101334.890000", "101333.300000", "101335.090000", "101333.500000", "101335.290000", "101333.697500", "101335.487500", "101334.095000", "101335.885000", "101334.295000", "101336.085000", "101334.492500", "101336.282500", "101334.692500", "101336.482500", "101333.897500", "101339.287500", "101336.700000", "101338.490000", "101336.900000", "101338.690000", "101337.100000", "101338.890000", "101337.297500", "101339.087500", "101337.695000", "101339.485000", "101337.895000", "101339.685000", "101338.092500", "101339.882500", "101338.292500", "101340.082500", "101337.497500", "101339.287500", "101336.700000", "101338.490000", "101336.900000", "101338.690000", "101337.100000", "101338.890000", "101337.297500", "101339.087500", "101337.695000", "101339.485000", "101337.895000", "101339.685000", "101338.092500", "101339.882500", "101338.292500", "101340.082500", "101337.497500", "101339.287500", "101336.700000", "101338.490000", "101336.900000", "101338.690000", "101337.100000", "101338.890000", "101337.297500", "101339.087500", "101337.695000", "101339.485000", "101337.895000", "101339.685000", "101338.092500", "101339.882500", "101338.292500", "101340.082500", "101337.497500", "101339.287500", "101336.700000", "101338.490000", "101336.900000", "101338.690000", "101337.100000", "101338.890000", "101337.297500", "101339.087500", "101337.695000", "101339.485000", "101337.895000", "101339.685000", "101338.092500", "101339.882500", "101338.292500", "101340.082500", "101337.497500", "101342.887500", "101340.300000", "101342.090000", "101340.500000", "101342.290000", "101340.700000", "101342.490000", "101340.897500", "101342.687500", "101341.295000", "101343.085000", "101341.495000", "101343.285000", "101341.692500", "101343.482500", "101341.892500", "101343.682500", "101341.097500", "101342.887500", "101340.300000", "101342.090000", "101340.500000", "101342.290000", "101340.700000", "101342.490000", "101340.897500", "101342.687500", "101341.295000", "101343.085000", "101341.495000", "101343.285000", "101341.692500", "101343.482500", "101341.892500", "101343.682500", "101341.097500", "101342.887500", "101340.300000", "101342.090000", "101340.500000", "101342.290000", "101340.700000", "101342.490000", "101340.897500", "101342.687500", "101341.295000", "101343.085000", "101341.495000", "101343.285000", "101341.692500", "101343.482500", "101341.892500", "101343.682500", "101341.097500", "101342.887500", "101340.300000", "101342.090000", "101340.500000", "101342.290000", "101340.700000", "101342.490000", "101340.897500", "101342.687500", "101341.295000", "101343.085000", "101341.495000", "101343.2