{
  "AcquisitionMatrixPE": 122,
  "AcquisitionNumber": 1,
  "AcquisitionTime": "10:08:12.185000",
  "BandwidthPerPixelPhaseEncode": 28.76,
  "BaseResolution": 122,
  "BodyPartExamined": "BRAIN",
  "CoilCombinationMethod": "Adaptive Combine",
  "ConsistencyInfo": "N4_VE11C_LATEST_20160120",
  "ConversionSoftware": "dcm2niix",
  "ConversionSoftwareVersion": "v1.0.20220720",
  "DerivedVendorReportedEchoSpacing": 0.000570008,
  "DeviceSerialNumber": "66112",
  "DiffusionScheme": "Monopolar",
  "DwellTime": 2e-06,
  "EchoTime": 0.075,
  "EchoTrainLength": 61,
  "EffectiveEchoSpacing": 0.000285004,
  "FlipAngle": 90,
  "HeudiconvVersion": "0.13.1",
  "ImageOrientationPatientDICOM": [0.99259, 0.120365, 0.0166514, -0.112565, 0.859224, 0.499063],
  "ImageOrientationText": "Tra>Cor(29.9)>Sag(-2.6)",
  "ImageType": [
    "ORIGINAL",
    "PRIMARY",
    "DIFFUSION",
    "NONE",
    "ND",
    "NORM"
],
  "ImagingFrequency": 123.252,
  "InPlanePhaseEncodingDirectionDICOM": "COL",
  "InstitutionAddress": "Maynard 3,Hanover,NH,US,03755",
  "InstitutionName": "Dartmouth College - PBS",
  "InstitutionalDepartmentName": "Department",
  "MRAcquisitionType": "2D",
  "MagneticFieldStrength": 3,
  "Manufacturer": "Siemens",
  "ManufacturersModelName": "Prisma",
  "MatrixCoilMode": "GRAPPA",
  "Modality": "MR",
  "NonlinearGradientCorrection": false,
  "ParallelReductionFactorInPlane": 2,
  "PartialFourier": 1,
  "PatientPosition": "HFS",
  "PercentPhaseFOV": 100,
  "PercentSampling": 100,
  "PhaseEncodingDirection": "j-",
  "PhaseEncodingSteps": 122,
  "PhaseResolution": 1,
  "PixelBandwidth": 2050,
  "ProcedureStepDescription": "dbic^QA",
  "ProtocolName": "dwi_acq-DTI-30-p2",
  "PulseSequenceDetails": "%SiemensSeq%\\ep2d_diff",
  "ReceiveCoilActiveElements": "HEA;HEP",
  "ReceiveCoilName": "Head_32",
  "ReconMatrixPE": 122,
  "RefLinesPE": 38,
  "RepetitionTime": 7.7,
  "SAR": 0.120468,
  "ScanOptions": "FS",
  "ScanningSequence": "EP",
  "SequenceName": "*ep_b0",
  "SequenceVariant": "SK\\SP",
  "SeriesDescription": "dwi_acq-DTI-30-p2",
  "SeriesNumber": 12,
  "ShimSetting": [4148, -7707, -7514, 206, -54, -47, -23, 25],
  "SliceThickness": 2,
  "SliceTiming": [3.84375, 0, 3.95312, 0.10938, 4.0625, 0.21875, 4.17188, 0.32812, 4.28125, 0.4375, 4.39062, 0.54688, 4.5, 0.65625, 4.60938, 0.76562, 4.71875, 0.875, 4.82812, 0.99219, 4.9375, 1.10156, 5.04688, 1.21094, 5.15625, 1.3125, 5.26562, 1.42969, 5.375, 1.53906, 5.48438, 1.64844, 5.59375, 1.75781, 5.70312, 1.86719, 5.8125, 1.97656, 5.92969, 2.08594, 6.03125, 2.19531, 6.14062, 2.30469, 6.25, 2.41406, 6.36719, 2.52344, 6.47656, 2.63281, 6.58594, 2.74219, 6.69531, 2.85156, 6.80469, 2.96094, 6.91406, 3.07031, 7.02344, 3.17969, 7.13281, 3.28906, 7.24219, 3.39844, 7.35156, 3.50781, 7.46094, 3.625, 7.57031, 3.73438],
  "SoftwareVersions": "syngo MR E11",
  "SpacingBetweenSlices": 2,
  "SpoilingState": true,
  "StationName": "AWP66112",
  "TotalReadoutTime": 0.0344855,
  "TxRefAmp": 235.012,
  "dcmmeta_affine": [
    [-1.9526361227035522, -0.22143913805484772, -0.09152531623840332, 140.56011962890625],
    [-0.2367841899394989, 1.6902759075164795, 0.9944801330566406, -111.841064453125],
    [0.03275682404637337, -0.9817636013031006, 1.7328109741210938, 14.047588348388672],
    [0.0, 0.0, 0.0, 1.0]
],
  "dcmmeta_reorient_transform": [
    [0.0, -1.0, 0.0, 121.0],
    [1.0, 0.0, 0.0, 0.0],
    [0.0, 0.0, -1.0, 69.0],
    [0.0, 0.0, 0.0, 1.0]
],
  "dcmmeta_shape": [122, 122, 70, 31],
  "dcmmeta_slice_dim": 2,
  "dcmmeta_version": 0.6,
  "global": {
    "const": {
      "AccessionNumber": "qa",
      "AcquisitionMatrix": [122, 0, 0, 122],
      "AngioFlag": "N",
      "BitsAllocated": 16,
      "BitsStored": 12,
      "BodyPartExamined": "BRAIN",
      "Columns": 122,
      "EchoNumbers": 1,
      "EchoTime": 75.0,
      "EchoTrainLength": 61,
      "FlipAngle": 90.0,
      "HighBit": 11,
      "ImageOrientationPatient": [0.99259000993804, 0.12036529206528, 0.01665138544486, -0.1125648915761, 0.85922355313291, 0.49906315324427],
      "ImageType": [
        "ORIGINAL",
        "PRIMARY",
        "DIFFUSION",
        "NONE",
        "ND",
        "NORM"
],
      "ImagedNucleus": "1H",
      "ImagingFrequency": 123.25234,
      "InPlanePhaseEncodingDirection": "COL",
      "MRAcquisitionType": "2D",
      "MagneticFieldStrength": 3.0,
      "Manufacturer": "SIEMENS",
      "ManufacturerModelName": "Prisma",
      "Modality": "MR",
      "NumberOfAverages": 1.0,
      "NumberOfPhaseEncodingSteps": 122,
      "PercentPhaseFieldOfView": 100.0,
      "PercentSampling": 100.0,
      "PerformedProcedureStepStartTime": "092904.384000",
      "PhotometricInterpretation": "MONOCHROME2",
      "PixelBandwidth": 2050.0,
      "PixelRepresentation": 0,
      "PixelSpacing": [1.9672131538391, 1.9672131538391],
      "ProtocolName": "dwi_acq-DTI-30-p2",
      "RepetitionTime": 7700.0,
      "Rows": 122,
      "SAR": 0.12046846143494,
      "SamplesPerPixel": 1,
      "ScanOptions": "FS",
      "ScanningSequence": "EP",
      "SequenceVariant": [
        "SK",
        "SP"
],
      "SeriesDescription": "dwi_acq-DTI-30-p2",
      "SeriesNumber": 12,
      "SeriesTime": "100825.575000",
      "SliceThickness": 2.0,
      "SmallestImagePixelValue": 0,
      "SoftwareVersions": "syngo MR E11",
      "SpacingBetweenSlices": 2.0,
      "SpecificCharacterSet": "ISO_IR 100",
      "StudyID": "1",
      "StudyTime": "092904.321000",
      "TransmitCoilName": "Body",
      "VariableFlipAngleFlag": "N",
      "WindowCenterWidthExplanation": "Algo1",
      "dBdt": 0.0},
    "slices": {
      "AcquisitionTime": ["100812.185000", "100808.345000", "100812.295000", "100808.455000", "100812.405000", "100808.565000", "100812.512500", "100808.672500", "100812.622500", "100808.782500", "100812.732500", "100808.892500", "100812.842500", "100809.002500", "100812.952500", "100809.112500", "100813.062500", "100809.222500", "100813.172500", "100809.332500", "100813.282500", "100809.442500", "100813.390000", "100809.552500", "100813.500000", "100809.660000", "100813.610000", "100809.770000", "100813.720000", "100809.880000", "100813.830000", "100809.990000", "100813.940000", "100810.100000", "100814.050000", "100810.210000", "100814.160000", "100810.320000", "100814.270000", "100810.430000", "100814.377500", "100810.540000", "100814.487500", "100810.647500", "100814.597500", "100810.757500", "100814.707500", "100810.867500", "100814.817500", "100810.977500", "100814.927500", "100811.087500", "100815.037500", "100811.197500", "100815.147500", "100811.307500", "100815.257500", "100811.417500", "100815.365000", "100811.525000", "100815.475000", "100811.635000", "100815.585000", "100811.745000", "100815.695000", "100811.855000", "100815.805000", "100811.965000", "100815.915000", "100812.075000", "100819.885000", "100816.045000", "100819.995000", "100816.155000", "100820.105000", "100816.265000", "100820.212500", "100816.372500", "100820.322500", "100816.482500", "100820.432500", "100816.592500", "100820.542500", "100816.702500", "100820.652500", "100816.812500", "100820.762500", "100816.922500", "100820.872500", "100817.032500", "100820.982500", "100817.142500", "100821.090000", "100817.252500", "100821.200000", "100817.360000", "100821.310000", "100817.470000", "100821.420000", "100817.580000", "100821.530000", "100817.690000", "100821.640000", "100817.800000", "100821.750000", "100817.910000", "100821.860000", "100818.020000", "100821.970000", "100818.130000", "100822.077500", "100818.240000", "100822.187500", "100818.347500", "100822.297500", "100818.457500", "100822.407500", "100818.567500", "100822.517500", "100818.677500", "100822.627500", "100818.787500", "100822.737500", "100818.897500", "100822.847500", "100819.007500", "100822.957500", "100819.117500", "100823.065000", "100819.225000", "100823.175000", "100819.335000", "100823.285000", "100819.445000", "100823.395000", "100819.555000", "100823.505000", "100819.665000", "100823.615000", "100819.775000", "100827.585000", "100823.745000", "100827.695000", "100823.855000", "100827.805000", "100823.965000", "100827.912500", "100824.072500", "100828.022500", "100824.182500", "100828.132500", "100824.292500", "100828.242500", "100824.402500", "100828.352500", "100824.512500", "100828.462500", "100824.622500", "100828.572500", "100824.732500", "100828.682500", "100824.842500", "100828.790000", "100824.952500", "100828.900000", "100825.060000", "100829.010000", "100825.170000", "100829.120000", "100825.280000", "100829.230000", "100825.390000", "100829.340000", "100825.500000", "100829.450000", "100825.610000", "100829.560000", "100825.720000", "100829.670000", "100825.830000", "100829.777500", "100825.940000", "100829.887500", "100826.047500", "100829.997500", "100826.157500", "100830.107500", "100826.267500", "100830.217500", "100826.377500", "100830.327500", "100826.487500", "100830.437500", "100826.597500", "100830.547500", "100826.707500", "100830.657500", "100826.817500", "100830.765000", "100826.925000", "100830.875000", "100827.035000", "100830.985000", "100827.145000", "100831.095000", "100827.255000", "100831.205000", "100827.365000", "100831.315000", "100827.475000", "100835.285000", "100831.445000", "100835.395000", "100831.555000", "100835.505000", "100831.665000", "100835.612500", "100831.772500", "100835.722500", "100831.882500", "100835.832500", "100831.992500", "100835.942500", "100832.102500", "100836.052500", "100832.212500", "100836.162500", "100832.322500", "100836.272500", "100832.432500", "100836.382500", "100832.542500", "100836.490000", "100832.652500", "100836.600000", "100832.760000", "100836.710000", "100832.870000", "100836.820000", "100832.980000", "100836.930000", "100833.090000", "100837.040000", "100833.200000", "100837.150000", "100833.310000", "100837.260000", "100833.420000", "100837.370000", "100833.530000", "100837.477500", "100833.640000", "100837.587500", "100833.747500", "100837.697500", "100833.857500", "100837.807500", "100833.967500", "100837.917500", "100834.077500", "100838.027500", "100834.187500", "100838.137500", "100834.297500", "100838.247500", "100834.407500", "100838.357500", "100834.517500", "100838.465000", "100834.625000", "100838.575000", "100834.735000", "100838.685000", "100834.845000", "100838.795000", "100834.955000", "100838.905000", "100835.065000", "100839.015000", "100835.175000", "100842.985000", "100839.145000", "100843.095000", "100839.255000", "100843.205000", "100839.365000", "100843.312500", "100839.472500", "100843.422500", "100839.582500", "100843.532500", "100839.692500", "100843.642500", "100839.802500", "100843.752500", "100839.912500", "100843.862500", "100840.022500", "100843.972500", "100840.132500", "100844.082500", "100840.242500", "100844.190000", "100840.352500", "100844.300000", "100840.460000", "100844.410000", "100840.570000", "100844.520000", "100840.680000", "100844.630000", "100840.790000", "100844.740000", "100840.900000", "100844.850000", "100841.010000", "100844.960000", "100841.120000", "100845.070000", "100841.230000", "100845.177500", "100841.340000", "100845.287500", "100841.447500", "100845.397500", "100841.557500", "100845.507500", "100841.667500", "100845.617500", "100841.777500", "100845.727500", "100841.887500", "100845.837500", "100841.997500", "100845.947500", "100842.107500", "100846.057500", "100842.217500", "100846.165000", "100842.325000", "100846.275000", "100842.435000", "100846.385000", "100842.545000", "100846.495000", "100842.655000", "100846.605000", "100842.765000", "100846.715000", "100842.875000", "100850.685000", "100846.845000", "100850.795000", "100846.955000", "100850.905000", "100847.065000", "100851.012500", "100847.172500", "100851.122500", "100847.282500", "100851.232500", "100847.392500", "100851.342500", "100847.502500", "100851.452500", "100847.612500", "100851.562500", "100847.722500", "100851.672500", "100847.832500", "100851.782500", "100847.942500", "100851.890000", "100848.052500", "100852.000000", "100848.160000", "100852.110000", "100848.270000", "100852.220000", "100848.380000", "100852.330000", "100848.490000", "100852.440000", "100848.600000", "100852.550000", "100848.710000", "100852.660000", "100848.820000", "100852.770000", "100848.930000", "100852.877500", "100849.040000", "100852.987500", "100849.147500", "100853.097500", "100849.257500", "100853.207500", "100849.367500", "100853.317500", "100849.477500", "100853.427500", "100849.587500", "100853.537500", "100849.697500", "100853.647500", "100849.807500", "100853.757500", "100849.917500", "100853.865000", "100850.025000", "100853.975000", "100850.135000", "100854.085000", "100850.245000", "100854.195000", "100850.355000", "100854.305000", "100850.465000", "100854.415000", "100850.575000", "100858.385000", "100854.545000", "100858.495000", "100854.655000", "100858.605000", "100854.765000", "100858.712500", "100854.872500", "100858.822500", "100854.982500", "100858.932500", "100855.092500", "100859.042500", "100855.202500", "100859.152500", "100855.312500", "100859.262500", "100855.422500", "100859.372500", "100855.532500", "100859.482500", "100855.642500", "100859.590000", "100855.752500", "100859.700000", "100855.860000", "100859.810000", "100855.970000", "100859.920000", "100856.080000", "100900.030000", "100856.190000", "100900.140000", "100856.300000", "100900.250000", "100856.410000", "100900.360000", "100856.520000", "100900.470000", "100856.630000", "100900.577500", "100856.740000", "100900.687500", "100856.847500", "100900.797500", "100856.957500", "100900.907500", "100857.067500", "100901.017500", "100857.177500", "100901.127500", "100857.287500", "100901.237500", "100857.397500", "100901.347500", "100857.507500", "100901.457500", "100857.617500", "100901.565000", "100857.725000", "100901.675000", "100857.835000", "100901.785000", "100857.945000", "100901.895000", "100858.055000", "100902.005000", "100858.165000", "100902.115000", "100858.275000", "100906.085000", "100902.245000", "100906.195000", "100902.355000", "100906.305000", "100902.465000", "100906.412500", "100902.572500", "100906.522500", "100902.682500", "100906.632500", "100902.792500", "100906.742500", "100902.902500", "100906.852500", "100903.012500", "100906.962500", "100903.122500", "100907.072500", "100903.232500", "100907.182500", "100903.342500", "100907.290000", "100903.452500", "100907.400000", "100903.560000", "100907.510000", "100903.670000", "100907.620000", "100903.780000", "100907.730000", "100903.890000", "100907.840000", "100904.000000", "100907.950000", "100904.110000", "100908.060000", "100904.220000", "100908.170000", "100904.330000", "100908.277500", "100904.440000", "100908.387500", "100904.547500", "100908.497500", "100904.657500", "100908.607500", "100904.767500", "100908.717500", "100904.877500", "100908.827500", "100904.987500", "100908.937500", "100905.097500", "100909.047500", "100905.207500", "100909.157500", "100905.317500", "100909.265000", "100905.425000", "100909.375000", "100905.535000", "100909.485000", "100905.645000", "100909.595000", "100905.755000", "100909.705000", "100905.865000", "100909.815000", "100905.975000", "100913.785000", "100909.945000", "100913.895000", "100910.055000", "100914.005000", "100910.165000", "100914.112500", "100910.272500", "100914.222500", "100910.382500", "100914.332500", "100910.492500", "100914.442500", "100910.602500", "100914.552500", "100910.712500", "100914.662500", "100910.822500", "100914.772500", "100910.932500", "100914.882500", "100911.042500", "100914.990000", "100911.152500", "100915.100000", "100911.260000", "100915.210000", "100911.370000", "100915.320000", "100911.480000", "100915.430000", "100911.590000", "100915.540000", "100911.700000", "100915.650000", "100911.810000", "100915.760000", "100911.920000", "100915.870000", "100912.030000", "100915.977500", "100912.140000", "100916.087500", "100912.247500", "100916.197500", "100912.357500", "100916.307500", "100912.467500", "100916.417500", "100912.577500", "100916.527500", "100912.687500", "100916.637500", "100912.797500", "100916.747500", "100912.907500", "100916.857500", "100913.017500", "100916.965000", "100913.125000", "100917.075000", "100913.235000", "100917.185000", "100913.345000", "100917.295000", "100913.455000", "100917.405000", "100913.565000", "100917.515000", "100913.675000", "100921.485000", "100917.645000", "100921.595000", "100917.755000", "100921.705000", "100917.865000", "100921.812500", "100917.972500", "100921.922500", "100918.082500", "100922.032500", "100918.192500", "100922.142500", "100918.302500", "100922.252500", "100918.412500", "100922.362500", "100918.522500", "100922.472500", "100918.632500", "100922.582500", "100918.742500", "100922.690000", "100918.852500", "100922.800000", "100918.960000", "100922.910000", "100919.070000", "100923.020000", "100919.180000", "100923.130000", "100919.290000", "100923.240000", "100919.400000", "100923.350000", "100919.510000", "100923.460000", "100919.620000", "100923.570000", "100919.730000", "100923.677500", "100919.840000", "100923.787500", "100919.947500", "100923.897500", "100920.057500", "100924.007500", "100920.167500", "100924.117500", "100920.277500", "100924.227500", "100920.387500", "100924.337500", "100920.497500", "100924.447500", "100920.607500", "100924.557500", "100920.717500", "100924.665000", "100920.825000", "100924.775000", "100920.935000", "100924.885000", "100921.045000", "100924.995000", "100921.155000", "100925.105000", "100921.265000", "100925.215000", "100921.375000", "100929.185000", "100925.345000", "100929.295000", "100925.455000", "100929.405000", "100925.565000", "100929.512500", "100925.672500", "100929.622500", "100925.782500", "100929.732500", "100925.892500", "100929.842500", "100926.002500", "100929.952500", "100926.112500", "100930.062500", "100926.222500", "100930.172500", "100926.332500", "100930.282500", "100926.442500", "100930.390000", "100926.552500", "100930.500000", "100926.660000", "100930.610000", "100926.770000", "100930.720000", "100926.880000", "100930.830000", "100926.990000", "100930.940000", "100927.100000", "100931.050000", "100927.210000", "100931.160000", "100927.320000", "100931.270000", "100927.430000", "100931.377500", "100927.540000", "100931.487500", "100927.647500", "100931.597500", "100927.757500", "100931.707500", "100927.867500", "100931.817500", "100927.977500", "100931.927500", "100928.087500", "100932.037500", "100928.197500", "100932.147500", "100928.307500", "100932.257500", "100928.417500", "100932.365000", "100928.525000", "100932.475000", "100928.635000", "100932.585000", "100928.745000", "100932.695000", "100928.855000", "100932.805000", "100928.965000", "100932.915000", "100929.075000", "100936.885000", "100933.045000", "100936.995000", "100933.155000", "100937.105000", "100933.265000", "100937.212500", "100933.372500", "100937.322500", "100933.482500", "100937.432500", "100933.592500", "100937.542500", "100933.702500", "100937.652500", "100933.812500", "100937.762500", "100933.922500", "100937.872500", "100934.032500", "100937.982500", "100934.142500", "100938.090000", "100934.252500", "100938.200000", "100934.360000", "100938.310000", "100934.470000", "100938.420000", "100934.580000", "100938.530000", "100934.690000", "100938.640000", "100934.800000", "100938.750000", "100934.910000", "100938.860000", "100935.020000", "100938.970000", "100935.130000", "100939.077500", "100935.240000", "100939.187500", "100935.347500", "100939.297500", "100935.457500", "100939.407500", "100935.567500", "100939.517500", "100935.677500", "100939.627500", "100935.787500", "100939.737500", "100935.897500", "100939.847500", "100936.007500", "100939.957500", "100936.117500", "100940.065000", "100936.225000", "100940.175000", "100936.335000", "100940.285000", "100936.445000", "100940.395000", "100936.555000", "100940.505000", "100936.665000", "100940.615000", "100936.775000", "100944.585000", "100940.745000", "100944.695000", "100940.855000", "100944.805000", "100940.965000", "100944.912500", "100941.072500", "100945.022500", "100941.182500", "100945.132500", "100941.292500", "100945.242500", "100941.402500", "100945.352500", "100941.512500", "100945.462500", "100941.622500", "100945.572500", "100941.732500", "100945.682500", "100941.842500", "100945.790000", "100941.952500", "100945.900000", "100942.060000", "100946.010000", "100942.170000", "100946.120000", "100942.280000", "100946.230000", "100942.390000", "100946.340000", "100942.500000", "100946.450000", "100942.610000", "100946.560000", "100942.720000", "100946.670000", "100942.830000", "100946.777500", "100942.940000", "100946.887500", "100943.047500", "100946.997500", "100943.157500", "100947.107500", "100943.267500", "100947.217500", "100943.377500", "100947.327500", "100943.487500", "100947.437500", "100943.597500", "100947.547500", "100943.707500", "100947.657500", "100943.817500", "100947.765000", "100943.925000", "100947.875000", "100944.035000", "100947.985000", "100944.145000", "100948.095000", "100944.255000", "100948.205000", "100944.365000", "100948.315000", "100944.475000", "100952.285000", "100948.445000", "100952.395000", "100948.555000", "100952.505000", "100948.665000", "100952.612500", "100948.772500", "100952.722500", "100948.882500", "100952.832500", "100948.992500", "100952.942500", "100949.102500", "100953.052500", "100949.212500", "100953.162500", "100949.322500", "100953.272500", "100949.432500", "100953.382500", "100949.542500", "100953.490000", "100949.652500", "100953.600000", "100949.760000", "100953.710000", "100949.870000", "100953.820000", "100949.980000", "100953.930000", "100950.090000", "100954.040000", "100950.200000", "100954.150000", "100950.310000", "100954.260000", "100950.420000", "100954.370000", "100950.530000", "100954.477500", "100950.640000", "100954.587500", "100950.747500", "100954.697500", "100950.857500", "100954.807500", "100950.967500", "100954.917500", "100951.077500", "100955.027500", "100951.187500", "100955.137500", "100951.297500", "100955.247500", "100951.407500", "100955.357500", "100951.517500", "100955.465000", "100951.625000", "100955.575000", "100951.735000", "100955.685000", "100951.845000", "100955.795000", "100951.955000", "100955.905000", "100952.065000", "100956.015000", "100952.175000", "100959.985000", "100956.145000", "101000.095000", "100956.255000", "101000.205000", "100956.365000", "101000.312500", "100956.472500", "101000.422500", "100956.582500", "101000.532500", "100956.692500", "101000.642500", "100956.802500", "101000.752500", "100956.912500", "101000.862500", "100957.022500", "101000.972500", "100957.132500", "101001.082500", "100957.242500", "101001.190000", "100957.352500", "101001.300000", "100957.460000", "101001.410000", "100957.570000", "101001.520000", "100957.680000", "101001.630000", "100957.790000", "101001.740000", "100957.900000", "101001.850000", "100958.010000", "101001.960000", "100958.120000", "101002.070000", "100958.230000", "101002.177500", "100958.340000", "101002.287500", "100958.447500", "101002.397500", "100958.557500", "101002.507500", "100958.667500", "101002.617500", "100958.777500", "101002.727500", "100958.887500", "101002.837500", "100958.997500", "101002.947500", "100959.107500", "101003.057500", "100959.217500", "101003.165000", "100959.325000", "101003.275000", "100959.435000", "101003.385000", "100959.545000", "101003.495000", "100959.655000", "101003.605000", "100959.765000", "101003.715000", "100959.875000", "101007.685000", "101003.845000", "101007.795000", "101003.955000", "101007.905000", "101004.065000", "101008.012500", "101004.172500", "101008.122500", "101004.282500", "101008.232500", "101004.392500", "101008.342500", "101004.502500", "101008.452500", "101004.612500", "101008.562500", "101004.722500", "101008.672500", "101004.832500", "101008.782500", "101004.942500", "101008.890000", "101005.052500", "101009.000000", "101005.160000", "101009.110000", "101005.270000", "101009.220000", "101005.380000", "101009.330000", "101005.490000", "101009.440000", "101005.600000", "101009.550000", "101005.710000", "101009.660000", "101005.820000", "101009.770000", "101005.930000", "101009.877500", "101006.040000", "101009.987500", "101006.147500", "101010.097500", "101006.257500", "101010.207500", "101006.367500", "101010.317500", "101006.477500", "101010.427500", "101006.587500", "101010.537500", "101006.697500", "101010.647500", "101006.807500", "101010.757500", "101006.917500", "101010.865000", "101007.025000", "101010.975000", "101007.135000", "101011.085000", "101007.245000", "101011.195000", "101007.355000", "101011.305000", "101007.465000", "101011.415000", "101007.575000", "101015.385000", "101011.545000", "101015.495000", "101011.655000", "101015.605000", "101011.765000", "101015.712500", "101011.872500", "101015.822500", "101011.982500", "101015.932500", "101012.092500", "101016.042500", "101012.202500", "101016.152500", "101012.312500", "101016.262500", "101012.422500", "101016.372500", "101012.532500", "101016.482500", "101012.642500", "101016.590000", "101012.752500", "101016.700000", "101012.860000", "101016.810000", "101012.970000", "101016.920000", "101013.080000", "101017.030000", "101013.190000", "101017.140000", "101013.300000", "101017.250000", "101013.410000", "101017.360000", "101013.520000", "101017.470000", "101013.630000", "101017.577500", "101013.740000", "101017.687500", "101013.847500", "101017.797500", "101013.957500", "101017.907500", "101014.067500", "101018.017500", "101014.177500", "101018.127500", "101014.287500", "101018.237500", "101014.397500", "101018.347500", "101014.507500", "101018.457500", "101014.617500", "101018.565000", "101014.725000", "101018.675000", "101014.835000", "101018.785000", "101014.945000", "101018.895000", "101015.055000", "101019.005000", "101015.165000", "101019.115000", "101015.275000", "101023.085000", "101019.245000", "101023.195000", "101019.355000", "101023.305000", "101019.465000", "101023.412500", "101019.572500", "101023.522500", "101019.682500", "101023.632500", "101019.792500", "101023.742500", "101019.902500", "101023.852500", "101020.012500", "101023.962500", "101020.122500", "101024.072500", "101020.232500", "101024.182500", "101020.342500", "101024.290000", "101020.452500", "101024.400000", "101020.560000", "101024.510000", "101020.670000", "101024.620000", "101020.780000", "101024.730000", "101020.890000", "101024.840000", "101021.000000", "101024.950000", "101021.110000", "101025.060000", "101021.220000", "101025.170000", "101021.330000", "101025.277500", "101021.440000", "101025.387500", "101021.547500", "101025.497500", "101021.657500", "101025.607500", "101021.767500", "101025.717500", "101021.877500", "101025.827500", "101021.987500", "101025.937500", "101022.097500", "101026.047500", "101022.207500", "101026.157500", "101022.317500", "101026.265000", "101022.425000", "101026.375000", "101022.535000", "101026.485000", "101022.645000", "101026.595000", "101022.755000", "101026.705000", "101022.865000", "101026.815000", "101022.975000", "101030.785000", "101026.945000", "101030.895000", "101027.055000", "101031.005000", "101027.165000", "101031.112500", "101027.272500", "101031.222500", "101027.382500", "101031.332500", "101027.492500", "101031.442500", "101027.602500", "101031.552500", "101027.712500", "101031.662500", "101027.822500", "101031.772500", "101027.932500", "101031.882500", "101028.042500", "101031.990000", "101028.152500", "101032.100000", "101028.260000", "101032.210000", "101028.370000", "101032.320000", "101028.480000", "101032.430000", "101028.590000", "101032.540000", "101028.700000", "101032.650000", "101028.810000", "101032.760000", "101028.920000", "101032.870000", "101029.030000", "101032.977500", "101029.140000", "101033.087500", "101029.247500", "101033.197500", "101029.357500", "101033.307500", "101029.467500", "101033.417500", "101029.577500", "101033.527500", "101029.687500", "101033.637500", "101029.797500", "101033.747500", "101029.907500", "101033.857500", "101030.017500", "101033.965000", "101030.125000", "101034.075000", "101030.235000", "101034.185000", "101030.345000", "101034.295000", "101030.455000", "101034.405000", "101030.565000", "101034.515000", "101030.675000", "101038.485000", "101034.645000", "101038.595000", "101034.755000", "101038.705000", "101034.865000", "101038.812500", "101034.972500", "101038.922500", "101035.082500", "101039.032500", "101035.192500", "101039.142500", "101035.302500", "101039.252500", "101035.412500", "101039.362500", "101035.522500", "101039.472500", "101035.632500", "101039.582500", "101035.742500", "101039.690000", "101035.852500", "101039.800000", "101035.960000", "101039.910000", "101036.070000", "101040.020000", "101036.180000", "101040.130000", "101036.290000", "101040.240000", "101036.400000", "101040.350000", "101036.510000", "101040.460000", "101036.620000", "101040.570000", "101036.730000", "101040.677500", "101036.840000", "101040.787500", "101036.947500", "101040.897500", "101037.057500", "101041.007500", "101037.167500", "101041.117500", "101037.277500", "101041.227500", "101037.387500", "101041.337500", "101037.497500", "101041.447500", "101037.607500", "101041.557500", "101037.717500", "101041.665000", "101037.825000", "101041.775000", "101037.935000", "101041.885000", "101038.045000", "101041.995000", "101038.155000", "101042.105000", "101038.265000", "101042.215000", "101038.375000", "101046.185000", "101042.345000", "101046.295000", "101042.455000", "101046.405000", "101042.565000", "101046.512500", "101042.672500", "101046.622500", "101042.782500", "101046.732500", "101042.892500", "101046.842500", "101043.002500", "101046.952500", "101043.112500", "101047.062500", "101043.222500", "101047.172500", "101043.332500", "101047.282500", "101043.442500", "101047.390000", "101043.552500", "101047.500000", "101043.660000", "101047.610000", "101043.770000", "101047.720000", "101043.880000", "101047.830000", "101043.990000", "101047.940000", "101044.100000", "101048.050000", "101