{
  "AcquisitionMatrixPE": 80,
  "AcquisitionNumber": 1,
  "AcquisitionTime": "08:50:50.207500",
  "BandwidthPerPixelPhaseEncode": 48.077,
  "BaseResolution": 80,
  "BodyPartExamined": "BRAIN",
  "CoilCombinationMethod": "Sum of Squares",
  "ConsistencyInfo": "N4_VE11C_LATEST_20160120",
  "ConversionSoftware": "dcm2niix",
  "ConversionSoftwareVersion": "v1.0.20220720",
  "DerivedVendorReportedEchoSpacing": 0.000519999,
  "DeviceSerialNumber": "66112",
  "DwellTime": 2.7e-06,
  "EchoTime": 0.035,
  "EchoTrainLength": 39,
  "EffectiveEchoSpacing": 0.00026,
  "FlipAngle": 90,
  "HeudiconvVersion": "0.13.1",
  "ImageOrientationPatientDICOM": [0.985534, 0.169128, 0.010889, -0.164038, 0.935781, 0.312098],
  "ImageOrientationText": "Tra>Cor(18.0)>Sag(-2.4)",
  "ImageType": [
    "ORIGINAL",
    "PRIMARY",
    "M",
    "ND",
    "NORM",
    "MOSAIC"
],
  "ImagingFrequency": 123.252,
  "InPlanePhaseEncodingDirectionDICOM": "COL",
  "InstitutionAddress": "Maynard 3,Hanover,NH,US,03755",
  "InstitutionName": "Dartmouth College - PBS",
  "InstitutionalDepartmentName": "Department",
  "MRAcquisitionType": "2D",
  "MagneticFieldStrength": 3,
  "Manufacturer": "Siemens",
  "ManufacturersModelName": "Prisma",
  "MatrixCoilMode": "GRAPPA",
  "Modality": "MR",
  "NonlinearGradientCorrection": false,
  "ParallelReductionFactorInPlane": 2,
  "PartialFourier": 1,
  "PatientPosition": "HFS",
  "PercentPhaseFOV": 100,
  "PercentSampling": 100,
  "PhaseEncodingDirection": "j-",
  "PhaseEncodingSteps": 79,
  "PhaseResolution": 1,
  "PixelBandwidth": 2315,
  "ProcedureStepDescription": "dbic^QA",
  "ProtocolName": "func-bold_task-rest_acq-p2",
  "PulseSequenceDetails": "%SiemensSeq%\\ep2d_bold",
  "ReceiveCoilActiveElements": "HC1-7;NC1,2",
  "ReceiveCoilName": "HeadNeck_64",
  "ReconMatrixPE": 80,
  "RefLinesPE": 24,
  "RepetitionTime": 2,
  "SAR": 0.0409774,
  "ScanOptions": "FS",
  "ScanningSequence": "EP",
  "SequenceName": "*epfid2d1_80",
  "SequenceVariant": "SK",
  "SeriesDescription": "func-bold_task-rest_acq-p2",
  "SeriesNumber": 5,
  "ShimSetting": [4139, -7706, -7516, 192, -55, -246, -40, 72],
  "SliceThickness": 3.5,
  "SliceTiming": [0.99, 0, 1.055, 0.065, 1.1225, 0.1325, 1.1875, 0.1975, 1.2525, 0.2625, 1.32, 0.33, 1.385, 0.395, 1.4525, 0.4625, 1.5175, 0.5275, 1.5825, 0.5925, 1.65, 0.66, 1.715, 0.725, 1.7825, 0.7925, 1.8475, 0.8575, 1.9125, 0.9225],
  "SoftwareVersions": "syngo MR E11",
  "SpacingBetweenSlices": 3.99,
  "StationName": "AWP66112",
  "TaskName": "rest",
  "TotalReadoutTime": 0.02054,
  "TxRefAmp": 219.021,
  "dcmmeta_affine": [
    [-2.956602096557617, -0.49211353063583374, -0.16995252668857574, 144.13052368164062],
    [-0.5073828101158142, 2.8073437213897705, 1.2343837022781372, -95.00093841552734],
    [0.03266710415482521, -0.9362937808036804, 3.79045033454895, -10.422024726867676],
    [0.0, 0.0, 0.0, 1.0]
],
  "dcmmeta_reorient_transform": [
    [0.0, -1.0, 0.0, 79.0],
    [1.0, 0.0, 0.0, 0.0],
    [0.0, 0.0, 1.0, 0.0],
    [0.0, 0.0, 0.0, 1.0]
],
  "dcmmeta_shape": [80, 80, 30, 200],
  "dcmmeta_slice_dim": 2,
  "dcmmeta_version": 0.6,
  "global": {
    "const": {
      "AccessionNumber": "qa64",
      "AcquisitionMatrix": [80, 0, 0, 80],
      "AngioFlag": "N",
      "BitsAllocated": 16,
      "BitsStored": 12,
      "BodyPartExamined": "BRAIN",
      "Columns": 480,
      "EchoNumbers": 1,
      "EchoTime": 35.0,
      "EchoTrainLength": 39,
      "FlipAngle": 90.0,
      "HighBit": 11,
      "ImageOrientationPatient": [0.9855340093705, 0.16912760060049, 0.01088903527505, -0.1640378455578, 0.93578120719171, 0.3120979293292],
      "ImagePositionPatient": [-598.15125442081, -789.72449282498, -278.1814128549],
      "ImageType": [
        "ORIGINAL",
        "PRIMARY",
        "M",
        "ND",
        "NORM",
        "MOSAIC"
],
      "ImagedNucleus": "1H",
      "ImagingFrequency": 123.252405,
      "InPlanePhaseEncodingDirection": "COL",
      "MRAcquisitionType": "2D",
      "MagneticFieldStrength": 3.0,
      "Manufacturer": "SIEMENS",
      "ManufacturerModelName": "Prisma",
      "Modality": "MR",
      "NumberOfAverages": 1.0,
      "NumberOfPhaseEncodingSteps": 79,
      "PercentPhaseFieldOfView": 100.0,
      "PercentSampling": 100.0,
      "PerformedProcedureStepStartTime": "084907.805000",
      "PhotometricInterpretation": "MONOCHROME2",
      "PixelBandwidth": 2315.0,
      "PixelRepresentation": 0,
      "PixelSpacing": [3.0, 3.0],
      "ProtocolName": "func-bold_task-rest_acq-p2",
      "RepetitionTime": 2000.0,
      "Rows": 480,
      "SAR": 0.04097736786609,
      "SamplesPerPixel": 1,
      "ScanOptions": "FS",
      "ScanningSequence": "EP",
      "SequenceName": "*epfid2d1_80",
      "SequenceVariant": "SK",
      "SeriesDescription": "func-bold_task-rest_acq-p2",
      "SeriesNumber": 5,
      "SeriesTime": "085138.615000",
      "SliceLocation": -45.430355770297,
      "SliceThickness": 3.5,
      "SmallestImagePixelValue": 0,
      "SoftwareVersions": "syngo MR E11",
      "SpacingBetweenSlices": 3.9899999947281,
      "SpecificCharacterSet": "ISO_IR 100",
      "StudyID": "5",
      "StudyTime": "084907.705000",
      "TransmitCoilName": "Body",
      "VariableFlipAngleFlag": "N",
      "WindowCenterWidthExplanation": "Algo1",
      "dBdt": 0.0},
    "slices": {}
  },
  "time": {
    "samples": {
      "AcquisitionNumber": [1, 2, 3, 4, 5, 6, 7, 8, 9, 10, 11, 12, 13, 14, 15, 16, 17, 18, 19, 20, 21, 22, 23, 24, 25, 26, 27, 28, 29, 30, 31, 32, 33, 34, 35, 36, 37, 38, 39, 40, 41, 42, 43, 44, 45, 46, 47, 48, 49, 50, 51, 52, 53, 54, 55, 56, 57, 58, 59, 60, 61, 62, 63, 64, 65, 66, 67, 68, 69, 70, 71, 72, 73, 74, 75, 76, 77, 78, 79, 80, 81, 82, 83, 84, 85, 86, 87, 88, 89, 90, 91, 92, 93, 94, 95, 96, 97, 98, 99, 100, 101, 102, 103, 104, 105, 106, 107, 108, 109, 110, 111, 112, 113, 114, 115, 116, 117, 118, 119, 120, 121, 122, 123, 124, 125, 126, 127, 128, 129, 130, 131, 132, 133, 134, 135, 136, 137, 138, 139, 140, 141, 142, 143, 144, 145, 146, 147, 148, 149, 150, 151, 152, 153, 154, 155, 156, 157, 158, 159, 160, 161, 162, 163, 164, 165, 166, 167, 168, 169, 170, 171, 172, 173, 174, 175, 176, 177, 178, 179, 180, 181, 182, 183, 184, 185, 186, 187, 188, 189, 190, 191, 192, 193, 194, 195, 196, 197, 198, 199, 200],
      "AcquisitionTime": ["085050.207500", "085052.207500", "085054.207500", "085056.207500", "085058.207500", "085100.207500", "085102.207500", "085104.207500", "085106.207500", "085108.207500", "085110.207500", "085112.207500", "085114.207500", "085116.207500", "085118.207500", "085120.207500", "085122.207500", "085124.207500", "085126.207500", "085128.207500", "085130.207500", "085132.207500", "085134.207500", "085136.207500", "085138.207500", "085140.207500", "085142.207500", "085144.207500", "085146.207500", "085148.207500", "085150.207500", "085152.207500", "085154.207500", "085156.207500", "085158.207500", "085200.207500", "085202.207500", "085204.207500", "085206.207500", "085208.207500", "085210.207500", "085212.207500", "085214.207500", "085216.207500", "085218.207500", "085220.207500", "085222.207500", "085224.207500", "085226.207500", "085228.207500", "085230.207500", "085232.207500", "085234.207500", "085236.207500", "085238.207500", "085240.207500", "085242.207500", "085244.207500", "085246.207500", "085248.207500", "085250.207500", "085252.207500", "085254.207500", "085256.207500", "085258.207500", "085300.207500", "085302.207500", "085304.207500", "085306.207500", "085308.207500", "085310.207500", "085312.207500", "085314.207500", "085316.207500", "085318.207500", "085320.207500", "085322.207500", "085324.207500", "085326.207500", "085328.207500", "085330.207500", "085332.207500", "085334.207500", "085336.207500", "085338.207500", "085340.207500", "085342.207500", "085344.207500", "085346.207500", "085348.207500", "085350.207500", "085352.207500", "085354.207500", "085356.207500", "085358.207500", "085400.207500", "085402.207500", "085404.207500", "085406.207500", "085408.207500", "085410.207500", "085412.207500", "085414.207500", "085416.207500", "085418.207500", "085420.207500", "085422.207500", "085424.207500", "085426.207500", "085428.207500", "085430.207500", "085432.207500", "085434.207500", "085436.207500", "085438.207500", "085440.207500", "085442.207500", "085444.207500", "085446.207500", "085448.207500", "085450.207500", "085452.207500", "085454.207500", "085456.207500", "085458.207500", "085500.207500", "085502.207500", "085504.207500", "085506.207500", "085508.207500", "085510.207500", "085512.207500", "085514.207500", "085516.207500", "085518.207500", "085520.207500", "085522.207500", "085524.207500", "085526.207500", "085528.207500", "085530.207500", "085532.207500", "085534.207500", "085536.207500", "085538.207500", "085540.207500", "085542.207500", "085544.207500", "085546.207500", "085548.207500", "085550.207500", "085552.207500", "085554.207500", "085556.207500", "085558.207500", "085600.207500", "085602.207500", "085604.207500", "085606.207500", "085608.207500", "085610.207500", "085612.207500", "085614.207500", "085616.207500", "085618.207500", "085620.207500", "085622.207500", "085624.207500", "085626.207500", "085628.207500", "085630.207500", "085632.207500", "085634.207500", "085636.207500", "085638.207500", "085640.207500", "085642.207500", "085644.207500", "085646.207500", "085648.207500", "085650.207500", "085652.207500", "085654.207500", "085656.207500", "085658.207500", "085700.207500", "085702.207500", "085704.207500", "085706.207500", "085708.207500", "085710.207500", "085712.207500", "085714.207500", "085716.207500", "085718.207500", "085720.207500", "085722.207500", "085724.207500", "085726.207500", "085728.207500"],
      "ContentTime": ["085138.620000", "085138.631000", "085138.633000", "085138.643000", "085138.645000", "085138.648000", "085138.651000", "085138.653000", "085138.656000", "085138.658000", "085138.661000", "085138.663000", "085138.666000", "085138.668000", "085138.671000", "085138.678000", "085138.681000", "085138.684000", "085138.686000", "085138.689000", "085138.697000", "085138.700000", "085138.703000", "085138.705000", "085218.614000", "085218.618000", "085218.620000", "085218.623000", "085218.625000", "085218.628000", "085218.630000", "085218.633000", "085218.636000", "085218.638000", "085218.641000", "085218.643000", "085218.646000", "085218.648000", "085218.651000", "085218.654000", "085218.656000", "085218.665000", "085218.668000", "085218.670000", "085258.613000", "085258.616000", "085258.619000", "085258.621000", "085258.624000", "085258.626000", "085258.629000", "085258.638000", "085258.640000", "085258.643000", "085258.646000", "085258.648000", "085258.651000", "085258.653000", "085258.656000", "085258.660000", "085258.663000", "085258.665000", "085258.668000", "085258.671000", "085338.613000", "085338.616000", "085338.619000", "085338.626000", "085338.629000", "085338.632000", "085338.634000", "085338.637000", "085338.639000", "085338.642000", "085338.645000", "085338.647000", "085338.650000", "085338.652000", "085338.655000", "085338.657000", "085338.660000", "085338.662000", "085338.665000", "085338.671000", "085358.613000", "085358.616000", "085358.619000", "085358.631000", "085358.633000", "085358.636000", "085358.638000", "085358.645000", "085358.647000", "085358.650000", "085438.614000", "085438.624000", "085438.626000", "085438.641000", "085438.644000", "085438.646000", "085438.649000", "085438.652000", "085438.665000", "085438.677000", "085438.680000", "085438.688000", "085438.690000", "085438.693000", "085438.696000", "085438.698000", "085438.701000", "085438.703000", "085438.706000", "085438.708000", "085518.613000", "085518.616000", "085518.619000", "085518.625000", "085518.627000", "085518.630000", "085518.632000", "085518.635000", "085518.638000", "085518.640000", "085518.643000", "085518.645000", "085518.652000", "085518.655000", "085518.657000", "085518.660000", "085518.662000", "085518.665000", "085518.668000", "085518.670000", "085558.613000", "085558.616000", "085558.622000", "085558.625000", "085558.627000", "085558.630000", "085558.633000", "085558.635000", "085558.638000", "085558.641000", "085558.643000", "085558.646000", "085558.648000", "085558.651000", "085558.653000", "085558.656000", "085558.658000", "085558.661000", "085558.664000", "085558.666000", "085638.614000", "085638.617000", "085638.620000", "085638.622000", "085638.625000", "085638.627000", "085638.630000", "085638.632000", "085638.635000", "085638.637000", "085638.640000", "085638.643000", "085638.645000", "085638.648000", "085638.651000", "085638.653000", "085638.656000", "085638.658000", "085638.661000", "085638.664000", "085718.613000", "085718.616000", "085718.619000", "085718.621000", "085718.624000", "085718.626000", "085718.629000", "085718.631000", "085718.634000", "085718.637000", "085718.639000", "085718.646000", "085718.649000", "085718.651000", "085718.654000", "085718.657000", "085718.659000", "085718.662000", "085718.664000", "085718.667000", "085729.438000", "085729.441000", "085729.443000", "085729.446000", "085729.449000", "085729.451000"],
      "InstanceCreationTime": ["085138.620000", "085138.631000", "085138.633000", "085138.643000", "085138.645000", "085138.648000", "085138.651000", "085138.653000", "085138.656000", "085138.658000", "085138.661000", "085138.663000", "085138.666000", "085138.668000", "085138.671000", "085138.678000", "085138.681000", "085138.684000", "085138.686000", "085138.689000", "085138.697000", "085138.700000", "085138.703000", "085138.705000", "085218.614000", "085218.618000", "085218.620000", "085218.623000", "085218.625000", "085218.628000", "085218.630000", "085218.633000", "085218.636000", "085218.638000", "085218.641000", "085218.643000", "085218.646000", "085218.648000", "085218.651000", "085218.654000", "085218.656000", "085218.665000", "085218.668000", "085218.670000", "085258.613000", "085258.616000", "085258.619000", "085258.621000", "085258.624000", "085258.626000", "085258.629000", "085258.638000", "085258.640000", "085258.643000", "085258.646000", "085258.648000", "085258.651000", "085258.653000", "085258.656000", "085258.660000", "085258.663000", "085258.665000", "085258.668000", "085258.671000", "085338.613000", "085338.616000", "085338.619000", "085338.626000", "085338.629000", "085338.632000", "085338.634000", "085338.637000", "085338.639000", "085338.642000", "085338.645000", "085338.647000", "085338.650000", "085338.652000", "085338.655000", "085338.657000", "085338.660000", "085338.662000", "085338.665000", "085338.671000", "085358.613000", "085358.616000", "085358.619000", "085358.631000", "085358.633000", "085358.636000", "085358.638000", "085358.645000", "085358.647000", "085358.650000", "085438.614000", "085438.624000", "085438.626000", "085438.641000", "085438.644000", "085438.646000", "085438.649000", "085438.652000", "085438.665000", "085438.677000", "085438.680000", "085438.688000", "085438.690000", "085438.693000", "085438.696000", "085438.698000", "085438.701000", "085438.703000", "085438.706000", "085438.708000", "085518.613000", "085518.616000", "085518.619000", "085518.625000", "085518.627000", "085518.630000", "085518.632000", "085518.635000", "085518.638000", "085518.640000", "085518.643000", "085518.645000", "085518.652000", "085518.655000", "085518.657000", "085518.660000", "085518.662000", "085518.665000", "085518.668000", "085518.670000", "085558.613000", "085558.616000", "085558.622000", "085558.625000", "085558.627000", "085558.630000", "085558.633000", "085558.635000", "085558.638000", "085558.641000", "085558.643000", "085558.646000", "085558.648000", "085558.651000", "085558.653000", "085558.656000", "085558.658000", "085558.661000", "085558.664000", "085558.666000", "085638.614000", "085638.617000", "085638.620000", "085638.622000", "085638.625000", "085638.627000", "085638.630000", "085638.632000", "085638.635000", "085638.637000", "085638.640000", "085638.643000", "085638.645000", "085638.648000", "085638.651000", "085638.653000", "085638.656000", "085638.658000", "085638.661000", "085638.664000", "085718.613000", "085718.616000", "085718.619000", "085718.621000", "085718.624000", "085718.626000", "085718.629000", "085718.631000", "085718.634000", "085718.637000", "085718.639000", "085718.646000", "085718.649000", "085718.651000", "085718.654000", "085718.657000", "085718.659000", "085718.662000", "085718.664000", "085718.667000", "085729.438000", "085729.441000", "085729.443000", "085729.446000", "085729.449000", "085729.451000"],
      "InstanceNumber": [1, 2, 3, 4, 5, 6, 7, 8, 9, 10, 11, 12, 13, 14, 15, 16, 17, 18, 19, 20, 21, 22, 23, 24, 25, 26, 27, 28, 29, 30, 31, 32, 33, 34, 35, 36, 37, 38, 39, 40, 41, 42, 43, 44, 45, 46, 47, 48, 49, 50, 51, 52, 53, 54, 55, 56, 57, 58, 59, 60, 61, 62, 63, 64, 65, 66, 67, 68, 69, 70, 71, 72, 73, 74, 75, 76, 77, 78, 79, 80, 81, 82, 83, 84, 85, 86, 87, 88, 89, 90, 91, 92, 93, 94, 95, 96, 97, 98, 99, 100, 101, 102, 103, 104, 105, 106, 107, 108, 109, 110, 111, 112, 113, 114, 115, 116, 117, 118, 119, 120, 121, 122, 123, 124, 125, 126, 127, 128, 129, 130, 131, 132, 133, 134, 135, 136, 137, 138, 139, 140, 141, 142, 143, 144, 145, 146, 147, 148, 149, 150, 151, 152, 153, 154, 155, 156, 157, 158, 159, 160, 161, 162, 163, 164, 165, 166, 167, 168, 169, 170, 171, 172, 173, 174, 175, 176, 177, 178, 179, 180, 181, 182, 183, 184, 185, 186, 187, 188, 189, 190, 191, 192, 193, 194, 195, 196, 197, 198, 199, 200],
      "LargestImagePixelValue": [3758, 3756, 3784, 3767, 3756, 3770, 3754, 3777, 3758, 3766, 3755, 3770, 3762, 3759, 3757, 3757, 3767, 3763, 3764, 3772, 3764, 3753, 3770, 3752, 3743, 3751, 3767, 3770, 3767, 3762, 3747, 3766, 3760, 3753, 3767, 3747, 3775, 3764, 3756, 3756, 3755, 3764, 3758, 3755, 3747, 3746, 3763, 3759, 3761, 3771, 3766, 3759, 3754, 3760, 3744, 3754, 3746, 3752, 3758, 3758, 3752, 3769, 3756, 3753, 3764, 3750, 3759, 3748, 3765, 3752, 3758, 3753, 3758, 3743, 3754, 3747, 3756, 3749, 3750, 3750, 3737, 3741, 3750, 3757, 3742, 3746, 3744, 3753, 3759, 3751, 3743, 3750, 3742, 3738, 3747, 3749, 3754, 3743, 3750, 3748, 3750, 3743, 3742, 3756, 3740, 3750, 3743, 3743, 3750, 3744, 3755, 3745, 3747, 3743, 3743, 3748, 3734, 3753, 3741, 3748, 3745, 3738, 3738, 3755, 3744, 3745, 3735, 3747, 3745, 3738, 3744, 3739, 3752, 3737, 3749, 3762, 3735, 3740, 3761, 3766, 3759, 3755, 3751, 3746, 3744, 3749, 3738, 3740, 3737, 3757, 3735, 3740, 3748, 3756, 3745, 3743, 3745, 3743, 3735, 3747, 3733, 3750, 3737, 3741, 3746, 3744, 3743, 3731, 3734, 3739, 3733, 3732, 3748, 3747, 3746, 3734, 3751, 3736, 3736, 3736, 3738, 3737, 3743, 3732, 3735, 3726, 3747, 3741, 3732, 3728, 3731, 3745, 3738, 3736, 3732, 3736, 3736, 3738, 3730, 3745],
      "WindowCenter": [1433.0, 1433.0, 1433.0, 1432.0, 1433.0, 1432.0, 1432.0, 1432.0, 1432.0, 1432.0, 1432.0, 1432.0, 1432.0, 1432.0, 1431.0, 1432.0, 1432.0, 1432.0, 1431.0, 1431.0, 1432.0, 1431.0, 1431.0, 1431.0, 1432.0, 1431.0, 1431.0, 1431.0, 1431.0, 1431.0, 1431.0, 1431.0, 1431.0, 1431.0, 1432.0, 1432.0, 1431.0, 1431.0, 1430.0, 1431.0, 1430.0, 1431.0, 1430.0, 1431.0, 1431.0, 1431.0, 1431.0, 1430.0, 1431.0, 1430.0, 1430.0, 1430.0, 1430.0, 1430.0, 1431.0, 1430.0, 1430.0, 1431.0, 1430.0, 1430.0, 1430.0, 1430.0, 1430.0, 1430.0, 1429.0, 1430.0, 1430.0, 1430.0, 1429.0, 1429.0, 1430.0, 1429.0, 1429.0, 1429.0, 1430.0, 1430.0, 1430.0, 1430.0, 1429.0, 1429.0, 1429.0, 1429.0, 1429.0, 1429.0, 1429.0, 1429.0, 1429.0, 1428.0, 1429.0, 1429.0, 1429.0, 1429.0, 1429.0, 1430.0, 1429.0, 1429.0, 1428.0, 1429.0, 1429.0, 1429.0, 1429.0, 1429.0, 1429.0, 1429.0, 1428.0, 1428.0, 1429.0, 1429.0, 1428.0, 1429.0, 1429.0, 1428.0, 1428.0, 1429.0, 1428.0, 1428.0, 1429.0, 1428.0, 1428.0, 1427.0, 1427.0, 1428.0, 1427.0, 1429.0, 1428.0, 1428.0, 1428.0, 1427.0, 1428.0, 1428.0, 1427.0, 1427.0, 1427.0, 1428.0, 1428.0, 1427.0, 1427.0, 1428.0, 1427.0, 1428.0, 1427.0, 1427.0, 1427.0, 1427.0, 1427.0, 1427.0, 1427.0, 1428.0, 1427.0, 1428.0, 1427.0, 1427.0, 1428.0, 1427.0, 1427.0, 1427.0, 1427.0, 1427.0, 1428.0, 1427.0, 1427.0, 1427.0, 1427.0, 1427.0, 1427.0, 1426.0, 1427.0, 1427.0, 1427.0, 1427.0, 1427.0, 1427.0, 1427.0, 1427.0, 1426.0, 1427.0, 1427.0, 1427.0, 1426.0, 1427.0, 1427.0, 1427.0, 1426.0, 1426.0, 1426.0, 1426.0, 1426.0, 1425.0, 1425.0, 1426.0, 1426.0, 1426.0, 1426.0, 1426.0, 1426.0, 1426.0, 1426.0, 1426.0, 1425.0, 1426.0],
      "WindowWidth": [3293.0, 3292.0, 3292.0, 3292.0, 3292.0, 3292.0, 3292.0, 3292.0, 3292.0, 3292.0, 3292.0, 3292.0, 3292.0, 3292.0, 3292.0, 3291.0, 3292.0, 3291.0, 3292.0, 3292.0, 3291.0, 3291.0, 3291.0, 3291.0, 3291.0, 3291.0, 3291.0, 3291.0, 3291.0, 3291.0, 3291.0, 3291.0, 3291.0, 3291.0, 3290.0, 3290.0, 3291.0, 3291.0, 3291.0, 3290.0, 3291.0, 3290.0, 3291.0, 3290.0, 3290.0, 3290.0, 3290.0, 3290.0, 3290.0, 3290.0, 3290.0, 3290.0, 3290.0, 3290.0, 3289.0, 3290.0, 3289.0, 3289.0, 3290.0, 3290.0, 3290.0, 3289.0, 3289.0, 3289.0, 3290.0, 3289.0, 3289.0, 3289.0, 3289.0, 3289.0, 3289.0, 3289.0, 3289.0, 3289.0, 3289.0, 3289.0, 3289.0, 3288.0, 3289.0, 3288.0, 3288.0, 3288.0, 3288.0, 3288.0, 3288.0, 3288.0, 3288.0, 3289.0, 3288.0, 3288.0, 3288.0, 3288.0, 3288.0, 3288.0, 3288.0, 3288.0, 3288.0, 3288.0, 3288.0, 3288.0, 3288.0, 3288.0, 3288.0, 3288.0, 3288.0, 3288.0, 3288.0, 3288.0, 3289.0, 3288.0, 3288.0, 3289.0, 3289.0, 3288.0, 3288.0, 3288.0, 3288.0, 3288.0, 3288.0, 3288.0, 3288.0, 3288.0, 3288.0, 3287.0, 3288.0, 3287.0, 3287.0, 3287.0, 3287.0, 3287.0, 3287.0, 3287.0, 3287.0, 3287.0, 3287.0, 3287.0, 3287.0, 3287.0, 3287.0, 3287.0, 3287.0, 3287.0, 3288.0, 3288.0, 3288.0, 3288.0, 3288.0, 3288.0, 3288.0, 3288.0, 3288.0, 3288.0, 3288.0, 3288.0, 3288.0, 3288.0, 3288.0, 3288.0, 3288.0, 3288.0, 3287.0, 3288.0, 3288.0, 3288.0, 3288.0, 3288.0, 3288.0, 3288.0, 3287.0, 3287.0, 3287.0, 3287.0, 3287.0, 3287.0, 3288.0, 3288.0, 3287.0, 3287.0, 3288.0, 3288.0, 3288.0, 3287.0, 3288.0, 3288.0, 3287.0, 3287.0, 3287.0, 3288.0, 3288.0, 3287.0, 3287.0, 3287.0, 3287.0, 3287.0, 3287.0, 3287.0, 3287.0, 3287.0, 3287.0, 3287.0]
    },
    "slices": {}
  }
}