{
  "AcquisitionMatrixPE": 122,
  "AcquisitionNumber": 1,
  "AcquisitionTime": "11:07:6.492500",
  "BandwidthPerPixelPhaseEncode": 27.785,
  "BaseResolution": 122,
  "BodyPartExamined": "BRAIN",
  "CoilCombinationMethod": "Adaptive Combine",
  "ConsistencyInfo": "N4_VE11C_LATEST_20160120",
  "ConversionSoftware": "dcm2niix",
  "ConversionSoftwareVersion": "v1.0.20220720",
  "DerivedVendorReportedEchoSpacing": 0.000590011,
  "DeviceSerialNumber": "66112",
  "DiffusionScheme": "Monopolar",
  "DwellTime": 2e-06,
  "EchoTime": 0.068,
  "EchoTrainLength": 61,
  "EffectiveEchoSpacing": 0.000295005,
  "FlipAngle": 90,
  "HeudiconvVersion": "0.13.1",
  "ImageOrientationPatientDICOM": [0.999927, 0.0100431, -0.00675608, -0.00767902, 0.957812, 0.287294],
  "ImageOrientationText": "Tra>Cor(16.7)>Sag(-0.5)",
  "ImageType": [
    "ORIGINAL",
    "PRIMARY",
    "DIFFUSION",
    "NONE",
    "ND",
    "NORM"
],
  "ImagingFrequency": 123.252,
  "InPlanePhaseEncodingDirectionDICOM": "COL",
  "InstitutionAddress": "Maynard 3,Hanover,NH,US,03755",
  "InstitutionName": "Dartmouth College - PBS",
  "InstitutionalDepartmentName": "Department",
  "MRAcquisitionType": "2D",
  "MagneticFieldStrength": 3,
  "Manufacturer": "Siemens",
  "ManufacturersModelName": "Prisma",
  "Modality": "MR",
  "MultibandAccelerationFactor": 4,
  "NonlinearGradientCorrection": false,
  "ParallelReductionFactorInPlane": 2,
  "PartialFourier": 1,
  "PatientPosition": "HFS",
  "PercentPhaseFOV": 100,
  "PercentSampling": 100,
  "PhaseEncodingDirection": "j-",
  "PhaseEncodingSteps": 122,
  "PhaseResolution": 1,
  "PixelBandwidth": 2050,
  "ProcedureStepDescription": "dbic^QA",
  "ProtocolName": "dwi_acq-DTI-30-p2-s4",
  "PulseSequenceDetails": "%SiemensSeq%\\ep2d_diff",
  "ReceiveCoilActiveElements": "HEA;HEP",
  "ReceiveCoilName": "Head_32",
  "ReconMatrixPE": 122,
  "RefLinesPE": 38,
  "RepetitionTime": 3.6,
  "SAR": 0.161494,
  "ScanOptions": "FS",
  "ScanningSequence": "EP",
  "SequenceName": "*ep_b0",
  "SequenceVariant": "SK\\SP",
  "SeriesDescription": "dwi_acq-DTI-30-p2-s4",
  "SeriesNumber": 9,
  "ShimSetting": [4148, -7694, -7497, 301, -76, -102, -56, 74],
  "SliceThickness": 2,
  "SliceTiming": [2.58594, 0, 1.78906, 0.20312, 1.99219, 0.39844, 2.1875, 0.60156, 2.39062, 1, 2.78906, 1.19531, 2.98438, 1.39062, 3.1875, 1.59375, 3.38281, 0.79688, 2.58594, 0, 1.78906, 0.20312, 1.99219, 0.39844, 2.1875, 0.60156, 2.39062, 1, 2.78906, 1.19531, 2.98438, 1.39062, 3.1875, 1.59375, 3.38281, 0.79688, 2.58594, 0, 1.78906, 0.20312, 1.99219, 0.39844, 2.1875, 0.60156, 2.39062, 1, 2.78906, 1.19531, 2.98438, 1.39062, 3.1875, 1.59375, 3.38281, 0.79688, 2.58594, 0, 1.78906, 0.20312, 1.99219, 0.39844, 2.1875, 0.60156, 2.39062, 1, 2.78906, 1.19531, 2.98438, 1.39062, 3.1875, 1.59375, 3.38281, 0.79688],
  "SoftwareVersions": "syngo MR E11",
  "SpacingBetweenSlices": 2,
  "SpoilingState": true,
  "StationName": "AWP66112",
  "TotalReadoutTime": 0.0356956,
  "TxRefAmp": 231.901,
  "dcmmeta_affine": [
    [-1.9670690298080444, -0.015106267295777798, -0.018712759017944336, 120.86912536621094],
    [-0.01975700445473194, 1.8842196464538574, 0.5744419097900391, -124.49823760986328],
    [-0.013290655799210072, -0.5651689171791077, 1.9156341552734375, -30.97085952758789],
    [0.0, 0.0, 0.0, 1.0]
],
  "dcmmeta_reorient_transform": [
    [0.0, -1.0, 0.0, 121.0],
    [1.0, 0.0, 0.0, 0.0],
    [0.0, 0.0, -1.0, 71.0],
    [0.0, 0.0, 0.0, 1.0]
],
  "dcmmeta_shape": [122, 122, 72, 31],
  "dcmmeta_slice_dim": 2,
  "dcmmeta_version": 0.6,
  "global": {
    "const": {
      "AccessionNumber": "qa",
      "AcquisitionMatrix": [122, 0, 0, 122],
      "AngioFlag": "N",
      "BitsAllocated": 16,
      "BitsStored": 12,
      "BodyPartExamined": "BRAIN",
      "Columns": 122,
      "EchoNumbers": 1,
      "EchoTime": 68.0,
      "EchoTrainLength": 61,
      "FlipAngle": 90.0,
      "HighBit": 11,
      "ImageOrientationPatient": [0.99992674261423, 0.01004314416687, -0.0067560831947, -0.0076790190164, 0.95781160527403, 0.28729420716286],
      "ImageType": [
        "ORIGINAL",
        "PRIMARY",
        "DIFFUSION",
        "NONE",
        "ND",
        "NORM"
],
      "ImagedNucleus": "1H",
      "ImagingFrequency": 123.252462,
      "InPlanePhaseEncodingDirection": "COL",
      "MRAcquisitionType": "2D",
      "MagneticFieldStrength": 3.0,
      "Manufacturer": "SIEMENS",
      "ManufacturerModelName": "Prisma",
      "Modality": "MR",
      "NumberOfAverages": 1.0,
      "NumberOfPhaseEncodingSteps": 122,
      "PercentPhaseFieldOfView": 100.0,
      "PercentSampling": 100.0,
      "PerformedProcedureStepStartTime": "104528.550000",
      "PhotometricInterpretation": "MONOCHROME2",
      "PixelBandwidth": 2050.0,
      "PixelRepresentation": 0,
      "PixelSpacing": [1.9672131538391, 1.9672131538391],
      "ProtocolName": "dwi_acq-DTI-30-p2-s4",
      "RepetitionTime": 3600.0,
      "Rows": 122,
      "SAR": 0.16149375121183,
      "SamplesPerPixel": 1,
      "ScanOptions": "FS",
      "ScanningSequence": "EP",
      "SequenceVariant": [
        "SK",
        "SP"
],
      "SeriesDescription": "dwi_acq-DTI-30-p2-s4",
      "SeriesNumber": 9,
      "SeriesTime": "110715.584000",
      "SliceThickness": 2.0,
      "SmallestImagePixelValue": 0,
      "SoftwareVersions": "syngo MR E11",
      "SpacingBetweenSlices": 2.0,
      "SpecificCharacterSet": "ISO_IR 100",
      "StudyID": "76",
      "StudyTime": "104528.434000",
      "TransmitCoilName": "Body",
      "VariableFlipAngleFlag": "N",
      "WindowCenterWidthExplanation": "Algo1",
      "dBdt": 0.0},
    "slices": {
      "AcquisitionTime": ["110706.492500", "110703.907500", "110705.697500", "110704.107500", "110705.897500", "110704.305000", "110706.095000", "110704.505000", "110706.295000", "110704.902500", "110706.692500", "110705.100000", "110706.890000", "110705.300000", "110707.090000", "110705.497500", "110707.287500", "110704.702500", "110706.492500", "110703.907500", "110705.697500", "110704.107500", "110705.897500", "110704.305000", "110706.095000", "110704.505000", "110706.295000", "110704.902500", "110706.692500", "110705.100000", "110706.890000", "110705.300000", "110707.090000", "110705.497500", "110707.287500", "110704.702500", "110706.492500", "110703.907500", "110705.697500", "110704.107500", "110705.897500", "110704.305000", "110706.095000", "110704.505000", "110706.295000", "110704.902500", "110706.692500", "110705.100000", "110706.890000", "110705.300000", "110707.090000", "110705.497500", "110707.287500", "110704.702500", "110706.492500", "110703.907500", "110705.697500", "110704.107500", "110705.897500", "110704.305000", "110706.095000", "110704.505000", "110706.295000", "110704.902500", "110706.692500", "110705.100000", "110706.890000", "110705.300000", "110707.090000", "110705.497500", "110707.287500", "110704.702500", "110710.092500", "110707.507500", "110709.297500", "110707.707500", "110709.497500", "110707.905000", "110709.695000", "110708.105000", "110709.895000", "110708.502500", "110710.292500", "110708.700000", "110710.490000", "110708.900000", "110710.690000", "110709.097500", "110710.887500", "110708.302500", "110710.092500", "110707.507500", "110709.297500", "110707.707500", "110709.497500", "110707.905000", "110709.695000", "110708.105000", "110709.895000", "110708.502500", "110710.292500", "110708.700000", "110710.490000", "110708.900000", "110710.690000", "110709.097500", "110710.887500", "110708.302500", "110710.092500", "110707.507500", "110709.297500", "110707.707500", "110709.497500", "110707.905000", "110709.695000", "110708.105000", "110709.895000", "110708.502500", "110710.292500", "110708.700000", "110710.490000", "110708.900000", "110710.690000", "110709.097500", "110710.887500", "110708.302500", "110710.092500", "110707.507500", "110709.297500", "110707.707500", "110709.497500", "110707.905000", "110709.695000", "110708.105000", "110709.895000", "110708.502500", "110710.292500", "110708.700000", "110710.490000", "110708.900000", "110710.690000", "110709.097500", "110710.887500", "110708.302500", "110713.692500", "110711.107500", "110712.897500", "110711.307500", "110713.097500", "110711.505000", "110713.295000", "110711.705000", "110713.495000", "110712.102500", "110713.892500", "110712.300000", "110714.090000", "110712.500000", "110714.290000", "110712.697500", "110714.487500", "110711.902500", "110713.692500", "110711.107500", "110712.897500", "110711.307500", "110713.097500", "110711.505000", "110713.295000", "110711.705000", "110713.495000", "110712.102500", "110713.892500", "110712.300000", "110714.090000", "110712.500000", "110714.290000", "110712.697500", "110714.487500", "110711.902500", "110713.692500", "110711.107500", "110712.897500", "110711.307500", "110713.097500", "110711.505000", "110713.295000", "110711.705000", "110713.495000", "110712.102500", "110713.892500", "110712.300000", "110714.090000", "110712.500000", "110714.290000", "110712.697500", "110714.487500", "110711.902500", "110713.692500", "110711.107500", "110712.897500", "110711.307500", "110713.097500", "110711.505000", "110713.295000", "110711.705000", "110713.495000", "110712.102500", "110713.892500", "110712.300000", "110714.090000", "110712.500000", "110714.290000", "110712.697500", "110714.487500", "110711.902500", "110717.292500", "110714.707500", "110716.497500", "110714.907500", "110716.697500", "110715.105000", "110716.895000", "110715.305000", "110717.095000", "110715.702500", "110717.492500", "110715.900000", "110717.690000", "110716.100000", "110717.890000", "110716.297500", "110718.087500", "110715.502500", "110717.292500", "110714.707500", "110716.497500", "110714.907500", "110716.697500", "110715.105000", "110716.895000", "110715.305000", "110717.095000", "110715.702500", "110717.492500", "110715.900000", "110717.690000", "110716.100000", "110717.890000", "110716.297500", "110718.087500", "110715.502500", "110717.292500", "110714.707500", "110716.497500", "110714.907500", "110716.697500", "110715.105000", "110716.895000", "110715.305000", "110717.095000", "110715.702500", "110717.492500", "110715.900000", "110717.690000", "110716.100000", "110717.890000", "110716.297500", "110718.087500", "110715.502500", "110717.292500", "110714.707500", "110716.497500", "110714.907500", "110716.697500", "110715.105000", "110716.895000", "110715.305000", "110717.095000", "110715.702500", "110717.492500", "110715.900000", "110717.690000", "110716.100000", "110717.890000", "110716.297500", "110718.087500", "110715.502500", "110720.892500", "110718.307500", "110720.097500", "110718.507500", "110720.297500", "110718.705000", "110720.495000", "110718.905000", "110720.695000", "110719.302500", "110721.092500", "110719.500000", "110721.290000", "110719.700000", "110721.490000", "110719.897500", "110721.687500", "110719.102500", "110720.892500", "110718.307500", "110720.097500", "110718.507500", "110720.297500", "110718.705000", "110720.495000", "110718.905000", "110720.695000", "110719.302500", "110721.092500", "110719.500000", "110721.290000", "110719.700000", "110721.490000", "110719.897500", "110721.687500", "110719.102500", "110720.892500", "110718.307500", "110720.097500", "110718.507500", "110720.297500", "110718.705000", "110720.495000", "110718.905000", "110720.695000", "110719.302500", "110721.092500", "110719.500000", "110721.290000", "110719.700000", "110721.490000", "110719.897500", "110721.687500", "110719.102500", "110720.892500", "110718.307500", "110720.097500", "110718.507500", "110720.297500", "110718.705000", "110720.495000", "110718.905000", "110720.695000", "110719.302500", "110721.092500", "110719.500000", "110721.290000", "110719.700000", "110721.490000", "110719.897500", "110721.687500", "110719.102500", "110724.492500", "110721.907500", "110723.697500", "110722.107500", "110723.897500", "110722.305000", "110724.095000", "110722.505000", "110724.295000", "110722.902500", "110724.692500", "110723.100000", "110724.890000", "110723.300000", "110725.090000", "110723.497500", "110725.287500", "110722.702500", "110724.492500", "110721.907500", "110723.697500", "110722.107500", "110723.897500", "110722.305000", "110724.095000", "110722.505000", "110724.295000", "110722.902500", "110724.692500", "110723.100000", "110724.890000", "110723.300000", "110725.090000", "110723.497500", "110725.287500", "110722.702500", "110724.492500", "110721.907500", "110723.697500", "110722.107500", "110723.897500", "110722.305000", "110724.095000", "110722.505000", "110724.295000", "110722.902500", "110724.692500", "110723.100000", "110724.890000", "110723.300000", "110725.090000", "110723.497500", "110725.287500", "110722.702500", "110724.492500", "110721.907500", "110723.697500", "110722.107500", "110723.897500", "110722.305000", "110724.095000", "110722.505000", "110724.295000", "110722.902500", "110724.692500", "110723.100000", "110724.890000", "110723.300000", "110725.090000", "110723.497500", "110725.287500", "110722.702500", "110728.092500", "110725.507500", "110727.297500", "110725.707500", "110727.497500", "110725.905000", "110727.695000", "110726.105000", "110727.895000", "110726.502500", "110728.292500", "110726.700000", "110728.490000", "110726.900000", "110728.690000", "110727.097500", "110728.887500", "110726.302500", "110728.092500", "110725.507500", "110727.297500", "110725.707500", "110727.497500", "110725.905000", "110727.695000", "110726.105000", "110727.895000", "110726.502500", "110728.292500", "110726.700000", "110728.490000", "110726.900000", "110728.690000", "110727.097500", "110728.887500", "110726.302500", "110728.092500", "110725.507500", "110727.297500", "110725.707500", "110727.497500", "110725.905000", "110727.695000", "110726.105000", "110727.895000", "110726.502500", "110728.292500", "110726.700000", "110728.490000", "110726.900000", "110728.690000", "110727.097500", "110728.887500", "110726.302500", "110728.092500", "110725.507500", "110727.297500", "110725.707500", "110727.497500", "110725.905000", "110727.695000", "110726.105000", "110727.895000", "110726.502500", "110728.292500", "110726.700000", "110728.490000", "110726.900000", "110728.690000", "110727.097500", "110728.887500", "110726.302500", "110731.692500", "110729.107500", "110730.897500", "110729.307500", "110731.097500", "110729.505000", "110731.295000", "110729.705000", "110731.495000", "110730.102500", "110731.892500", "110730.300000", "110732.090000", "110730.500000", "110732.290000", "110730.697500", "110732.487500", "110729.902500", "110731.692500", "110729.107500", "110730.897500", "110729.307500", "110731.097500", "110729.505000", "110731.295000", "110729.705000", "110731.495000", "110730.102500", "110731.892500", "110730.300000", "110732.090000", "110730.500000", "110732.290000", "110730.697500", "110732.487500", "110729.902500", "110731.692500", "110729.107500", "110730.897500", "110729.307500", "110731.097500", "110729.505000", "110731.295000", "110729.705000", "110731.495000", "110730.102500", "110731.892500", "110730.300000", "110732.090000", "110730.500000", "110732.290000", "110730.697500", "110732.487500", "110729.902500", "110731.692500", "110729.107500", "110730.897500", "110729.307500", "110731.097500", "110729.505000", "110731.295000", "110729.705000", "110731.495000", "110730.102500", "110731.892500", "110730.300000", "110732.090000", "110730.500000", "110732.290000", "110730.697500", "110732.487500", "110729.902500", "110735.292500", "110732.707500", "110734.497500", "110732.907500", "110734.697500", "110733.105000", "110734.895000", "110733.305000", "110735.095000", "110733.702500", "110735.492500", "110733.900000", "110735.690000", "110734.100000", "110735.890000", "110734.297500", "110736.087500", "110733.502500", "110735.292500", "110732.707500", "110734.497500", "110732.907500", "110734.697500", "110733.105000", "110734.895000", "110733.305000", "110735.095000", "110733.702500", "110735.492500", "110733.900000", "110735.690000", "110734.100000", "110735.890000", "110734.297500", "110736.087500", "110733.502500", "110735.292500", "110732.707500", "110734.497500", "110732.907500", "110734.697500", "110733.105000", "110734.895000", "110733.305000", "110735.095000", "110733.702500", "110735.492500", "110733.900000", "110735.690000", "110734.100000", "110735.890000", "110734.297500", "110736.087500", "110733.502500", "110735.292500", "110732.707500", "110734.497500", "110732.907500", "110734.697500", "110733.105000", "110734.895000", "110733.305000", "110735.095000", "110733.702500", "110735.492500", "110733.900000", "110735.690000", "110734.100000", "110735.890000", "110734.297500", "110736.087500", "110733.502500", "110738.892500", "110736.307500", "110738.097500", "110736.507500", "110738.297500", "110736.705000", "110738.495000", "110736.905000", "110738.695000", "110737.302500", "110739.092500", "110737.500000", "110739.290000", "110737.700000", "110739.490000", "110737.897500", "110739.687500", "110737.102500", "110738.892500", "110736.307500", "110738.097500", "110736.507500", "110738.297500", "110736.705000", "110738.495000", "110736.905000", "110738.695000", "110737.302500", "110739.092500", "110737.500000", "110739.290000", "110737.700000", "110739.490000", "110737.897500", "110739.687500", "110737.102500", "110738.892500", "110736.307500", "110738.097500", "110736.507500", "110738.297500", "110736.705000", "110738.495000", "110736.905000", "110738.695000", "110737.302500", "110739.092500", "110737.500000", "110739.290000", "110737.700000", "110739.490000", "110737.897500", "110739.687500", "110737.102500", "110738.892500", "110736.307500", "110738.097500", "110736.507500", "110738.297500", "110736.705000", "110738.495000", "110736.905000", "110738.695000", "110737.302500", "110739.092500", "110737.500000", "110739.290000", "110737.700000", "110739.490000", "110737.897500", "110739.687500", "110737.102500", "110742.492500", "110739.907500", "110741.697500", "110740.107500", "110741.897500", "110740.305000", "110742.095000", "110740.505000", "110742.295000", "110740.902500", "110742.692500", "110741.100000", "110742.890000", "110741.300000", "110743.090000", "110741.497500", "110743.287500", "110740.702500", "110742.492500", "110739.907500", "110741.697500", "110740.107500", "110741.897500", "110740.305000", "110742.095000", "110740.505000", "110742.295000", "110740.902500", "110742.692500", "110741.100000", "110742.890000", "110741.300000", "110743.090000", "110741.497500", "110743.287500", "110740.702500", "110742.492500", "110739.907500", "110741.697500", "110740.107500", "110741.897500", "110740.305000", "110742.095000", "110740.505000", "110742.295000", "110740.902500", "110742.692500", "110741.100000", "110742.890000", "110741.300000", "110743.090000", "110741.497500", "110743.287500", "110740.702500", "110742.492500", "110739.907500", "110741.697500", "110740.107500", "110741.897500", "110740.305000", "110742.095000", "110740.505000", "110742.295000", "110740.902500", "110742.692500", "110741.100000", "110742.890000", "110741.300000", "110743.090000", "110741.497500", "110743.287500", "110740.702500", "110746.092500", "110743.507500", "110745.297500", "110743.707500", "110745.497500", "110743.905000", "110745.695000", "110744.105000", "110745.895000", "110744.502500", "110746.292500", "110744.700000", "110746.490000", "110744.900000", "110746.690000", "110745.097500", "110746.887500", "110744.302500", "110746.092500", "110743.507500", "110745.297500", "110743.707500", "110745.497500", "110743.905000", "110745.695000", "110744.105000", "110745.895000", "110744.502500", "110746.292500", "110744.700000", "110746.490000", "110744.900000", "110746.690000", "110745.097500", "110746.887500", "110744.302500", "110746.092500", "110743.507500", "110745.297500", "110743.707500", "110745.497500", "110743.905000", "110745.695000", "110744.105000", "110745.895000", "110744.502500", "110746.292500", "110744.700000", "110746.490000", "110744.900000", "110746.690000", "110745.097500", "110746.887500", "110744.302500", "110746.092500", "110743.507500", "110745.297500", "110743.707500", "110745.497500", "110743.905000", "110745.695000", "110744.105000", "110745.895000", "110744.502500", "110746.292500", "110744.700000", "110746.490000", "110744.900000", "110746.690000", "110745.097500", "110746.887500", "110744.302500", "110749.692500", "110747.107500", "110748.897500", "110747.307500", "110749.097500", "110747.505000", "110749.295000", "110747.705000", "110749.495000", "110748.102500", "110749.892500", "110748.300000", "110750.090000", "110748.500000", "110750.290000", "110748.697500", "110750.487500", "110747.902500", "110749.692500", "110747.107500", "110748.897500", "110747.307500", "110749.097500", "110747.505000", "110749.295000", "110747.705000", "110749.495000", "110748.102500", "110749.892500", "110748.300000", "110750.090000", "110748.500000", "110750.290000", "110748.697500", "110750.487500", "110747.902500", "110749.692500", "110747.107500", "110748.897500", "110747.307500", "110749.097500", "110747.505000", "110749.295000", "110747.705000", "110749.495000", "110748.102500", "110749.892500", "110748.300000", "110750.090000", "110748.500000", "110750.290000", "110748.697500", "110750.487500", "110747.902500", "110749.692500", "110747.107500", "110748.897500", "110747.307500", "110749.097500", "110747.505000", "110749.295000", "110747.705000", "110749.495000", "110748.102500", "110749.892500", "110748.300000", "110750.090000", "110748.500000", "110750.290000", "110748.697500", "110750.487500", "110747.902500", "110753.292500", "110750.707500", "110752.497500", "110750.907500", "110752.697500", "110751.105000", "110752.895000", "110751.305000", "110753.095000", "110751.702500", "110753.492500", "110751.900000", "110753.690000", "110752.100000", "110753.890000", "110752.297500", "110754.087500", "110751.502500", "110753.292500", "110750.707500", "110752.497500", "110750.907500", "110752.697500", "110751.105000", "110752.895000", "110751.305000", "110753.095000", "110751.702500", "110753.492500", "110751.900000", "110753.690000", "110752.100000", "110753.890000", "110752.297500", "110754.087500", "110751.502500", "110753.292500", "110750.707500", "110752.497500", "110750.907500", "110752.697500", "110751.105000", "110752.895000", "110751.305000", "110753.095000", "110751.702500", "110753.492500", "110751.900000", "110753.690000", "110752.100000", "110753.890000", "110752.297500", "110754.087500", "110751.502500", "110753.292500", "110750.707500", "110752.497500", "110750.907500", "110752.697500", "110751.105000", "110752.895000", "110751.305000", "110753.095000", "110751.702500", "110753.492500", "110751.900000", "110753.690000", "110752.100000", "110753.890000", "110752.297500", "110754.087500", "110751.502500", "110756.892500", "110754.307500", "110756.097500", "110754.507500", "110756.297500", "110754.705000", "110756.495000", "110754.905000", "110756.695000", "110755.302500", "110757.092500", "110755.500000", "110757.290000", "110755.700000", "110757.490000", "110755.897500", "110757.687500", "110755.102500", "110756.892500", "110754.307500", "110756.097500", "110754.507500", "110756.297500", "110754.705000", "110756.495000", "110754.905000", "110756.695000", "110755.302500", "110757.092500", "110755.500000", "110757.290000", "110755.700000", "110757.490000", "110755.897500", "110757.687500", "110755.102500", "110756.892500", "110754.307500", "110756.097500", "110754.507500", "110756.297500", "110754.705000", "110756.495000", "110754.905000", "110756.695000", "110755.302500", "110757.092500", "110755.500000", "110757.290000", "110755.700000", "110757.490000", "110755.897500", "110757.687500", "110755.102500", "110756.892500", "110754.307500", "110756.097500", "110754.507500", "110756.297500", "110754.705000", "110756.495000", "110754.905000", "110756.695000", "110755.302500", "110757.092500", "110755.500000", "110757.290000", "110755.700000", "110757.490000", "110755.897500", "110757.687500", "110755.102500", "110800.492500", "110757.907500", "110759.697500", "110758.107500", "110759.897500", "110758.305000", "110800.095000", "110758.505000", "110800.295000", "110758.902500", "110800.692500", "110759.100000", "110800.890000", "110759.300000", "110801.090000", "110759.497500", "110801.287500", "110758.702500", "110800.492500", "110757.907500", "110759.697500", "110758.107500", "110759.897500", "110758.305000", "110800.095000", "110758.505000", "110800.295000", "110758.902500", "110800.692500", "110759.100000", "110800.890000", "110759.300000", "110801.090000", "110759.497500", "110801.287500", "110758.702500", "110800.492500", "110757.907500", "110759.697500", "110758.107500", "110759.897500", "110758.305000", "110800.095000", "110758.505000", "110800.295000", "110758.902500", "110800.692500", "110759.100000", "110800.890000", "110759.300000", "110801.090000", "110759.497500", "110801.287500", "110758.702500", "110800.492500", "110757.907500", "110759.697500", "110758.107500", "110759.897500", "110758.305000", "110800.095000", "110758.505000", "110800.295000", "110758.902500", "110800.692500", "110759.100000", "110800.890000", "110759.300000", "110801.090000", "110759.497500", "110801.287500", "110758.702500", "110804.092500", "110801.507500", "110803.297500", "110801.707500", "110803.497500", "110801.905000", "110803.695000", "110802.105000", "110803.895000", "110802.502500", "110804.292500", "110802.700000", "110804.490000", "110802.900000", "110804.690000", "110803.097500", "110804.887500", "110802.302500", "110804.092500", "110801.507500", "110803.297500", "110801.707500", "110803.497500", "110801.905000", "110803.695000", "110802.105000", "110803.895000", "110802.502500", "110804.292500", "110802.700000", "110804.490000", "110802.900000", "110804.690000", "110803.097500", "110804.887500", "110802.302500", "110804.092500", "110801.507500", "110803.297500", "110801.707500", "110803.497500", "110801.905000", "110803.695000", "110802.105000", "110803.895000", "110802.502500", "110804.292500", "110802.700000", "110804.490000", "110802.900000", "110804.690000", "110803.097500", "110804.887500", "110802.302500", "110804.092500", "110801.507500", "110803.297500", "110801.707500", "110803.497500", "110801.905000", "110803.695000", "110802.105000", "110803.895000", "110802.502500", "110804.292500", "110802.700000", "110804.490000", "110802.900000", "110804.690000", "110803.097500", "110804.887500", "110802.302500", "110807.692500", "110805.107500", "110806.897500", "110805.307500", "110807.097500", "110805.505000", "110807.295000", "110805.705000", "110807.495000", "110806.102500", "110807.892500", "110806.300000", "110808.090000", "110806.500000", "110808.290000", "110806.697500", "110808.487500", "110805.902500", "110807.692500", "110805.107500", "110806.897500", "110805.307500", "110807.097500", "110805.505000", "110807.295000", "110805.705000", "110807.495000", "110806.102500", "110807.892500", "110806.300000", "110808.090000", "110806.500000", "110808.290000", "110806.697500", "110808.487500", "110805.902500", "110807.692500", "110805.107500", "110806.897500", "110805.307500", "110807.097500", "110805.505000", "110807.295000", "110805.705000", "110807.495000", "110806.102500", "110807.892500", "110806.300000", "110808.090000", "110806.500000", "110808.290000", "110806.697500", "110808.487500", "110805.902500", "110807.692500", "110805.107500", "110806.897500", "110805.307500", "110807.097500", "110805.505000", "110807.295000", "110805.705000", "110807.495000", "110806.102500", "110807.892500", "110806.300000", "110808.090000", "110806.500000", "110808.290000", "110806.697500", "110808.487500", "110805.902500", "110811.292500", "110808.707500", "110810.497500", "110808.907500", "110810.697500", "110809.105000", "110810.895000", "110809.305000", "110811.095000", "110809.702500", "110811.492500", "110809.900000", "110811.690000", "110810.100000", "110811.890000", "110810.297500", "110812.087500", "110809.502500", "110811.292500", "110808.707500", "110810.497500", "110808.907500", "110810.697500", "110809.105000", "110810.895000", "110809.305000", "110811.095000", "110809.702500", "110811.492500", "110809.900000", "110811.690000", "110810.100000", "110811.890000", "110810.297500", "110812.087500", "110809.502500", "110811.292500", "110808.707500", "110810.497500", "110808.907500", "110810.697500", "110809.105000", "110810.895000", "110809.305000", "110811.095000", "110809.702500", "110811.492500", "110809.900000", "110811.690000", "110810.100000", "110811.890000", "110810.297500", "110812.087500", "110809.502500", "110811.292500", "110808.707500", "110810.497500", "110808.907500", "110810.697500", "110809.105000", "110810.895000", "110809.305000", "110811.095000", "110809.702500", "110811.492500", "110809.900000", "110811.690000", "110810.100000", "110811.890000", "110810.297500", "110812.087500", "110809.502500", "110814.892500", "110812.307500", "110814.097500", "110812.507500", "110814.297500", "110812.705000", "110814.495000", "110812.905000", "110814.695000", "110813.302500", "110815.092500", "110813.500000", "110815.290000", "110813.700000", "110815.490000", "110813.897500", "110815.687500", "110813.102500", "110814.892500", "110812.307500", "110814.097500", "110812.507500", "110814.297500", "110812.705000", "110814.495000", "110812.905000", "110814.695000", "110813.302500", "110815.092500", "110813.500000", "110815.290000", "110813.700000", "110815.490000", "110813.897500", "110815.687500", "110813.102500", "110814.892500", "110812.307500", "110814.097500", "110812.507500", "110814.297500", "110812.705000", "110814.495000", "110812.905000", "110814.695000", "110813.302500", "110815.092500", "110813.500000", "110815.290000", "110813.700000", "110815.490000", "110813.897500", "110815.687500", "110813.102500", "110814.892500", "110812.307500", "110814.097500", "110812.507500", "110814.297500", "110812.705000", "110814.495000", "110812.905000", "110814.695000", "110813.302500", "110815.092500", "110813.500000", "11