{
  "AcquisitionMatrixPE": 80,
  "AcquisitionNumber": 1,
  "AcquisitionTime": "09:23:41.882500",
  "BandwidthPerPixelPhaseEncode": 48.077,
  "BaseResolution": 80,
  "BodyPartExamined": "BRAIN",
  "CoilCombinationMethod": "Sum of Squares",
  "ConsistencyInfo": "N4_VE11C_LATEST_20160120",
  "ConversionSoftware": "dcm2niix",
  "ConversionSoftwareVersion": "v1.0.20220720",
  "DerivedVendorReportedEchoSpacing": 0.000519999,
  "DeviceSerialNumber": "66112",
  "DwellTime": 2.7e-06,
  "EchoTime": 0.035,
  "EchoTrainLength": 39,
  "EffectiveEchoSpacing": 0.00026,
  "FlipAngle": 90,
  "HeudiconvVersion": "0.13.1",
  "ImageOrientationPatientDICOM": [0.98708, 0.15981, 0.0115766, -0.154043, 0.926611, 0.343021],
  "ImageOrientationText": "Tra>Cor(19.9)>Sag(-2.5)",
  "ImageType": [
    "ORIGINAL",
    "PRIMARY",
    "M",
    "ND",
    "NORM",
    "MOSAIC"
],
  "ImagingFrequency": 123.252,
  "InPlanePhaseEncodingDirectionDICOM": "COL",
  "InstitutionAddress": "Maynard 3,Hanover,NH,US,03755",
  "InstitutionName": "Dartmouth College - PBS",
  "InstitutionalDepartmentName": "Department",
  "MRAcquisitionType": "2D",
  "MagneticFieldStrength": 3,
  "Manufacturer": "Siemens",
  "ManufacturersModelName": "Prisma",
  "MatrixCoilMode": "GRAPPA",
  "Modality": "MR",
  "NonlinearGradientCorrection": false,
  "ParallelReductionFactorInPlane": 2,
  "PartialFourier": 1,
  "PatientPosition": "HFS",
  "PercentPhaseFOV": 100,
  "PercentSampling": 100,
  "PhaseEncodingDirection": "j-",
  "PhaseEncodingSteps": 79,
  "PhaseResolution": 1,
  "PixelBandwidth": 2315,
  "ProcedureStepDescription": "dbic^QA",
  "ProtocolName": "func-bold_task-rest_acq-p2",
  "PulseSequenceDetails": "%SiemensSeq%\\ep2d_bold",
  "ReceiveCoilActiveElements": "HC1-7;NC1,2",
  "ReceiveCoilName": "HeadNeck_64",
  "ReconMatrixPE": 80,
  "RefLinesPE": 24,
  "RepetitionTime": 2,
  "SAR": 0.0410979,
  "ScanOptions": "FS",
  "ScanningSequence": "EP",
  "SequenceName": "*epfid2d1_80",
  "SequenceVariant": "SK",
  "SeriesDescription": "func-bold_task-rest_acq-p2",
  "SeriesNumber": 5,
  "ShimSetting": [4141, -7712, -7515, 167, -64, -223, -49, 85],
  "SliceThickness": 3.5,
  "SliceTiming": [0.99, 0, 1.0575, 0.0675, 1.1225, 0.1325, 1.1875, 0.1975, 1.255, 0.265, 1.32, 0.33, 1.3875, 0.3975, 1.4525, 0.4625, 1.5175, 0.5275, 1.585, 0.595, 1.65, 0.66, 1.7175, 0.7275, 1.7825, 0.7925, 1.8475, 0.8575, 1.915, 0.925],
  "SoftwareVersions": "syngo MR E11",
  "SpacingBetweenSlices": 3.99,
  "StationName": "AWP66112",
  "TaskName": "rest",
  "TotalReadoutTime": 0.02054,
  "TxRefAmp": 212.472,
  "dcmmeta_affine": [
    [-2.9612395763397217, -0.46212923526763916, -0.1759241670370102, 141.7444610595703],
    [-0.47943052649497986, 2.7798314094543457, 1.3580876588821411, -91.87873077392578],
    [0.03472994267940521, -1.0290642976760864, 3.7476322650909424, -9.412989616394043],
    [0.0, 0.0, 0.0, 1.0]
],
  "dcmmeta_reorient_transform": [
    [0.0, -1.0, 0.0, 79.0],
    [1.0, 0.0, 0.0, 0.0],
    [0.0, 0.0, 1.0, 0.0],
    [0.0, 0.0, 0.0, 1.0]
],
  "dcmmeta_shape": [80, 80, 30, 200],
  "dcmmeta_slice_dim": 2,
  "dcmmeta_version": 0.6,
  "global": {
    "const": {
      "AccessionNumber": "qa64",
      "AcquisitionMatrix": [80, 0, 0, 80],
      "AngioFlag": "N",
      "BitsAllocated": 16,
      "BitsStored": 12,
      "BodyPartExamined": "BRAIN",
      "Columns": 480,
      "EchoNumbers": 1,
      "EchoTime": 35.0,
      "EchoTrainLength": 39,
      "FlipAngle": 90.0,
      "HighBit": 11,
      "ImageOrientationPatient": [0.98707987969457, 0.15981017595342, 0.01157664735088, -0.1540430813617, 0.92661050694998, 0.34302142424998],
      "ImagePositionPatient": [-605.05832297425, -779.58037078591, -303.46791059436],
      "ImageType": [
        "ORIGINAL",
        "PRIMARY",
        "M",
        "ND",
        "NORM",
        "MOSAIC"
],
      "ImagedNucleus": "1H",
      "ImagingFrequency": 123.252323,
      "InPlanePhaseEncodingDirection": "COL",
      "MRAcquisitionType": "2D",
      "MagneticFieldStrength": 3.0,
      "Manufacturer": "SIEMENS",
      "ManufacturerModelName": "Prisma",
      "Modality": "MR",
      "NumberOfAverages": 1.0,
      "NumberOfPhaseEncodingSteps": 79,
      "PercentPhaseFieldOfView": 100.0,
      "PercentSampling": 100.0,
      "PerformedProcedureStepStartTime": "091840.313000",
      "PhotometricInterpretation": "MONOCHROME2",
      "PixelBandwidth": 2315.0,
      "PixelRepresentation": 0,
      "PixelSpacing": [3.0, 3.0],
      "ProtocolName": "func-bold_task-rest_acq-p2",
      "RepetitionTime": 2000.0,
      "Rows": 480,
      "SAR": 0.04109790714667,
      "SamplesPerPixel": 1,
      "ScanOptions": "FS",
      "ScanningSequence": "EP",
      "SequenceName": "*epfid2d1_80",
      "SequenceVariant": "SK",
      "SeriesDescription": "func-bold_task-rest_acq-p2",
      "SeriesNumber": 5,
      "SeriesTime": "092436.368000",
      "SliceLocation": -46.363927583173,
      "SliceThickness": 3.5,
      "SmallestImagePixelValue": 0,
      "SoftwareVersions": "syngo MR E11",
      "SpacingBetweenSlices": 3.9899998940577,
      "SpecificCharacterSet": "ISO_IR 100",
      "StudyID": "8",
      "StudyTime": "091840.236000",
      "TransmitCoilName": "Body",
      "VariableFlipAngleFlag": "N",
      "WindowCenterWidthExplanation": "Algo1",
      "dBdt": 0.0},
    "slices": {}
  },
  "time": {
    "samples": {
      "AcquisitionNumber": [1, 2, 3, 4, 5, 6, 7, 8, 9, 10, 11, 12, 13, 14, 15, 16, 17, 18, 19, 20, 21, 22, 23, 24, 25, 26, 27, 28, 29, 30, 31, 32, 33, 34, 35, 36, 37, 38, 39, 40, 41, 42, 43, 44, 45, 46, 47, 48, 49, 50, 51, 52, 53, 54, 55, 56, 57, 58, 59, 60, 61, 62, 63, 64, 65, 66, 67, 68, 69, 70, 71, 72, 73, 74, 75, 76, 77, 78, 79, 80, 81, 82, 83, 84, 85, 86, 87, 88, 89, 90, 91, 92, 93, 94, 95, 96, 97, 98, 99, 100, 101, 102, 103, 104, 105, 106, 107, 108, 109, 110, 111, 112, 113, 114, 115, 116, 117, 118, 119, 120, 121, 122, 123, 124, 125, 126, 127, 128, 129, 130, 131, 132, 133, 134, 135, 136, 137, 138, 139, 140, 141, 142, 143, 144, 145, 146, 147, 148, 149, 150, 151, 152, 153, 154, 155, 156, 157, 158, 159, 160, 161, 162, 163, 164, 165, 166, 167, 168, 169, 170, 171, 172, 173, 174, 175, 176, 177, 178, 179, 180, 181, 182, 183, 184, 185, 186, 187, 188, 189, 190, 191, 192, 193, 194, 195, 196, 197, 198, 199, 200],
      "AcquisitionTime": ["092341.882500", "092343.882500", "092345.882500", "092347.882500", "092349.882500", "092351.882500", "092353.882500", "092355.882500", "092357.882500", "092359.882500", "092401.882500", "092403.882500", "092405.882500", "092407.882500", "092409.882500", "092411.882500", "092413.882500", "092415.882500", "092417.882500", "092419.882500", "092421.882500", "092423.882500", "092425.882500", "092427.882500", "092429.882500", "092431.882500", "092433.882500", "092435.882500", "092437.882500", "092439.882500", "092441.882500", "092443.882500", "092445.882500", "092447.882500", "092449.882500", "092451.882500", "092453.882500", "092455.882500", "092457.882500", "092459.882500", "092501.882500", "092503.882500", "092505.882500", "092507.882500", "092509.882500", "092511.882500", "092513.882500", "092515.882500", "092517.882500", "092519.882500", "092521.882500", "092523.882500", "092525.882500", "092527.882500", "092529.882500", "092531.882500", "092533.882500", "092535.882500", "092537.882500", "092539.882500", "092541.882500", "092543.882500", "092545.882500", "092547.882500", "092549.882500", "092551.882500", "092553.882500", "092555.882500", "092557.882500", "092559.882500", "092601.882500", "092603.882500", "092605.882500", "092607.882500", "092609.882500", "092611.882500", "092613.882500", "092615.882500", "092617.882500", "092619.882500", "092621.882500", "092623.882500", "092625.882500", "092627.882500", "092629.882500", "092631.882500", "092633.882500", "092635.882500", "092637.882500", "092639.882500", "092641.882500", "092643.882500", "092645.882500", "092647.882500", "092649.882500", "092651.882500", "092653.882500", "092655.882500", "092657.882500", "092659.882500", "092701.882500", "092703.882500", "092705.882500", "092707.882500", "092709.882500", "092711.882500", "092713.882500", "092715.882500", "092717.882500", "092719.882500", "092721.882500", "092723.882500", "092725.882500", "092727.882500", "092729.882500", "092731.882500", "092733.882500", "092735.882500", "092737.882500", "092739.882500", "092741.882500", "092743.882500", "092745.882500", "092747.882500", "092749.882500", "092751.882500", "092753.882500", "092755.882500", "092757.882500", "092759.882500", "092801.882500", "092803.882500", "092805.882500", "092807.882500", "092809.882500", "092811.882500", "092813.882500", "092815.882500", "092817.882500", "092819.882500", "092821.882500", "092823.882500", "092825.882500", "092827.882500", "092829.882500", "092831.882500", "092833.882500", "092835.882500", "092837.882500", "092839.882500", "092841.882500", "092843.882500", "092845.882500", "092847.882500", "092849.882500", "092851.882500", "092853.882500", "092855.882500", "092857.882500", "092859.882500", "092901.882500", "092903.882500", "092905.882500", "092907.882500", "092909.882500", "092911.882500", "092913.882500", "092915.882500", "092917.882500", "092919.882500", "092921.882500", "092923.882500", "092925.882500", "092927.882500", "092929.882500", "092931.882500", "092933.882500", "092935.882500", "092937.882500", "092939.882500", "092941.882500", "092943.882500", "092945.882500", "092947.882500", "092949.882500", "092951.882500", "092953.882500", "092955.882500", "092957.882500", "092959.882500", "093001.882500", "093003.882500", "093005.882500", "093007.882500", "093009.882500", "093011.882500", "093013.882500", "093015.882500", "093017.882500", "093019.882500"],
      "ContentTime": ["092436.372000", "092436.376000", "092436.378000", "092436.381000", "092436.383000", "092436.386000", "092436.388000", "092436.391000", "092436.393000", "092436.396000", "092436.399000", "092436.401000", "092436.404000", "092436.406000", "092436.409000", "092436.411000", "092436.414000", "092436.416000", "092436.419000", "092436.421000", "092436.424000", "092436.427000", "092436.429000", "092436.432000", "092436.434000", "092436.437000", "092436.487000", "092516.367000", "092516.369000", "092516.372000", "092516.374000", "092516.377000", "092516.379000", "092516.382000", "092516.385000", "092516.387000", "092516.426000", "092516.429000", "092516.442000", "092516.444000", "092516.447000", "092516.449000", "092516.452000", "092516.454000", "092516.457000", "092516.460000", "092516.462000", "092556.367000", "092556.369000", "092556.372000", "092556.374000", "092556.377000", "092556.380000", "092556.382000", "092556.385000", "092556.387000", "092556.390000", "092556.392000", "092556.395000", "092556.397000", "092556.400000", "092556.402000", "092556.405000", "092556.407000", "092556.410000", "092556.412000", "092556.415000", "092636.367000", "092636.369000", "092636.372000", "092636.374000", "092636.377000", "092636.380000", "092636.382000", "092636.385000", "092636.387000", "092636.390000", "092636.392000", "092636.395000", "092636.397000", "092636.400000", "092636.402000", "092636.411000", "092636.414000", "092636.416000", "092636.419000", "092636.421000", "092716.367000", "092716.369000", "092716.372000", "092716.375000", "092716.377000", "092716.380000", "092716.382000", "092716.385000", "092716.387000", "092716.390000", "092716.392000", "092716.395000", "092716.397000", "092716.400000", "092716.402000", "092716.405000", "092716.407000", "092716.410000", "092716.413000", "092716.415000", "092736.366000", "092736.369000", "092736.372000", "092736.374000", "092736.377000", "092736.379000", "092736.382000", "092736.384000", "092736.387000", "092736.390000", "092816.366000", "092816.369000", "092816.372000", "092816.374000", "092816.377000", "092816.379000", "092816.382000", "092816.384000", "092816.387000", "092816.389000", "092816.392000", "092816.395000", "092816.397000", "092816.400000", "092816.402000", "092816.414000", "092816.417000", "092816.419000", "092816.422000", "092816.424000", "092856.367000", "092856.369000", "092856.372000", "092856.375000", "092856.377000", "092856.380000", "092856.382000", "092856.385000", "092856.387000", "092856.390000", "092856.392000", "092856.395000", "092856.397000", "092856.400000", "092856.402000", "092856.405000", "092856.407000", "092856.410000", "092856.413000", "092856.415000", "092936.367000", "092936.369000", "092936.372000", "092936.375000", "092936.377000", "092936.380000", "092936.382000", "092936.385000", "092936.387000", "092936.390000", "092936.392000", "092936.395000", "092936.398000", "092936.400000", "092936.403000", "092936.405000", "092936.408000", "092936.410000", "092936.413000", "092936.415000", "093016.367000", "093016.370000", "093016.373000", "093016.375000", "093016.378000", "093016.381000", "093016.383000", "093016.396000", "093016.398000", "093016.401000", "093016.403000", "093016.406000", "093016.408000", "093016.411000", "093016.413000", "093016.416000", "093016.418000", "093016.421000", "093016.424000", "093016.426000", "093021.085000", "093021.088000", "093021.090000"],
      "InstanceCreationTime": ["092436.372000", "092436.376000", "092436.378000", "092436.381000", "092436.383000", "092436.386000", "092436.388000", "092436.391000", "092436.393000", "092436.396000", "092436.399000", "092436.401000", "092436.404000", "092436.406000", "092436.409000", "092436.411000", "092436.414000", "092436.416000", "092436.419000", "092436.421000", "092436.424000", "092436.427000", "092436.429000", "092436.432000", "092436.434000", "092436.437000", "092436.487000", "092516.367000", "092516.369000", "092516.372000", "092516.374000", "092516.377000", "092516.379000", "092516.382000", "092516.385000", "092516.387000", "092516.426000", "092516.429000", "092516.442000", "092516.444000", "092516.447000", "092516.449000", "092516.452000", "092516.454000", "092516.457000", "092516.460000", "092516.462000", "092556.367000", "092556.369000", "092556.372000", "092556.374000", "092556.377000", "092556.380000", "092556.382000", "092556.385000", "092556.387000", "092556.390000", "092556.392000", "092556.395000", "092556.397000", "092556.400000", "092556.402000", "092556.405000", "092556.407000", "092556.410000", "092556.412000", "092556.415000", "092636.367000", "092636.369000", "092636.372000", "092636.374000", "092636.377000", "092636.380000", "092636.382000", "092636.385000", "092636.387000", "092636.390000", "092636.392000", "092636.395000", "092636.397000", "092636.400000", "092636.402000", "092636.411000", "092636.414000", "092636.416000", "092636.419000", "092636.421000", "092716.367000", "092716.369000", "092716.372000", "092716.375000", "092716.377000", "092716.380000", "092716.382000", "092716.385000", "092716.387000", "092716.390000", "092716.392000", "092716.395000", "092716.397000", "092716.400000", "092716.402000", "092716.405000", "092716.407000", "092716.410000", "092716.413000", "092716.415000", "092736.366000", "092736.369000", "092736.372000", "092736.374000", "092736.377000", "092736.379000", "092736.382000", "092736.384000", "092736.387000", "092736.390000", "092816.366000", "092816.369000", "092816.372000", "092816.374000", "092816.377000", "092816.379000", "092816.382000", "092816.384000", "092816.387000", "092816.389000", "092816.392000", "092816.395000", "092816.397000", "092816.400000", "092816.402000", "092816.414000", "092816.417000", "092816.419000", "092816.422000", "092816.424000", "092856.367000", "092856.369000", "092856.372000", "092856.375000", "092856.377000", "092856.380000", "092856.382000", "092856.385000", "092856.387000", "092856.390000", "092856.392000", "092856.395000", "092856.397000", "092856.400000", "092856.402000", "092856.405000", "092856.407000", "092856.410000", "092856.413000", "092856.415000", "092936.367000", "092936.369000", "092936.372000", "092936.375000", "092936.377000", "092936.380000", "092936.382000", "092936.385000", "092936.387000", "092936.390000", "092936.392000", "092936.395000", "092936.398000", "092936.400000", "092936.403000", "092936.405000", "092936.408000", "092936.410000", "092936.413000", "092936.415000", "093016.367000", "093016.370000", "093016.373000", "093016.375000", "093016.378000", "093016.381000", "093016.383000", "093016.396000", "093016.398000", "093016.401000", "093016.403000", "093016.406000", "093016.408000", "093016.411000", "093016.413000", "093016.416000", "093016.418000", "093016.421000", "093016.424000", "093016.426000", "093021.085000", "093021.088000", "093021.090000"],
      "InstanceNumber": [1, 2, 3, 4, 5, 6, 7, 8, 9, 10, 11, 12, 13, 14, 15, 16, 17, 18, 19, 20, 21, 22, 23, 24, 25, 26, 27, 28, 29, 30, 31, 32, 33, 34, 35, 36, 37, 38, 39, 40, 41, 42, 43, 44, 45, 46, 47, 48, 49, 50, 51, 52, 53, 54, 55, 56, 57, 58, 59, 60, 61, 62, 63, 64, 65, 66, 67, 68, 69, 70, 71, 72, 73, 74, 75, 76, 77, 78, 79, 80, 81, 82, 83, 84, 85, 86, 87, 88, 89, 90, 91, 92, 93, 94, 95, 96, 97, 98, 99, 100, 101, 102, 103, 104, 105, 106, 107, 108, 109, 110, 111, 112, 113, 114, 115, 116, 117, 118, 119, 120, 121, 122, 123, 124, 125, 126, 127, 128, 129, 130, 131, 132, 133, 134, 135, 136, 137, 138, 139, 140, 141, 142, 143, 144, 145, 146, 147, 148, 149, 150, 151, 152, 153, 154, 155, 156, 157, 158, 159, 160, 161, 162, 163, 164, 165, 166, 167, 168, 169, 170, 171, 172, 173, 174, 175, 176, 177, 178, 179, 180, 181, 182, 183, 184, 185, 186, 187, 188, 189, 190, 191, 192, 193, 194, 195, 196, 197, 198, 199, 200],
      "LargestImagePixelValue": [3821, 3815, 3813, 3812, 3812, 3818, 3806, 3815, 3813, 3812, 3805, 3803, 3811, 3812, 3807, 3817, 3811, 3808, 3808, 3812, 3812, 3814, 3809, 3821, 3797, 3812, 3808, 3806, 3817, 3809, 3815, 3817, 3820, 3802, 3808, 3809, 3806, 3814, 3810, 3812, 3812, 3816, 3807, 3797, 3819, 3816, 3808, 3802, 3808, 3802, 3810, 3804, 3808, 3809, 3795, 3801, 3809, 3816, 3808, 3806, 3803, 3805, 3804, 3814, 3813, 3809, 3812, 3797, 3803, 3816, 3800, 3795, 3809, 3804, 3800, 3802, 3803, 3818, 3795, 3820, 3814, 3809, 3808, 3802, 3803, 3811, 3793, 3803, 3815, 3810, 3799, 3824, 3808, 3805, 3803, 3794, 3808, 3804, 3811, 3801, 3810, 3803, 3804, 3794, 3806, 3803, 3812, 3790, 3810, 3800, 3811, 3811, 3801, 3795, 3808, 3801, 3793, 3792, 3810, 3806, 3804, 3804, 3811, 3800, 3801, 3802, 3804, 3798, 3807, 3801, 3793, 3799, 3801, 3802, 3805, 3797, 3801, 3810, 3814, 3798, 3813, 3801, 3803, 3800, 3802, 3793, 3806, 3799, 3801, 3799, 3798, 3805, 3798, 3793, 3813, 3812, 3787, 3804, 3793, 3799, 3803, 3805, 3809, 3796, 3794, 3798, 3793, 3791, 3809, 3797, 3798, 3800, 3794, 3799, 3796, 3800, 3797, 3792, 3793, 3792, 3801, 3800, 3795, 3793, 3794, 3803, 3794, 3789, 3785, 3798, 3808, 3798, 3799, 3794, 3788, 3806, 3802, 3786, 3790, 3793],
      "WindowCenter": [1416.0, 1415.0, 1415.0, 1415.0, 1415.0, 1414.0, 1415.0, 1415.0, 1415.0, 1415.0, 1415.0, 1415.0, 1415.0, 1414.0, 1415.0, 1415.0, 1414.0, 1414.0, 1415.0, 1414.0, 1414.0, 1414.0, 1414.0, 1414.0, 1414.0, 1414.0, 1414.0, 1415.0, 1414.0, 1414.0, 1414.0, 1413.0, 1414.0, 1414.0, 1414.0, 1414.0, 1414.0, 1413.0, 1414.0, 1414.0, 1413.0, 1414.0, 1414.0, 1414.0, 1413.0, 1414.0, 1414.0, 1414.0, 1414.0, 1414.0, 1414.0, 1414.0, 1413.0, 1413.0, 1414.0, 1413.0, 1413.0, 1414.0, 1414.0, 1413.0, 1413.0, 1414.0, 1413.0, 1413.0, 1413.0, 1413.0, 1413.0, 1413.0, 1413.0, 1413.0, 1413.0, 1413.0, 1412.0, 1414.0, 1413.0, 1413.0, 1413.0, 1413.0, 1413.0, 1413.0, 1413.0, 1412.0, 1413.0, 1412.0, 1413.0, 1413.0, 1413.0, 1413.0, 1412.0, 1412.0, 1413.0, 1413.0, 1412.0, 1412.0, 1412.0, 1413.0, 1412.0, 1413.0, 1413.0, 1413.0, 1412.0, 1413.0, 1412.0, 1413.0, 1412.0, 1412.0, 1413.0, 1413.0, 1413.0, 1412.0, 1412.0, 1413.0, 1413.0, 1413.0, 1413.0, 1413.0, 1412.0, 1412.0, 1412.0, 1412.0, 1413.0, 1413.0, 1412.0, 1412.0, 1412.0, 1412.0, 1411.0, 1411.0, 1411.0, 1412.0, 1412.0, 1412.0, 1412.0, 1412.0, 1412.0, 1412.0, 1412.0, 1412.0, 1412.0, 1412.0, 1412.0, 1412.0, 1411.0, 1411.0, 1412.0, 1411.0, 1410.0, 1412.0, 1412.0, 1412.0, 1411.0, 1411.0, 1411.0, 1411.0, 1411.0, 1411.0, 1411.0, 1411.0, 1411.0, 1411.0, 1411.0, 1412.0, 1411.0, 1411.0, 1411.0, 1411.0, 1411.0, 1411.0, 1411.0, 1412.0, 1411.0, 1411.0, 1411.0, 1412.0, 1411.0, 1411.0, 1411.0, 1411.0, 1411.0, 1411.0, 1411.0, 1410.0, 1411.0, 1412.0, 1411.0, 1411.0, 1411.0, 1410.0, 1411.0, 1411.0, 1410.0, 1411.0, 1410.0, 1411.0, 1411.0, 1410.0, 1410.0, 1410.0, 1411.0, 1411.0],
      "WindowWidth": [3277.0, 3275.0, 3275.0, 3275.0, 3275.0, 3276.0, 3275.0, 3275.0, 3275.0, 3275.0, 3275.0, 3275.0, 3275.0, 3275.0, 3275.0, 3275.0, 3275.0, 3275.0, 3275.0, 3275.0, 3275.0, 3275.0, 3275.0, 3275.0, 3275.0, 3275.0, 3274.0, 3274.0, 3275.0, 3275.0, 3275.0, 3275.0, 3274.0, 3275.0, 3274.0, 3274.0, 3275.0, 3275.0, 3275.0, 3274.0, 3275.0, 3274.0, 3274.0, 3274.0, 3275.0, 3274.0, 3274.0, 3274.0, 3274.0, 3274.0, 3274.0, 3274.0, 3274.0, 3274.0, 3274.0, 3274.0, 3274.0, 3274.0, 3274.0, 3274.0, 3274.0, 3274.0, 3274.0, 3274.0, 3274.0, 3274.0, 3274.0, 3274.0, 3274.0, 3274.0, 3274.0, 3274.0, 3274.0, 3273.0, 3274.0, 3274.0, 3274.0, 3274.0, 3274.0, 3273.0, 3273.0, 3274.0, 3273.0, 3274.0, 3273.0, 3274.0, 3274.0, 3274.0, 3274.0, 3274.0, 3273.0, 3273.0, 3274.0, 3274.0, 3274.0, 3273.0, 3274.0, 3273.0, 3274.0, 3273.0, 3274.0, 3273.0, 3274.0, 3273.0, 3274.0, 3274.0, 3273.0, 3273.0, 3273.0, 3274.0, 3274.0, 3273.0, 3273.0, 3273.0, 3273.0, 3273.0, 3273.0, 3273.0, 3274.0, 3273.0, 3273.0, 3273.0, 3273.0, 3273.0, 3273.0, 3273.0, 3273.0, 3273.0, 3273.0, 3273.0, 3273.0, 3273.0, 3273.0, 3273.0, 3273.0, 3273.0, 3273.0, 3273.0, 3273.0, 3273.0, 3273.0, 3273.0, 3273.0, 3273.0, 3273.0, 3273.0, 3273.0, 3273.0, 3273.0, 3273.0, 3273.0, 3273.0, 3273.0, 3273.0, 3273.0, 3273.0, 3273.0, 3273.0, 3273.0, 3273.0, 3273.0, 3272.0, 3273.0, 3273.0, 3273.0, 3273.0, 3273.0, 3273.0, 3273.0, 3272.0, 3273.0, 3273.0, 3273.0, 3272.0, 3273.0, 3273.0, 3273.0, 3272.0, 3273.0, 3273.0, 3273.0, 3273.0, 3273.0, 3272.0, 3272.0, 3273.0, 3272.0, 3272.0, 3272.0, 3272.0, 3273.0, 3272.0, 3272.0, 3272.0, 3272.0, 3272.0, 3273.0, 3273.0, 3273.0, 3272.0]
    },
    "slices": {}
  }
}