{
  "AcquisitionMatrixPE": 80,
  "AcquisitionNumber": 1,
  "AcquisitionTime": "09:38:9.525000",
  "BandwidthPerPixelPhaseEncode": 25,
  "BaseResolution": 80,
  "BodyPartExamined": "BRAIN",
  "CoilCombinationMethod": "Sum of Squares",
  "ConsistencyInfo": "N4_VE11C_LATEST_20160120",
  "ConversionSoftware": "dcm2niix",
  "ConversionSoftwareVersion": "v1.0.20220720",
  "DerivedVendorReportedEchoSpacing": 0.0005,
  "DeviceSerialNumber": "66112",
  "DwellTime": 2.7e-06,
  "EchoTime": 0.03,
  "EchoTrainLength": 80,
  "EffectiveEchoSpacing": 0.0005,
  "FlipAngle": 10,
  "HeudiconvVersion": "0.13.1",
  "ImageOrientationPatientDICOM": [0.98708, 0.15981, 0.0115766, -0.154043, 0.926611, 0.343021],
  "ImageOrientationText": "Tra>Cor(19.9)>Sag(-2.5)",
  "ImageType": [
    "ORIGINAL",
    "PRIMARY",
    "M",
    "ND",
    "NORM",
    "MOSAIC"
],
  "ImagingFrequency": 123.252,
  "InPlanePhaseEncodingDirectionDICOM": "COL",
  "InstitutionAddress": "Maynard 3,Hanover,NH,US,03755",
  "InstitutionName": "Dartmouth College - PBS",
  "InstitutionalDepartmentName": "Department",
  "MRAcquisitionType": "2D",
  "MagneticFieldStrength": 3,
  "Manufacturer": "Siemens",
  "ManufacturersModelName": "Prisma",
  "MatrixCoilMode": "SENSE",
  "Modality": "MR",
  "NonlinearGradientCorrection": false,
  "PartialFourier": 1,
  "PatientPosition": "HFS",
  "PercentPhaseFOV": 100,
  "PercentSampling": 100,
  "PhaseEncodingDirection": "j-",
  "PhaseEncodingSteps": 80,
  "PhaseResolution": 1,
  "PixelBandwidth": 2315,
  "ProcedureStepDescription": "dbic^QA",
  "ProtocolName": "func-bold_fa-10",
  "PulseSequenceDetails": "%SiemensSeq%\\ep2d_bold",
  "ReceiveCoilActiveElements": "HC1-7;NC1,2",
  "ReceiveCoilName": "HeadNeck_64",
  "ReconMatrixPE": 80,
  "RepetitionTime": 2,
  "SAR": 0.00866358,
  "ScanOptions": "FS",
  "ScanningSequence": "EP",
  "SequenceName": "*epfid2d1_80",
  "SequenceVariant": "SK",
  "SeriesDescription": "func-bold_fa-10",
  "SeriesNumber": 9,
  "ShimSetting": [4141, -7712, -7515, 168, -64, -222, -48, 84],
  "SliceThickness": 3.5,
  "SliceTiming": [0.99, 0, 1.055, 0.065, 1.12, 0.13, 1.1875, 0.1975, 1.2525, 0.2625, 1.3175, 0.33, 1.385, 0.395, 1.45, 0.46, 1.5175, 0.5275, 1.5825, 0.5925, 1.6475, 0.66, 1.715, 0.725, 1.78, 0.79, 1.8475, 0.8575, 1.9125, 0.9225],
  "SoftwareVersions": "syngo MR E11",
  "SpacingBetweenSlices": 3.99,
  "StationName": "AWP66112",
  "TotalReadoutTime": 0.0395,
  "TxRefAmp": 212.472,
  "dcmmeta_affine": [
    [-2.9612395763397217, -0.46212923526763916, -0.1759241670370102, 139.49717712402344],
    [-0.47943052649497986, 2.7798314094543457, 1.3580876588821411, -89.97135162353516],
    [0.03472994267940521, -1.0290642976760864, 3.7476325035095215, -8.849295616149902],
    [0.0, 0.0, 0.0, 1.0]
],
  "dcmmeta_reorient_transform": [
    [0.0, -1.0, 0.0, 79.0],
    [1.0, 0.0, 0.0, 0.0],
    [0.0, 0.0, 1.0, 0.0],
    [0.0, 0.0, 0.0, 1.0]
],
  "dcmmeta_shape": [80, 80, 30, 200],
  "dcmmeta_slice_dim": 2,
  "dcmmeta_version": 0.6,
  "global": {
    "const": {
      "AccessionNumber": "qa64",
      "AcquisitionMatrix": [80, 0, 0, 80],
      "AngioFlag": "N",
      "BitsAllocated": 16,
      "BitsStored": 12,
      "BodyPartExamined": "BRAIN",
      "Columns": 480,
      "EchoNumbers": 1,
      "EchoTime": 30.0,
      "EchoTrainLength": 80,
      "FlipAngle": 10.0,
      "HighBit": 11,
      "ImageOrientationPatient": [0.98707987969457, 0.15981017595342, 0.01157664735088, -0.1540430813617, 0.92661050694998, 0.34302142424998],
      "ImagePositionPatient": [-602.81104404549, -781.4877448699, -302.90421659412],
      "ImageType": [
        "ORIGINAL",
        "PRIMARY",
        "M",
        "ND",
        "NORM",
        "MOSAIC"
],
      "ImagedNucleus": "1H",
      "ImagingFrequency": 123.252326,
      "InPlanePhaseEncodingDirection": "COL",
      "MRAcquisitionType": "2D",
      "MagneticFieldStrength": 3.0,
      "Manufacturer": "SIEMENS",
      "ManufacturerModelName": "Prisma",
      "Modality": "MR",
      "NumberOfAverages": 1.0,
      "NumberOfPhaseEncodingSteps": 80,
      "PercentPhaseFieldOfView": 100.0,
      "PercentSampling": 100.0,
      "PerformedProcedureStepStartTime": "091840.313000",
      "PhotometricInterpretation": "MONOCHROME2",
      "PixelBandwidth": 2315.0,
      "PixelRepresentation": 0,
      "PixelSpacing": [3.0, 3.0],
      "ProtocolName": "func-bold_fa-10",
      "RepetitionTime": 2000.0,
      "Rows": 480,
      "SAR": 0.0086635841159,
      "SamplesPerPixel": 1,
      "ScanOptions": "FS",
      "ScanningSequence": "EP",
      "SequenceName": "*epfid2d1_80",
      "SequenceVariant": "SK",
      "SeriesDescription": "func-bold_fa-10",
      "SeriesNumber": 9,
      "SeriesTime": "093856.297000",
      "SliceLocation": -45.086170741375,
      "SliceThickness": 3.5,
      "SmallestImagePixelValue": 0,
      "SoftwareVersions": "syngo MR E11",
      "SpacingBetweenSlices": 3.9899999873682,
      "SpecificCharacterSet": "ISO_IR 100",
      "StudyID": "8",
      "StudyTime": "091840.236000",
      "TransmitCoilName": "Body",
      "VariableFlipAngleFlag": "N",
      "WindowCenterWidthExplanation": "Algo1",
      "dBdt": 0.0},
    "slices": {}
  },
  "time": {
    "samples": {
      "AcquisitionNumber": [1, 2, 3, 4, 5, 6, 7, 8, 9, 10, 11, 12, 13, 14, 15, 16, 17, 18, 19, 20, 21, 22, 23, 24, 25, 26, 27, 28, 29, 30, 31, 32, 33, 34, 35, 36, 37, 38, 39, 40, 41, 42, 43, 44, 45, 46, 47, 48, 49, 50, 51, 52, 53, 54, 55, 56, 57, 58, 59, 60, 61, 62, 63, 64, 65, 66, 67, 68, 69, 70, 71, 72, 73, 74, 75, 76, 77, 78, 79, 80, 81, 82, 83, 84, 85, 86, 87, 88, 89, 90, 91, 92, 93, 94, 95, 96, 97, 98, 99, 100, 101, 102, 103, 104, 105, 106, 107, 108, 109, 110, 111, 112, 113, 114, 115, 116, 117, 118, 119, 120, 121, 122, 123, 124, 125, 126, 127, 128, 129, 130, 131, 132, 133, 134, 135, 136, 137, 138, 139, 140, 141, 142, 143, 144, 145, 146, 147, 148, 149, 150, 151, 152, 153, 154, 155, 156, 157, 158, 159, 160, 161, 162, 163, 164, 165, 166, 167, 168, 169, 170, 171, 172, 173, 174, 175, 176, 177, 178, 179, 180, 181, 182, 183, 184, 185, 186, 187, 188, 189, 190, 191, 192, 193, 194, 195, 196, 197, 198, 199, 200],
      "AcquisitionTime": ["093809.525000", "093811.525000", "093813.525000", "093815.525000", "093817.525000", "093819.525000", "093821.525000", "093823.525000", "093825.525000", "093827.525000", "093829.525000", "093831.525000", "093833.525000", "093835.525000", "093837.525000", "093839.525000", "093841.525000", "093843.525000", "093845.525000", "093847.525000", "093849.525000", "093851.525000", "093853.525000", "093855.525000", "093857.525000", "093859.525000", "093901.525000", "093903.525000", "093905.525000", "093907.525000", "093909.525000", "093911.525000", "093913.525000", "093915.525000", "093917.525000", "093919.525000", "093921.525000", "093923.525000", "093925.525000", "093927.525000", "093929.525000", "093931.525000", "093933.525000", "093935.525000", "093937.525000", "093939.525000", "093941.525000", "093943.525000", "093945.525000", "093947.525000", "093949.525000", "093951.525000", "093953.525000", "093955.525000", "093957.525000", "093959.525000", "094001.525000", "094003.525000", "094005.525000", "094007.525000", "094009.525000", "094011.525000", "094013.525000", "094015.525000", "094017.525000", "094019.525000", "094021.525000", "094023.525000", "094025.525000", "094027.525000", "094029.525000", "094031.525000", "094033.525000", "094035.525000", "094037.525000", "094039.525000", "094041.525000", "094043.525000", "094045.525000", "094047.525000", "094049.525000", "094051.525000", "094053.525000", "094055.525000", "094057.525000", "094059.525000", "094101.525000", "094103.525000", "094105.525000", "094107.525000", "094109.525000", "094111.525000", "094113.525000", "094115.525000", "094117.525000", "094119.525000", "094121.525000", "094123.525000", "094125.525000", "094127.525000", "094129.525000", "094131.525000", "094133.525000", "094135.525000", "094137.525000", "094139.525000", "094141.525000", "094143.525000", "094145.525000", "094147.525000", "094149.525000", "094151.525000", "094153.525000", "094155.525000", "094157.525000", "094159.525000", "094201.525000", "094203.525000", "094205.525000", "094207.525000", "094209.525000", "094211.525000", "094213.525000", "094215.525000", "094217.525000", "094219.525000", "094221.525000", "094223.525000", "094225.525000", "094227.525000", "094229.525000", "094231.525000", "094233.525000", "094235.525000", "094237.525000", "094239.525000", "094241.525000", "094243.525000", "094245.525000", "094247.525000", "094249.525000", "094251.525000", "094253.525000", "094255.525000", "094257.525000", "094259.525000", "094301.525000", "094303.525000", "094305.525000", "094307.525000", "094309.525000", "094311.525000", "094313.525000", "094315.525000", "094317.525000", "094319.525000", "094321.525000", "094323.525000", "094325.525000", "094327.525000", "094329.525000", "094331.525000", "094333.525000", "094335.525000", "094337.525000", "094339.525000", "094341.525000", "094343.525000", "094345.525000", "094347.525000", "094349.525000", "094351.525000", "094353.525000", "094355.525000", "094357.525000", "094359.525000", "094401.525000", "094403.525000", "094405.525000", "094407.525000", "094409.525000", "094411.525000", "094413.525000", "094415.525000", "094417.525000", "094419.525000", "094421.525000", "094423.525000", "094425.525000", "094427.525000", "094429.525000", "094431.525000", "094433.525000", "094435.525000", "094437.525000", "094439.525000", "094441.525000", "094443.525000", "094445.525000", "094447.525000"],
      "ContentTime": ["093856.300000", "093856.303000", "093856.306000", "093856.308000", "093856.311000", "093856.313000", "093856.316000", "093856.318000", "093856.321000", "093856.330000", "093856.333000", "093856.335000", "093856.338000", "093856.340000", "093856.343000", "093856.345000", "093856.347000", "093856.350000", "093856.352000", "093856.355000", "093856.357000", "093856.360000", "093856.362000", "093936.296000", "093936.299000", "093936.302000", "093936.304000", "093936.307000", "093936.309000", "093936.312000", "093936.314000", "093936.317000", "093936.319000", "093936.322000", "093936.324000", "093936.327000", "093936.329000", "093936.332000", "093936.334000", "093936.336000", "093936.339000", "093936.341000", "093936.344000", "094016.295000", "094016.298000", "094016.301000", "094016.303000", "094016.306000", "094016.308000", "094016.311000", "094016.313000", "094016.316000", "094016.318000", "094016.321000", "094016.323000", "094016.326000", "094016.328000", "094016.330000", "094016.333000", "094016.335000", "094016.338000", "094016.341000", "094016.343000", "094056.295000", "094056.298000", "094056.300000", "094056.303000", "094056.306000", "094056.308000", "094056.311000", "094056.313000", "094056.316000", "094056.318000", "094056.321000", "094056.323000", "094056.326000", "094056.328000", "094056.330000", "094056.333000", "094056.335000", "094056.338000", "094056.340000", "094056.343000", "094136.295000", "094136.298000", "094136.301000", "094136.303000", "094136.306000", "094136.308000", "094136.310000", "094136.313000", "094136.315000", "094136.318000", "094136.320000", "094136.334000", "094136.336000", "094136.339000", "094136.341000", "094136.344000", "094136.346000", "094136.349000", "094136.351000", "094136.353000", "094216.296000", "094216.298000", "094216.301000", "094216.303000", "094216.306000", "094216.308000", "094216.311000", "094216.313000", "094216.316000", "094216.318000", "094216.321000", "094216.323000", "094216.326000", "094216.328000", "094216.331000", "094216.333000", "094216.336000", "094216.338000", "094216.341000", "094216.343000", "094256.295000", "094256.298000", "094256.301000", "094256.303000", "094256.306000", "094256.308000", "094256.311000", "094256.313000", "094256.316000", "094256.318000", "094256.321000", "094256.323000", "094256.326000", "094256.328000", "094256.331000", "094256.333000", "094256.336000", "094256.338000", "094256.341000", "094256.343000", "094336.295000", "094336.298000", "094336.301000", "094336.303000", "094336.306000", "094336.308000", "094336.311000", "094336.313000", "094336.315000", "094336.318000", "094336.320000", "094336.323000", "094336.325000", "094336.328000", "094336.330000", "094336.333000", "094336.335000", "094336.338000", "094336.340000", "094336.343000", "094416.296000", "094416.299000", "094416.302000", "094416.304000", "094416.307000", "094416.309000", "094416.311000", "094416.314000", "094416.316000", "094416.319000", "094416.321000", "094416.324000", "094416.326000", "094416.329000", "094416.331000", "094416.334000", "094416.336000", "094416.339000", "094416.341000", "094416.344000", "094448.820000", "094448.823000", "094448.826000", "094448.828000", "094448.831000", "094448.833000", "094448.836000", "094448.838000", "094448.841000", "094448.844000", "094448.847000", "094448.849000", "094448.852000", "094448.854000", "094448.857000", "094448.859000", "094448.862000"],
      "InstanceCreationTime": ["093856.300000", "093856.303000", "093856.306000", "093856.308000", "093856.311000", "093856.313000", "093856.316000", "093856.318000", "093856.321000", "093856.330000", "093856.333000", "093856.335000", "093856.338000", "093856.340000", "093856.343000", "093856.345000", "093856.347000", "093856.350000", "093856.352000", "093856.355000", "093856.357000", "093856.360000", "093856.362000", "093936.296000", "093936.299000", "093936.302000", "093936.304000", "093936.307000", "093936.309000", "093936.312000", "093936.314000", "093936.317000", "093936.319000", "093936.322000", "093936.324000", "093936.327000", "093936.329000", "093936.332000", "093936.334000", "093936.336000", "093936.339000", "093936.341000", "093936.344000", "094016.295000", "094016.298000", "094016.301000", "094016.303000", "094016.306000", "094016.308000", "094016.311000", "094016.313000", "094016.316000", "094016.318000", "094016.321000", "094016.323000", "094016.326000", "094016.328000", "094016.330000", "094016.333000", "094016.335000", "094016.338000", "094016.341000", "094016.343000", "094056.295000", "094056.298000", "094056.300000", "094056.303000", "094056.306000", "094056.308000", "094056.311000", "094056.313000", "094056.316000", "094056.318000", "094056.321000", "094056.323000", "094056.326000", "094056.328000", "094056.330000", "094056.333000", "094056.335000", "094056.338000", "094056.340000", "094056.343000", "094136.295000", "094136.298000", "094136.301000", "094136.303000", "094136.306000", "094136.308000", "094136.310000", "094136.313000", "094136.315000", "094136.318000", "094136.320000", "094136.334000", "094136.336000", "094136.339000", "094136.341000", "094136.344000", "094136.346000", "094136.349000", "094136.351000", "094136.353000", "094216.296000", "094216.298000", "094216.301000", "094216.303000", "094216.306000", "094216.308000", "094216.311000", "094216.313000", "094216.316000", "094216.318000", "094216.321000", "094216.323000", "094216.326000", "094216.328000", "094216.331000", "094216.333000", "094216.336000", "094216.338000", "094216.341000", "094216.343000", "094256.295000", "094256.298000", "094256.301000", "094256.303000", "094256.306000", "094256.308000", "094256.311000", "094256.313000", "094256.316000", "094256.318000", "094256.321000", "094256.323000", "094256.326000", "094256.328000", "094256.331000", "094256.333000", "094256.336000", "094256.338000", "094256.341000", "094256.343000", "094336.295000", "094336.298000", "094336.301000", "094336.303000", "094336.306000", "094336.308000", "094336.311000", "094336.313000", "094336.315000", "094336.318000", "094336.320000", "094336.323000", "094336.325000", "094336.328000", "094336.330000", "094336.333000", "094336.335000", "094336.338000", "094336.340000", "094336.343000", "094416.296000", "094416.299000", "094416.302000", "094416.304000", "094416.307000", "094416.309000", "094416.311000", "094416.314000", "094416.316000", "094416.319000", "094416.321000", "094416.324000", "094416.326000", "094416.329000", "094416.331000", "094416.334000", "094416.336000", "094416.339000", "094416.341000", "094416.344000", "094448.820000", "094448.823000", "094448.826000", "094448.828000", "094448.831000", "094448.833000", "094448.836000", "094448.838000", "094448.841000", "094448.844000", "094448.847000", "094448.849000", "094448.852000", "094448.854000", "094448.857000", "094448.859000", "094448.862000"],
      "InstanceNumber": [1, 2, 3, 4, 5, 6, 7, 8, 9, 10, 11, 12, 13, 14, 15, 16, 17, 18, 19, 20, 21, 22, 23, 24, 25, 26, 27, 28, 29, 30, 31, 32, 33, 34, 35, 36, 37, 38, 39, 40, 41, 42, 43, 44, 45, 46, 47, 48, 49, 50, 51, 52, 53, 54, 55, 56, 57, 58, 59, 60, 61, 62, 63, 64, 65, 66, 67, 68, 69, 70, 71, 72, 73, 74, 75, 76, 77, 78, 79, 80, 81, 82, 83, 84, 85, 86, 87, 88, 89, 90, 91, 92, 93, 94, 95, 96, 97, 98, 99, 100, 101, 102, 103, 104, 105, 106, 107, 108, 109, 110, 111, 112, 113, 114, 115, 116, 117, 118, 119, 120, 121, 122, 123, 124, 125, 126, 127, 128, 129, 130, 131, 132, 133, 134, 135, 136, 137, 138, 139, 140, 141, 142, 143, 144, 145, 146, 147, 148, 149, 150, 151, 152, 153, 154, 155, 156, 157, 158, 159, 160, 161, 162, 163, 164, 165, 166, 167, 168, 169, 170, 171, 172, 173, 174, 175, 176, 177, 178, 179, 180, 181, 182, 183, 184, 185, 186, 187, 188, 189, 190, 191, 192, 193, 194, 195, 196, 197, 198, 199, 200],
      "LargestImagePixelValue": [624, 622, 624, 623, 621, 625, 625, 625, 621, 624, 624, 621, 625, 624, 623, 621, 623, 623, 626, 625, 626, 624, 623, 625, 621, 623, 625, 624, 622, 621, 625, 626, 624, 625, 623, 623, 625, 622, 621, 623, 624, 622, 622, 621, 627, 623, 622, 626, 625, 623, 621, 625, 624, 624, 626, 622, 623, 624, 624, 623, 625, 626, 623, 622, 624, 620, 623, 624, 625, 620, 624, 621, 620, 626, 626, 622, 624, 623, 621, 626, 627, 624, 621, 623, 624, 622, 621, 623, 622, 624, 623, 622, 625, 623, 623, 624, 623, 622, 622, 620, 622, 623, 623, 624, 625, 621, 623, 623, 622, 624, 623, 621, 623, 622, 618, 626, 622, 623, 621, 623, 621, 626, 622, 621, 624, 621, 624, 623, 622, 620, 624, 621, 620, 622, 623, 620, 622, 623, 623, 626, 623, 621, 623, 623, 621, 623, 623, 624, 626, 625, 620, 622, 622, 622, 624, 621, 625, 622, 621, 623, 622, 621, 618, 621, 625, 623, 622, 620, 623, 619, 619, 622, 619, 623, 624, 620, 623, 621, 622, 623, 628, 623, 622, 625, 621, 620, 625, 621, 624, 620, 624, 621, 625, 621, 625, 622, 621, 622, 620, 620],
      "WindowCenter": [442.0, 442.0, 442.0, 442.0, 442.0, 442.0, 442.0, 442.0, 442.0, 442.0, 442.0, 442.0, 442.0, 442.0, 442.0, 442.0, 442.0, 442.0, 442.0, 442.0, 442.0, 442.0, 442.0, 442.0, 442.0, 442.0, 442.0, 442.0, 442.0, 442.0, 442.0, 442.0, 442.0, 442.0, 442.0, 442.0, 442.0, 442.0, 442.0, 442.0, 442.0, 442.0, 442.0, 442.0, 442.0, 442.0, 442.0, 442.0, 442.0, 442.0, 442.0, 442.0, 442.0, 442.0, 442.0, 442.0, 442.0, 442.0, 442.0, 442.0, 442.0, 442.0, 442.0, 442.0, 442.0, 442.0, 442.0, 442.0, 442.0, 442.0, 441.0, 442.0, 442.0, 442.0, 442.0, 441.0, 442.0, 442.0, 441.0, 441.0, 442.0, 441.0, 442.0, 441.0, 441.0, 441.0, 442.0, 441.0, 441.0, 441.0, 441.0, 441.0, 441.0, 441.0, 441.0, 441.0, 441.0, 441.0, 441.0, 441.0, 441.0, 441.0, 441.0, 441.0, 441.0, 441.0, 441.0, 441.0, 441.0, 441.0, 441.0, 441.0, 441.0, 441.0, 441.0, 441.0, 441.0, 441.0, 441.0, 441.0, 441.0, 441.0, 441.0, 441.0, 441.0, 441.0, 441.0, 441.0, 441.0, 441.0, 441.0, 441.0, 441.0, 441.0, 441.0, 441.0, 441.0, 441.0, 441.0, 441.0, 441.0, 441.0, 441.0, 441.0, 441.0, 441.0, 441.0, 441.0, 441.0, 441.0, 441.0, 441.0, 441.0, 441.0, 441.0, 441.0, 441.0, 441.0, 441.0, 441.0, 441.0, 441.0, 441.0, 441.0, 441.0, 441.0, 441.0, 441.0, 441.0, 441.0, 441.0, 441.0, 441.0, 441.0, 441.0, 441.0, 441.0, 441.0, 441.0, 441.0, 441.0, 441.0, 441.0, 441.0, 441.0, 441.0, 441.0, 441.0, 441.0, 441.0, 441.0, 441.0, 441.0, 441.0, 441.0, 441.0, 441.0, 441.0, 441.0, 441.0],
      "WindowWidth": [921.0, 920.0, 920.0, 920.0, 920.0, 920.0, 921.0, 920.0, 921.0, 920.0, 920.0, 920.0, 920.0, 920.0, 920.0, 920.0, 920.0, 920.0, 920.0, 920.0, 920.0, 920.0, 920.0, 920.0, 920.0, 920.0, 920.0, 920.0, 920.0, 920.0, 920.0, 920.0, 920.0, 920.0, 920.0, 920.0, 920.0, 920.0, 920.0, 920.0, 920.0, 920.0, 920.0, 920.0, 920.0, 920.0, 920.0, 920.0, 920.0, 920.0, 920.0, 920.0, 920.0, 920.0, 920.0, 920.0, 920.0, 920.0, 920.0, 920.0, 920.0, 920.0, 920.0, 920.0, 920.0, 920.0, 920.0, 920.0, 920.0, 920.0, 919.0, 920.0, 920.0, 920.0, 920.0, 919.0, 920.0, 920.0, 919.0, 919.0, 920.0, 919.0, 920.0, 919.0, 919.0, 919.0, 920.0, 919.0, 919.0, 919.0, 919.0, 919.0, 919.0, 919.0, 919.0, 919.0, 919.0, 919.0, 919.0, 919.0, 919.0, 919.0, 919.0, 919.0, 919.0, 919.0, 919.0, 919.0, 919.0, 919.0, 919.0, 919.0, 919.0, 919.0, 919.0, 919.0, 919.0, 919.0, 919.0, 919.0, 919.0, 919.0, 919.0, 919.0, 919.0, 919.0, 918.0, 918.0, 919.0, 919.0, 918.0, 918.0, 918.0, 918.0, 918.0, 918.0, 918.0, 918.0, 918.0, 918.0, 918.0, 918.0, 918.0, 918.0, 918.0, 918.0, 918.0, 918.0, 918.0, 918.0, 918.0, 918.0, 918.0, 918.0, 918.0, 918.0, 918.0, 918.0, 918.0, 918.0, 918.0, 918.0, 918.0, 918.0, 918.0, 918.0, 918.0, 918.0, 918.0, 918.0, 918.0, 918.0, 918.0, 918.0, 918.0, 918.0, 918.0, 918.0, 918.0, 918.0, 918.0, 918.0, 918.0, 918.0, 918.0, 918.0, 918.0, 918.0, 918.0, 918.0, 918.0, 918.0, 918.0, 918.0, 918.0, 918.0, 918.0, 918.0, 918.0, 918.0]
    },
    "slices": {}
  }
}