{
  "AcquisitionMatrixPE": 80,
  "AcquisitionNumber": 1,
  "AcquisitionTime": "08:49:16.842500",
  "BandwidthPerPixelPhaseEncode": 48.077,
  "BaseResolution": 80,
  "BodyPartExamined": "BRAIN",
  "CoilCombinationMethod": "Sum of Squares",
  "ConsistencyInfo": "N4_VE11C_LATEST_20160120",
  "ConversionSoftware": "dcm2niix",
  "ConversionSoftwareVersion": "v1.0.20220720",
  "DerivedVendorReportedEchoSpacing": 0.000519999,
  "DeviceSerialNumber": "66112",
  "DwellTime": 2.7e-06,
  "EchoTime": 0.035,
  "EchoTrainLength": 39,
  "EffectiveEchoSpacing": 0.00026,
  "FlipAngle": 90,
  "HeudiconvVersion": "0.13.1",
  "ImageOrientationPatientDICOM": [0.99138, -0.131002, -0.00216092, 0.124889, 0.939872, 0.317873],
  "ImageOrientationText": "Tra>Cor(18.4)>Sag(2.3)",
  "ImageType": [
    "ORIGINAL",
    "PRIMARY",
    "M",
    "ND",
    "NORM",
    "MOSAIC"
],
  "ImagingFrequency": 123.252,
  "InPlanePhaseEncodingDirectionDICOM": "COL",
  "InstitutionAddress": "Maynard 3,Hanover,NH,US,03755",
  "InstitutionName": "Dartmouth College - PBS",
  "InstitutionalDepartmentName": "Department",
  "MRAcquisitionType": "2D",
  "MagneticFieldStrength": 3,
  "Manufacturer": "Siemens",
  "ManufacturersModelName": "Prisma",
  "MatrixCoilMode": "GRAPPA",
  "Modality": "MR",
  "NonlinearGradientCorrection": false,
  "ParallelReductionFactorInPlane": 2,
  "PartialFourier": 1,
  "PatientPosition": "HFS",
  "PercentPhaseFOV": 100,
  "PercentSampling": 100,
  "PhaseEncodingDirection": "j-",
  "PhaseEncodingSteps": 79,
  "PhaseResolution": 1,
  "PixelBandwidth": 2315,
  "ProcedureStepDescription": "dbic^QA",
  "ProtocolName": "func-bold_task-rest_acq-p2",
  "PulseSequenceDetails": "%SiemensSeq%\\ep2d_bold",
  "ReceiveCoilActiveElements": "HC1-7;NC1,2",
  "ReceiveCoilName": "HeadNeck_64",
  "ReconMatrixPE": 80,
  "RefLinesPE": 24,
  "RepetitionTime": 2,
  "SAR": 0.0409938,
  "ScanOptions": "FS",
  "ScanningSequence": "EP",
  "SequenceName": "*epfid2d1_80",
  "SequenceVariant": "SK",
  "SeriesDescription": "func-bold_task-rest_acq-p2",
  "SeriesNumber": 5,
  "ShimSetting": [4141, -7715, -7520, 163, -87, -242, -25, 70],
  "SliceThickness": 3.5,
  "SliceTiming": [0.99, 0, 1.055, 0.065, 1.12, 0.13, 1.1875, 0.1975, 1.2525, 0.2625, 1.32, 0.33, 1.385, 0.395, 1.45, 0.46, 1.5175, 0.5275, 1.5825, 0.5925, 1.6475, 0.66, 1.715, 0.725, 1.78, 0.79, 1.8475, 0.8575, 1.9125, 0.9225],
  "SoftwareVersions": "syngo MR E11",
  "SpacingBetweenSlices": 3.99,
  "StationName": "AWP66112",
  "TaskName": "rest",
  "TotalReadoutTime": 0.02054,
  "TxRefAmp": 211.414,
  "dcmmeta_affine": [
    [-2.9741392135620117, 0.3746662437915802, 0.1580481082201004, 102.22798156738281],
    [0.39300647377967834, 2.8196163177490234, 1.2584565877914429, -133.77261352539062],
    [-0.006482746452093124, -0.9536187052726746, 3.7830421924591064, -7.8625593185424805],
    [0.0, 0.0, 0.0, 1.0]
],
  "dcmmeta_reorient_transform": [
    [0.0, -1.0, 0.0, 79.0],
    [1.0, 0.0, 0.0, 0.0],
    [0.0, 0.0, 1.0, 0.0],
    [0.0, 0.0, 0.0, 1.0]
],
  "dcmmeta_shape": [80, 80, 30, 200],
  "dcmmeta_slice_dim": 2,
  "dcmmeta_version": 0.6,
  "global": {
    "const": {
      "AccessionNumber": "qa64",
      "AcquisitionMatrix": [80, 0, 0, 80],
      "AngioFlag": "N",
      "BitsAllocated": 16,
      "BitsStored": 12,
      "BodyPartExamined": "BRAIN",
      "Columns": 480,
      "EchoNumbers": 1,
      "EchoTime": 35.0,
      "EchoTrainLength": 39,
      "FlipAngle": 90.0,
      "HighBit": 11,
      "ImageOrientationPatient": [0.99137972774345, -0.1310021597679, -0.0021609154227, 0.12488874995656, 0.93987212635987, 0.31787290892126],
      "ImagePositionPatient": [-801.587700745, -574.2990651552, -272.6256350443],
      "ImageType": [
        "ORIGINAL",
        "PRIMARY",
        "M",
        "ND",
        "NORM",
        "MOSAIC"
],
      "ImagedNucleus": "1H",
      "ImagingFrequency": 123.252335,
      "InPlanePhaseEncodingDirection": "COL",
      "MRAcquisitionType": "2D",
      "MagneticFieldStrength": 3.0,
      "Manufacturer": "SIEMENS",
      "ManufacturerModelName": "Prisma",
      "Modality": "MR",
      "NumberOfAverages": 1.0,
      "NumberOfPhaseEncodingSteps": 79,
      "PercentPhaseFieldOfView": 100.0,
      "PercentSampling": 100.0,
      "PerformedProcedureStepStartTime": "084733.065000",
      "PhotometricInterpretation": "MONOCHROME2",
      "PixelBandwidth": 2315.0,
      "PixelRepresentation": 0,
      "PixelSpacing": [3.0, 3.0],
      "ProtocolName": "func-bold_task-rest_acq-p2",
      "RepetitionTime": 2000.0,
      "Rows": 480,
      "SAR": 0.04099382082757,
      "SamplesPerPixel": 1,
      "ScanOptions": "FS",
      "ScanningSequence": "EP",
      "SequenceName": "*epfid2d1_80",
      "SequenceVariant": "SK",
      "SeriesDescription": "func-bold_task-rest_acq-p2",
      "SeriesNumber": 5,
      "SeriesTime": "085012.274000",
      "SliceLocation": -45.597610284464,
      "SliceThickness": 3.5,
      "SmallestImagePixelValue": 0,
      "SoftwareVersions": "syngo MR E11",
      "SpacingBetweenSlices": 3.9900000892424,
      "SpecificCharacterSet": "ISO_IR 100",
      "StudyID": "7",
      "StudyTime": "084733.000000",
      "TransmitCoilName": "Body",
      "VariableFlipAngleFlag": "N",
      "WindowCenterWidthExplanation": "Algo1",
      "dBdt": 0.0},
    "slices": {}
  },
  "time": {
    "samples": {
      "AcquisitionNumber": [1, 2, 3, 4, 5, 6, 7, 8, 9, 10, 11, 12, 13, 14, 15, 16, 17, 18, 19, 20, 21, 22, 23, 24, 25, 26, 27, 28, 29, 30, 31, 32, 33, 34, 35, 36, 37, 38, 39, 40, 41, 42, 43, 44, 45, 46, 47, 48, 49, 50, 51, 52, 53, 54, 55, 56, 57, 58, 59, 60, 61, 62, 63, 64, 65, 66, 67, 68, 69, 70, 71, 72, 73, 74, 75, 76, 77, 78, 79, 80, 81, 82, 83, 84, 85, 86, 87, 88, 89, 90, 91, 92, 93, 94, 95, 96, 97, 98, 99, 100, 101, 102, 103, 104, 105, 106, 107, 108, 109, 110, 111, 112, 113, 114, 115, 116, 117, 118, 119, 120, 121, 122, 123, 124, 125, 126, 127, 128, 129, 130, 131, 132, 133, 134, 135, 136, 137, 138, 139, 140, 141, 142, 143, 144, 145, 146, 147, 148, 149, 150, 151, 152, 153, 154, 155, 156, 157, 158, 159, 160, 161, 162, 163, 164, 165, 166, 167, 168, 169, 170, 171, 172, 173, 174, 175, 176, 177, 178, 179, 180, 181, 182, 183, 184, 185, 186, 187, 188, 189, 190, 191, 192, 193, 194, 195, 196, 197, 198, 199, 200],
      "AcquisitionTime": ["084916.842500", "084918.842500", "084920.842500", "084922.842500", "084924.842500", "084926.842500", "084928.842500", "084930.842500", "084932.842500", "084934.842500", "084936.842500", "084938.842500", "084940.842500", "084942.842500", "084944.842500", "084946.842500", "084948.842500", "084950.842500", "084952.842500", "084954.842500", "084956.842500", "084958.842500", "085000.842500", "085002.842500", "085004.842500", "085006.842500", "085008.842500", "085010.842500", "085012.842500", "085014.842500", "085016.842500", "085018.842500", "085020.842500", "085022.842500", "085024.842500", "085026.842500", "085028.842500", "085030.842500", "085032.842500", "085034.842500", "085036.842500", "085038.842500", "085040.842500", "085042.842500", "085044.842500", "085046.842500", "085048.842500", "085050.842500", "085052.842500", "085054.842500", "085056.842500", "085058.842500", "085100.842500", "085102.842500", "085104.842500", "085106.842500", "085108.842500", "085110.842500", "085112.842500", "085114.842500", "085116.842500", "085118.842500", "085120.842500", "085122.842500", "085124.842500", "085126.842500", "085128.842500", "085130.842500", "085132.842500", "085134.842500", "085136.842500", "085138.842500", "085140.842500", "085142.842500", "085144.842500", "085146.842500", "085148.842500", "085150.842500", "085152.842500", "085154.842500", "085156.842500", "085158.842500", "085200.842500", "085202.842500", "085204.842500", "085206.842500", "085208.842500", "085210.842500", "085212.842500", "085214.842500", "085216.842500", "085218.842500", "085220.842500", "085222.842500", "085224.842500", "085226.842500", "085228.842500", "085230.842500", "085232.842500", "085234.842500", "085236.842500", "085238.842500", "085240.842500", "085242.842500", "085244.842500", "085246.842500", "085248.842500", "085250.842500", "085252.842500", "085254.842500", "085256.842500", "085258.842500", "085300.842500", "085302.842500", "085304.842500", "085306.842500", "085308.842500", "085310.842500", "085312.842500", "085314.842500", "085316.842500", "085318.842500", "085320.842500", "085322.842500", "085324.842500", "085326.842500", "085328.842500", "085330.842500", "085332.842500", "085334.842500", "085336.842500", "085338.842500", "085340.842500", "085342.842500", "085344.842500", "085346.842500", "085348.842500", "085350.842500", "085352.842500", "085354.842500", "085356.842500", "085358.842500", "085400.842500", "085402.842500", "085404.842500", "085406.842500", "085408.842500", "085410.842500", "085412.842500", "085414.842500", "085416.842500", "085418.842500", "085420.842500", "085422.842500", "085424.842500", "085426.842500", "085428.842500", "085430.842500", "085432.842500", "085434.842500", "085436.842500", "085438.842500", "085440.842500", "085442.842500", "085444.842500", "085446.842500", "085448.842500", "085450.842500", "085452.842500", "085454.842500", "085456.842500", "085458.842500", "085500.842500", "085502.842500", "085504.842500", "085506.842500", "085508.842500", "085510.842500", "085512.842500", "085514.842500", "085516.842500", "085518.842500", "085520.842500", "085522.842500", "085524.842500", "085526.842500", "085528.842500", "085530.842500", "085532.842500", "085534.842500", "085536.842500", "085538.842500", "085540.842500", "085542.842500", "085544.842500", "085546.842500", "085548.842500", "085550.842500", "085552.842500", "085554.842500"],
      "ContentTime": ["085012.278000", "085012.281000", "085012.284000", "085012.286000", "085012.289000", "085012.292000", "085012.294000", "085012.297000", "085012.299000", "085012.302000", "085012.305000", "085012.307000", "085012.310000", "085012.312000", "085012.315000", "085012.318000", "085012.321000", "085012.324000", "085012.326000", "085012.329000", "085012.332000", "085012.334000", "085012.337000", "085012.339000", "085012.342000", "085012.345000", "085012.347000", "085012.350000", "085052.272000", "085052.276000", "085052.278000", "085052.281000", "085052.284000", "085052.286000", "085052.289000", "085052.292000", "085052.294000", "085052.297000", "085052.300000", "085052.302000", "085052.305000", "085052.307000", "085052.310000", "085052.313000", "085052.315000", "085052.318000", "085052.321000", "085052.323000", "085132.271000", "085132.274000", "085132.277000", "085132.280000", "085132.282000", "085132.285000", "085132.288000", "085132.290000", "085132.293000", "085132.295000", "085132.298000", "085132.301000", "085132.303000", "085132.306000", "085132.309000", "085132.311000", "085132.314000", "085132.316000", "085132.319000", "085132.322000", "085212.272000", "085212.275000", "085212.278000", "085212.281000", "085212.283000", "085212.286000", "085212.289000", "085212.291000", "085212.294000", "085212.296000", "085212.299000", "085212.302000", "085212.304000", "085212.307000", "085212.310000", "085212.312000", "085212.315000", "085212.317000", "085212.320000", "085212.323000", "085252.272000", "085252.274000", "085252.277000", "085252.280000", "085252.282000", "085252.285000", "085252.288000", "085252.290000", "085252.293000", "085252.296000", "085252.298000", "085252.301000", "085252.303000", "085252.306000", "085252.309000", "085252.325000", "085252.327000", "085252.330000", "085252.332000", "085252.335000", "085332.272000", "085332.274000", "085332.277000", "085332.280000", "085332.282000", "085332.285000", "085332.288000", "085332.290000", "085332.293000", "085332.296000", "085332.298000", "085332.301000", "085332.303000", "085332.306000", "085332.309000", "085332.311000", "085332.314000", "085332.317000", "085332.319000", "085332.322000", "085412.272000", "085412.275000", "085412.278000", "085412.281000", "085412.290000", "085412.292000", "085412.295000", "085412.297000", "085412.300000", "085412.303000", "085412.305000", "085412.308000", "085412.311000", "085412.313000", "085412.316000", "085412.319000", "085412.321000", "085412.324000", "085412.326000", "085412.329000", "085452.273000", "085452.275000", "085452.278000", "085452.281000", "085452.283000", "085452.286000", "085452.289000", "085452.291000", "085452.294000", "085452.296000", "085452.299000", "085452.302000", "085452.304000", "085452.307000", "085452.310000", "085452.312000", "085452.315000", "085452.318000", "085452.320000", "085452.323000", "085532.272000", "085532.274000", "085532.277000", "085532.280000", "085532.283000", "085532.285000", "085532.288000", "085532.290000", "085532.293000", "085532.296000", "085532.298000", "085532.301000", "085532.303000", "085532.306000", "085532.309000", "085532.311000", "085532.314000", "085532.317000", "085532.319000", "085532.322000", "085556.138000", "085556.141000", "085556.144000", "085556.146000", "085556.149000", "085556.152000", "085556.155000", "085556.158000", "085556.160000", "085556.163000", "085556.182000", "085556.188000"],
      "InstanceCreationTime": ["085012.278000", "085012.281000", "085012.284000", "085012.286000", "085012.289000", "085012.292000", "085012.294000", "085012.297000", "085012.299000", "085012.302000", "085012.305000", "085012.307000", "085012.310000", "085012.312000", "085012.315000", "085012.318000", "085012.321000", "085012.324000", "085012.326000", "085012.329000", "085012.332000", "085012.334000", "085012.337000", "085012.339000", "085012.342000", "085012.345000", "085012.347000", "085012.350000", "085052.272000", "085052.276000", "085052.278000", "085052.281000", "085052.284000", "085052.286000", "085052.289000", "085052.292000", "085052.294000", "085052.297000", "085052.300000", "085052.302000", "085052.305000", "085052.307000", "085052.310000", "085052.313000", "085052.315000", "085052.318000", "085052.321000", "085052.323000", "085132.271000", "085132.274000", "085132.277000", "085132.280000", "085132.282000", "085132.285000", "085132.288000", "085132.290000", "085132.293000", "085132.295000", "085132.298000", "085132.301000", "085132.303000", "085132.306000", "085132.309000", "085132.311000", "085132.314000", "085132.316000", "085132.319000", "085132.322000", "085212.272000", "085212.275000", "085212.278000", "085212.281000", "085212.283000", "085212.286000", "085212.289000", "085212.291000", "085212.294000", "085212.296000", "085212.299000", "085212.302000", "085212.304000", "085212.307000", "085212.310000", "085212.312000", "085212.315000", "085212.317000", "085212.320000", "085212.323000", "085252.272000", "085252.274000", "085252.277000", "085252.280000", "085252.282000", "085252.285000", "085252.288000", "085252.290000", "085252.293000", "085252.296000", "085252.298000", "085252.301000", "085252.303000", "085252.306000", "085252.309000", "085252.325000", "085252.327000", "085252.330000", "085252.332000", "085252.335000", "085332.272000", "085332.274000", "085332.277000", "085332.280000", "085332.282000", "085332.285000", "085332.288000", "085332.290000", "085332.293000", "085332.296000", "085332.298000", "085332.301000", "085332.303000", "085332.306000", "085332.309000", "085332.311000", "085332.314000", "085332.317000", "085332.319000", "085332.322000", "085412.272000", "085412.275000", "085412.278000", "085412.281000", "085412.290000", "085412.292000", "085412.295000", "085412.297000", "085412.300000", "085412.303000", "085412.305000", "085412.308000", "085412.311000", "085412.313000", "085412.316000", "085412.319000", "085412.321000", "085412.324000", "085412.326000", "085412.329000", "085452.273000", "085452.275000", "085452.278000", "085452.281000", "085452.283000", "085452.286000", "085452.289000", "085452.291000", "085452.294000", "085452.296000", "085452.299000", "085452.302000", "085452.304000", "085452.307000", "085452.310000", "085452.312000", "085452.315000", "085452.318000", "085452.320000", "085452.323000", "085532.272000", "085532.274000", "085532.277000", "085532.280000", "085532.283000", "085532.285000", "085532.288000", "085532.290000", "085532.293000", "085532.296000", "085532.298000", "085532.301000", "085532.303000", "085532.306000", "085532.309000", "085532.311000", "085532.314000", "085532.317000", "085532.319000", "085532.322000", "085556.138000", "085556.141000", "085556.144000", "085556.146000", "085556.149000", "085556.152000", "085556.155000", "085556.158000", "085556.160000", "085556.163000", "085556.182000", "085556.188000"],
      "InstanceNumber": [1, 2, 3, 4, 5, 6, 7, 8, 9, 10, 11, 12, 13, 14, 15, 16, 17, 18, 19, 20, 21, 22, 23, 24, 25, 26, 27, 28, 29, 30, 31, 32, 33, 34, 35, 36, 37, 38, 39, 40, 41, 42, 43, 44, 45, 46, 47, 48, 49, 50, 51, 52, 53, 54, 55, 56, 57, 58, 59, 60, 61, 62, 63, 64, 65, 66, 67, 68, 69, 70, 71, 72, 73, 74, 75, 76, 77, 78, 79, 80, 81, 82, 83, 84, 85, 86, 87, 88, 89, 90, 91, 92, 93, 94, 95, 96, 97, 98, 99, 100, 101, 102, 103, 104, 105, 106, 107, 108, 109, 110, 111, 112, 113, 114, 115, 116, 117, 118, 119, 120, 121, 122, 123, 124, 125, 126, 127, 128, 129, 130, 131, 132, 133, 134, 135, 136, 137, 138, 139, 140, 141, 142, 143, 144, 145, 146, 147, 148, 149, 150, 151, 152, 153, 154, 155, 156, 157, 158, 159, 160, 161, 162, 163, 164, 165, 166, 167, 168, 169, 170, 171, 172, 173, 174, 175, 176, 177, 178, 179, 180, 181, 182, 183, 184, 185, 186, 187, 188, 189, 190, 191, 192, 193, 194, 195, 196, 197, 198, 199, 200],
      "LargestImagePixelValue": [4095, 4095, 4095, 4095, 4095, 4095, 4095, 4095, 4095, 4095, 4095, 4095, 4095, 4095, 4095, 4095, 4095, 4095, 4095, 4095, 4095, 4095, 4095, 4095, 4095, 4095, 4095, 4095, 4095, 4095, 4092, 4095, 4095, 4095, 4095, 4095, 4095, 4095, 4095, 4095, 4095, 4095, 4095, 4095, 4095, 4095, 4095, 4095, 4095, 4095, 4095, 4095, 4095, 4095, 4095, 4095, 4095, 4095, 4095, 4095, 4095, 4095, 4095, 4095, 4095, 4095, 4095, 4095, 4095, 4095, 4095, 4095, 4095, 4095, 4095, 4095, 4095, 4095, 4095, 4095, 4095, 4095, 4095, 4095, 4095, 4095, 4095, 4095, 4095, 4095, 4095, 4095, 4095, 4095, 4095, 4095, 4095, 4095, 4095, 4095, 4095, 4095, 4095, 4095, 4095, 4095, 4095, 4095, 4095, 4095, 4095, 4095, 4095, 4095, 4095, 4095, 4095, 4095, 4095, 4095, 4095, 4095, 4095, 4095, 4095, 4095, 4095, 4095, 4095, 4095, 4095, 4095, 4095, 4095, 4095, 4095, 4095, 4095, 4095, 4095, 4095, 4095, 4095, 4095, 4095, 4095, 4095, 4095, 4095, 4095, 4095, 4095, 4095, 4095, 4095, 4095, 4095, 4095, 4095, 4095, 4095, 4095, 4095, 4095, 4095, 4095, 4095, 4095, 4095, 4095, 4095, 4095, 4095, 4095, 4095, 4095, 4095, 4095, 4095, 4095, 4095, 4095, 4095, 4095, 4095, 4095, 4095, 4095, 4095, 4095, 4095, 4095, 4095, 4095, 4095, 4095, 4095, 4095, 4095, 4095],
      "WindowCenter": [1427.0, 1427.0, 1426.0, 1426.0, 1427.0, 1427.0, 1426.0, 1426.0, 1427.0, 1426.0, 1425.0, 1426.0, 1426.0, 1425.0, 1426.0, 1425.0, 1426.0, 1426.0, 1426.0, 1425.0, 1426.0, 1426.0, 1424.0, 1425.0, 1425.0, 1425.0, 1425.0, 1426.0, 1425.0, 1424.0, 1426.0, 1425.0, 1424.0, 1424.0, 1425.0, 1425.0, 1425.0, 1425.0, 1424.0, 1424.0, 1424.0, 1424.0, 1424.0, 1424.0, 1423.0, 1424.0, 1424.0, 1425.0, 1424.0, 1424.0, 1424.0, 1423.0, 1423.0, 1423.0, 1424.0, 1424.0, 1424.0, 1423.0, 1424.0, 1424.0, 1424.0, 1424.0, 1424.0, 1424.0, 1424.0, 1423.0, 1423.0, 1423.0, 1424.0, 1424.0, 1423.0, 1423.0, 1423.0, 1423.0, 1423.0, 1423.0, 1423.0, 1423.0, 1423.0, 1423.0, 1423.0, 1423.0, 1423.0, 1423.0, 1422.0, 1423.0, 1423.0, 1422.0, 1422.0, 1422.0, 1422.0, 1422.0, 1423.0, 1422.0, 1422.0, 1422.0, 1422.0, 1422.0, 1422.0, 1423.0, 1422.0, 1422.0, 1422.0, 1422.0, 1422.0, 1422.0, 1422.0, 1422.0, 1423.0, 1422.0, 1422.0, 1421.0, 1422.0, 1421.0, 1422.0, 1422.0, 1422.0, 1421.0, 1422.0, 1422.0, 1422.0, 1422.0, 1421.0, 1421.0, 1421.0, 1422.0, 1421.0, 1421.0, 1422.0, 1422.0, 1422.0, 1422.0, 1422.0, 1421.0, 1422.0, 1421.0, 1421.0, 1421.0, 1421.0, 1421.0, 1422.0, 1422.0, 1421.0, 1421.0, 1421.0, 1422.0, 1421.0, 1421.0, 1421.0, 1420.0, 1421.0, 1421.0, 1421.0, 1420.0, 1421.0, 1420.0, 1420.0, 1420.0, 1420.0, 1421.0, 1420.0, 1419.0, 1420.0, 1420.0, 1420.0, 1420.0, 1420.0, 1420.0, 1420.0, 1420.0, 1420.0, 1420.0, 1420.0, 1420.0, 1420.0, 1420.0, 1420.0, 1420.0, 1420.0, 1420.0, 1420.0, 1420.0, 1420.0, 1420.0, 1420.0, 1420.0, 1420.0, 1420.0, 1420.0, 1420.0, 1420.0, 1420.0, 1420.0, 1420.0, 1420.0, 1420.0, 1420.0, 1419.0, 1420.0, 1419.0],
      "WindowWidth": [3288.0, 3287.0, 3287.0, 3287.0, 3286.0, 3286.0, 3286.0, 3286.0, 3286.0, 3286.0, 3286.0, 3287.0, 3286.0, 3286.0, 3286.0, 3286.0, 3286.0, 3285.0, 3285.0, 3285.0, 3285.0, 3285.0, 3286.0, 3285.0, 3285.0, 3285.0, 3285.0, 3285.0, 3285.0, 3286.0, 3285.0, 3285.0, 3285.0, 3285.0, 3285.0, 3285.0, 3285.0, 3285.0, 3285.0, 3285.0, 3285.0, 3285.0, 3284.0, 3284.0, 3285.0, 3285.0, 3285.0, 3284.0, 3285.0, 3284.0, 3284.0, 3285.0, 3284.0, 3285.0, 3284.0, 3284.0, 3284.0, 3285.0, 3284.0, 3284.0, 3284.0, 3284.0, 3284.0, 3284.0, 3284.0, 3284.0, 3284.0, 3284.0, 3284.0, 3283.0, 3283.0, 3284.0, 3284.0, 3283.0, 3283.0, 3283.0, 3283.0, 3283.0, 3283.0, 3283.0, 3283.0, 3283.0, 3283.0, 3283.0, 3284.0, 3283.0, 3283.0, 3284.0, 3283.0, 3283.0, 3283.0, 3283.0, 3283.0, 3282.0, 3283.0, 3282.0, 3283.0, 3282.0, 3282.0, 3282.0, 3282.0, 3282.0, 3282.0, 3282.0, 3282.0, 3282.0, 3282.0, 3282.0, 3282.0, 3282.0, 3282.0, 3282.0, 3282.0, 3282.0, 3282.0, 3282.0, 3282.0, 3282.0, 3282.0, 3282.0, 3282.0, 3282.0, 3281.0, 3281.0, 3281.0, 3282.0, 3282.0, 3282.0, 3282.0, 3282.0, 3282.0, 3282.0, 3282.0, 3282.0, 3281.0, 3281.0, 3281.0, 3281.0, 3281.0, 3281.0, 3281.0, 3281.0, 3281.0, 3281.0, 3281.0, 3281.0, 3281.0, 3281.0, 3281.0, 3281.0, 3281.0, 3281.0, 3281.0, 3281.0, 3281.0, 3281.0, 3281.0, 3281.0, 3281.0, 3280.0, 3280.0, 3281.0, 3280.0, 3280.0, 3281.0, 3281.0, 3281.0, 3280.0, 3281.0, 3280.0, 3280.0, 3280.0, 3281.0, 3280.0, 3280.0, 3280.0, 3280.0, 3280.0, 3280.0, 3280.0, 3280.0, 3280.0, 3280.0, 3280.0, 3280.0, 3280.0, 3280.0, 3280.0, 3280.0, 3280.0, 3279.0, 3280.0, 3280.0, 3280.0, 3280.0, 3280.0, 3280.0, 3280.0, 3280.0, 3280.0]
    },
    "slices": {}
  }
}