{
  "AcquisitionMatrixPE": 80,
  "AcquisitionNumber": 1,
  "AcquisitionTime": "09:02:51.545000",
  "BandwidthPerPixelPhaseEncode": 25,
  "BaseResolution": 80,
  "BodyPartExamined": "BRAIN",
  "CoilCombinationMethod": "Sum of Squares",
  "ConsistencyInfo": "N4_VE11C_LATEST_20160120",
  "ConversionSoftware": "dcm2niix",
  "ConversionSoftwareVersion": "v1.0.20220720",
  "DerivedVendorReportedEchoSpacing": 0.0005,
  "DeviceSerialNumber": "66112",
  "DwellTime": 2.7e-06,
  "EchoTime": 0.03,
  "EchoTrainLength": 80,
  "EffectiveEchoSpacing": 0.0005,
  "FlipAngle": 10,
  "HeudiconvVersion": "0.13.1",
  "ImageOrientationPatientDICOM": [0.99138, -0.131002, -0.00216092, 0.124889, 0.939872, 0.317873],
  "ImageOrientationText": "Tra>Cor(18.4)>Sag(2.3)",
  "ImageType": [
    "ORIGINAL",
    "PRIMARY",
    "M",
    "ND",
    "NORM",
    "MOSAIC"
],
  "ImagingFrequency": 123.252,
  "InPlanePhaseEncodingDirectionDICOM": "COL",
  "InstitutionAddress": "Maynard 3,Hanover,NH,US,03755",
  "InstitutionName": "Dartmouth College - PBS",
  "InstitutionalDepartmentName": "Department",
  "MRAcquisitionType": "2D",
  "MagneticFieldStrength": 3,
  "Manufacturer": "Siemens",
  "ManufacturersModelName": "Prisma",
  "MatrixCoilMode": "SENSE",
  "Modality": "MR",
  "NonlinearGradientCorrection": false,
  "PartialFourier": 1,
  "PatientPosition": "HFS",
  "PercentPhaseFOV": 100,
  "PercentSampling": 100,
  "PhaseEncodingDirection": "j-",
  "PhaseEncodingSteps": 80,
  "PhaseResolution": 1,
  "PixelBandwidth": 2315,
  "ProcedureStepDescription": "dbic^QA",
  "ProtocolName": "func-bold_fa-10",
  "PulseSequenceDetails": "%SiemensSeq%\\ep2d_bold",
  "ReceiveCoilActiveElements": "HC1-7;NC1,2",
  "ReceiveCoilName": "HeadNeck_64",
  "ReconMatrixPE": 80,
  "RepetitionTime": 2,
  "SAR": 0.00864164,
  "ScanOptions": "FS",
  "ScanningSequence": "EP",
  "SequenceName": "*epfid2d1_80",
  "SequenceVariant": "SK",
  "SeriesDescription": "func-bold_fa-10",
  "SeriesNumber": 9,
  "ShimSetting": [4141, -7715, -7520, 163, -87, -242, -24, 70],
  "SliceThickness": 3.5,
  "SliceTiming": [0.99, 0, 1.0575, 0.0675, 1.1225, 0.1325, 1.1875, 0.1975, 1.255, 0.265, 1.32, 0.33, 1.3875, 0.3975, 1.4525, 0.4625, 1.5175, 0.5275, 1.585, 0.595, 1.65, 0.66, 1.7175, 0.7275, 1.7825, 0.7925, 1.8475, 0.8575, 1.915, 0.925],
  "SoftwareVersions": "syngo MR E11",
  "SpacingBetweenSlices": 3.99,
  "StationName": "AWP66112",
  "TotalReadoutTime": 0.0395,
  "TxRefAmp": 211.414,
  "dcmmeta_affine": [
    [-2.9741392135620117, 0.3746662437915802, 0.1580481082201004, 102.57038879394531],
    [0.39300647377967834, 2.8196163177490234, 1.2584564685821533, -126.3267593383789],
    [-0.006482746452093124, -0.9536187052726746, 3.7830421924591064, -9.741606712341309],
    [0.0, 0.0, 0.0, 1.0]
],
  "dcmmeta_reorient_transform": [
    [0.0, -1.0, 0.0, 79.0],
    [1.0, 0.0, 0.0, 0.0],
    [0.0, 0.0, 1.0, 0.0],
    [0.0, 0.0, 0.0, 1.0]
],
  "dcmmeta_shape": [80, 80, 30, 200],
  "dcmmeta_slice_dim": 2,
  "dcmmeta_version": 0.6,
  "global": {
    "const": {
      "AccessionNumber": "qa64",
      "AcquisitionMatrix": [80, 0, 0, 80],
      "AngioFlag": "N",
      "BitsAllocated": 16,
      "BitsStored": 12,
      "BodyPartExamined": "BRAIN",
      "Columns": 480,
      "EchoNumbers": 1,
      "EchoTime": 30.0,
      "EchoTrainLength": 80,
      "FlipAngle": 10.0,
      "HighBit": 11,
      "ImageOrientationPatient": [0.99137972774345, -0.1310021597679, -0.0021609154227, 0.12488874995656, 0.93987212635987, 0.31787290892126],
      "ImagePositionPatient": [-801.93011250152, -581.74491445463, -274.5046824381],
      "ImageType": [
        "ORIGINAL",
        "PRIMARY",
        "M",
        "ND",
        "NORM",
        "MOSAIC"
],
      "ImagedNucleus": "1H",
      "ImagingFrequency": 123.252334,
      "InPlanePhaseEncodingDirection": "COL",
      "MRAcquisitionType": "2D",
      "MagneticFieldStrength": 3.0,
      "Manufacturer": "SIEMENS",
      "ManufacturerModelName": "Prisma",
      "Modality": "MR",
      "NumberOfAverages": 1.0,
      "NumberOfPhaseEncodingSteps": 80,
      "PercentPhaseFieldOfView": 100.0,
      "PercentSampling": 100.0,
      "PerformedProcedureStepStartTime": "084733.065000",
      "PhotometricInterpretation": "MONOCHROME2",
      "PixelBandwidth": 2315.0,
      "PixelRepresentation": 0,
      "PixelSpacing": [3.0, 3.0],
      "ProtocolName": "func-bold_fa-10",
      "RepetitionTime": 2000.0,
      "Rows": 480,
      "SAR": 0.00864164174579,
      "SamplesPerPixel": 1,
      "ScanOptions": "FS",
      "ScanningSequence": "EP",
      "SequenceName": "*epfid2d1_80",
      "SequenceVariant": "SK",
      "SeriesDescription": "func-bold_fa-10",
      "SeriesNumber": 9,
      "SeriesTime": "090332.202000",
      "SliceLocation": -45.017189365941,
      "SliceThickness": 3.5,
      "SmallestImagePixelValue": 0,
      "SoftwareVersions": "syngo MR E11",
      "SpacingBetweenSlices": 3.9899999765183,
      "SpecificCharacterSet": "ISO_IR 100",
      "StudyID": "7",
      "StudyTime": "084733.000000",
      "TransmitCoilName": "Body",
      "VariableFlipAngleFlag": "N",
      "WindowCenterWidthExplanation": "Algo1",
      "dBdt": 0.0},
    "slices": {}
  },
  "time": {
    "samples": {
      "AcquisitionNumber": [1, 2, 3, 4, 5, 6, 7, 8, 9, 10, 11, 12, 13, 14, 15, 16, 17, 18, 19, 20, 21, 22, 23, 24, 25, 26, 27, 28, 29, 30, 31, 32, 33, 34, 35, 36, 37, 38, 39, 40, 41, 42, 43, 44, 45, 46, 47, 48, 49, 50, 51, 52, 53, 54, 55, 56, 57, 58, 59, 60, 61, 62, 63, 64, 65, 66, 67, 68, 69, 70, 71, 72, 73, 74, 75, 76, 77, 78, 79, 80, 81, 82, 83, 84, 85, 86, 87, 88, 89, 90, 91, 92, 93, 94, 95, 96, 97, 98, 99, 100, 101, 102, 103, 104, 105, 106, 107, 108, 109, 110, 111, 112, 113, 114, 115, 116, 117, 118, 119, 120, 121, 122, 123, 124, 125, 126, 127, 128, 129, 130, 131, 132, 133, 134, 135, 136, 137, 138, 139, 140, 141, 142, 143, 144, 145, 146, 147, 148, 149, 150, 151, 152, 153, 154, 155, 156, 157, 158, 159, 160, 161, 162, 163, 164, 165, 166, 167, 168, 169, 170, 171, 172, 173, 174, 175, 176, 177, 178, 179, 180, 181, 182, 183, 184, 185, 186, 187, 188, 189, 190, 191, 192, 193, 194, 195, 196, 197, 198, 199, 200],
      "AcquisitionTime": ["090251.545000", "090253.545000", "090255.545000", "090257.545000", "090259.545000", "090301.545000", "090303.545000", "090305.545000", "090307.545000", "090309.545000", "090311.545000", "090313.545000", "090315.545000", "090317.545000", "090319.545000", "090321.545000", "090323.545000", "090325.545000", "090327.545000", "090329.545000", "090331.545000", "090333.545000", "090335.545000", "090337.545000", "090339.545000", "090341.545000", "090343.545000", "090345.545000", "090347.545000", "090349.545000", "090351.545000", "090353.545000", "090355.545000", "090357.545000", "090359.545000", "090401.545000", "090403.545000", "090405.545000", "090407.545000", "090409.545000", "090411.545000", "090413.545000", "090415.545000", "090417.545000", "090419.545000", "090421.545000", "090423.545000", "090425.545000", "090427.545000", "090429.545000", "090431.545000", "090433.545000", "090435.545000", "090437.545000", "090439.545000", "090441.545000", "090443.545000", "090445.545000", "090447.545000", "090449.545000", "090451.545000", "090453.545000", "090455.545000", "090457.545000", "090459.545000", "090501.545000", "090503.545000", "090505.545000", "090507.545000", "090509.545000", "090511.545000", "090513.545000", "090515.545000", "090517.545000", "090519.545000", "090521.545000", "090523.545000", "090525.545000", "090527.545000", "090529.545000", "090531.545000", "090533.545000", "090535.545000", "090537.545000", "090539.545000", "090541.545000", "090543.545000", "090545.545000", "090547.545000", "090549.545000", "090551.545000", "090553.545000", "090555.545000", "090557.545000", "090559.545000", "090601.545000", "090603.545000", "090605.545000", "090607.545000", "090609.545000", "090611.545000", "090613.545000", "090615.545000", "090617.545000", "090619.545000", "090621.545000", "090623.545000", "090625.545000", "090627.545000", "090629.545000", "090631.545000", "090633.545000", "090635.545000", "090637.545000", "090639.545000", "090641.545000", "090643.545000", "090645.545000", "090647.545000", "090649.545000", "090651.545000", "090653.545000", "090655.545000", "090657.545000", "090659.545000", "090701.545000", "090703.545000", "090705.545000", "090707.545000", "090709.545000", "090711.545000", "090713.545000", "090715.545000", "090717.545000", "090719.545000", "090721.545000", "090723.545000", "090725.545000", "090727.545000", "090729.545000", "090731.545000", "090733.545000", "090735.545000", "090737.545000", "090739.545000", "090741.545000", "090743.545000", "090745.545000", "090747.545000", "090749.545000", "090751.545000", "090753.545000", "090755.545000", "090757.545000", "090759.545000", "090801.545000", "090803.545000", "090805.545000", "090807.545000", "090809.545000", "090811.545000", "090813.545000", "090815.545000", "090817.545000", "090819.545000", "090821.545000", "090823.545000", "090825.545000", "090827.545000", "090829.545000", "090831.545000", "090833.545000", "090835.545000", "090837.545000", "090839.545000", "090841.545000", "090843.545000", "090845.545000", "090847.545000", "090849.545000", "090851.545000", "090853.545000", "090855.545000", "090857.545000", "090859.545000", "090901.545000", "090903.545000", "090905.545000", "090907.545000", "090909.545000", "090911.545000", "090913.545000", "090915.545000", "090917.545000", "090919.545000", "090921.545000", "090923.545000", "090925.545000", "090927.545000", "090929.545000"],
      "ContentTime": ["090332.205000", "090332.209000", "090332.212000", "090332.214000", "090332.222000", "090332.224000", "090332.227000", "090332.229000", "090332.232000", "090332.234000", "090332.237000", "090332.240000", "090332.242000", "090332.245000", "090332.247000", "090332.250000", "090332.252000", "090332.255000", "090332.260000", "090332.262000", "090412.200000", "090412.203000", "090412.206000", "090412.208000", "090412.211000", "090412.214000", "090412.224000", "090412.226000", "090412.229000", "090412.232000", "090412.234000", "090412.237000", "090412.239000", "090412.242000", "090412.244000", "090412.247000", "090412.249000", "090412.252000", "090412.254000", "090412.257000", "090452.200000", "090452.202000", "090452.205000", "090452.207000", "090452.210000", "090452.213000", "090452.215000", "090452.218000", "090452.220000", "090452.223000", "090452.225000", "090452.228000", "090452.231000", "090452.233000", "090452.236000", "090452.238000", "090452.241000", "090452.243000", "090452.246000", "090452.248000", "090532.199000", "090532.202000", "090532.205000", "090532.207000", "090532.210000", "090532.213000", "090532.215000", "090532.218000", "090532.220000", "090532.223000", "090532.225000", "090532.228000", "090532.231000", "090532.233000", "090532.236000", "090532.238000", "090532.241000", "090532.243000", "090532.246000", "090532.248000", "090612.201000", "090612.203000", "090612.206000", "090612.209000", "090612.211000", "090612.214000", "090612.216000", "090612.219000", "090612.222000", "090612.224000", "090612.227000", "090612.229000", "090612.232000", "090612.234000", "090612.237000", "090612.239000", "090612.242000", "090612.245000", "090612.247000", "090612.250000", "090652.199000", "090652.202000", "090652.205000", "090652.207000", "090652.210000", "090652.213000", "090652.215000", "090652.218000", "090652.220000", "090652.223000", "090652.226000", "090652.228000", "090652.238000", "090652.240000", "090652.243000", "090652.245000", "090652.248000", "090652.251000", "090652.253000", "090652.256000", "090732.199000", "090732.202000", "090732.205000", "090732.207000", "090732.210000", "090732.213000", "090732.215000", "090732.218000", "090732.220000", "090732.223000", "090732.225000", "090732.228000", "090732.231000", "090732.233000", "090732.236000", "090732.238000", "090732.241000", "090732.244000", "090732.246000", "090732.249000", "090812.200000", "090812.203000", "090812.206000", "090812.209000", "090812.212000", "090812.214000", "090812.217000", "090812.220000", "090812.222000", "090812.225000", "090812.227000", "090812.230000", "090812.233000", "090812.235000", "090812.238000", "090812.240000", "090812.243000", "090812.246000", "090812.248000", "090812.251000", "090852.201000", "090852.203000", "090852.206000", "090852.208000", "090852.211000", "090852.213000", "090852.216000", "090852.225000", "090852.228000", "090852.230000", "090852.233000", "090852.235000", "090852.238000", "090852.240000", "090852.243000", "090852.245000", "090852.248000", "090852.250000", "090852.253000", "090852.256000", "090930.737000", "090930.739000", "090930.742000", "090930.745000", "090930.747000", "090930.750000", "090930.752000", "090930.755000", "090930.758000", "090930.760000", "090930.763000", "090930.765000", "090930.774000", "090930.780000", "090930.783000", "090930.788000", "090930.795000", "090930.798000", "090930.801000", "090930.804000"],
      "InstanceCreationTime": ["090332.205000", "090332.209000", "090332.212000", "090332.214000", "090332.222000", "090332.224000", "090332.227000", "090332.229000", "090332.232000", "090332.234000", "090332.237000", "090332.240000", "090332.242000", "090332.245000", "090332.247000", "090332.250000", "090332.252000", "090332.255000", "090332.260000", "090332.262000", "090412.200000", "090412.203000", "090412.206000", "090412.208000", "090412.211000", "090412.214000", "090412.224000", "090412.226000", "090412.229000", "090412.232000", "090412.234000", "090412.237000", "090412.239000", "090412.242000", "090412.244000", "090412.247000", "090412.249000", "090412.252000", "090412.254000", "090412.257000", "090452.200000", "090452.202000", "090452.205000", "090452.207000", "090452.210000", "090452.213000", "090452.215000", "090452.218000", "090452.220000", "090452.223000", "090452.225000", "090452.228000", "090452.231000", "090452.233000", "090452.236000", "090452.238000", "090452.241000", "090452.243000", "090452.246000", "090452.248000", "090532.199000", "090532.202000", "090532.205000", "090532.207000", "090532.210000", "090532.213000", "090532.215000", "090532.218000", "090532.220000", "090532.223000", "090532.225000", "090532.228000", "090532.231000", "090532.233000", "090532.236000", "090532.238000", "090532.241000", "090532.243000", "090532.246000", "090532.248000", "090612.201000", "090612.203000", "090612.206000", "090612.209000", "090612.211000", "090612.214000", "090612.216000", "090612.219000", "090612.222000", "090612.224000", "090612.227000", "090612.229000", "090612.232000", "090612.234000", "090612.237000", "090612.239000", "090612.242000", "090612.245000", "090612.247000", "090612.250000", "090652.199000", "090652.202000", "090652.205000", "090652.207000", "090652.210000", "090652.213000", "090652.215000", "090652.218000", "090652.220000", "090652.223000", "090652.226000", "090652.228000", "090652.238000", "090652.240000", "090652.243000", "090652.245000", "090652.248000", "090652.251000", "090652.253000", "090652.256000", "090732.199000", "090732.202000", "090732.205000", "090732.207000", "090732.210000", "090732.213000", "090732.215000", "090732.218000", "090732.220000", "090732.223000", "090732.225000", "090732.228000", "090732.231000", "090732.233000", "090732.236000", "090732.238000", "090732.241000", "090732.244000", "090732.246000", "090732.249000", "090812.200000", "090812.203000", "090812.206000", "090812.209000", "090812.212000", "090812.214000", "090812.217000", "090812.220000", "090812.222000", "090812.225000", "090812.227000", "090812.230000", "090812.233000", "090812.235000", "090812.238000", "090812.240000", "090812.243000", "090812.246000", "090812.248000", "090812.251000", "090852.201000", "090852.203000", "090852.206000", "090852.208000", "090852.211000", "090852.213000", "090852.216000", "090852.225000", "090852.228000", "090852.230000", "090852.233000", "090852.235000", "090852.238000", "090852.240000", "090852.243000", "090852.245000", "090852.248000", "090852.250000", "090852.253000", "090852.256000", "090930.737000", "090930.739000", "090930.742000", "090930.745000", "090930.747000", "090930.750000", "090930.752000", "090930.755000", "090930.758000", "090930.760000", "090930.763000", "090930.765000", "090930.774000", "090930.780000", "090930.783000", "090930.788000", "090930.795000", "090930.798000", "090930.801000", "090930.804000"],
      "InstanceNumber": [1, 2, 3, 4, 5, 6, 7, 8, 9, 10, 11, 12, 13, 14, 15, 16, 17, 18, 19, 20, 21, 22, 23, 24, 25, 26, 27, 28, 29, 30, 31, 32, 33, 34, 35, 36, 37, 38, 39, 40, 41, 42, 43, 44, 45, 46, 47, 48, 49, 50, 51, 52, 53, 54, 55, 56, 57, 58, 59, 60, 61, 62, 63, 64, 65, 66, 67, 68, 69, 70, 71, 72, 73, 74, 75, 76, 77, 78, 79, 80, 81, 82, 83, 84, 85, 86, 87, 88, 89, 90, 91, 92, 93, 94, 95, 96, 97, 98, 99, 100, 101, 102, 103, 104, 105, 106, 107, 108, 109, 110, 111, 112, 113, 114, 115, 116, 117, 118, 119, 120, 121, 122, 123, 124, 125, 126, 127, 128, 129, 130, 131, 132, 133, 134, 135, 136, 137, 138, 139, 140, 141, 142, 143, 144, 145, 146, 147, 148, 149, 150, 151, 152, 153, 154, 155, 156, 157, 158, 159, 160, 161, 162, 163, 164, 165, 166, 167, 168, 169, 170, 171, 172, 173, 174, 175, 176, 177, 178, 179, 180, 181, 182, 183, 184, 185, 186, 187, 188, 189, 190, 191, 192, 193, 194, 195, 196, 197, 198, 199, 200],
      "LargestImagePixelValue": [681, 678, 676, 674, 677, 678, 677, 678, 674, 675, 674, 680, 675, 676, 678, 677, 677, 679, 677, 677, 677, 675, 678, 680, 680, 676, 679, 675, 677, 679, 677, 677, 673, 678, 678, 676, 679, 679, 679, 676, 677, 671, 676, 677, 677, 678, 677, 677, 678, 676, 671, 680, 676, 676, 676, 677, 677, 678, 674, 680, 677, 676, 682, 676, 679, 672, 676, 677, 679, 677, 676, 676, 676, 676, 676, 678, 675, 676, 676, 674, 679, 676, 676, 676, 675, 675, 675, 677, 675, 673, 679, 672, 677, 679, 676, 677, 677, 672, 678, 677, 675, 674, 676, 676, 678, 673, 673, 676, 675, 677, 676, 670, 677, 678, 678, 677, 673, 676, 676, 673, 676, 678, 677, 678, 676, 678, 675, 672, 672, 678, 674, 673, 677, 675, 672, 675, 677, 675, 678, 674, 677, 677, 673, 675, 678, 677, 678, 678, 678, 675, 678, 676, 672, 675, 678, 676, 677, 676, 676, 677, 674, 677, 677, 677, 675, 675, 675, 676, 675, 679, 673, 674, 677, 674, 676, 675, 677, 677, 677, 670, 673, 675, 674, 677, 677, 673, 676, 675, 676, 673, 675, 673, 675, 673, 672, 678, 678, 674, 672, 674],
      "WindowCenter": [447.0, 446.0, 446.0, 447.0, 447.0, 446.0, 446.0, 446.0, 446.0, 446.0, 446.0, 446.0, 446.0, 446.0, 446.0, 446.0, 446.0, 446.0, 446.0, 446.0, 446.0, 446.0, 446.0, 446.0, 446.0, 446.0, 446.0, 446.0, 446.0, 446.0, 446.0, 446.0, 446.0, 446.0, 446.0, 446.0, 446.0, 446.0, 446.0, 446.0, 446.0, 446.0, 446.0, 446.0, 446.0, 446.0, 446.0, 446.0, 446.0, 446.0, 446.0, 446.0, 446.0, 446.0, 446.0, 446.0, 446.0, 446.0, 446.0, 446.0, 446.0, 446.0, 446.0, 446.0, 446.0, 446.0, 446.0, 446.0, 446.0, 446.0, 446.0, 446.0, 446.0, 446.0, 446.0, 446.0, 445.0, 446.0, 445.0, 445.0, 445.0, 446.0, 446.0, 445.0, 445.0, 445.0, 445.0, 445.0, 445.0, 445.0, 446.0, 445.0, 445.0, 445.0, 446.0, 445.0, 445.0, 445.0, 445.0, 445.0, 445.0, 446.0, 445.0, 445.0, 445.0, 445.0, 445.0, 445.0, 445.0, 445.0, 445.0, 445.0, 445.0, 445.0, 445.0, 445.0, 445.0, 445.0, 445.0, 445.0, 445.0, 445.0, 445.0, 445.0, 445.0, 445.0, 445.0, 445.0, 445.0, 445.0, 445.0, 445.0, 445.0, 445.0, 445.0, 445.0, 445.0, 445.0, 445.0, 445.0, 445.0, 445.0, 445.0, 445.0, 445.0, 445.0, 445.0, 445.0, 445.0, 445.0, 445.0, 445.0, 445.0, 445.0, 445.0, 445.0, 445.0, 445.0, 445.0, 445.0, 445.0, 445.0, 445.0, 445.0, 445.0, 445.0, 445.0, 445.0, 445.0, 445.0, 445.0, 445.0, 445.0, 445.0, 445.0, 445.0, 445.0, 445.0, 445.0, 445.0, 445.0, 445.0, 445.0, 445.0, 445.0, 445.0, 445.0, 445.0, 445.0, 445.0, 445.0, 445.0, 445.0, 445.0, 445.0, 445.0, 445.0, 445.0, 445.0, 445.0],
      "WindowWidth": [929.0, 928.0, 928.0, 929.0, 929.0, 928.0, 928.0, 928.0, 928.0, 928.0, 928.0, 928.0, 928.0, 928.0, 928.0, 928.0, 928.0, 928.0, 928.0, 928.0, 928.0, 928.0, 928.0, 928.0, 928.0, 928.0, 928.0, 928.0, 928.0, 928.0, 928.0, 928.0, 928.0, 928.0, 928.0, 928.0, 928.0, 928.0, 928.0, 928.0, 928.0, 928.0, 928.0, 928.0, 928.0, 928.0, 928.0, 928.0, 928.0, 928.0, 928.0, 927.0, 927.0, 927.0, 927.0, 927.0, 927.0, 927.0, 927.0, 927.0, 927.0, 927.0, 927.0, 927.0, 927.0, 927.0, 927.0, 927.0, 926.0, 927.0, 927.0, 926.0, 926.0, 927.0, 926.0, 927.0, 926.0, 927.0, 926.0, 926.0, 926.0, 927.0, 927.0, 926.0, 926.0, 926.0, 926.0, 926.0, 926.0, 926.0, 927.0, 926.0, 926.0, 926.0, 927.0, 926.0, 926.0, 926.0, 926.0, 926.0, 926.0, 927.0, 926.0, 926.0, 926.0, 926.0, 926.0, 926.0, 926.0, 926.0, 926.0, 926.0, 926.0, 926.0, 926.0, 926.0, 926.0, 926.0, 926.0, 926.0, 926.0, 926.0, 926.0, 926.0, 926.0, 926.0, 926.0, 926.0, 926.0, 926.0, 926.0, 926.0, 926.0, 926.0, 926.0, 926.0, 926.0, 926.0, 926.0, 926.0, 926.0, 926.0, 926.0, 926.0, 926.0, 926.0, 926.0, 926.0, 926.0, 926.0, 926.0, 926.0, 926.0, 926.0, 926.0, 926.0, 926.0, 926.0, 926.0, 926.0, 926.0, 926.0, 926.0, 926.0, 926.0, 926.0, 926.0, 926.0, 926.0, 925.0, 926.0, 926.0, 926.0, 926.0, 926.0, 926.0, 926.0, 926.0, 926.0, 926.0, 926.0, 926.0, 926.0, 926.0, 926.0, 926.0, 926.0, 925.0, 926.0, 926.0, 926.0, 926.0, 926.0, 925.0, 926.0, 926.0, 926.0, 926.0, 926.0, 926.0]
    },
    "slices": {}
  }
}