{
  "AcquisitionMatrixPE": 80,
  "AcquisitionNumber": 1,
  "AcquisitionTime": "10:06:44.212500",
  "BandwidthPerPixelPhaseEncode": 48.077,
  "BaseResolution": 80,
  "BodyPartExamined": "BRAIN",
  "ConsistencyInfo": "N4_VE11C_LATEST_20160120",
  "ConversionSoftware": "dcm2niix",
  "ConversionSoftwareVersion": "v1.0.20170923 (OpenJPEG build) GCC6.3.0",
  "DerivedVendorReportedEchoSpacing": 0.000519999,
  "DeviceSerialNumber": "66112",
  "DwellTime": 2.7e-06,
  "EchoTime": 0.035,
  "EchoTrainLength": 39,
  "EffectiveEchoSpacing": 0.00026,
  "FlipAngle": 90,
  "ImageType": [
    "ORIGINAL",
    "PRIMARY",
    "M",
    "ND",
    "NORM",
    "MOSAIC"
],
  "InstitutionAddress": "Maynard_3_Hanover_NH_US_03755",
  "InstitutionName": "Dartmouth_College_-_PBS",
  "MagneticFieldStrength": 3,
  "Manufacturer": "Siemens",
  "ManufacturersModelName": "Prisma",
  "Modality": "MR",
  "ParallelReductionFactorInPlane": 2,
  "PartialFourier": 1,
  "PercentPhaseFOV": 100,
  "PhaseEncodingDirection": "j-",
  "PhaseEncodingSteps": 79,
  "PhaseResolution": 1,
  "ProcedureStepDescription": "dbic_QA",
  "ProtocolName": "func-bold_task-rest_acq-p2",
  "PulseSequenceDetails": "%SiemensSeq%_ep2d_bold",
  "ReceiveCoilActiveElements": "HEA;HEP",
  "ReceiveCoilName": "Head_32",
  "ReconMatrixPE": 80,
  "RepetitionTime": 2,
  "ScanOptions": "FS",
  "ScanningSequence": "EP",
  "SequenceName": "_epfid2d1_80",
  "SequenceVariant": "SK",
  "SeriesDescription": "func-bold_task-rest_acq-p2",
  "SliceTiming": [0.99, 0, 1.055, 0.065, 1.1225, 0.1325, 1.1875, 0.1975, 1.255, 0.265, 1.32, 0.33, 1.385, 0.395, 1.4525, 0.4625, 1.5175, 0.5275, 1.585, 0.595, 1.65, 0.66, 1.715, 0.725, 1.7825, 0.7925, 1.8475, 0.8575, 1.915, 0.925],
  "SoftwareVersions": "syngo_MR_E11",
  "StationName": "AWP66112",
  "TaskName": "rest",
  "TotalReadoutTime": 0.02054,
  "dcmmeta_affine": [
    [-2.9600441455841064, -0.4471362233161926, -0.259972482919693, 143.9501495361328],
    [-0.4854893386363983, 2.8198885917663574, 1.198866844177246, -105.2982177734375],
    [-0.04938260465860367, -0.9210307002067566, 3.7967398166656494, -28.126005172729492],
    [0.0, 0.0, 0.0, 1.0]
],
  "dcmmeta_reorient_transform": [
    [0.0, -1.0, 0.0, 79.0],
    [1.0, 0.0, 0.0, 0.0],
    [0.0, 0.0, 1.0, 0.0],
    [0.0, 0.0, 0.0, 1.0]
],
  "dcmmeta_shape": [80, 80, 30, 200],
  "dcmmeta_slice_dim": 2,
  "dcmmeta_version": 0.6,
  "global": {
    "const": {
      "AccessionNumber": "qa",
      "AcquisitionMatrix": [80, 0, 0, 80],
      "AngioFlag": "N",
      "BitsAllocated": 16,
      "BitsStored": 12,
      "BodyPartExamined": "BRAIN",
      "Columns": 480,
      "EchoNumbers": 1,
      "EchoTime": 35.0,
      "EchoTrainLength": 39,
      "FlipAngle": 90.0,
      "HighBit": 11,
      "ImageOrientationPatient": [0.98668138821778, 0.16182978077546, -0.0164608687137, -0.149045406495, 0.93996286142566, 0.30701023752185],
      "ImagePositionPatient": [-611.20797325427, -778.54856829057, -275.21705280505],
      "ImageType": [
        "ORIGINAL",
        "PRIMARY",
        "M",
        "ND",
        "NORM",
        "MOSAIC"
],
      "ImagedNucleus": "1H",
      "ImagingFrequency": 123.252457,
      "InPlanePhaseEncodingDirection": "COL",
      "MRAcquisitionType": "2D",
      "MagneticFieldStrength": 3.0,
      "Manufacturer": "SIEMENS",
      "ManufacturerModelName": "Prisma",
      "Modality": "MR",
      "NumberOfAverages": 1.0,
      "NumberOfPhaseEncodingSteps": 79,
      "PercentPhaseFieldOfView": 100.0,
      "PercentSampling": 100.0,
      "PerformedProcedureStepStartTime": "095711.910000",
      "PhotometricInterpretation": "MONOCHROME2",
      "PixelBandwidth": 2315.0,
      "PixelRepresentation": 0,
      "PixelSpacing": [3.0, 3.0],
      "PositionReferenceIndicator": "",
      "ProtocolName": "func-bold_task-rest_acq-p2",
      "RepetitionTime": 2000.0,
      "Rows": 480,
      "SAR": 0.05575527548252,
      "SamplesPerPixel": 1,
      "ScanOptions": "FS",
      "ScanningSequence": "EP",
      "SequenceName": "*epfid2d1_80",
      "SequenceVariant": "SK",
      "SeriesDescription": "func-bold_task-rest_acq-p2",
      "SeriesNumber": 5,
      "SeriesTime": "100739.179000",
      "SliceLocation": -67.781636562373,
      "SliceThickness": 3.5,
      "SmallestImagePixelValue": 0,
      "SoftwareVersions": "syngo MR E11",
      "SpacingBetweenSlices": 3.9900001535702,
      "SpecificCharacterSet": "ISO_IR 100",
      "StudyID": "13",
      "StudyTime": "095711.838000",
      "TransmitCoilName": "Body",
      "VariableFlipAngleFlag": "N",
      "WindowCenterWidthExplanation": "Algo1",
      "dBdt": 0.0},
    "slices": {}
  },
  "time": {
    "samples": {
      "AcquisitionNumber": [1, 2, 3, 4, 5, 6, 7, 8, 9, 10, 11, 12, 13, 14, 15, 16, 17, 18, 19, 20, 21, 22, 23, 24, 25, 26, 27, 28, 29, 30, 31, 32, 33, 34, 35, 36, 37, 38, 39, 40, 41, 42, 43, 44, 45, 46, 47, 48, 49, 50, 51, 52, 53, 54, 55, 56, 57, 58, 59, 60, 61, 62, 63, 64, 65, 66, 67, 68, 69, 70, 71, 72, 73, 74, 75, 76, 77, 78, 79, 80, 81, 82, 83, 84, 85, 86, 87, 88, 89, 90, 91, 92, 93, 94, 95, 96, 97, 98, 99, 100, 101, 102, 103, 104, 105, 106, 107, 108, 109, 110, 111, 112, 113, 114, 115, 116, 117, 118, 119, 120, 121, 122, 123, 124, 125, 126, 127, 128, 129, 130, 131, 132, 133, 134, 135, 136, 137, 138, 139, 140, 141, 142, 143, 144, 145, 146, 147, 148, 149, 150, 151, 152, 153, 154, 155, 156, 157, 158, 159, 160, 161, 162, 163, 164, 165, 166, 167, 168, 169, 170, 171, 172, 173, 174, 175, 176, 177, 178, 179, 180, 181, 182, 183, 184, 185, 186, 187, 188, 189, 190, 191, 192, 193, 194, 195, 196, 197, 198, 199, 200],
      "AcquisitionTime": ["100644.212500", "100646.212500", "100648.212500", "100650.212500", "100652.212500", "100654.212500", "100656.212500", "100658.212500", "100700.212500", "100702.212500", "100704.212500", "100706.212500", "100708.212500", "100710.212500", "100712.212500", "100714.212500", "100716.212500", "100718.212500", "100720.212500", "100722.212500", "100724.212500", "100726.212500", "100728.212500", "100730.212500", "100732.212500", "100734.212500", "100736.212500", "100738.212500", "100740.212500", "100742.212500", "100744.212500", "100746.212500", "100748.212500", "100750.212500", "100752.212500", "100754.212500", "100756.212500", "100758.212500", "100800.212500", "100802.212500", "100804.212500", "100806.212500", "100808.212500", "100810.212500", "100812.212500", "100814.212500", "100816.212500", "100818.212500", "100820.212500", "100822.212500", "100824.212500", "100826.212500", "100828.212500", "100830.212500", "100832.212500", "100834.212500", "100836.212500", "100838.212500", "100840.212500", "100842.212500", "100844.212500", "100846.212500", "100848.212500", "100850.212500", "100852.212500", "100854.212500", "100856.212500", "100858.212500", "100900.212500", "100902.212500", "100904.212500", "100906.212500", "100908.212500", "100910.212500", "100912.212500", "100914.212500", "100916.212500", "100918.212500", "100920.212500", "100922.212500", "100924.212500", "100926.212500", "100928.212500", "100930.212500", "100932.212500", "100934.212500", "100936.212500", "100938.212500", "100940.212500", "100942.212500", "100944.212500", "100946.212500", "100948.212500", "100950.212500", "100952.212500", "100954.212500", "100956.212500", "100958.212500", "101000.212500", "101002.212500", "101004.212500", "101006.212500", "101008.212500", "101010.212500", "101012.212500", "101014.212500", "101016.212500", "101018.212500", "101020.212500", "101022.212500", "101024.212500", "101026.212500", "101028.212500", "101030.212500", "101032.212500", "101034.212500", "101036.212500", "101038.212500", "101040.212500", "101042.212500", "101044.212500", "101046.212500", "101048.212500", "101050.212500", "101052.212500", "101054.212500", "101056.212500", "101058.212500", "101100.212500", "101102.212500", "101104.212500", "101106.212500", "101108.212500", "101110.212500", "101112.212500", "101114.212500", "101116.212500", "101118.212500", "101120.212500", "101122.212500", "101124.212500", "101126.212500", "101128.212500", "101130.212500", "101132.212500", "101134.212500", "101136.212500", "101138.212500", "101140.212500", "101142.212500", "101144.212500", "101146.212500", "101148.212500", "101150.212500", "101152.212500", "101154.212500", "101156.212500", "101158.212500", "101200.212500", "101202.212500", "101204.212500", "101206.212500", "101208.212500", "101210.212500", "101212.212500", "101214.212500", "101216.212500", "101218.212500", "101220.212500", "101222.212500", "101224.212500", "101226.212500", "101228.212500", "101230.212500", "101232.212500", "101234.212500", "101236.212500", "101238.212500", "101240.212500", "101242.212500", "101244.212500", "101246.212500", "101248.212500", "101250.212500", "101252.212500", "101254.212500", "101256.212500", "101258.212500", "101300.212500", "101302.212500", "101304.212500", "101306.212500", "101308.212500", "101310.212500", "101312.212500", "101314.212500", "101316.212500", "101318.212500", "101320.212500", "101322.212500"],
      "ContentTime": ["100739.183000", "100739.186000", "100739.189000", "100739.192000", "100739.194000", "100739.197000", "100739.200000", "100739.202000", "100739.205000", "100739.207000", "100739.210000", "100739.212000", "100739.215000", "100739.218000", "100739.221000", "100739.224000", "100739.226000", "100739.229000", "100739.231000", "100739.234000", "100739.241000", "100739.243000", "100739.246000", "100739.248000", "100739.251000", "100739.253000", "100739.256000", "100819.176000", "100819.179000", "100819.182000", "100819.185000", "100819.187000", "100819.190000", "100819.192000", "100819.195000", "100819.198000", "100819.200000", "100819.203000", "100819.206000", "100819.208000", "100819.218000", "100819.221000", "100819.224000", "100819.226000", "100819.229000", "100819.231000", "100819.234000", "100859.176000", "100859.179000", "100859.182000", "100859.184000", "100859.187000", "100859.189000", "100859.192000", "100859.195000", "100859.197000", "100859.200000", "100859.203000", "100859.205000", "100859.208000", "100859.210000", "100859.213000", "100859.216000", "100859.219000", "100859.221000", "100859.224000", "100859.227000", "100939.176000", "100939.179000", "100939.182000", "100939.185000", "100939.187000", "100939.190000", "100939.192000", "100939.195000", "100939.197000", "100939.200000", "100939.203000", "100939.205000", "100939.208000", "100939.210000", "100939.213000", "100939.216000", "100939.219000", "100939.221000", "100939.224000", "100939.226000", "101019.178000", "101019.180000", "101019.183000", "101019.186000", "101019.188000", "101019.191000", "101019.193000", "101019.196000", "101019.198000", "101019.201000", "101019.203000", "101019.206000", "101019.208000", "101019.211000", "101019.214000", "101019.217000", "101019.219000", "101019.222000", "101019.224000", "101019.227000", "101059.177000", "101059.179000", "101059.182000", "101059.184000", "101059.187000", "101059.190000", "101059.192000", "101059.195000", "101059.197000", "101059.200000", "101059.203000", "101059.205000", "101059.208000", "101059.210000", "101059.214000", "101059.216000", "101059.219000", "101059.221000", "101059.224000", "101059.227000", "101139.177000", "101139.179000", "101139.182000", "101139.185000", "101139.187000", "101139.190000", "101139.192000", "101139.195000", "101139.198000", "101139.200000", "101139.203000", "101139.205000", "101139.208000", "101139.211000", "101139.214000", "101139.216000", "101139.219000", "101139.221000", "101139.224000", "101139.226000", "101219.177000", "101219.180000", "101219.183000", "101219.199000", "101219.201000", "101219.204000", "101219.206000", "101219.209000", "101219.212000", "101219.214000", "101219.217000", "101219.220000", "101219.222000", "101219.225000", "101219.228000", "101219.230000", "101219.233000", "101219.235000", "101219.238000", "101219.240000", "101259.176000", "101259.179000", "101259.182000", "101259.185000", "101259.187000", "101259.190000", "101259.193000", "101259.195000", "101259.198000", "101259.200000", "101259.203000", "101259.206000", "101259.208000", "101259.211000", "101259.214000", "101259.217000", "101259.219000", "101259.222000", "101259.224000", "101259.227000", "101324.201000", "101324.204000", "101324.207000", "101324.209000", "101324.212000", "101324.215000", "101324.218000", "101324.220000", "101324.223000", "101324.226000", "101324.229000", "101324.233000", "101324.236000"],
      "InstanceCreationTime": ["100739.183000", "100739.186000", "100739.189000", "100739.192000", "100739.194000", "100739.197000", "100739.200000", "100739.202000", "100739.205000", "100739.207000", "100739.210000", "100739.212000", "100739.215000", "100739.218000", "100739.221000", "100739.224000", "100739.226000", "100739.229000", "100739.231000", "100739.234000", "100739.241000", "100739.243000", "100739.246000", "100739.248000", "100739.251000", "100739.253000", "100739.256000", "100819.176000", "100819.179000", "100819.182000", "100819.185000", "100819.187000", "100819.190000", "100819.192000", "100819.195000", "100819.198000", "100819.200000", "100819.203000", "100819.206000", "100819.208000", "100819.218000", "100819.221000", "100819.224000", "100819.226000", "100819.229000", "100819.231000", "100819.234000", "100859.176000", "100859.179000", "100859.182000", "100859.184000", "100859.187000", "100859.189000", "100859.192000", "100859.195000", "100859.197000", "100859.200000", "100859.203000", "100859.205000", "100859.208000", "100859.210000", "100859.213000", "100859.216000", "100859.219000", "100859.221000", "100859.224000", "100859.227000", "100939.176000", "100939.179000", "100939.182000", "100939.185000", "100939.187000", "100939.190000", "100939.192000", "100939.195000", "100939.197000", "100939.200000", "100939.203000", "100939.205000", "100939.208000", "100939.210000", "100939.213000", "100939.216000", "100939.219000", "100939.221000", "100939.224000", "100939.226000", "101019.178000", "101019.180000", "101019.183000", "101019.186000", "101019.188000", "101019.191000", "101019.193000", "101019.196000", "101019.198000", "101019.201000", "101019.203000", "101019.206000", "101019.208000", "101019.211000", "101019.214000", "101019.217000", "101019.219000", "101019.222000", "101019.224000", "101019.227000", "101059.177000", "101059.179000", "101059.182000", "101059.184000", "101059.187000", "101059.190000", "101059.192000", "101059.195000", "101059.197000", "101059.200000", "101059.203000", "101059.205000", "101059.208000", "101059.210000", "101059.214000", "101059.216000", "101059.219000", "101059.221000", "101059.224000", "101059.227000", "101139.177000", "101139.179000", "101139.182000", "101139.185000", "101139.187000", "101139.190000", "101139.192000", "101139.195000", "101139.198000", "101139.200000", "101139.203000", "101139.205000", "101139.208000", "101139.211000", "101139.214000", "101139.216000", "101139.219000", "101139.221000", "101139.224000", "101139.226000", "101219.177000", "101219.180000", "101219.183000", "101219.199000", "101219.201000", "101219.204000", "101219.206000", "101219.209000", "101219.212000", "101219.214000", "101219.217000", "101219.220000", "101219.222000", "101219.225000", "101219.228000", "101219.230000", "101219.233000", "101219.235000", "101219.238000", "101219.240000", "101259.176000", "101259.179000", "101259.182000", "101259.185000", "101259.187000", "101259.190000", "101259.193000", "101259.195000", "101259.198000", "101259.200000", "101259.203000", "101259.206000", "101259.208000", "101259.211000", "101259.214000", "101259.217000", "101259.219000", "101259.222000", "101259.224000", "101259.227000", "101324.201000", "101324.204000", "101324.207000", "101324.209000", "101324.212000", "101324.215000", "101324.218000", "101324.220000", "101324.223000", "101324.226000", "101324.229000", "101324.233000", "101324.236000"],
      "InstanceNumber": [1, 2, 3, 4, 5, 6, 7, 8, 9, 10, 11, 12, 13, 14, 15, 16, 17, 18, 19, 20, 21, 22, 23, 24, 25, 26, 27, 28, 29, 30, 31, 32, 33, 34, 35, 36, 37, 38, 39, 40, 41, 42, 43, 44, 45, 46, 47, 48, 49, 50, 51, 52, 53, 54, 55, 56, 57, 58, 59, 60, 61, 62, 63, 64, 65, 66, 67, 68, 69, 70, 71, 72, 73, 74, 75, 76, 77, 78, 79, 80, 81, 82, 83, 84, 85, 86, 87, 88, 89, 90, 91, 92, 93, 94, 95, 96, 97, 98, 99, 100, 101, 102, 103, 104, 105, 106, 107, 108, 109, 110, 111, 112, 113, 114, 115, 116, 117, 118, 119, 120, 121, 122, 123, 124, 125, 126, 127, 128, 129, 130, 131, 132, 133, 134, 135, 136, 137, 138, 139, 140, 141, 142, 143, 144, 145, 146, 147, 148, 149, 150, 151, 152, 153, 154, 155, 156, 157, 158, 159, 160, 161, 162, 163, 164, 165, 166, 167, 168, 169, 170, 171, 172, 173, 174, 175, 176, 177, 178, 179, 180, 181, 182, 183, 184, 185, 186, 187, 188, 189, 190, 191, 192, 193, 194, 195, 196, 197, 198, 199, 200],
      "LargestImagePixelValue": [2136, 2130, 2139, 2135, 2126, 2137, 2135, 2129, 2129, 2134, 2137, 2133, 2137, 2137, 2135, 2133, 2127, 2136, 2128, 2132, 2142, 2145, 2133, 2135, 2131, 2124, 2136, 2133, 2142, 2126, 2137, 2137, 2138, 2136, 2131, 2132, 2135, 2141, 2133, 2138, 2137, 2138, 2132, 2127, 2130, 2129, 2138, 2136, 2145, 2135, 2136, 2131, 2139, 2134, 2138, 2138, 2141, 2145, 2132, 2133, 2127, 2137, 2133, 2132, 2137, 2137, 2132, 2132, 2133, 2137, 2127, 2130, 2133, 2130, 2135, 2142, 2138, 2140, 2136, 2132, 2138, 2132, 2136, 2138, 2132, 2131, 2134, 2137, 2134, 2140, 2133, 2127, 2136, 2134, 2132, 2132, 2132, 2135, 2131, 2131, 2135, 2125, 2131, 2134, 2129, 2132, 2136, 2133, 2131, 2134, 2129, 2137, 2135, 2136, 2132, 2126, 2142, 2138, 2138, 2126, 2132, 2131, 2131, 2130, 2134, 2129, 2140, 2137, 2140, 2133, 2130, 2134, 2130, 2132, 2139, 2130, 2141, 2137, 2135, 2127, 2130, 2132, 2133, 2131, 2133, 2141, 2132, 2132, 2138, 2130, 2137, 2129, 2129, 2139, 2136, 2130, 2135, 2139, 2137, 2139, 2134, 2128, 2131, 2134, 2132, 2131, 2127, 2128, 2131, 2141, 2131, 2130, 2134, 2139, 2140, 2129, 2135, 2135, 2130, 2131, 2131, 2141, 2136, 2128, 2133, 2138, 2127, 2130, 2133, 2131, 2138, 2137, 2138, 2132, 2132, 2135, 2133, 2125, 2128, 2125],
      "WindowCenter": [985.0, 984.0, 984.0, 984.0, 985.0, 984.0, 984.0, 984.0, 984.0, 984.0, 984.0, 985.0, 984.0, 984.0, 984.0, 985.0, 984.0, 984.0, 985.0, 984.0, 984.0, 984.0, 985.0, 984.0, 984.0, 984.0, 984.0, 984.0, 984.0, 984.0, 984.0, 984.0, 984.0, 985.0, 984.0, 984.0, 984.0, 985.0, 985.0, 985.0, 984.0, 984.0, 984.0, 984.0, 985.0, 984.0, 985.0, 984.0, 984.0, 985.0, 985.0, 985.0, 984.0, 984.0, 984.0, 984.0, 984.0, 984.0, 984.0, 984.0, 984.0, 985.0, 985.0, 985.0, 984.0, 985.0, 984.0, 984.0, 984.0, 984.0, 984.0, 984.0, 984.0, 984.0, 984.0, 984.0, 985.0, 984.0, 984.0, 984.0, 985.0, 985.0, 984.0, 984.0, 984.0, 984.0, 984.0, 984.0, 985.0, 984.0, 984.0, 984.0, 984.0, 985.0, 984.0, 984.0, 985.0, 984.0, 984.0, 984.0, 984.0, 985.0, 984.0, 984.0, 984.0, 985.0, 985.0, 984.0, 984.0, 984.0, 985.0, 984.0, 984.0, 984.0, 984.0, 985.0, 984.0, 984.0, 984.0, 984.0, 984.0, 984.0, 984.0, 984.0, 984.0, 984.0, 984.0, 985.0, 984.0, 984.0, 985.0, 984.0, 985.0, 985.0, 984.0, 984.0, 984.0, 985.0, 984.0, 984.0, 984.0, 984.0, 984.0, 984.0, 985.0, 984.0, 984.0, 984.0, 984.0, 984.0, 984.0, 984.0, 985.0, 985.0, 985.0, 984.0, 984.0, 985.0, 985.0, 984.0, 984.0, 984.0, 984.0, 985.0, 984.0, 984.0, 984.0, 984.0, 984.0, 984.0, 984.0, 984.0, 984.0, 985.0, 984.0, 984.0, 984.0, 985.0, 984.0, 984.0, 984.0, 984.0, 984.0, 984.0, 985.0, 984.0, 984.0, 984.0, 984.0, 984.0, 984.0, 984.0, 984.0, 984.0, 984.0, 984.0, 984.0, 984.0, 984.0, 984.0],
      "WindowWidth": [2158.0, 2157.0, 2157.0, 2157.0, 2157.0, 2157.0, 2157.0, 2157.0, 2157.0, 2157.0, 2157.0, 2157.0, 2157.0, 2157.0, 2157.0, 2157.0, 2157.0, 2157.0, 2157.0, 2157.0, 2157.0, 2157.0, 2157.0, 2157.0, 2157.0, 2156.0, 2156.0, 2156.0, 2156.0, 2156.0, 2156.0, 2156.0, 2156.0, 2157.0, 2156.0, 2156.0, 2156.0, 2156.0, 2157.0, 2157.0, 2156.0, 2156.0, 2156.0, 2156.0, 2156.0, 2156.0, 2156.0, 2156.0, 2156.0, 2156.0, 2156.0, 2157.0, 2156.0, 2156.0, 2156.0, 2156.0, 2156.0, 2156.0, 2156.0, 2156.0, 2156.0, 2156.0, 2156.0, 2156.0, 2156.0, 2156.0, 2156.0, 2156.0, 2156.0, 2156.0, 2156.0, 2156.0, 2156.0, 2156.0, 2156.0, 2156.0, 2156.0, 2156.0, 2156.0, 2156.0, 2156.0, 2156.0, 2156.0, 2156.0, 2155.0, 2156.0, 2156.0, 2156.0, 2156.0, 2156.0, 2155.0, 2156.0, 2156.0, 2156.0, 2156.0, 2155.0, 2156.0, 2155.0, 2155.0, 2155.0, 2155.0, 2156.0, 2155.0, 2155.0, 2156.0, 2156.0, 2156.0, 2155.0, 2155.0, 2155.0, 2156.0, 2155.0, 2155.0, 2155.0, 2155.0, 2156.0, 2155.0, 2155.0, 2155.0, 2155.0, 2155.0, 2155.0, 2155.0, 2155.0, 2155.0, 2155.0, 2155.0, 2156.0, 2155.0, 2155.0, 2156.0, 2155.0, 2156.0, 2156.0, 2155.0, 2155.0, 2155.0, 2156.0, 2155.0, 2155.0, 2155.0, 2155.0, 2155.0, 2155.0, 2156.0, 2155.0, 2155.0, 2155.0, 2155.0, 2155.0, 2155.0, 2155.0, 2156.0, 2156.0, 2156.0, 2155.0, 2155.0, 2156.0, 2156.0, 2155.0, 2155.0, 2155.0, 2155.0, 2156.0, 2155.0, 2155.0, 2155.0, 2155.0, 2155.0, 2155.0, 2155.0, 2155.0, 2155.0, 2156.0, 2155.0, 2155.0, 2155.0, 2156.0, 2155.0, 2155.0, 2155.0, 2155.0, 2155.0, 2155.0, 2156.0, 2155.0, 2155.0, 2155.0, 2155.0, 2156.0, 2156.0, 2156.0, 2155.0, 2156.0, 2155.0, 2154.0, 2155.0, 2155.0, 2155.0, 2155.0]
    },
    "slices": {}
  }
}