{
  "AcquisitionMatrixPE": 80,
  "AcquisitionNumber": 1,
  "AcquisitionTime": "10:13:39.165000",
  "BandwidthPerPixelPhaseEncode": 44.643,
  "BaseResolution": 80,
  "BodyPartExamined": "BRAIN",
  "CoilCombinationMethod": "Sum of Squares",
  "ConsistencyInfo": "N4_VE11C_LATEST_20160120",
  "ConversionSoftware": "dcm2niix",
  "ConversionSoftwareVersion": "v1.0.20220720",
  "DerivedVendorReportedEchoSpacing": 0.000559998,
  "DeviceSerialNumber": "66112",
  "DwellTime": 2.7e-06,
  "EchoTime": 0.035,
  "EchoTrainLength": 39,
  "EffectiveEchoSpacing": 0.000279999,
  "FlipAngle": 90,
  "HeudiconvVersion": "0.13.1",
  "ImageOrientationPatientDICOM": [0.986681, 0.16183, -0.0164609, -0.149045, 0.939963, 0.30701],
  "ImageOrientationText": "Tra>Cor(17.5)>Sag(-3.7)",
  "ImageType": [
    "ORIGINAL",
    "PRIMARY",
    "M",
    "ND",
    "NORM",
    "MOSAIC"
],
  "ImagingFrequency": 123.252,
  "InPlanePhaseEncodingDirectionDICOM": "COL",
  "InstitutionAddress": "Maynard 3,Hanover,NH,US,03755",
  "InstitutionName": "Dartmouth College - PBS",
  "InstitutionalDepartmentName": "Department",
  "MRAcquisitionType": "2D",
  "MagneticFieldStrength": 3,
  "Manufacturer": "Siemens",
  "ManufacturersModelName": "Prisma",
  "Modality": "MR",
  "MultibandAccelerationFactor": 4,
  "NonlinearGradientCorrection": false,
  "ParallelReductionFactorInPlane": 2,
  "PartialFourier": 1,
  "PatientPosition": "HFS",
  "PercentPhaseFOV": 100,
  "PercentSampling": 100,
  "PhaseEncodingDirection": "j-",
  "PhaseEncodingSteps": 79,
  "PhaseResolution": 1,
  "PixelBandwidth": 2315,
  "ProcedureStepDescription": "dbic^QA",
  "ProtocolName": "func-bold_task-rest_acq-p2-s4-3.5mm",
  "PulseSequenceDetails": "%SiemensSeq%\\ep2d_bold",
  "ReceiveCoilActiveElements": "HEA;HEP",
  "ReceiveCoilName": "Head_32",
  "ReconMatrixPE": 80,
  "RefLinesPE": 24,
  "RepetitionTime": 2,
  "SAR": 0.0209656,
  "ScanOptions": "FS",
  "ScanningSequence": "EP",
  "SequenceName": "*epfid2d1_80",
  "SequenceVariant": "SK",
  "SeriesDescription": "func-bold_task-rest_acq-p2-s4-3.5mm",
  "SeriesNumber": 7,
  "ShimSetting": [4142, -7684, -7515, 319, -31, -201, -60, 44],
  "SliceThickness": 3.5,
  "SliceTiming": [1.485, 0, 0.99, 0.2475, 1.2375, 0.7425, 1.7325, 0.495, 1.485, 0, 0.99, 0.2475, 1.2375, 0.7425, 1.7325, 0.495, 1.485, 0, 0.99, 0.2475, 1.2375, 0.7425, 1.7325, 0.495, 1.485, 0, 0.99, 0.2475, 1.2375, 0.7425, 1.7325, 0.495],
  "SoftwareVersions": "syngo MR E11",
  "SpacingBetweenSlices": 3.99,
  "StationName": "AWP66112",
  "TaskName": "rest",
  "TotalReadoutTime": 0.0221199,
  "TxRefAmp": 231.326,
  "dcmmeta_affine": [
    [-2.9600441455841064, -0.4471362233161926, -0.2599724531173706, 144.21011352539062],
    [-0.4854893386363983, 2.8198885917663574, 1.198866844177246, -106.49708557128906],
    [-0.04938260465860367, -0.9210307002067566, 3.7967398166656494, -31.92274284362793],
    [0.0, 0.0, 0.0, 1.0]
],
  "dcmmeta_reorient_transform": [
    [0.0, -1.0, 0.0, 79.0],
    [1.0, 0.0, 0.0, 0.0],
    [0.0, 0.0, 1.0, 0.0],
    [0.0, 0.0, 0.0, 1.0]
],
  "dcmmeta_shape": [80, 80, 32, 200],
  "dcmmeta_slice_dim": 2,
  "dcmmeta_version": 0.6,
  "global": {
    "const": {
      "AccessionNumber": "qa",
      "AcquisitionMatrix": [80, 0, 0, 80],
      "AngioFlag": "N",
      "BitsAllocated": 16,
      "BitsStored": 12,
      "BodyPartExamined": "BRAIN",
      "Columns": 480,
      "EchoNumbers": 1,
      "EchoTime": 35.0,
      "EchoTrainLength": 39,
      "FlipAngle": 90.0,
      "HighBit": 11,
      "ImageOrientationPatient": [0.98668138821778, 0.16182978077546, -0.0164608687137, -0.149045406495, 0.93996286142566, 0.30701023752185],
      "ImagePositionPatient": [-611.4679458266, -777.34970144639, -279.01379047594],
      "ImageType": [
        "ORIGINAL",
        "PRIMARY",
        "M",
        "ND",
        "NORM",
        "MOSAIC"
],
      "ImagedNucleus": "1H",
      "ImagingFrequency": 123.252458,
      "InPlanePhaseEncodingDirection": "COL",
      "MRAcquisitionType": "2D",
      "MagneticFieldStrength": 3.0,
      "Manufacturer": "SIEMENS",
      "ManufacturerModelName": "Prisma",
      "Modality": "MR",
      "NumberOfAverages": 1.0,
      "NumberOfPhaseEncodingSteps": 79,
      "PercentPhaseFieldOfView": 100.0,
      "PercentSampling": 100.0,
      "PerformedProcedureStepStartTime": "095711.910000",
      "PhotometricInterpretation": "MONOCHROME2",
      "PixelBandwidth": 2315.0,
      "PixelRepresentation": 0,
      "PixelSpacing": [3.0, 3.0],
      "ProtocolName": "func-bold_task-rest_acq-p2-s4-3.5mm",
      "RepetitionTime": 2000.0,
      "Rows": 480,
      "SAR": 0.02096560802154,
      "SamplesPerPixel": 1,
      "ScanOptions": "FS",
      "ScanningSequence": "EP",
      "SequenceName": "*epfid2d1_80",
      "SequenceVariant": "SK",
      "SeriesDescription": "func-bold_task-rest_acq-p2-s4-3.5mm",
      "SeriesNumber": 7,
      "SeriesTime": "101419.249000",
      "SliceLocation": -71.771634606238,
      "SliceThickness": 3.5,
      "SmallestImagePixelValue": 0,
      "SoftwareVersions": "syngo MR E11",
      "SpacingBetweenSlices": 3.9900000264532,
      "SpecificCharacterSet": "ISO_IR 100",
      "StudyID": "13",
      "StudyTime": "095711.838000",
      "TransmitCoilName": "Body",
      "VariableFlipAngleFlag": "N",
      "WindowCenterWidthExplanation": "Algo1",
      "dBdt": 0.0},
    "slices": {}
  },
  "time": {
    "samples": {
      "AcquisitionNumber": [1, 2, 3, 4, 5, 6, 7, 8, 9, 10, 11, 12, 13, 14, 15, 16, 17, 18, 19, 20, 21, 22, 23, 24, 25, 26, 27, 28, 29, 30, 31, 32, 33, 34, 35, 36, 37, 38, 39, 40, 41, 42, 43, 44, 45, 46, 47, 48, 49, 50, 51, 52, 53, 54, 55, 56, 57, 58, 59, 60, 61, 62, 63, 64, 65, 66, 67, 68, 69, 70, 71, 72, 73, 74, 75, 76, 77, 78, 79, 80, 81, 82, 83, 84, 85, 86, 87, 88, 89, 90, 91, 92, 93, 94, 95, 96, 97, 98, 99, 100, 101, 102, 103, 104, 105, 106, 107, 108, 109, 110, 111, 112, 113, 114, 115, 116, 117, 118, 119, 120, 121, 122, 123, 124, 125, 126, 127, 128, 129, 130, 131, 132, 133, 134, 135, 136, 137, 138, 139, 140, 141, 142, 143, 144, 145, 146, 147, 148, 149, 150, 151, 152, 153, 154, 155, 156, 157, 158, 159, 160, 161, 162, 163, 164, 165, 166, 167, 168, 169, 170, 171, 172, 173, 174, 175, 176, 177, 178, 179, 180, 181, 182, 183, 184, 185, 186, 187, 188, 189, 190, 191, 192, 193, 194, 195, 196, 197, 198, 199, 200],
      "AcquisitionTime": ["101339.165000", "101341.165000", "101343.165000", "101345.165000", "101347.165000", "101349.165000", "101351.165000", "101353.165000", "101355.165000", "101357.165000", "101359.165000", "101401.165000", "101403.165000", "101405.165000", "101407.165000", "101409.165000", "101411.165000", "101413.165000", "101415.165000", "101417.165000", "101419.165000", "101421.165000", "101423.165000", "101425.165000", "101427.165000", "101429.165000", "101431.165000", "101433.165000", "101435.165000", "101437.165000", "101439.165000", "101441.165000", "101443.165000", "101445.165000", "101447.165000", "101449.165000", "101451.165000", "101453.165000", "101455.165000", "101457.165000", "101459.165000", "101501.165000", "101503.165000", "101505.165000", "101507.165000", "101509.165000", "101511.165000", "101513.165000", "101515.165000", "101517.165000", "101519.165000", "101521.165000", "101523.165000", "101525.165000", "101527.165000", "101529.165000", "101531.165000", "101533.165000", "101535.165000", "101537.165000", "101539.165000", "101541.165000", "101543.165000", "101545.165000", "101547.165000", "101549.165000", "101551.165000", "101553.165000", "101555.165000", "101557.165000", "101559.165000", "101601.165000", "101603.165000", "101605.165000", "101607.165000", "101609.165000", "101611.165000", "101613.165000", "101615.165000", "101617.165000", "101619.165000", "101621.165000", "101623.165000", "101625.165000", "101627.165000", "101629.165000", "101631.165000", "101633.165000", "101635.165000", "101637.165000", "101639.165000", "101641.165000", "101643.165000", "101645.165000", "101647.165000", "101649.165000", "101651.165000", "101653.165000", "101655.165000", "101657.165000", "101659.165000", "101701.165000", "101703.165000", "101705.165000", "101707.165000", "101709.165000", "101711.165000", "101713.165000", "101715.165000", "101717.165000", "101719.165000", "101721.165000", "101723.165000", "101725.165000", "101727.165000", "101729.165000", "101731.165000", "101733.165000", "101735.165000", "101737.165000", "101739.165000", "101741.165000", "101743.165000", "101745.165000", "101747.165000", "101749.165000", "101751.165000", "101753.165000", "101755.165000", "101757.165000", "101759.165000", "101801.165000", "101803.165000", "101805.165000", "101807.165000", "101809.165000", "101811.165000", "101813.165000", "101815.165000", "101817.165000", "101819.165000", "101821.165000", "101823.165000", "101825.165000", "101827.165000", "101829.165000", "101831.165000", "101833.165000", "101835.165000", "101837.165000", "101839.165000", "101841.165000", "101843.165000", "101845.165000", "101847.165000", "101849.165000", "101851.165000", "101853.165000", "101855.165000", "101857.165000", "101859.165000", "101901.165000", "101903.165000", "101905.165000", "101907.165000", "101909.165000", "101911.165000", "101913.165000", "101915.165000", "101917.165000", "101919.165000", "101921.165000", "101923.165000", "101925.165000", "101927.165000", "101929.165000", "101931.165000", "101933.165000", "101935.165000", "101937.165000", "101939.165000", "101941.165000", "101943.165000", "101945.165000", "101947.165000", "101949.165000", "101951.165000", "101953.165000", "101955.165000", "101957.165000", "101959.165000", "102001.165000", "102003.165000", "102005.165000", "102007.165000", "102009.165000", "102011.165000", "102013.165000", "102015.165000", "102017.165000"],
      "ContentTime": ["101419.252000", "101419.256000", "101419.258000", "101419.261000", "101419.264000", "101419.266000", "101419.269000", "101419.271000", "101419.274000", "101419.277000", "101419.279000", "101419.282000", "101419.284000", "101419.287000", "101419.289000", "101419.293000", "101419.296000", "101419.299000", "101419.301000", "101419.304000", "101459.248000", "101459.251000", "101459.253000", "101459.256000", "101459.258000", "101459.261000", "101459.264000", "101459.266000", "101459.269000", "101459.271000", "101459.274000", "101459.277000", "101459.279000", "101459.282000", "101459.284000", "101459.287000", "101459.289000", "101459.292000", "101459.295000", "101459.297000", "101539.247000", "101539.249000", "101539.252000", "101539.255000", "101539.257000", "101539.260000", "101539.263000", "101539.273000", "101539.275000", "101539.278000", "101539.281000", "101539.283000", "101539.286000", "101539.288000", "101539.295000", "101539.297000", "101539.300000", "101539.302000", "101539.305000", "101539.308000", "101559.247000", "101559.249000", "101559.252000", "101559.260000", "101559.263000", "101559.265000", "101559.268000", "101559.270000", "101559.273000", "101559.275000", "101639.247000", "101639.249000", "101639.252000", "101639.254000", "101639.257000", "101639.260000", "101639.262000", "101639.265000", "101639.268000", "101639.270000", "101639.273000", "101639.275000", "101639.278000", "101639.281000", "101639.283000", "101639.286000", "101639.288000", "101639.291000", "101639.293000", "101639.296000", "101719.247000", "101719.250000", "101719.253000", "101719.255000", "101719.258000", "101719.261000", "101719.263000", "101719.266000", "101719.269000", "101719.271000", "101719.274000", "101719.276000", "101719.279000", "101719.281000", "101719.284000", "101719.286000", "101719.307000", "101719.309000", "101719.312000", "101719.314000", "101759.247000", "101759.249000", "101759.252000", "101759.254000", "101759.257000", "101759.260000", "101759.262000", "101759.265000", "101759.268000", "101759.270000", "101759.273000", "101759.275000", "101759.278000", "101759.280000", "101759.283000", "101759.286000", "101759.288000", "101759.291000", "101759.293000", "101759.296000", "101839.247000", "101839.249000", "101839.252000", "101839.254000", "101839.257000", "101839.260000", "101839.262000", "101839.265000", "101839.268000", "101839.270000", "101839.273000", "101839.275000", "101839.278000", "101839.280000", "101839.283000", "101839.286000", "101839.288000", "101839.291000", "101839.293000", "101839.296000", "101919.247000", "101919.250000", "101919.253000", "101919.255000", "101919.258000", "101919.261000", "101919.263000", "101919.266000", "101919.269000", "101919.271000", "101919.274000", "101919.276000", "101919.279000", "101919.281000", "101919.284000", "101919.287000", "101919.289000", "101919.292000", "101919.294000", "101919.297000", "101959.247000", "101959.249000", "101959.252000", "101959.254000", "101959.257000", "101959.260000", "101959.262000", "101959.265000", "101959.268000", "101959.270000", "101959.273000", "101959.275000", "101959.278000", "101959.281000", "101959.283000", "101959.286000", "101959.288000", "101959.291000", "101959.294000", "101959.296000", "102018.226000", "102018.229000", "102018.231000", "102018.234000", "102018.237000", "102018.239000", "102018.242000", "102018.245000", "102018.247000", "102018.250000"],
      "InstanceCreationTime": ["101419.252000", "101419.256000", "101419.258000", "101419.261000", "101419.264000", "101419.266000", "101419.269000", "101419.271000", "101419.274000", "101419.277000", "101419.279000", "101419.282000", "101419.284000", "101419.287000", "101419.289000", "101419.293000", "101419.296000", "101419.299000", "101419.301000", "101419.304000", "101459.248000", "101459.251000", "101459.253000", "101459.256000", "101459.258000", "101459.261000", "101459.264000", "101459.266000", "101459.269000", "101459.271000", "101459.274000", "101459.277000", "101459.279000", "101459.282000", "101459.284000", "101459.287000", "101459.289000", "101459.292000", "101459.295000", "101459.297000", "101539.247000", "101539.249000", "101539.252000", "101539.255000", "101539.257000", "101539.260000", "101539.263000", "101539.273000", "101539.275000", "101539.278000", "101539.281000", "101539.283000", "101539.286000", "101539.288000", "101539.295000", "101539.297000", "101539.300000", "101539.302000", "101539.305000", "101539.308000", "101559.247000", "101559.249000", "101559.252000", "101559.260000", "101559.263000", "101559.265000", "101559.268000", "101559.270000", "101559.273000", "101559.275000", "101639.247000", "101639.249000", "101639.252000", "101639.254000", "101639.257000", "101639.260000", "101639.262000", "101639.265000", "101639.268000", "101639.270000", "101639.273000", "101639.275000", "101639.278000", "101639.281000", "101639.283000", "101639.286000", "101639.288000", "101639.291000", "101639.293000", "101639.296000", "101719.247000", "101719.250000", "101719.253000", "101719.255000", "101719.258000", "101719.261000", "101719.263000", "101719.266000", "101719.269000", "101719.271000", "101719.274000", "101719.276000", "101719.279000", "101719.281000", "101719.284000", "101719.286000", "101719.307000", "101719.309000", "101719.312000", "101719.314000", "101759.247000", "101759.249000", "101759.252000", "101759.254000", "101759.257000", "101759.260000", "101759.262000", "101759.265000", "101759.268000", "101759.270000", "101759.273000", "101759.275000", "101759.278000", "101759.280000", "101759.283000", "101759.286000", "101759.288000", "101759.291000", "101759.293000", "101759.296000", "101839.247000", "101839.249000", "101839.252000", "101839.254000", "101839.257000", "101839.260000", "101839.262000", "101839.265000", "101839.268000", "101839.270000", "101839.273000", "101839.275000", "101839.278000", "101839.280000", "101839.283000", "101839.286000", "101839.288000", "101839.291000", "101839.293000", "101839.296000", "101919.247000", "101919.250000", "101919.253000", "101919.255000", "101919.258000", "101919.261000", "101919.263000", "101919.266000", "101919.269000", "101919.271000", "101919.274000", "101919.276000", "101919.279000", "101919.281000", "101919.284000", "101919.287000", "101919.289000", "101919.292000", "101919.294000", "101919.297000", "101959.247000", "101959.249000", "101959.252000", "101959.254000", "101959.257000", "101959.260000", "101959.262000", "101959.265000", "101959.268000", "101959.270000", "101959.273000", "101959.275000", "101959.278000", "101959.281000", "101959.283000", "101959.286000", "101959.288000", "101959.291000", "101959.294000", "101959.296000", "102018.226000", "102018.229000", "102018.231000", "102018.234000", "102018.237000", "102018.239000", "102018.242000", "102018.245000", "102018.247000", "102018.250000"],
      "InstanceNumber": [1, 2, 3, 4, 5, 6, 7, 8, 9, 10, 11, 12, 13, 14, 15, 16, 17, 18, 19, 20, 21, 22, 23, 24, 25, 26, 27, 28, 29, 30, 31, 32, 33, 34, 35, 36, 37, 38, 39, 40, 41, 42, 43, 44, 45, 46, 47, 48, 49, 50, 51, 52, 53, 54, 55, 56, 57, 58, 59, 60, 61, 62, 63, 64, 65, 66, 67, 68, 69, 70, 71, 72, 73, 74, 75, 76, 77, 78, 79, 80, 81, 82, 83, 84, 85, 86, 87, 88, 89, 90, 91, 92, 93, 94, 95, 96, 97, 98, 99, 100, 101, 102, 103, 104, 105, 106, 107, 108, 109, 110, 111, 112, 113, 114, 115, 116, 117, 118, 119, 120, 121, 122, 123, 124, 125, 126, 127, 128, 129, 130, 131, 132, 133, 134, 135, 136, 137, 138, 139, 140, 141, 142, 143, 144, 145, 146, 147, 148, 149, 150, 151, 152, 153, 154, 155, 156, 157, 158, 159, 160, 161, 162, 163, 164, 165, 166, 167, 168, 169, 170, 171, 172, 173, 174, 175, 176, 177, 178, 179, 180, 181, 182, 183, 184, 185, 186, 187, 188, 189, 190, 191, 192, 193, 194, 195, 196, 197, 198, 199, 200],
      "LargestImagePixelValue": [2132, 2137, 2129, 2136, 2134, 2139, 2137, 2135, 2131, 2133, 2132, 2136, 2138, 2137, 2133, 2138, 2138, 2133, 2134, 2137, 2135, 2139, 2135, 2140, 2133, 2135, 2135, 2135, 2130, 2134, 2139, 2139, 2136, 2137, 2133, 2138, 2138, 2136, 2144, 2134, 2137, 2137, 2134, 2143, 2142, 2139, 2138, 2137, 2138, 2134, 2134, 2138, 2133, 2134, 2132, 2133, 2140, 2137, 2138, 2137, 2132, 2135, 2133, 2135, 2141, 2134, 2140, 2133, 2134, 2135, 2133, 2137, 2133, 2131, 2133, 2137, 2137, 2139, 2140, 2133, 2136, 2135, 2138, 2135, 2135, 2138, 2133, 2136, 2133, 2137, 2134, 2135, 2134, 2138, 2142, 2136, 2132, 2134, 2131, 2144, 2133, 2134, 2133, 2135, 2137, 2138, 2140, 2130, 2141, 2137, 2133, 2132, 2138, 2137, 2141, 2138, 2142, 2138, 2136, 2137, 2136, 2129, 2136, 2142, 2136, 2136, 2137, 2138, 2137, 2136, 2135, 2137, 2137, 2137, 2143, 2138, 2138, 2137, 2134, 2136, 2139, 2133, 2137, 2138, 2131, 2135, 2141, 2138, 2135, 2135, 2136, 2136, 2133, 2138, 2140, 2140, 2136, 2139, 2135, 2137, 2136, 2136, 2136, 2139, 2138, 2140, 2142, 2143, 2140, 2140, 2136, 2137, 2136, 2141, 2134, 2138, 2137, 2139, 2139, 2134, 2137, 2134, 2138, 2138, 2137, 2138, 2138, 2139, 2136, 2136, 2133, 2140, 2134, 2133, 2138, 2134, 2139, 2137, 2132, 2140],
      "WindowCenter": [918.0, 918.0, 918.0, 918.0, 918.0, 918.0, 918.0, 918.0, 918.0, 918.0, 918.0, 918.0, 918.0, 918.0, 918.0, 918.0, 918.0, 918.0, 918.0, 918.0, 919.0, 918.0, 918.0, 918.0, 918.0, 918.0, 918.0, 918.0, 918.0, 918.0, 918.0, 918.0, 918.0, 918.0, 918.0, 918.0, 918.0, 918.0, 918.0, 918.0, 918.0, 918.0, 918.0, 918.0, 918.0, 918.0, 918.0, 918.0, 918.0, 918.0, 919.0, 918.0, 918.0, 918.0, 918.0, 918.0, 918.0, 918.0, 918.0, 918.0, 918.0, 918.0, 918.0, 918.0, 918.0, 919.0, 918.0, 918.0, 918.0, 918.0, 918.0, 918.0, 918.0, 918.0, 918.0, 918.0, 918.0, 918.0, 918.0, 918.0, 918.0, 918.0, 918.0, 918.0, 918.0, 918.0, 918.0, 918.0, 918.0, 918.0, 918.0, 918.0, 918.0, 918.0, 918.0, 918.0, 918.0, 918.0, 918.0, 919.0, 918.0, 918.0, 918.0, 918.0, 918.0, 918.0, 918.0, 918.0, 918.0, 918.0, 918.0, 918.0, 918.0, 919.0, 918.0, 918.0, 918.0, 918.0, 919.0, 919.0, 918.0, 918.0, 918.0, 918.0, 918.0, 918.0, 918.0, 918.0, 918.0, 918.0, 918.0, 918.0, 919.0, 918.0, 918.0, 918.0, 918.0, 918.0, 918.0, 918.0, 918.0, 918.0, 918.0, 918.0, 918.0, 918.0, 918.0, 918.0, 918.0, 918.0, 918.0, 918.0, 918.0, 918.0, 918.0, 919.0, 919.0, 918.0, 918.0, 918.0, 918.0, 918.0, 919.0, 918.0, 918.0, 918.0, 918.0, 918.0, 918.0, 918.0, 918.0, 919.0, 919.0, 919.0, 919.0, 918.0, 918.0, 919.0, 919.0, 918.0, 918.0, 918.0, 918.0, 918.0, 918.0, 918.0, 918.0, 918.0, 918.0, 919.0, 919.0, 919.0, 918.0, 919.0, 918.0, 918.0, 918.0, 918.0, 918.0, 919.0],
      "WindowWidth": [2090.0, 2090.0, 2090.0, 2090.0, 2090.0, 2090.0, 2090.0, 2090.0, 2090.0, 2090.0, 2090.0, 2090.0, 2090.0, 2090.0, 2090.0, 2090.0, 2090.0, 2090.0, 2090.0, 2090.0, 2091.0, 2090.0, 2090.0, 2090.0, 2090.0, 2090.0, 2090.0, 2090.0, 2090.0, 2090.0, 2090.0, 2090.0, 2090.0, 2090.0, 2090.0, 2090.0, 2090.0, 2090.0, 2090.0, 2090.0, 2090.0, 2090.0, 2090.0, 2090.0, 2090.0, 2090.0, 2090.0, 2090.0, 2090.0, 2090.0, 2091.0, 2090.0, 2090.0, 2090.0, 2090.0, 2090.0, 2090.0, 2091.0, 2090.0, 2091.0, 2091.0, 2091.0, 2091.0, 2091.0, 2091.0, 2091.0, 2091.0, 2090.0, 2090.0, 2091.0, 2090.0, 2090.0, 2091.0, 2091.0, 2090.0, 2091.0, 2090.0, 2091.0, 2090.0, 2090.0, 2090.0, 2090.0, 2091.0, 2091.0, 2091.0, 2090.0, 2090.0, 2091.0, 2091.0, 2091.0, 2091.0, 2090.0, 2091.0, 2091.0, 2091.0, 2091.0, 2090.0, 2090.0, 2090.0, 2091.0, 2090.0, 2091.0, 2090.0, 2090.0, 2090.0, 2091.0, 2091.0, 2091.0, 2090.0, 2091.0, 2090.0, 2091.0, 2091.0, 2091.0, 2091.0, 2090.0, 2091.0, 2091.0, 2091.0, 2091.0, 2090.0, 2090.0, 2090.0, 2090.0, 2091.0, 2091.0, 2091.0, 2091.0, 2091.0, 2090.0, 2091.0, 2091.0, 2090.0, 2091.0, 2091.0, 2091.0, 2091.0, 2090.0, 2090.0, 2091.0, 2091.0, 2090.0, 2090.0, 2091.0, 2091.0, 2091.0, 2090.0, 2091.0, 2091.0, 2091.0, 2091.0, 2091.0, 2091.0, 2091.0, 2091.0, 2091.0, 2090.0, 2091.0, 2090.0, 2091.0, 2090.0, 2091.0, 2091.0, 2090.0, 2091.0, 2090.0, 2091.0, 2091.0, 2090.0, 2091.0, 2091.0, 2091.0, 2090.0, 2091.0, 2091.0, 2091.0, 2091.0, 2091.0, 2090.0, 2091.0, 2091.0, 2091.0, 2091.0, 2091.0, 2091.0, 2091.0, 2091.0, 2091.0, 2090.0, 2091.0, 2091.0, 2090.0, 2091.0, 2090.0, 2090.0, 2091.0, 2090.0, 2090.0, 2091.0, 2091.0]
    },
    "slices": {}
  }
}