{
  "AcquisitionMatrixPE": 80,
  "AcquisitionNumber": 1,
  "AcquisitionTime": "08:48:45.777500",
  "BandwidthPerPixelPhaseEncode": 48.077,
  "BaseResolution": 80,
  "BodyPartExamined": "BRAIN",
  "CoilCombinationMethod": "Sum of Squares",
  "ConsistencyInfo": "N4_VE11E_LATEST_20181129",
  "ConversionSoftware": "dcm2niix",
  "ConversionSoftwareVersion": "v1.0.20220720",
  "DerivedVendorReportedEchoSpacing": 0.000519999,
  "DeviceSerialNumber": "66112",
  "DwellTime": 2.7e-06,
  "EchoTime": 0.035,
  "EchoTrainLength": 39,
  "EffectiveEchoSpacing": 0.00026,
  "FlipAngle": 90,
  "HeudiconvVersion": "0.13.1",
  "ImageOrientationPatientDICOM": [0.98284, 0.184291, 0.00784866, -0.177904, 0.935817, 0.304298],
  "ImageOrientationText": "Tra>Cor(17.5)>Sag(-2.8)",
  "ImageType": [
    "ORIGINAL",
    "PRIMARY",
    "M",
    "ND",
    "NORM",
    "MOSAIC"
],
  "ImagingFrequency": 123.259,
  "InPlanePhaseEncodingDirectionDICOM": "COL",
  "InstitutionAddress": "Maynard 3,Hanover,NH,US,03755",
  "InstitutionName": "Dartmouth College - PBS",
  "InstitutionalDepartmentName": "Department",
  "MRAcquisitionType": "2D",
  "MagneticFieldStrength": 3,
  "Manufacturer": "Siemens",
  "ManufacturersModelName": "Prisma",
  "MatrixCoilMode": "GRAPPA",
  "Modality": "MR",
  "NonlinearGradientCorrection": false,
  "ParallelReductionFactorInPlane": 2,
  "PartialFourier": 1,
  "PatientPosition": "HFS",
  "PercentPhaseFOV": 100,
  "PercentSampling": 100,
  "PhaseEncodingDirection": "j-",
  "PhaseEncodingSteps": 79,
  "PhaseResolution": 1,
  "PixelBandwidth": 2315,
  "ProcedureStepDescription": "dbic^QA",
  "ProtocolName": "func-bold_task-rest_acq-p2",
  "PulseSequenceDetails": "%SiemensSeq%\\ep2d_bold",
  "ReceiveCoilActiveElements": "HEA;HEP",
  "ReceiveCoilName": "Head_32",
  "ReconMatrixPE": 80,
  "RefLinesPE": 24,
  "RepetitionTime": 2,
  "SAR": 0.0814305,
  "ScanOptions": "FS",
  "ScanningSequence": "EP",
  "SequenceName": "*epfid2d1_80",
  "SequenceVariant": "SK",
  "SeriesDescription": "func-bold_task-rest_acq-p2",
  "SeriesNumber": 5,
  "ShimSetting": [4219, -7750, -7480, -13, -125, -46, 38, 64],
  "SliceThickness": 3.5,
  "SliceTiming": [0.99, 0, 1.0575, 0.0675, 1.1225, 0.1325, 1.19, 0.2, 1.255, 0.265, 1.32, 0.33, 1.3875, 0.3975, 1.4525, 0.4625, 1.52, 0.53, 1.585, 0.595, 1.65, 0.66, 1.7175, 0.7275, 1.7825, 0.7925, 1.85, 0.86, 1.915, 0.925],
  "SoftwareVersions": "syngo MR E11",
  "SpacingBetweenSlices": 3.99,
  "StationName": "AWP66112",
  "TaskName": "rest",
  "TotalReadoutTime": 0.02054,
  "TxRefAmp": 222.974,
  "dcmmeta_affine": [
    [-2.948521137237549, -0.5337110161781311, -0.19445045292377472, 143.51861572265625],
    [-0.552872896194458, 2.807450294494629, 1.1988856792449951, -98.6389389038086],
    [0.02354598604142666, -0.9128937721252441, 3.8006529808044434, -15.556865692138672],
    [0.0, 0.0, 0.0, 1.0]
],
  "dcmmeta_reorient_transform": [
    [0.0, -1.0, 0.0, 79.0],
    [1.0, 0.0, 0.0, 0.0],
    [0.0, 0.0, 1.0, 0.0],
    [0.0, 0.0, 0.0, 1.0]
],
  "dcmmeta_shape": [80, 80, 30, 200],
  "dcmmeta_slice_dim": 2,
  "dcmmeta_version": 0.6,
  "global": {
    "const": {
      "AccessionNumber": "qa",
      "AcquisitionMatrix": [80, 0, 0, 80],
      "AngioFlag": "N",
      "BitsAllocated": 16,
      "BitsStored": 12,
      "BodyPartExamined": "BRAIN",
      "Columns": 480,
      "EchoNumbers": 1,
      "EchoTime": 35.0,
      "EchoTrainLength": 39,
      "FlipAngle": 90.0,
      "HighBit": 11,
      "ImageOrientationPatient": [0.98284039327318, 0.18429096520009, 0.00784866206673, -0.1779036669829, 0.93581678402665, 0.30429793296713],
      "ImagePositionPatient": [-584.31748061061, -795.21428713063, -274.9634324881],
      "ImageType": [
        "ORIGINAL",
        "PRIMARY",
        "M",
        "ND",
        "NORM",
        "MOSAIC"
],
      "ImagedNucleus": "1H",
      "ImagingFrequency": 123.259378,
      "InPlanePhaseEncodingDirection": "COL",
      "MRAcquisitionType": "2D",
      "MagneticFieldStrength": 3.0,
      "Manufacturer": "SIEMENS",
      "ManufacturerModelName": "Prisma",
      "Modality": "MR",
      "NumberOfAverages": 1.0,
      "NumberOfPhaseEncodingSteps": 79,
      "PercentPhaseFieldOfView": 100.0,
      "PercentSampling": 100.0,
      "PerformedProcedureStepStartTime": "083825.069000",
      "PhotometricInterpretation": "MONOCHROME2",
      "PixelBandwidth": 2315.0,
      "PixelRepresentation": 0,
      "PixelSpacing": [3.0, 3.0],
      "ProtocolName": "func-bold_task-rest_acq-p2",
      "RepetitionTime": 2000.0,
      "Rows": 480,
      "SAR": 0.08143054501586,
      "SamplesPerPixel": 1,
      "ScanOptions": "FS",
      "ScanningSequence": "EP",
      "SequenceName": "*epfid2d1_80",
      "SequenceVariant": "SK",
      "SeriesDescription": "func-bold_task-rest_acq-p2",
      "SeriesNumber": 5,
      "SeriesTime": "084944.788000",
      "SliceLocation": -51.451207824042,
      "SliceThickness": 3.5,
      "SmallestImagePixelValue": 0,
      "SoftwareVersions": "syngo MR E11",
      "SpacingBetweenSlices": 3.9900000102815,
      "SpecificCharacterSet": "ISO_IR 100",
      "StudyID": "30",
      "StudyTime": "083824.988000",
      "TransmitCoilName": "Body",
      "VariableFlipAngleFlag": "N",
      "WindowCenterWidthExplanation": "Algo1"
    },
    "slices": {}
  },
  "time": {
    "samples": {
      "AcquisitionNumber": [1, 2, 3, 4, 5, 6, 7, 8, 9, 10, 11, 12, 13, 14, 15, 16, 17, 18, 19, 20, 21, 22, 23, 24, 25, 26, 27, 28, 29, 30, 31, 32, 33, 34, 35, 36, 37, 38, 39, 40, 41, 42, 43, 44, 45, 46, 47, 48, 49, 50, 51, 52, 53, 54, 55, 56, 57, 58, 59, 60, 61, 62, 63, 64, 65, 66, 67, 68, 69, 70, 71, 72, 73, 74, 75, 76, 77, 78, 79, 80, 81, 82, 83, 84, 85, 86, 87, 88, 89, 90, 91, 92, 93, 94, 95, 96, 97, 98, 99, 100, 101, 102, 103, 104, 105, 106, 107, 108, 109, 110, 111, 112, 113, 114, 115, 116, 117, 118, 119, 120, 121, 122, 123, 124, 125, 126, 127, 128, 129, 130, 131, 132, 133, 134, 135, 136, 137, 138, 139, 140, 141, 142, 143, 144, 145, 146, 147, 148, 149, 150, 151, 152, 153, 154, 155, 156, 157, 158, 159, 160, 161, 162, 163, 164, 165, 166, 167, 168, 169, 170, 171, 172, 173, 174, 175, 176, 177, 178, 179, 180, 181, 182, 183, 184, 185, 186, 187, 188, 189, 190, 191, 192, 193, 194, 195, 196, 197, 198, 199, 200],
      "AcquisitionTime": ["084845.777500", "084847.777500", "084849.777500", "084851.777500", "084853.777500", "084855.777500", "084857.777500", "084859.777500", "084901.777500", "084903.777500", "084905.777500", "084907.777500", "084909.777500", "084911.777500", "084913.777500", "084915.777500", "084917.777500", "084919.777500", "084921.777500", "084923.777500", "084925.777500", "084927.777500", "084929.777500", "084931.777500", "084933.777500", "084935.777500", "084937.777500", "084939.777500", "084941.777500", "084943.777500", "084945.777500", "084947.777500", "084949.777500", "084951.777500", "084953.777500", "084955.777500", "084957.777500", "084959.777500", "085001.777500", "085003.777500", "085005.777500", "085007.777500", "085009.777500", "085011.777500", "085013.777500", "085015.777500", "085017.777500", "085019.777500", "085021.777500", "085023.777500", "085025.777500", "085027.777500", "085029.777500", "085031.777500", "085033.777500", "085035.777500", "085037.777500", "085039.777500", "085041.777500", "085043.777500", "085045.777500", "085047.777500", "085049.777500", "085051.777500", "085053.777500", "085055.777500", "085057.777500", "085059.777500", "085101.777500", "085103.777500", "085105.777500", "085107.777500", "085109.777500", "085111.777500", "085113.777500", "085115.777500", "085117.777500", "085119.777500", "085121.777500", "085123.777500", "085125.777500", "085127.777500", "085129.777500", "085131.777500", "085133.777500", "085135.777500", "085137.777500", "085139.777500", "085141.777500", "085143.777500", "085145.777500", "085147.777500", "085149.777500", "085151.777500", "085153.777500", "085155.777500", "085157.777500", "085159.777500", "085201.777500", "085203.777500", "085205.777500", "085207.777500", "085209.777500", "085211.777500", "085213.777500", "085215.777500", "085217.777500", "085219.777500", "085221.777500", "085223.777500", "085225.777500", "085227.777500", "085229.777500", "085231.777500", "085233.777500", "085235.777500", "085237.777500", "085239.777500", "085241.777500", "085243.777500", "085245.777500", "085247.777500", "085249.777500", "085251.777500", "085253.777500", "085255.777500", "085257.777500", "085259.777500", "085301.777500", "085303.777500", "085305.777500", "085307.777500", "085309.777500", "085311.777500", "085313.777500", "085315.777500", "085317.777500", "085319.777500", "085321.777500", "085323.777500", "085325.777500", "085327.777500", "085329.777500", "085331.777500", "085333.777500", "085335.777500", "085337.777500", "085339.777500", "085341.777500", "085343.777500", "085345.777500", "085347.777500", "085349.777500", "085351.777500", "085353.777500", "085355.777500", "085357.777500", "085359.777500", "085401.777500", "085403.777500", "085405.777500", "085407.777500", "085409.777500", "085411.777500", "085413.777500", "085415.777500", "085417.777500", "085419.777500", "085421.777500", "085423.777500", "085425.777500", "085427.777500", "085429.777500", "085431.777500", "085433.777500", "085435.777500", "085437.777500", "085439.777500", "085441.777500", "085443.777500", "085445.777500", "085447.777500", "085449.777500", "085451.777500", "085453.777500", "085455.777500", "085457.777500", "085459.777500", "085501.777500", "085503.777500", "085505.777500", "085507.777500", "085509.777500", "085511.777500", "085513.777500", "085515.777500", "085517.777500", "085519.777500", "085521.777500", "085523.777500"],
      "ContentTime": ["084944.791000", "084944.794000", "084944.797000", "084944.799000", "084944.823000", "084944.826000", "084944.828000", "084944.830000", "084944.833000", "084944.835000", "084944.845000", "084944.848000", "084944.850000", "084944.852000", "084944.855000", "084944.857000", "084944.859000", "084944.862000", "084944.864000", "084944.866000", "084944.868000", "084944.871000", "084944.873000", "084944.875000", "084944.878000", "084944.880000", "084944.882000", "084944.885000", "084944.887000", "085024.786000", "085024.789000", "085024.791000", "085024.793000", "085024.796000", "085024.798000", "085024.800000", "085024.803000", "085024.805000", "085024.807000", "085024.810000", "085024.812000", "085024.814000", "085024.849000", "085024.852000", "085024.854000", "085024.856000", "085024.859000", "085024.861000", "085024.863000", "085104.786000", "085104.789000", "085104.791000", "085104.793000", "085104.796000", "085104.798000", "085104.800000", "085104.803000", "085104.816000", "085104.818000", "085104.821000", "085104.823000", "085104.825000", "085104.827000", "085104.830000", "085104.832000", "085104.834000", "085104.837000", "085104.839000", "085104.841000", "085144.786000", "085144.788000", "085144.791000", "085144.793000", "085144.795000", "085144.798000", "085144.800000", "085144.803000", "085144.811000", "085144.813000", "085144.816000", "085144.818000", "085144.820000", "085144.823000", "085144.825000", "085144.827000", "085144.830000", "085144.832000", "085144.834000", "085144.837000", "085224.786000", "085224.789000", "085224.791000", "085224.793000", "085224.796000", "085224.798000", "085224.800000", "085224.803000", "085224.805000", "085224.807000", "085224.810000", "085224.812000", "085224.815000", "085224.817000", "085224.819000", "085224.822000", "085224.824000", "085224.826000", "085224.829000", "085224.831000", "085304.786000", "085304.789000", "085304.791000", "085304.794000", "085304.796000", "085304.798000", "085304.801000", "085304.803000", "085304.805000", "085304.808000", "085304.810000", "085304.829000", "085304.831000", "085304.834000", "085304.836000", "085304.838000", "085304.841000", "085304.843000", "085304.845000", "085304.848000", "085344.786000", "085344.789000", "085344.799000", "085344.801000", "085344.804000", "085344.806000", "085344.808000", "085344.811000", "085344.813000", "085344.815000", "085344.818000", "085344.820000", "085344.822000", "085344.825000", "085344.827000", "085344.829000", "085344.832000", "085344.834000", "085344.836000", "085344.839000", "085424.786000", "085424.789000", "085424.791000", "085424.793000", "085424.796000", "085424.798000", "085424.801000", "085424.803000", "085424.805000", "085424.808000", "085424.810000", "085424.813000", "085424.815000", "085424.817000", "085424.820000", "085424.822000", "085424.824000", "085424.827000", "085424.829000", "085424.831000", "085504.786000", "085504.789000", "085504.791000", "085504.794000", "085504.796000", "085504.799000", "085504.801000", "085504.803000", "085504.806000", "085504.808000", "085504.810000", "085504.813000", "085504.815000", "085504.817000", "085504.819000", "085504.822000", "085504.824000", "085504.826000", "085504.829000", "085504.831000", "085525.495000", "085525.506000", "085525.509000", "085525.512000", "085525.514000", "085525.519000", "085525.521000", "085525.524000", "085525.527000", "085525.529000", "085525.532000"],
      "InstanceCreationTime": ["084944.791000", "084944.794000", "084944.797000", "084944.799000", "084944.823000", "084944.826000", "084944.828000", "084944.830000", "084944.833000", "084944.835000", "084944.845000", "084944.848000", "084944.850000", "084944.852000", "084944.855000", "084944.857000", "084944.859000", "084944.862000", "084944.864000", "084944.866000", "084944.868000", "084944.871000", "084944.873000", "084944.875000", "084944.878000", "084944.880000", "084944.882000", "084944.885000", "084944.887000", "085024.786000", "085024.789000", "085024.791000", "085024.793000", "085024.796000", "085024.798000", "085024.800000", "085024.803000", "085024.805000", "085024.807000", "085024.810000", "085024.812000", "085024.814000", "085024.849000", "085024.852000", "085024.854000", "085024.856000", "085024.859000", "085024.861000", "085024.863000", "085104.786000", "085104.789000", "085104.791000", "085104.793000", "085104.796000", "085104.798000", "085104.800000", "085104.803000", "085104.816000", "085104.818000", "085104.821000", "085104.823000", "085104.825000", "085104.827000", "085104.830000", "085104.832000", "085104.834000", "085104.837000", "085104.839000", "085104.841000", "085144.786000", "085144.788000", "085144.791000", "085144.793000", "085144.795000", "085144.798000", "085144.800000", "085144.803000", "085144.811000", "085144.813000", "085144.816000", "085144.818000", "085144.820000", "085144.823000", "085144.825000", "085144.827000", "085144.830000", "085144.832000", "085144.834000", "085144.837000", "085224.786000", "085224.789000", "085224.791000", "085224.793000", "085224.796000", "085224.798000", "085224.800000", "085224.803000", "085224.805000", "085224.807000", "085224.810000", "085224.812000", "085224.815000", "085224.817000", "085224.819000", "085224.822000", "085224.824000", "085224.826000", "085224.829000", "085224.831000", "085304.786000", "085304.789000", "085304.791000", "085304.794000", "085304.796000", "085304.798000", "085304.801000", "085304.803000", "085304.805000", "085304.808000", "085304.810000", "085304.829000", "085304.831000", "085304.834000", "085304.836000", "085304.838000", "085304.841000", "085304.843000", "085304.845000", "085304.848000", "085344.786000", "085344.789000", "085344.799000", "085344.801000", "085344.804000", "085344.806000", "085344.808000", "085344.811000", "085344.813000", "085344.815000", "085344.818000", "085344.820000", "085344.822000", "085344.825000", "085344.827000", "085344.829000", "085344.832000", "085344.834000", "085344.836000", "085344.839000", "085424.786000", "085424.789000", "085424.791000", "085424.793000", "085424.796000", "085424.798000", "085424.801000", "085424.803000", "085424.805000", "085424.808000", "085424.810000", "085424.813000", "085424.815000", "085424.817000", "085424.820000", "085424.822000", "085424.824000", "085424.827000", "085424.829000", "085424.831000", "085504.786000", "085504.789000", "085504.791000", "085504.794000", "085504.796000", "085504.799000", "085504.801000", "085504.803000", "085504.806000", "085504.808000", "085504.810000", "085504.813000", "085504.815000", "085504.817000", "085504.819000", "085504.822000", "085504.824000", "085504.826000", "085504.829000", "085504.831000", "085525.495000", "085525.506000", "085525.509000", "085525.512000", "085525.514000", "085525.519000", "085525.521000", "085525.524000", "085525.527000", "085525.529000", "085525.532000"],
      "InstanceNumber": [1, 2, 3, 4, 5, 6, 7, 8, 9, 10, 11, 12, 13, 14, 15, 16, 17, 18, 19, 20, 21, 22, 23, 24, 25, 26, 27, 28, 29, 30, 31, 32, 33, 34, 35, 36, 37, 38, 39, 40, 41, 42, 43, 44, 45, 46, 47, 48, 49, 50, 51, 52, 53, 54, 55, 56, 57, 58, 59, 60, 61, 62, 63, 64, 65, 66, 67, 68, 69, 70, 71, 72, 73, 74, 75, 76, 77, 78, 79, 80, 81, 82, 83, 84, 85, 86, 87, 88, 89, 90, 91, 92, 93, 94, 95, 96, 97, 98, 99, 100, 101, 102, 103, 104, 105, 106, 107, 108, 109, 110, 111, 112, 113, 114, 115, 116, 117, 118, 119, 120, 121, 122, 123, 124, 125, 126, 127, 128, 129, 130, 131, 132, 133, 134, 135, 136, 137, 138, 139, 140, 141, 142, 143, 144, 145, 146, 147, 148, 149, 150, 151, 152, 153, 154, 155, 156, 157, 158, 159, 160, 161, 162, 163, 164, 165, 166, 167, 168, 169, 170, 171, 172, 173, 174, 175, 176, 177, 178, 179, 180, 181, 182, 183, 184, 185, 186, 187, 188, 189, 190, 191, 192, 193, 194, 195, 196, 197, 198, 199, 200],
      "LargestImagePixelValue": [2140, 2144, 2150, 2142, 2154, 2147, 2145, 2154, 2141, 2148, 2142, 2140, 2144, 2142, 2152, 2141, 2147, 2144, 2153, 2147, 2151, 2145, 2155, 2139, 2152, 2146, 2144, 2154, 2142, 2156, 2143, 2150, 2153, 2149, 2143, 2146, 2144, 2150, 2145, 2153, 2149, 2139, 2143, 2144, 2150, 2148, 2148, 2147, 2143, 2152, 2147, 2146, 2153, 2148, 2144, 2150, 2143, 2145, 2149, 2149, 2147, 2142, 2143, 2138, 2145, 2149, 2151, 2153, 2144, 2144, 2143, 2143, 2147, 2145, 2139, 2146, 2144, 2147, 2143, 2149, 2134, 2146, 2158, 2139, 2148, 2148, 2150, 2143, 2147, 2145, 2148, 2147, 2158, 2147, 2148, 2147, 2143, 2147, 2140, 2152, 2148, 2145, 2150, 2145, 2145, 2147, 2150, 2150, 2144, 2150, 2148, 2144, 2146, 2138, 2151, 2148, 2155, 2149, 2143, 2145, 2151, 2153, 2141, 2150, 2151, 2142, 2146, 2154, 2144, 2142, 2152, 2142, 2155, 2141, 2137, 2150, 2145, 2149, 2158, 2140, 2155, 2146, 2151, 2145, 2148, 2151, 2145, 2147, 2146, 2148, 2155, 2146, 2144, 2146, 2143, 2152, 2147, 2148, 2142, 2140, 2148, 2148, 2158, 2142, 2144, 2155, 2147, 2151, 2145, 2147, 2147, 2146, 2145, 2149, 2140, 2152, 2149, 2146, 2154, 2143, 2140, 2150, 2141, 2147, 2141, 2144, 2155, 2149, 2143, 2146, 2144, 2134, 2140, 2145, 2142, 2153, 2147, 2136, 2146, 2142],
      "WindowCenter": [1020.0, 1020.0, 1020.0, 1020.0, 1020.0, 1020.0, 1020.0, 1020.0, 1020.0, 1020.0, 1020.0, 1020.0, 1020.0, 1020.0, 1020.0, 1021.0, 1020.0, 1020.0, 1020.0, 1020.0, 1020.0, 1020.0, 1020.0, 1021.0, 1020.0, 1020.0, 1020.0, 1020.0, 1020.0, 1020.0, 1020.0, 1020.0, 1020.0, 1020.0, 1020.0, 1020.0, 1020.0, 1020.0, 1020.0, 1020.0, 1020.0, 1020.0, 1020.0, 1020.0, 1020.0, 1020.0, 1020.0, 1020.0, 1020.0, 1020.0, 1020.0, 1020.0, 1020.0, 1020.0, 1020.0, 1020.0, 1020.0, 1020.0, 1020.0, 1020.0, 1020.0, 1020.0, 1020.0, 1020.0, 1020.0, 1020.0, 1020.0, 1020.0, 1020.0, 1020.0, 1020.0, 1020.0, 1020.0, 1020.0, 1020.0, 1020.0, 1020.0, 1020.0, 1020.0, 1019.0, 1020.0, 1020.0, 1020.0, 1019.0, 1019.0, 1020.0, 1019.0, 1020.0, 1020.0, 1020.0, 1020.0, 1019.0, 1020.0, 1019.0, 1019.0, 1019.0, 1019.0, 1019.0, 1019.0, 1019.0, 1019.0, 1019.0, 1019.0, 1019.0, 1019.0, 1019.0, 1019.0, 1019.0, 1019.0, 1019.0, 1020.0, 1019.0, 1019.0, 1019.0, 1019.0, 1019.0, 1019.0, 1019.0, 1019.0, 1019.0, 1019.0, 1019.0, 1019.0, 1019.0, 1019.0, 1020.0, 1019.0, 1019.0, 1019.0, 1019.0, 1020.0, 1019.0, 1019.0, 1019.0, 1019.0, 1019.0, 1019.0, 1019.0, 1019.0, 1019.0, 1019.0, 1019.0, 1019.0, 1019.0, 1019.0, 1019.0, 1019.0, 1019.0, 1019.0, 1019.0, 1019.0, 1019.0, 1019.0, 1019.0, 1019.0, 1019.0, 1019.0, 1019.0, 1019.0, 1019.0, 1019.0, 1019.0, 1019.0, 1019.0, 1020.0, 1019.0, 1019.0, 1019.0, 1019.0, 1019.0, 1019.0, 1019.0, 1019.0, 1019.0, 1019.0, 1019.0, 1019.0, 1019.0, 1019.0, 1019.0, 1019.0, 1019.0, 1019.0, 1019.0, 1019.0, 1020.0, 1019.0, 1019.0, 1019.0, 1019.0, 1019.0, 1019.0, 1019.0, 1019.0, 1019.0, 1019.0, 1019.0, 1019.0, 1019.0, 1019.0],
      "WindowWidth": [2262.0, 2261.0, 2261.0, 2261.0, 2261.0, 2260.0, 2260.0, 2260.0, 2260.0, 2260.0, 2260.0, 2261.0, 2260.0, 2260.0, 2260.0, 2261.0, 2260.0, 2260.0, 2260.0, 2260.0, 2260.0, 2260.0, 2260.0, 2261.0, 2260.0, 2260.0, 2260.0, 2260.0, 2260.0, 2260.0, 2260.0, 2260.0, 2260.0, 2260.0, 2260.0, 2260.0, 2260.0, 2260.0, 2260.0, 2260.0, 2260.0, 2260.0, 2260.0, 2260.0, 2260.0, 2260.0, 2260.0, 2260.0, 2260.0, 2260.0, 2259.0, 2260.0, 2260.0, 2260.0, 2259.0, 2260.0, 2260.0, 2259.0, 2259.0, 2259.0, 2259.0, 2259.0, 2259.0, 2259.0, 2259.0, 2259.0, 2259.0, 2259.0, 2259.0, 2259.0, 2259.0, 2259.0, 2259.0, 2259.0, 2259.0, 2259.0, 2259.0, 2259.0, 2259.0, 2259.0, 2259.0, 2258.0, 2259.0, 2259.0, 2259.0, 2258.0, 2259.0, 2258.0, 2258.0, 2259.0, 2258.0, 2259.0, 2258.0, 2259.0, 2258.0, 2258.0, 2258.0, 2258.0, 2259.0, 2258.0, 2258.0, 2258.0, 2258.0, 2258.0, 2258.0, 2258.0, 2258.0, 2258.0, 2258.0, 2258.0, 2259.0, 2258.0, 2258.0, 2258.0, 2258.0, 2258.0, 2258.0, 2258.0, 2258.0, 2257.0, 2257.0, 2258.0, 2257.0, 2257.0, 2258.0, 2258.0, 2257.0, 2258.0, 2257.0, 2257.0, 2258.0, 2257.0, 2258.0, 2258.0, 2257.0, 2257.0, 2257.0, 2257.0, 2258.0, 2257.0, 2257.0, 2257.0, 2257.0, 2257.0, 2257.0, 2257.0, 2257.0, 2257.0, 2257.0, 2257.0, 2257.0, 2257.0, 2257.0, 2257.0, 2257.0, 2257.0, 2257.0, 2257.0, 2257.0, 2257.0, 2256.0, 2256.0, 2256.0, 2257.0, 2257.0, 2257.0, 2257.0, 2257.0, 2256.0, 2257.0, 2257.0, 2256.0, 2256.0, 2256.0, 2256.0, 2257.0, 2256.0, 2257.0, 2256.0, 2256.0, 2256.0, 2256.0, 2256.0, 2256.0, 2256.0, 2257.0, 2257.0, 2256.0, 2256.0, 2256.0, 2257.0, 2257.0, 2256.0, 2256.0, 2256.0, 2256.0, 2256.0, 2256.0, 2256.0, 2256.0]
    },
    "slices": {}
  }
}