{
  "AcquisitionMatrixPE": 80,
  "AcquisitionNumber": 1,
  "AcquisitionTime": "09:09:16.467500",
  "BandwidthPerPixelPhaseEncode": 25,
  "BaseResolution": 80,
  "BodyPartExamined": "BRAIN",
  "CoilCombinationMethod": "Sum of Squares",
  "ConsistencyInfo": "N4_VE11E_LATEST_20181129",
  "ConversionSoftware": "dcm2niix",
  "ConversionSoftwareVersion": "v1.0.20220720",
  "DerivedVendorReportedEchoSpacing": 0.0005,
  "DeviceSerialNumber": "66112",
  "DwellTime": 2.7e-06,
  "EchoTime": 0.03,
  "EchoTrainLength": 80,
  "EffectiveEchoSpacing": 0.0005,
  "FlipAngle": 10,
  "HeudiconvVersion": "0.13.1",
  "ImageOrientationPatientDICOM": [0.98284, 0.184291, 0.00784866, -0.177904, 0.935817, 0.304298],
  "ImageOrientationText": "Tra>Cor(17.5)>Sag(-2.8)",
  "ImageType": [
    "ORIGINAL",
    "PRIMARY",
    "M",
    "ND",
    "NORM",
    "MOSAIC"
],
  "ImagingFrequency": 123.259,
  "InPlanePhaseEncodingDirectionDICOM": "COL",
  "InstitutionAddress": "Maynard 3,Hanover,NH,US,03755",
  "InstitutionName": "Dartmouth College - PBS",
  "InstitutionalDepartmentName": "Department",
  "MRAcquisitionType": "2D",
  "MagneticFieldStrength": 3,
  "Manufacturer": "Siemens",
  "ManufacturersModelName": "Prisma",
  "MatrixCoilMode": "SENSE",
  "Modality": "MR",
  "NonlinearGradientCorrection": false,
  "PartialFourier": 1,
  "PatientPosition": "HFS",
  "PercentPhaseFOV": 100,
  "PercentSampling": 100,
  "PhaseEncodingDirection": "j-",
  "PhaseEncodingSteps": 80,
  "PhaseResolution": 1,
  "PixelBandwidth": 2315,
  "ProcedureStepDescription": "dbic^QA",
  "ProtocolName": "func-bold_fa-10",
  "PulseSequenceDetails": "%SiemensSeq%\\ep2d_bold",
  "ReceiveCoilActiveElements": "HEA;HEP",
  "ReceiveCoilName": "Head_32",
  "ReconMatrixPE": 80,
  "RepetitionTime": 2,
  "SAR": 0.0171658,
  "ScanOptions": "FS",
  "ScanningSequence": "EP",
  "SequenceName": "*epfid2d1_80",
  "SequenceVariant": "SK",
  "SeriesDescription": "func-bold_fa-10",
  "SeriesNumber": 8,
  "ShimSetting": [4219, -7750, -7480, -12, -126, -44, 40, 64],
  "SliceThickness": 3.5,
  "SliceTiming": [0.99, 0, 1.0575, 0.0675, 1.1225, 0.1325, 1.1875, 0.2, 1.255, 0.265, 1.32, 0.33, 1.3875, 0.3975, 1.4525, 0.4625, 1.5175, 0.5275, 1.585, 0.595, 1.65, 0.66, 1.7175, 0.7275, 1.7825, 0.7925, 1.8475, 0.8575, 1.915, 0.925],
  "SoftwareVersions": "syngo MR E11",
  "SpacingBetweenSlices": 3.99,
  "StationName": "AWP66112",
  "TotalReadoutTime": 0.0395,
  "TxRefAmp": 222.974,
  "dcmmeta_affine": [
    [-2.948521137237549, -0.5337110161781311, -0.19445045292377472, 143.84938049316406],
    [-0.552872896194458, 2.807450294494629, 1.1988856792449951, -100.26518249511719],
    [0.02354598604142666, -0.9128937721252441, 3.8006529808044434, -12.341346740722656],
    [0.0, 0.0, 0.0, 1.0]
],
  "dcmmeta_reorient_transform": [
    [0.0, -1.0, 0.0, 79.0],
    [1.0, 0.0, 0.0, 0.0],
    [0.0, 0.0, 1.0, 0.0],
    [0.0, 0.0, 0.0, 1.0]
],
  "dcmmeta_shape": [80, 80, 30, 200],
  "dcmmeta_slice_dim": 2,
  "dcmmeta_version": 0.6,
  "global": {
    "const": {
      "AccessionNumber": "qa",
      "AcquisitionMatrix": [80, 0, 0, 80],
      "AngioFlag": "N",
      "BitsAllocated": 16,
      "BitsStored": 12,
      "BodyPartExamined": "BRAIN",
      "Columns": 480,
      "EchoNumbers": 1,
      "EchoTime": 30.0,
      "EchoTrainLength": 80,
      "FlipAngle": 10.0,
      "HighBit": 11,
      "ImageOrientationPatient": [0.98284039327318, 0.18429096520009, 0.00784866206673, -0.1779036669829, 0.93581678402665, 0.30429793296713],
      "ImagePositionPatient": [-584.64824728847, -793.58804544667, -271.74791353669],
      "ImageType": [
        "ORIGINAL",
        "PRIMARY",
        "M",
        "ND",
        "NORM",
        "MOSAIC"
],
      "ImagedNucleus": "1H",
      "ImagingFrequency": 123.259381,
      "InPlanePhaseEncodingDirection": "COL",
      "MRAcquisitionType": "2D",
      "MagneticFieldStrength": 3.0,
      "Manufacturer": "SIEMENS",
      "ManufacturerModelName": "Prisma",
      "Modality": "MR",
      "NumberOfAverages": 1.0,
      "NumberOfPhaseEncodingSteps": 80,
      "PercentPhaseFieldOfView": 100.0,
      "PercentSampling": 100.0,
      "PerformedProcedureStepStartTime": "083825.069000",
      "PhotometricInterpretation": "MONOCHROME2",
      "PixelBandwidth": 2315.0,
      "PixelRepresentation": 0,
      "PixelSpacing": [3.0, 3.0],
      "ProtocolName": "func-bold_fa-10",
      "RepetitionTime": 2000.0,
      "Rows": 480,
      "SAR": 0.01716584576687,
      "SamplesPerPixel": 1,
      "ScanOptions": "FS",
      "ScanningSequence": "EP",
      "SequenceName": "*epfid2d1_80",
      "SequenceVariant": "SK",
      "SeriesDescription": "func-bold_fa-10",
      "SeriesNumber": 8,
      "SeriesTime": "091004.788000",
      "SliceLocation": -48.893043501231,
      "SliceThickness": 3.5,
      "SmallestImagePixelValue": 0,
      "SoftwareVersions": "syngo MR E11",
      "SpacingBetweenSlices": 3.9900000096805,
      "SpecificCharacterSet": "ISO_IR 100",
      "StudyID": "30",
      "StudyTime": "083824.988000",
      "TransmitCoilName": "Body",
      "VariableFlipAngleFlag": "N",
      "WindowCenterWidthExplanation": "Algo1"
    },
    "slices": {}
  },
  "time": {
    "samples": {
      "AcquisitionNumber": [1, 2, 3, 4, 5, 6, 7, 8, 9, 10, 11, 12, 13, 14, 15, 16, 17, 18, 19, 20, 21, 22, 23, 24, 25, 26, 27, 28, 29, 30, 31, 32, 33, 34, 35, 36, 37, 38, 39, 40, 41, 42, 43, 44, 45, 46, 47, 48, 49, 50, 51, 52, 53, 54, 55, 56, 57, 58, 59, 60, 61, 62, 63, 64, 65, 66, 67, 68, 69, 70, 71, 72, 73, 74, 75, 76, 77, 78, 79, 80, 81, 82, 83, 84, 85, 86, 87, 88, 89, 90, 91, 92, 93, 94, 95, 96, 97, 98, 99, 100, 101, 102, 103, 104, 105, 106, 107, 108, 109, 110, 111, 112, 113, 114, 115, 116, 117, 118, 119, 120, 121, 122, 123, 124, 125, 126, 127, 128, 129, 130, 131, 132, 133, 134, 135, 136, 137, 138, 139, 140, 141, 142, 143, 144, 145, 146, 147, 148, 149, 150, 151, 152, 153, 154, 155, 156, 157, 158, 159, 160, 161, 162, 163, 164, 165, 166, 167, 168, 169, 170, 171, 172, 173, 174, 175, 176, 177, 178, 179, 180, 181, 182, 183, 184, 185, 186, 187, 188, 189, 190, 191, 192, 193, 194, 195, 196, 197, 198, 199, 200],
      "AcquisitionTime": ["090916.467500", "090918.467500", "090920.467500", "090922.467500", "090924.467500", "090926.467500", "090928.467500", "090930.467500", "090932.467500", "090934.467500", "090936.467500", "090938.467500", "090940.467500", "090942.467500", "090944.467500", "090946.467500", "090948.467500", "090950.467500", "090952.467500", "090954.467500", "090956.467500", "090958.467500", "091000.467500", "091002.467500", "091004.467500", "091006.467500", "091008.467500", "091010.467500", "091012.467500", "091014.467500", "091016.467500", "091018.467500", "091020.467500", "091022.467500", "091024.467500", "091026.467500", "091028.467500", "091030.467500", "091032.467500", "091034.467500", "091036.467500", "091038.467500", "091040.467500", "091042.467500", "091044.467500", "091046.467500", "091048.467500", "091050.467500", "091052.467500", "091054.467500", "091056.467500", "091058.467500", "091100.467500", "091102.467500", "091104.467500", "091106.467500", "091108.467500", "091110.467500", "091112.467500", "091114.467500", "091116.467500", "091118.467500", "091120.467500", "091122.467500", "091124.467500", "091126.467500", "091128.467500", "091130.467500", "091132.467500", "091134.467500", "091136.467500", "091138.467500", "091140.467500", "091142.467500", "091144.467500", "091146.467500", "091148.467500", "091150.467500", "091152.467500", "091154.467500", "091156.467500", "091158.467500", "091200.467500", "091202.467500", "091204.467500", "091206.467500", "091208.467500", "091210.467500", "091212.467500", "091214.467500", "091216.467500", "091218.467500", "091220.467500", "091222.467500", "091224.467500", "091226.467500", "091228.467500", "091230.467500", "091232.467500", "091234.467500", "091236.467500", "091238.467500", "091240.467500", "091242.467500", "091244.467500", "091246.467500", "091248.467500", "091250.467500", "091252.467500", "091254.467500", "091256.467500", "091258.467500", "091300.467500", "091302.467500", "091304.467500", "091306.467500", "091308.467500", "091310.467500", "091312.467500", "091314.467500", "091316.467500", "091318.467500", "091320.467500", "091322.467500", "091324.467500", "091326.467500", "091328.467500", "091330.467500", "091332.467500", "091334.467500", "091336.467500", "091338.467500", "091340.467500", "091342.467500", "091344.467500", "091346.467500", "091348.467500", "091350.467500", "091352.467500", "091354.467500", "091356.467500", "091358.467500", "091400.467500", "091402.467500", "091404.467500", "091406.467500", "091408.467500", "091410.467500", "091412.467500", "091414.467500", "091416.467500", "091418.467500", "091420.467500", "091422.467500", "091424.467500", "091426.467500", "091428.467500", "091430.467500", "091432.467500", "091434.467500", "091436.467500", "091438.467500", "091440.467500", "091442.467500", "091444.467500", "091446.467500", "091448.467500", "091450.467500", "091452.467500", "091454.467500", "091456.467500", "091458.467500", "091500.467500", "091502.467500", "091504.467500", "091506.467500", "091508.467500", "091510.467500", "091512.467500", "091514.467500", "091516.467500", "091518.467500", "091520.467500", "091522.467500", "091524.467500", "091526.467500", "091528.467500", "091530.467500", "091532.467500", "091534.467500", "091536.467500", "091538.467500", "091540.467500", "091542.467500", "091544.467500", "091546.467500", "091548.467500", "091550.467500", "091552.467500", "091554.467500"],
      "ContentTime": ["091004.791000", "091004.794000", "091004.796000", "091004.799000", "091004.802000", "091004.805000", "091004.807000", "091004.809000", "091004.811000", "091004.814000", "091004.816000", "091004.822000", "091004.824000", "091004.826000", "091004.828000", "091004.831000", "091004.833000", "091004.850000", "091004.852000", "091004.855000", "091004.857000", "091004.859000", "091004.862000", "091004.864000", "091044.786000", "091044.789000", "091044.796000", "091044.798000", "091044.800000", "091044.803000", "091044.805000", "091044.807000", "091044.809000", "091044.812000", "091044.814000", "091044.816000", "091044.819000", "091044.821000", "091044.823000", "091044.825000", "091044.828000", "091044.830000", "091044.832000", "091044.835000", "091124.786000", "091124.789000", "091124.795000", "091124.798000", "091124.800000", "091124.802000", "091124.819000", "091124.822000", "091124.824000", "091124.832000", "091124.834000", "091124.836000", "091124.839000", "091124.841000", "091124.843000", "091124.845000", "091124.848000", "091124.850000", "091124.852000", "091124.854000", "091204.786000", "091204.789000", "091204.791000", "091204.794000", "091204.796000", "091204.798000", "091204.826000", "091204.828000", "091204.830000", "091204.833000", "091204.835000", "091204.837000", "091204.839000", "091204.842000", "091204.844000", "091204.846000", "091204.848000", "091204.851000", "091204.853000", "091204.855000", "091244.786000", "091244.789000", "091244.791000", "091244.793000", "091244.796000", "091244.798000", "091244.801000", "091244.803000", "091244.805000", "091244.807000", "091244.810000", "091244.812000", "091244.814000", "091244.817000", "091244.819000", "091244.821000", "091244.823000", "091244.826000", "091244.828000", "091244.830000", "091324.786000", "091324.789000", "091324.791000", "091324.793000", "091324.796000", "091324.798000", "091324.800000", "091324.803000", "091324.805000", "091324.807000", "091324.810000", "091324.812000", "091324.814000", "091324.816000", "091324.819000", "091324.821000", "091324.823000", "091324.826000", "091324.828000", "091324.836000", "091404.786000", "091404.789000", "091404.791000", "091404.793000", "091404.796000", "091404.798000", "091404.800000", "091404.803000", "091404.805000", "091404.807000", "091404.810000", "091404.812000", "091404.814000", "091404.817000", "091404.819000", "091404.821000", "091404.823000", "091404.826000", "091404.828000", "091404.830000", "091444.786000", "091444.789000", "091444.791000", "091444.793000", "091444.796000", "091444.798000", "091444.815000", "091444.817000", "091444.819000", "091444.821000", "091444.824000", "091444.826000", "091444.828000", "091444.831000", "091444.833000", "091444.835000", "091444.837000", "091444.840000", "091444.842000", "091444.844000", "091524.786000", "091524.789000", "091524.791000", "091524.793000", "091524.796000", "091524.798000", "091524.801000", "091524.803000", "091524.805000", "091524.808000", "091524.810000", "091524.812000", "091524.814000", "091524.817000", "091524.819000", "091524.821000", "091524.824000", "091524.826000", "091524.828000", "091524.831000", "091555.727000", "091555.730000", "091555.732000", "091555.734000", "091555.737000", "091555.739000", "091555.741000", "091555.743000", "091555.746000", "091555.748000", "091555.750000", "091555.753000", "091555.755000", "091555.761000", "091555.764000", "091555.767000"],
      "InstanceCreationTime": ["091004.791000", "091004.794000", "091004.796000", "091004.799000", "091004.802000", "091004.805000", "091004.807000", "091004.809000", "091004.811000", "091004.814000", "091004.816000", "091004.822000", "091004.824000", "091004.826000", "091004.828000", "091004.831000", "091004.833000", "091004.850000", "091004.852000", "091004.855000", "091004.857000", "091004.859000", "091004.862000", "091004.864000", "091044.786000", "091044.789000", "091044.796000", "091044.798000", "091044.800000", "091044.803000", "091044.805000", "091044.807000", "091044.809000", "091044.812000", "091044.814000", "091044.816000", "091044.819000", "091044.821000", "091044.823000", "091044.825000", "091044.828000", "091044.830000", "091044.832000", "091044.835000", "091124.786000", "091124.789000", "091124.795000", "091124.798000", "091124.800000", "091124.802000", "091124.819000", "091124.822000", "091124.824000", "091124.832000", "091124.834000", "091124.836000", "091124.839000", "091124.841000", "091124.843000", "091124.845000", "091124.848000", "091124.850000", "091124.852000", "091124.854000", "091204.786000", "091204.789000", "091204.791000", "091204.794000", "091204.796000", "091204.798000", "091204.826000", "091204.828000", "091204.830000", "091204.833000", "091204.835000", "091204.837000", "091204.839000", "091204.842000", "091204.844000", "091204.846000", "091204.848000", "091204.851000", "091204.853000", "091204.855000", "091244.786000", "091244.789000", "091244.791000", "091244.793000", "091244.796000", "091244.798000", "091244.801000", "091244.803000", "091244.805000", "091244.807000", "091244.810000", "091244.812000", "091244.814000", "091244.817000", "091244.819000", "091244.821000", "091244.823000", "091244.826000", "091244.828000", "091244.830000", "091324.786000", "091324.789000", "091324.791000", "091324.793000", "091324.796000", "091324.798000", "091324.800000", "091324.803000", "091324.805000", "091324.807000", "091324.810000", "091324.812000", "091324.814000", "091324.816000", "091324.819000", "091324.821000", "091324.823000", "091324.826000", "091324.828000", "091324.836000", "091404.786000", "091404.789000", "091404.791000", "091404.793000", "091404.796000", "091404.798000", "091404.800000", "091404.803000", "091404.805000", "091404.807000", "091404.810000", "091404.812000", "091404.814000", "091404.817000", "091404.819000", "091404.821000", "091404.823000", "091404.826000", "091404.828000", "091404.830000", "091444.786000", "091444.789000", "091444.791000", "091444.793000", "091444.796000", "091444.798000", "091444.815000", "091444.817000", "091444.819000", "091444.821000", "091444.824000", "091444.826000", "091444.828000", "091444.831000", "091444.833000", "091444.835000", "091444.837000", "091444.840000", "091444.842000", "091444.844000", "091524.786000", "091524.789000", "091524.791000", "091524.793000", "091524.796000", "091524.798000", "091524.801000", "091524.803000", "091524.805000", "091524.808000", "091524.810000", "091524.812000", "091524.814000", "091524.817000", "091524.819000", "091524.821000", "091524.824000", "091524.826000", "091524.828000", "091524.831000", "091555.727000", "091555.730000", "091555.732000", "091555.734000", "091555.737000", "091555.739000", "091555.741000", "091555.743000", "091555.746000", "091555.748000", "091555.750000", "091555.753000", "091555.755000", "091555.761000", "091555.764000", "091555.767000"],
      "InstanceNumber": [1, 2, 3, 4, 5, 6, 7, 8, 9, 10, 11, 12, 13, 14, 15, 16, 17, 18, 19, 20, 21, 22, 23, 24, 25, 26, 27, 28, 29, 30, 31, 32, 33, 34, 35, 36, 37, 38, 39, 40, 41, 42, 43, 44, 45, 46, 47, 48, 49, 50, 51, 52, 53, 54, 55, 56, 57, 58, 59, 60, 61, 62, 63, 64, 65, 66, 67, 68, 69, 70, 71, 72, 73, 74, 75, 76, 77, 78, 79, 80, 81, 82, 83, 84, 85, 86, 87, 88, 89, 90, 91, 92, 93, 94, 95, 96, 97, 98, 99, 100, 101, 102, 103, 104, 105, 106, 107, 108, 109, 110, 111, 112, 113, 114, 115, 116, 117, 118, 119, 120, 121, 122, 123, 124, 125, 126, 127, 128, 129, 130, 131, 132, 133, 134, 135, 136, 137, 138, 139, 140, 141, 142, 143, 144, 145, 146, 147, 148, 149, 150, 151, 152, 153, 154, 155, 156, 157, 158, 159, 160, 161, 162, 163, 164, 165, 166, 167, 168, 169, 170, 171, 172, 173, 174, 175, 176, 177, 178, 179, 180, 181, 182, 183, 184, 185, 186, 187, 188, 189, 190, 191, 192, 193, 194, 195, 196, 197, 198, 199, 200],
      "LargestImagePixelValue": [351, 351, 350, 351, 351, 352, 351, 352, 350, 354, 353, 351, 351, 351, 353, 354, 353, 351, 352, 352, 355, 355, 349, 350, 351, 350, 350, 350, 354, 354, 353, 351, 351, 353, 358, 354, 353, 352, 351, 355, 351, 353, 353, 349, 354, 357, 351, 357, 350, 354, 351, 351, 351, 352, 354, 352, 350, 353, 353, 351, 351, 356, 351, 353, 350, 350, 353, 354, 350, 353, 351, 352, 352, 352, 350, 350, 353, 353, 353, 352, 349, 350, 353, 352, 351, 350, 352, 349, 351, 353, 353, 352, 358, 350, 352, 353, 350, 350, 351, 354, 356, 349, 352, 351, 350, 354, 350, 351, 353, 350, 350, 351, 351, 350, 350, 354, 350, 350, 351, 350, 351, 351, 349, 350, 349, 350, 350, 351, 352, 352, 348, 349, 351, 351, 350, 350, 352, 352, 351, 351, 357, 355, 350, 350, 352, 352, 350, 350, 352, 351, 351, 352, 353, 351, 350, 350, 350, 351, 351, 349, 353, 349, 349, 350, 354, 350, 355, 351, 348, 351, 349, 350, 351, 349, 352, 351, 353, 350, 353, 348, 351, 352, 350, 353, 352, 354, 351, 354, 352, 352, 355, 349, 357, 349, 350, 349, 350, 351, 355, 351],
      "WindowCenter": [293.0, 293.0, 293.0, 293.0, 293.0, 293.0, 293.0, 293.0, 293.0, 293.0, 293.0, 293.0, 293.0, 293.0, 293.0, 293.0, 293.0, 293.0, 293.0, 293.0, 293.0, 293.0, 292.0, 293.0, 293.0, 293.0, 293.0, 293.0, 293.0, 293.0, 293.0, 293.0, 293.0, 293.0, 293.0, 293.0, 293.0, 293.0, 293.0, 293.0, 293.0, 293.0, 293.0, 292.0, 293.0, 293.0, 293.0, 293.0, 293.0, 293.0, 293.0, 293.0, 293.0, 293.0, 292.0, 293.0, 293.0, 293.0, 293.0, 293.0, 293.0, 293.0, 293.0, 293.0, 293.0, 292.0, 293.0, 293.0, 293.0, 293.0, 293.0, 292.0, 293.0, 292.0, 292.0, 292.0, 293.0, 293.0, 293.0, 293.0, 292.0, 293.0, 292.0, 293.0, 293.0, 293.0, 293.0, 292.0, 292.0, 292.0, 292.0, 293.0, 292.0, 292.0, 292.0, 293.0, 293.0, 293.0, 293.0, 292.0, 292.0, 291.0, 292.0, 292.0, 292.0, 292.0, 292.0, 292.0, 292.0, 292.0, 292.0, 292.0, 293.0, 292.0, 292.0, 292.0, 292.0, 292.0, 292.0, 292.0, 293.0, 292.0, 292.0, 292.0, 291.0, 292.0, 292.0, 292.0, 292.0, 292.0, 291.0, 291.0, 292.0, 292.0, 292.0, 292.0, 292.0, 292.0, 292.0, 292.0, 292.0, 292.0, 292.0, 292.0, 292.0, 292.0, 292.0, 292.0, 292.0, 292.0, 292.0, 292.0, 292.0, 292.0, 292.0, 292.0, 292.0, 292.0, 292.0, 292.0, 292.0, 291.0, 291.0, 292.0, 292.0, 292.0, 292.0, 292.0, 291.0, 292.0, 292.0, 292.0, 292.0, 291.0, 292.0, 292.0, 292.0, 292.0, 292.0, 291.0, 292.0, 292.0, 292.0, 292.0, 292.0, 292.0, 292.0, 292.0, 292.0, 292.0, 292.0, 291.0, 292.0, 291.0, 292.0, 291.0, 292.0, 292.0, 292.0, 292.0],
      "WindowWidth": [637.0, 637.0, 637.0, 637.0, 637.0, 637.0, 636.0, 636.0, 637.0, 637.0, 636.0, 636.0, 636.0, 637.0, 636.0, 637.0, 636.0, 636.0, 636.0, 637.0, 636.0, 636.0, 635.0, 637.0, 637.0, 637.0, 636.0, 637.0, 636.0, 637.0, 637.0, 636.0, 637.0, 636.0, 636.0, 637.0, 636.0, 636.0, 636.0, 636.0, 637.0, 636.0, 636.0, 635.0, 637.0, 636.0, 636.0, 636.0, 636.0, 637.0, 636.0, 636.0, 637.0, 637.0, 636.0, 636.0, 636.0, 636.0, 636.0, 636.0, 636.0, 636.0, 636.0, 636.0, 636.0, 635.0, 636.0, 637.0, 636.0, 636.0, 636.0, 635.0, 636.0, 636.0, 635.0, 636.0, 636.0, 636.0, 636.0, 636.0, 635.0, 636.0, 635.0, 636.0, 636.0, 636.0, 636.0, 635.0, 635.0, 635.0, 635.0, 636.0, 635.0, 635.0, 635.0, 636.0, 636.0, 636.0, 636.0, 635.0, 635.0, 634.0, 635.0, 635.0, 635.0, 635.0, 635.0, 635.0, 635.0, 635.0, 635.0, 635.0, 636.0, 635.0, 635.0, 635.0, 635.0, 635.0, 635.0, 635.0, 636.0, 635.0, 634.0, 635.0, 634.0, 635.0, 635.0, 635.0, 635.0, 635.0, 634.0, 634.0, 635.0, 635.0, 635.0, 635.0, 635.0, 635.0, 635.0, 635.0, 635.0, 635.0, 635.0, 635.0, 635.0, 635.0, 635.0, 635.0, 635.0, 635.0, 635.0, 635.0, 635.0, 635.0, 635.0, 635.0, 635.0, 635.0, 635.0, 634.0, 635.0, 634.0, 634.0, 635.0, 635.0, 635.0, 635.0, 635.0, 634.0, 635.0, 634.0, 635.0, 635.0, 634.0, 635.0, 635.0, 635.0, 635.0, 635.0, 634.0, 635.0, 635.0, 635.0, 635.0, 635.0, 635.0, 635.0, 635.0, 635.0, 635.0, 635.0, 634.0, 635.0, 634.0, 635.0, 634.0, 635.0, 635.0, 635.0, 635.0]
    },
    "slices": {}
  }
}