{
  "AcquisitionMatrixPE": 80,
  "AcquisitionNumber": 1,
  "AcquisitionTime": "08:55:40.085000",
  "BandwidthPerPixelPhaseEncode": 46.296,
  "BaseResolution": 80,
  "BodyPartExamined": "BRAIN",
  "CoilCombinationMethod": "Sum of Squares",
  "ConsistencyInfo": "N4_VE11E_LATEST_20181129",
  "ConversionSoftware": "dcm2niix",
  "ConversionSoftwareVersion": "v1.0.20220720",
  "DerivedVendorReportedEchoSpacing": 0.000540003,
  "DeviceSerialNumber": "66112",
  "DwellTime": 2.7e-06,
  "EchoTime": 0.035,
  "EchoTrainLength": 39,
  "EffectiveEchoSpacing": 0.000270002,
  "FlipAngle": 90,
  "HeudiconvVersion": "0.13.1",
  "ImageOrientationPatientDICOM": [0.98284, 0.184291, 0.00784866, -0.177904, 0.935817, 0.304298],
  "ImageOrientationText": "Tra>Cor(17.5)>Sag(-2.8)",
  "ImageType": [
    "ORIGINAL",
    "PRIMARY",
    "M",
    "ND",
    "NORM",
    "MOSAIC"
],
  "ImagingFrequency": 123.259,
  "InPlanePhaseEncodingDirectionDICOM": "COL",
  "InstitutionAddress": "Maynard 3,Hanover,NH,US,03755",
  "InstitutionName": "Dartmouth College - PBS",
  "InstitutionalDepartmentName": "Department",
  "MRAcquisitionType": "2D",
  "MagneticFieldStrength": 3,
  "Manufacturer": "Siemens",
  "ManufacturersModelName": "Prisma",
  "Modality": "MR",
  "MultibandAccelerationFactor": 4,
  "NonlinearGradientCorrection": false,
  "ParallelReductionFactorInPlane": 2,
  "PartialFourier": 1,
  "PatientPosition": "HFS",
  "PercentPhaseFOV": 100,
  "PercentSampling": 100,
  "PhaseEncodingDirection": "j-",
  "PhaseEncodingSteps": 79,
  "PhaseResolution": 1,
  "PixelBandwidth": 2315,
  "ProcedureStepDescription": "dbic^QA",
  "ProtocolName": "func-bold_task-rest_acq-p2-s4-3.5mm",
  "PulseSequenceDetails": "%SiemensSeq%\\ep2d_bold",
  "ReceiveCoilActiveElements": "HEA;HEP",
  "ReceiveCoilName": "Head_32",
  "ReconMatrixPE": 80,
  "RefLinesPE": 24,
  "RepetitionTime": 2,
  "SAR": 0.0306222,
  "ScanOptions": "FS",
  "ScanningSequence": "EP",
  "SequenceName": "*epfid2d1_80",
  "SequenceVariant": "SK",
  "SeriesDescription": "func-bold_task-rest_acq-p2-s4-3.5mm",
  "SeriesNumber": 6,
  "ShimSetting": [4219, -7752, -7480, -9, -127, -50, 39, 64],
  "SliceThickness": 3.5,
  "SliceTiming": [1.485, 0, 0.99, 0.2475, 1.2375, 0.7425, 1.7325, 0.495, 1.485, 0, 0.99, 0.2475, 1.2375, 0.7425, 1.7325, 0.495, 1.485, 0, 0.99, 0.2475, 1.2375, 0.7425, 1.7325, 0.495, 1.485, 0, 0.99, 0.2475, 1.2375, 0.7425, 1.7325, 0.495],
  "SoftwareVersions": "syngo MR E11",
  "SpacingBetweenSlices": 3.99,
  "StationName": "AWP66112",
  "TaskName": "rest",
  "TotalReadoutTime": 0.0213301,
  "TxRefAmp": 222.974,
  "dcmmeta_affine": [
    [-2.948521137237549, -0.5337110161781311, -0.19445045292377472, 143.7130584716797],
    [-0.552872896194458, 2.807450294494629, 1.1988856792449951, -99.83782958984375],
    [0.02354598604142666, -0.9128937721252441, 3.8006527423858643, -19.35751724243164],
    [0.0, 0.0, 0.0, 1.0]
],
  "dcmmeta_reorient_transform": [
    [0.0, -1.0, 0.0, 79.0],
    [1.0, 0.0, 0.0, 0.0],
    [0.0, 0.0, 1.0, 0.0],
    [0.0, 0.0, 0.0, 1.0]
],
  "dcmmeta_shape": [80, 80, 32, 200],
  "dcmmeta_slice_dim": 2,
  "dcmmeta_version": 0.6,
  "global": {
    "const": {
      "AccessionNumber": "qa",
      "AcquisitionMatrix": [80, 0, 0, 80],
      "AngioFlag": "N",
      "BitsAllocated": 16,
      "BitsStored": 12,
      "BodyPartExamined": "BRAIN",
      "Columns": 480,
      "EchoNumbers": 1,
      "EchoTime": 35.0,
      "EchoTrainLength": 39,
      "FlipAngle": 90.0,
      "HighBit": 11,
      "ImageOrientationPatient": [0.98284039327318, 0.18429096520009, 0.00784866206673, -0.1779036669829, 0.93581678402665, 0.30429793296713],
      "ImagePositionPatient": [-584.51193098903, -794.01540121297, -278.7640840384],
      "ImageType": [
        "ORIGINAL",
        "PRIMARY",
        "M",
        "ND",
        "NORM",
        "MOSAIC"
],
      "ImagedNucleus": "1H",
      "ImagingFrequency": 123.259379,
      "InPlanePhaseEncodingDirection": "COL",
      "MRAcquisitionType": "2D",
      "MagneticFieldStrength": 3.0,
      "Manufacturer": "SIEMENS",
      "ManufacturerModelName": "Prisma",
      "Modality": "MR",
      "NumberOfAverages": 1.0,
      "NumberOfPhaseEncodingSteps": 79,
      "PercentPhaseFieldOfView": 100.0,
      "PercentSampling": 100.0,
      "PerformedProcedureStepStartTime": "083825.069000",
      "PhotometricInterpretation": "MONOCHROME2",
      "PixelBandwidth": 2315.0,
      "PixelRepresentation": 0,
      "PixelSpacing": [3.0, 3.0],
      "ProtocolName": "func-bold_task-rest_acq-p2-s4-3.5mm",
      "RepetitionTime": 2000.0,
      "Rows": 480,
      "SAR": 0.0306222276163,
      "SamplesPerPixel": 1,
      "ScanOptions": "FS",
      "ScanningSequence": "EP",
      "SequenceName": "*epfid2d1_80",
      "SequenceVariant": "SK",
      "SeriesDescription": "func-bold_task-rest_acq-p2-s4-3.5mm",
      "SeriesNumber": 6,
      "SeriesTime": "085624.619000",
      "SliceLocation": -55.441206646095,
      "SliceThickness": 3.5,
      "SmallestImagePixelValue": 0,
      "SoftwareVersions": "syngo MR E11",
      "SpacingBetweenSlices": 3.9899999245654,
      "SpecificCharacterSet": "ISO_IR 100",
      "StudyID": "30",
      "StudyTime": "083824.988000",
      "TransmitCoilName": "Body",
      "VariableFlipAngleFlag": "N",
      "WindowCenterWidthExplanation": "Algo1"
    },
    "slices": {}
  },
  "time": {
    "samples": {
      "AcquisitionNumber": [1, 2, 3, 4, 5, 6, 7, 8, 9, 10, 11, 12, 13, 14, 15, 16, 17, 18, 19, 20, 21, 22, 23, 24, 25, 26, 27, 28, 29, 30, 31, 32, 33, 34, 35, 36, 37, 38, 39, 40, 41, 42, 43, 44, 45, 46, 47, 48, 49, 50, 51, 52, 53, 54, 55, 56, 57, 58, 59, 60, 61, 62, 63, 64, 65, 66, 67, 68, 69, 70, 71, 72, 73, 74, 75, 76, 77, 78, 79, 80, 81, 82, 83, 84, 85, 86, 87, 88, 89, 90, 91, 92, 93, 94, 95, 96, 97, 98, 99, 100, 101, 102, 103, 104, 105, 106, 107, 108, 109, 110, 111, 112, 113, 114, 115, 116, 117, 118, 119, 120, 121, 122, 123, 124, 125, 126, 127, 128, 129, 130, 131, 132, 133, 134, 135, 136, 137, 138, 139, 140, 141, 142, 143, 144, 145, 146, 147, 148, 149, 150, 151, 152, 153, 154, 155, 156, 157, 158, 159, 160, 161, 162, 163, 164, 165, 166, 167, 168, 169, 170, 171, 172, 173, 174, 175, 176, 177, 178, 179, 180, 181, 182, 183, 184, 185, 186, 187, 188, 189, 190, 191, 192, 193, 194, 195, 196, 197, 198, 199, 200],
      "AcquisitionTime": ["085540.085000", "085542.085000", "085544.085000", "085546.085000", "085548.085000", "085550.085000", "085552.085000", "085554.085000", "085556.085000", "085558.085000", "085600.085000", "085602.085000", "085604.085000", "085606.085000", "085608.085000", "085610.085000", "085612.085000", "085614.085000", "085616.085000", "085618.085000", "085620.085000", "085622.085000", "085624.085000", "085626.085000", "085628.085000", "085630.085000", "085632.085000", "085634.085000", "085636.085000", "085638.085000", "085640.085000", "085642.085000", "085644.085000", "085646.085000", "085648.085000", "085650.085000", "085652.085000", "085654.085000", "085656.085000", "085658.085000", "085700.085000", "085702.085000", "085704.085000", "085706.085000", "085708.085000", "085710.085000", "085712.085000", "085714.085000", "085716.085000", "085718.085000", "085720.085000", "085722.085000", "085724.085000", "085726.085000", "085728.085000", "085730.085000", "085732.085000", "085734.085000", "085736.085000", "085738.085000", "085740.085000", "085742.085000", "085744.085000", "085746.085000", "085748.085000", "085750.085000", "085752.085000", "085754.085000", "085756.085000", "085758.085000", "085800.085000", "085802.085000", "085804.085000", "085806.085000", "085808.085000", "085810.085000", "085812.085000", "085814.085000", "085816.085000", "085818.085000", "085820.085000", "085822.085000", "085824.085000", "085826.085000", "085828.085000", "085830.085000", "085832.085000", "085834.085000", "085836.085000", "085838.085000", "085840.085000", "085842.085000", "085844.085000", "085846.085000", "085848.085000", "085850.085000", "085852.085000", "085854.085000", "085856.085000", "085858.085000", "085900.085000", "085902.085000", "085904.085000", "085906.085000", "085908.085000", "085910.085000", "085912.085000", "085914.085000", "085916.085000", "085918.085000", "085920.085000", "085922.085000", "085924.085000", "085926.085000", "085928.085000", "085930.085000", "085932.085000", "085934.085000", "085936.085000", "085938.085000", "085940.085000", "085942.085000", "085944.085000", "085946.085000", "085948.085000", "085950.085000", "085952.085000", "085954.085000", "085956.085000", "085958.085000", "090000.085000", "090002.085000", "090004.085000", "090006.085000", "090008.085000", "090010.085000", "090012.085000", "090014.085000", "090016.085000", "090018.085000", "090020.085000", "090022.085000", "090024.085000", "090026.085000", "090028.085000", "090030.085000", "090032.085000", "090034.085000", "090036.085000", "090038.085000", "090040.085000", "090042.085000", "090044.085000", "090046.085000", "090048.085000", "090050.085000", "090052.085000", "090054.085000", "090056.085000", "090058.085000", "090100.085000", "090102.085000", "090104.085000", "090106.085000", "090108.085000", "090110.085000", "090112.085000", "090114.085000", "090116.085000", "090118.085000", "090120.085000", "090122.085000", "090124.085000", "090126.085000", "090128.085000", "090130.085000", "090132.085000", "090134.085000", "090136.085000", "090138.085000", "090140.085000", "090142.085000", "090144.085000", "090146.085000", "090148.085000", "090150.085000", "090152.085000", "090154.085000", "090156.085000", "090158.085000", "090200.085000", "090202.085000", "090204.085000", "090206.085000", "090208.085000", "090210.085000", "090212.085000", "090214.085000", "090216.085000", "090218.085000"],
      "ContentTime": ["085624.622000", "085624.625000", "085624.636000", "085624.638000", "085624.641000", "085624.643000", "085624.645000", "085624.647000", "085624.650000", "085624.652000", "085624.654000", "085624.657000", "085624.664000", "085624.670000", "085624.672000", "085624.675000", "085624.683000", "085624.686000", "085624.688000", "085624.690000", "085624.693000", "085624.710000", "085704.617000", "085704.620000", "085704.622000", "085704.624000", "085704.627000", "085704.629000", "085704.631000", "085704.634000", "085704.636000", "085704.638000", "085704.641000", "085704.643000", "085704.645000", "085704.647000", "085704.650000", "085704.652000", "085704.655000", "085704.657000", "085704.659000", "085704.661000", "085744.617000", "085744.620000", "085744.622000", "085744.625000", "085744.627000", "085744.629000", "085744.632000", "085744.634000", "085744.636000", "085744.639000", "085744.641000", "085744.643000", "085744.646000", "085744.648000", "085744.650000", "085744.653000", "085744.655000", "085744.657000", "085744.660000", "085744.662000", "085824.617000", "085824.620000", "085824.622000", "085824.625000", "085824.627000", "085824.629000", "085824.632000", "085824.634000", "085824.636000", "085824.639000", "085824.641000", "085824.643000", "085824.646000", "085824.648000", "085824.650000", "085824.652000", "085824.655000", "085824.657000", "085824.659000", "085824.662000", "085904.617000", "085904.620000", "085904.622000", "085904.625000", "085904.627000", "085904.629000", "085904.632000", "085904.634000", "085904.636000", "085904.639000", "085904.641000", "085904.643000", "085904.645000", "085904.648000", "085904.650000", "085904.652000", "085904.655000", "085904.657000", "085904.659000", "085904.662000", "085944.617000", "085944.620000", "085944.622000", "085944.624000", "085944.627000", "085944.629000", "085944.632000", "085944.634000", "085944.636000", "085944.638000", "085944.641000", "085944.643000", "085944.645000", "085944.648000", "085944.650000", "085944.652000", "085944.655000", "085944.657000", "085944.659000", "085944.661000", "090024.617000", "090024.620000", "090024.622000", "090024.624000", "090024.627000", "090024.629000", "090024.632000", "090024.640000", "090024.643000", "090024.645000", "090024.647000", "090024.650000", "090024.652000", "090024.654000", "090024.657000", "090024.659000", "090024.661000", "090024.664000", "090024.666000", "090024.668000", "090104.617000", "090104.620000", "090104.622000", "090104.625000", "090104.627000", "090104.629000", "090104.632000", "090104.634000", "090104.636000", "090104.638000", "090104.641000", "090104.643000", "090104.645000", "090104.648000", "090104.650000", "090104.652000", "090104.655000", "090104.657000", "090104.659000", "090104.662000", "090144.617000", "090144.620000", "090144.622000", "090144.624000", "090144.627000", "090144.629000", "090144.631000", "090144.633000", "090144.636000", "090144.638000", "090144.641000", "090144.643000", "090144.645000", "090144.648000", "090144.650000", "090144.652000", "090144.655000", "090144.657000", "090144.659000", "090144.662000", "090219.312000", "090219.315000", "090219.317000", "090219.319000", "090219.321000", "090219.324000", "090219.326000", "090219.328000", "090219.331000", "090219.333000", "090219.335000", "090219.338000", "090219.340000", "090219.343000", "090219.345000", "090219.348000", "090219.350000", "090219.353000"],
      "InstanceCreationTime": ["085624.622000", "085624.625000", "085624.636000", "085624.638000", "085624.641000", "085624.643000", "085624.645000", "085624.647000", "085624.650000", "085624.652000", "085624.654000", "085624.657000", "085624.664000", "085624.670000", "085624.672000", "085624.675000", "085624.683000", "085624.686000", "085624.688000", "085624.690000", "085624.693000", "085624.710000", "085704.617000", "085704.620000", "085704.622000", "085704.624000", "085704.627000", "085704.629000", "085704.631000", "085704.634000", "085704.636000", "085704.638000", "085704.641000", "085704.643000", "085704.645000", "085704.647000", "085704.650000", "085704.652000", "085704.655000", "085704.657000", "085704.659000", "085704.661000", "085744.617000", "085744.620000", "085744.622000", "085744.625000", "085744.627000", "085744.629000", "085744.632000", "085744.634000", "085744.636000", "085744.639000", "085744.641000", "085744.643000", "085744.646000", "085744.648000", "085744.650000", "085744.653000", "085744.655000", "085744.657000", "085744.660000", "085744.662000", "085824.617000", "085824.620000", "085824.622000", "085824.625000", "085824.627000", "085824.629000", "085824.632000", "085824.634000", "085824.636000", "085824.639000", "085824.641000", "085824.643000", "085824.646000", "085824.648000", "085824.650000", "085824.652000", "085824.655000", "085824.657000", "085824.659000", "085824.662000", "085904.617000", "085904.620000", "085904.622000", "085904.625000", "085904.627000", "085904.629000", "085904.632000", "085904.634000", "085904.636000", "085904.639000", "085904.641000", "085904.643000", "085904.645000", "085904.648000", "085904.650000", "085904.652000", "085904.655000", "085904.657000", "085904.659000", "085904.662000", "085944.617000", "085944.620000", "085944.622000", "085944.624000", "085944.627000", "085944.629000", "085944.632000", "085944.634000", "085944.636000", "085944.638000", "085944.641000", "085944.643000", "085944.645000", "085944.648000", "085944.650000", "085944.652000", "085944.655000", "085944.657000", "085944.659000", "085944.661000", "090024.617000", "090024.620000", "090024.622000", "090024.624000", "090024.627000", "090024.629000", "090024.632000", "090024.640000", "090024.643000", "090024.645000", "090024.647000", "090024.650000", "090024.652000", "090024.654000", "090024.657000", "090024.659000", "090024.661000", "090024.664000", "090024.666000", "090024.668000", "090104.617000", "090104.620000", "090104.622000", "090104.625000", "090104.627000", "090104.629000", "090104.632000", "090104.634000", "090104.636000", "090104.638000", "090104.641000", "090104.643000", "090104.645000", "090104.648000", "090104.650000", "090104.652000", "090104.655000", "090104.657000", "090104.659000", "090104.662000", "090144.617000", "090144.620000", "090144.622000", "090144.624000", "090144.627000", "090144.629000", "090144.631000", "090144.633000", "090144.636000", "090144.638000", "090144.641000", "090144.643000", "090144.645000", "090144.648000", "090144.650000", "090144.652000", "090144.655000", "090144.657000", "090144.659000", "090144.662000", "090219.312000", "090219.315000", "090219.317000", "090219.319000", "090219.321000", "090219.324000", "090219.326000", "090219.328000", "090219.331000", "090219.333000", "090219.335000", "090219.338000", "090219.340000", "090219.343000", "090219.345000", "090219.348000", "090219.350000", "090219.353000"],
      "InstanceNumber": [1, 2, 3, 4, 5, 6, 7, 8, 9, 10, 11, 12, 13, 14, 15, 16, 17, 18, 19, 20, 21, 22, 23, 24, 25, 26, 27, 28, 29, 30, 31, 32, 33, 34, 35, 36, 37, 38, 39, 40, 41, 42, 43, 44, 45, 46, 47, 48, 49, 50, 51, 52, 53, 54, 55, 56, 57, 58, 59, 60, 61, 62, 63, 64, 65, 66, 67, 68, 69, 70, 71, 72, 73, 74, 75, 76, 77, 78, 79, 80, 81, 82, 83, 84, 85, 86, 87, 88, 89, 90, 91, 92, 93, 94, 95, 96, 97, 98, 99, 100, 101, 102, 103, 104, 105, 106, 107, 108, 109, 110, 111, 112, 113, 114, 115, 116, 117, 118, 119, 120, 121, 122, 123, 124, 125, 126, 127, 128, 129, 130, 131, 132, 133, 134, 135, 136, 137, 138, 139, 140, 141, 142, 143, 144, 145, 146, 147, 148, 149, 150, 151, 152, 153, 154, 155, 156, 157, 158, 159, 160, 161, 162, 163, 164, 165, 166, 167, 168, 169, 170, 171, 172, 173, 174, 175, 176, 177, 178, 179, 180, 181, 182, 183, 184, 185, 186, 187, 188, 189, 190, 191, 192, 193, 194, 195, 196, 197, 198, 199, 200],
      "LargestImagePixelValue": [2150, 2151, 2148, 2148, 2150, 2151, 2152, 2151, 2151, 2152, 2146, 2152, 2147, 2151, 2149, 2150, 2149, 2151, 2152, 2150, 2149, 2151, 2149, 2150, 2150, 2149, 2151, 2151, 2152, 2156, 2151, 2150, 2151, 2151, 2148, 2148, 2152, 2151, 2154, 2151, 2150, 2151, 2150, 2148, 2150, 2149, 2149, 2150, 2149, 2152, 2151, 2153, 2151, 2153, 2151, 2152, 2150, 2151, 2151, 2151, 2152, 2151, 2152, 2152, 2150, 2149, 2153, 2148, 2148, 2154, 2152, 2151, 2151, 2151, 2150, 2151, 2149, 2151, 2150, 2150, 2147, 2147, 2155, 2149, 2150, 2150, 2152, 2152, 2151, 2152, 2149, 2149, 2149, 2151, 2152, 2154, 2150, 2149, 2149, 2152, 2147, 2149, 2150, 2151, 2153, 2151, 2150, 2151, 2152, 2150, 2149, 2150, 2148, 2153, 2148, 2152, 2147, 2150, 2149, 2149, 2152, 2148, 2150, 2147, 2149, 2148, 2150, 2151, 2152, 2150, 2150, 2151, 2152, 2150, 2152, 2153, 2153, 2150, 2151, 2150, 2149, 2149, 2150, 2154, 2152, 2150, 2151, 2151, 2148, 2150, 2151, 2148, 2152, 2149, 2148, 2151, 2149, 2154, 2150, 2151, 2148, 2148, 2152, 2152, 2151, 2151, 2150, 2146, 2148, 2149, 2149, 2150, 2149, 2149, 2149, 2149, 2148, 2155, 2148, 2153, 2151, 2152, 2151, 2150, 2154, 2153, 2152, 2149, 2150, 2148, 2150, 2150, 2154, 2153, 2152, 2148, 2153, 2153, 2150, 2153],
      "WindowCenter": [955.0, 956.0, 956.0, 955.0, 955.0, 955.0, 955.0, 955.0, 955.0, 955.0, 957.0, 957.0, 955.0, 956.0, 955.0, 955.0, 956.0, 956.0, 955.0, 955.0, 956.0, 955.0, 956.0, 956.0, 955.0, 957.0, 956.0, 955.0, 956.0, 955.0, 955.0, 955.0, 955.0, 956.0, 956.0, 956.0, 956.0, 956.0, 955.0, 956.0, 955.0, 957.0, 956.0, 955.0, 955.0, 956.0, 956.0, 955.0, 956.0, 955.0, 956.0, 956.0, 956.0, 955.0, 956.0, 956.0, 955.0, 956.0, 956.0, 956.0, 955.0, 955.0, 956.0, 956.0, 956.0, 956.0, 957.0, 955.0, 955.0, 956.0, 956.0, 955.0, 955.0, 956.0, 955.0, 956.0, 955.0, 956.0, 956.0, 957.0, 957.0, 956.0, 957.0, 955.0, 956.0, 956.0, 955.0, 956.0, 956.0, 956.0, 955.0, 955.0, 955.0, 956.0, 956.0, 956.0, 956.0, 956.0, 956.0, 957.0, 955.0, 957.0, 956.0, 955.0, 956.0, 955.0, 956.0, 955.0, 956.0, 956.0, 956.0, 956.0, 956.0, 957.0, 956.0, 957.0, 956.0, 956.0, 957.0, 955.0, 956.0, 955.0, 956.0, 957.0, 955.0, 956.0, 955.0, 955.0, 955.0, 955.0, 956.0, 956.0, 956.0, 955.0, 956.0, 957.0, 956.0, 956.0, 955.0, 956.0, 956.0, 956.0, 956.0, 955.0, 955.0, 956.0, 956.0, 956.0, 955.0, 957.0, 957.0, 956.0, 956.0, 956.0, 957.0, 957.0, 956.0, 955.0, 956.0, 956.0, 955.0, 956.0, 956.0, 956.0, 957.0, 957.0, 956.0, 956.0, 956.0, 956.0, 955.0, 956.0, 956.0, 956.0, 956.0, 955.0, 956.0, 956.0, 956.0, 955.0, 956.0, 956.0, 956.0, 955.0, 956.0, 956.0, 957.0, 956.0, 956.0, 954.0, 956.0, 956.0, 956.0, 957.0, 956.0, 956.0, 954.0, 956.0, 956.0, 956.0],
      "WindowWidth": [2230.0, 2231.0, 2230.0, 2230.0, 2229.0, 2229.0, 2229.0, 2229.0, 2230.0, 2229.0, 2232.0, 2232.0, 2229.0, 2231.0, 2229.0, 2229.0, 2231.0, 2231.0, 2230.0, 2230.0, 2231.0, 2230.0, 2230.0, 2230.0, 2229.0, 2232.0, 2230.0, 2230.0, 2230.0, 2229.0, 2230.0, 2231.0, 2229.0, 2230.0, 2230.0, 2230.0, 2230.0, 2230.0, 2230.0, 2231.0, 2231.0, 2232.0, 2231.0, 2230.0, 2231.0, 2231.0, 2230.0, 2230.0, 2231.0, 2230.0, 2231.0, 2232.0, 2231.0, 2229.0, 2231.0, 2231.0, 2231.0, 2231.0, 2231.0, 2231.0, 2230.0, 2230.0, 2232.0, 2230.0, 2230.0, 2230.0, 2232.0, 2229.0, 2230.0, 2230.0, 2231.0, 2230.0, 2230.0, 2231.0, 2229.0, 2231.0, 2229.0, 2231.0, 2230.0, 2232.0, 2231.0, 2231.0, 2232.0, 2231.0, 2231.0, 2230.0, 2230.0, 2230.0, 2232.0, 2232.0, 2229.0, 2230.0, 2230.0, 2231.0, 2231.0, 2231.0, 2230.0, 2231.0, 2230.0, 2232.0, 2229.0, 2231.0, 2231.0, 2229.0, 2231.0, 2229.0, 2230.0, 2230.0, 2231.0, 2231.0, 2230.0, 2230.0, 2230.0, 2232.0, 2231.0, 2232.0, 2230.0, 2231.0, 2231.0, 2229.0, 2231.0, 2229.0, 2232.0, 2232.0, 2230.0, 2230.0, 2230.0, 2230.0, 2230.0, 2229.0, 2231.0, 2232.0, 2232.0, 2230.0, 2230.0, 2232.0, 2230.0, 2231.0, 2230.0, 2230.0, 2231.0, 2231.0, 2230.0, 2230.0, 2230.0, 2230.0, 2231.0, 2230.0, 2229.0, 2231.0, 2232.0, 2231.0, 2230.0, 2230.0, 2232.0, 2232.0, 2231.0, 2230.0, 2231.0, 2231.0, 2229.0, 2230.0, 2231.0, 2231.0, 2232.0, 2232.0, 2232.0, 2230.0, 2232.0, 2230.0, 2230.0, 2230.0, 2232.0, 2231.0, 2231.0, 2229.0, 2231.0, 2231.0, 2230.0, 2230.0, 2230.0, 2231.0, 2230.0, 2230.0, 2231.0, 2231.0, 2231.0, 2231.0, 2230.0, 2229.0, 2231.0, 2231.0, 2230.0, 2231.0, 2231.0, 2230.0, 2229.0, 2232.0, 2232.0, 2230.0]
    },
    "slices": {}
  }
}