{
  "AcquisitionMatrixPE": 122,
  "AcquisitionNumber": 1,
  "AcquisitionTime": "10:08:16.502500",
  "BandwidthPerPixelPhaseEncode": 27.785,
  "BaseResolution": 122,
  "BodyPartExamined": "BRAIN",
  "CoilCombinationMethod": "Adaptive Combine",
  "ConsistencyInfo": "N4_VE11C_LATEST_20160120",
  "ConversionSoftware": "dcm2niix",
  "ConversionSoftwareVersion": "v1.0.20220720",
  "DerivedVendorReportedEchoSpacing": 0.000590011,
  "DeviceSerialNumber": "66112",
  "DiffusionScheme": "Monopolar",
  "DwellTime": 2e-06,
  "EchoTime": 0.068,
  "EchoTrainLength": 61,
  "EffectiveEchoSpacing": 0.000295005,
  "FlipAngle": 90,
  "HeudiconvVersion": "0.13.1",
  "ImageOrientationPatientDICOM": [0.98215, -0.187892, -0.0088227, 0.179727, 0.923563, 0.338718],
  "ImageOrientationText": "Tra>Cor(19.6)>Sag(3.2)",
  "ImageType": [
    "ORIGINAL",
    "PRIMARY",
    "DIFFUSION",
    "NONE",
    "ND",
    "NORM"
],
  "ImagingFrequency": 123.252,
  "InPlanePhaseEncodingDirectionDICOM": "COL",
  "InstitutionAddress": "Maynard 3,Hanover,NH,US,03755",
  "InstitutionName": "Dartmouth College - PBS",
  "InstitutionalDepartmentName": "Department",
  "MRAcquisitionType": "2D",
  "MagneticFieldStrength": 3,
  "Manufacturer": "Siemens",
  "ManufacturersModelName": "Prisma",
  "Modality": "MR",
  "MultibandAccelerationFactor": 4,
  "NonlinearGradientCorrection": false,
  "ParallelReductionFactorInPlane": 2,
  "PartialFourier": 1,
  "PatientPosition": "HFS",
  "PercentPhaseFOV": 100,
  "PercentSampling": 100,
  "PhaseEncodingDirection": "j-",
  "PhaseEncodingSteps": 122,
  "PhaseResolution": 1,
  "PixelBandwidth": 2050,
  "ProcedureStepDescription": "dbic^QA",
  "ProtocolName": "dwi_acq-DTI-30-p2-s4",
  "PulseSequenceDetails": "%SiemensSeq%\\ep2d_diff",
  "ReceiveCoilActiveElements": "HEA;HEP",
  "ReceiveCoilName": "Head_32",
  "ReconMatrixPE": 122,
  "RefLinesPE": 38,
  "RepetitionTime": 3.6,
  "SAR": 0.162052,
  "ScanOptions": "FS",
  "ScanningSequence": "EP",
  "SequenceName": "*ep_b0",
  "SequenceVariant": "SK\\SP",
  "SeriesDescription": "dwi_acq-DTI-30-p2-s4",
  "SeriesNumber": 9,
  "ShimSetting": [4151, -7709, -7512, 274, -48, -235, 8, 91],
  "SliceThickness": 2,
  "SliceTiming": [2.58594, 0, 1.79688, 0.20312, 1.99219, 0.39844, 2.1875, 0.60156, 2.39062, 1, 2.78906, 1.19531, 2.98438, 1.39844, 3.1875, 1.59375, 3.38281, 0.79688, 2.58594, 0, 1.79688, 0.20312, 1.99219, 0.39844, 2.1875, 0.60156, 2.39062, 1, 2.78906, 1.19531, 2.98438, 1.39844, 3.1875, 1.59375, 3.38281, 0.79688, 2.58594, 0, 1.79688, 0.20312, 1.99219, 0.39844, 2.1875, 0.60156, 2.39062, 1, 2.78906, 1.19531, 2.98438, 1.39844, 3.1875, 1.59375, 3.38281, 0.79688, 2.58594, 0, 1.79688, 0.20312, 1.99219, 0.39844, 2.1875, 0.60156, 2.39062, 1, 2.78906, 1.19531, 2.98438, 1.39844, 3.1875, 1.59375, 3.38281, 0.79688],
  "SoftwareVersions": "syngo MR E11",
  "SpacingBetweenSlices": 2,
  "SpoilingState": true,
  "StationName": "AWP66112",
  "TotalReadoutTime": 0.0356956,
  "TxRefAmp": 229.6,
  "dcmmeta_affine": [
    [-1.9320985078811646, 0.3535608649253845, 0.11098837852478027, 92.77397155761719],
    [0.3696240186691284, 1.8168448209762573, 0.6685161590576172, -148.72532653808594],
    [-0.017356133088469505, -0.6663312315940857, 1.8816909790039062, -18.306440353393555],
    [0.0, 0.0, 0.0, 1.0]
],
  "dcmmeta_reorient_transform": [
    [0.0, -1.0, 0.0, 121.0],
    [1.0, 0.0, 0.0, 0.0],
    [0.0, 0.0, -1.0, 71.0],
    [0.0, 0.0, 0.0, 1.0]
],
  "dcmmeta_shape": [122, 122, 72, 31],
  "dcmmeta_slice_dim": 2,
  "dcmmeta_version": 0.6,
  "global": {
    "const": {
      "AccessionNumber": "qa",
      "AcquisitionMatrix": [122, 0, 0, 122],
      "AngioFlag": "N",
      "BitsAllocated": 16,
      "BitsStored": 12,
      "BodyPartExamined": "BRAIN",
      "Columns": 122,
      "EchoNumbers": 1,
      "EchoTime": 68.0,
      "EchoTrainLength": 61,
      "FlipAngle": 90.0,
      "HighBit": 11,
      "ImageOrientationPatient": [0.98215002795634, -0.1878922098818, -0.0088227008946, 0.17972677456503, 0.9235627484537, 0.33871837294884],
      "ImageType": [
        "ORIGINAL",
        "PRIMARY",
        "DIFFUSION",
        "NONE",
        "ND",
        "NORM"
],
      "ImagedNucleus": "1H",
      "ImagingFrequency": 123.252453,
      "InPlanePhaseEncodingDirection": "COL",
      "MRAcquisitionType": "2D",
      "MagneticFieldStrength": 3.0,
      "Manufacturer": "SIEMENS",
      "ManufacturerModelName": "Prisma",
      "Modality": "MR",
      "NumberOfAverages": 1.0,
      "NumberOfPhaseEncodingSteps": 122,
      "PercentPhaseFieldOfView": 100.0,
      "PercentSampling": 100.0,
      "PerformedProcedureStepStartTime": "094808.852000",
      "PhotometricInterpretation": "MONOCHROME2",
      "PixelBandwidth": 2050.0,
      "PixelRepresentation": 0,
      "PixelSpacing": [1.9672131538391, 1.9672131538391],
      "ProtocolName": "dwi_acq-DTI-30-p2-s4",
      "RepetitionTime": 3600.0,
      "Rows": 122,
      "SAR": 0.16205223293757,
      "SamplesPerPixel": 1,
      "ScanOptions": "FS",
      "ScanningSequence": "EP",
      "SequenceVariant": [
        "SK",
        "SP"
],
      "SeriesDescription": "dwi_acq-DTI-30-p2-s4",
      "SeriesNumber": 9,
      "SeriesTime": "100825.107000",
      "SliceThickness": 2.0,
      "SmallestImagePixelValue": 0,
      "SoftwareVersions": "syngo MR E11",
      "SpacingBetweenSlices": 2.0,
      "SpecificCharacterSet": "ISO_IR 100",
      "StudyID": "7",
      "StudyTime": "094808.715000",
      "TransmitCoilName": "Body",
      "VariableFlipAngleFlag": "N",
      "WindowCenterWidthExplanation": "Algo1",
      "dBdt": 0.0},
    "slices": {
      "AcquisitionTime": ["100816.502500", "100813.917500", "100815.707500", "100814.117500", "100815.907500", "100814.315000", "100816.105000", "100814.515000", "100816.305000", "100814.912500", "100816.702500", "100815.110000", "100816.900000", "100815.310000", "100817.100000", "100815.510000", "100817.300000", "100814.712500", "100816.502500", "100813.917500", "100815.707500", "100814.117500", "100815.907500", "100814.315000", "100816.105000", "100814.515000", "100816.305000", "100814.912500", "100816.702500", "100815.110000", "100816.900000", "100815.310000", "100817.100000", "100815.510000", "100817.300000", "100814.712500", "100816.502500", "100813.917500", "100815.707500", "100814.117500", "100815.907500", "100814.315000", "100816.105000", "100814.515000", "100816.305000", "100814.912500", "100816.702500", "100815.110000", "100816.900000", "100815.310000", "100817.100000", "100815.510000", "100817.300000", "100814.712500", "100816.502500", "100813.917500", "100815.707500", "100814.117500", "100815.907500", "100814.315000", "100816.105000", "100814.515000", "100816.305000", "100814.912500", "100816.702500", "100815.110000", "100816.900000", "100815.310000", "100817.100000", "100815.510000", "100817.300000", "100814.712500", "100820.102500", "100817.517500", "100819.307500", "100817.717500", "100819.507500", "100817.915000", "100819.705000", "100818.115000", "100819.905000", "100818.512500", "100820.302500", "100818.710000", "100820.500000", "100818.910000", "100820.700000", "100819.110000", "100820.900000", "100818.312500", "100820.102500", "100817.517500", "100819.307500", "100817.717500", "100819.507500", "100817.915000", "100819.705000", "100818.115000", "100819.905000", "100818.512500", "100820.302500", "100818.710000", "100820.500000", "100818.910000", "100820.700000", "100819.110000", "100820.900000", "100818.312500", "100820.102500", "100817.517500", "100819.307500", "100817.717500", "100819.507500", "100817.915000", "100819.705000", "100818.115000", "100819.905000", "100818.512500", "100820.302500", "100818.710000", "100820.500000", "100818.910000", "100820.700000", "100819.110000", "100820.900000", "100818.312500", "100820.102500", "100817.517500", "100819.307500", "100817.717500", "100819.507500", "100817.915000", "100819.705000", "100818.115000", "100819.905000", "100818.512500", "100820.302500", "100818.710000", "100820.500000", "100818.910000", "100820.700000", "100819.110000", "100820.900000", "100818.312500", "100823.702500", "100821.117500", "100822.907500", "100821.317500", "100823.107500", "100821.515000", "100823.305000", "100821.715000", "100823.505000", "100822.112500", "100823.902500", "100822.310000", "100824.100000", "100822.510000", "100824.300000", "100822.710000", "100824.500000", "100821.912500", "100823.702500", "100821.117500", "100822.907500", "100821.317500", "100823.107500", "100821.515000", "100823.305000", "100821.715000", "100823.505000", "100822.112500", "100823.902500", "100822.310000", "100824.100000", "100822.510000", "100824.300000", "100822.710000", "100824.500000", "100821.912500", "100823.702500", "100821.117500", "100822.907500", "100821.317500", "100823.107500", "100821.515000", "100823.305000", "100821.715000", "100823.505000", "100822.112500", "100823.902500", "100822.310000", "100824.100000", "100822.510000", "100824.300000", "100822.710000", "100824.500000", "100821.912500", "100823.702500", "100821.117500", "100822.907500", "100821.317500", "100823.107500", "100821.515000", "100823.305000", "100821.715000", "100823.505000", "100822.112500", "100823.902500", "100822.310000", "100824.100000", "100822.510000", "100824.300000", "100822.710000", "100824.500000", "100821.912500", "100827.302500", "100824.717500", "100826.507500", "100824.917500", "100826.707500", "100825.115000", "100826.905000", "100825.315000", "100827.105000", "100825.712500", "100827.502500", "100825.910000", "100827.700000", "100826.110000", "100827.900000", "100826.310000", "100828.100000", "100825.512500", "100827.302500", "100824.717500", "100826.507500", "100824.917500", "100826.707500", "100825.115000", "100826.905000", "100825.315000", "100827.105000", "100825.712500", "100827.502500", "100825.910000", "100827.700000", "100826.110000", "100827.900000", "100826.310000", "100828.100000", "100825.512500", "100827.302500", "100824.717500", "100826.507500", "100824.917500", "100826.707500", "100825.115000", "100826.905000", "100825.315000", "100827.105000", "100825.712500", "100827.502500", "100825.910000", "100827.700000", "100826.110000", "100827.900000", "100826.310000", "100828.100000", "100825.512500", "100827.302500", "100824.717500", "100826.507500", "100824.917500", "100826.707500", "100825.115000", "100826.905000", "100825.315000", "100827.105000", "100825.712500", "100827.502500", "100825.910000", "100827.700000", "100826.110000", "100827.900000", "100826.310000", "100828.100000", "100825.512500", "100830.902500", "100828.317500", "100830.107500", "100828.517500", "100830.307500", "100828.715000", "100830.505000", "100828.915000", "100830.705000", "100829.312500", "100831.102500", "100829.510000", "100831.300000", "100829.710000", "100831.500000", "100829.910000", "100831.700000", "100829.112500", "100830.902500", "100828.317500", "100830.107500", "100828.517500", "100830.307500", "100828.715000", "100830.505000", "100828.915000", "100830.705000", "100829.312500", "100831.102500", "100829.510000", "100831.300000", "100829.710000", "100831.500000", "100829.910000", "100831.700000", "100829.112500", "100830.902500", "100828.317500", "100830.107500", "100828.517500", "100830.307500", "100828.715000", "100830.505000", "100828.915000", "100830.705000", "100829.312500", "100831.102500", "100829.510000", "100831.300000", "100829.710000", "100831.500000", "100829.910000", "100831.700000", "100829.112500", "100830.902500", "100828.317500", "100830.107500", "100828.517500", "100830.307500", "100828.715000", "100830.505000", "100828.915000", "100830.705000", "100829.312500", "100831.102500", "100829.510000", "100831.300000", "100829.710000", "100831.500000", "100829.910000", "100831.700000", "100829.112500", "100834.502500", "100831.917500", "100833.707500", "100832.117500", "100833.907500", "100832.315000", "100834.105000", "100832.515000", "100834.305000", "100832.912500", "100834.702500", "100833.110000", "100834.900000", "100833.310000", "100835.100000", "100833.510000", "100835.300000", "100832.712500", "100834.502500", "100831.917500", "100833.707500", "100832.117500", "100833.907500", "100832.315000", "100834.105000", "100832.515000", "100834.305000", "100832.912500", "100834.702500", "100833.110000", "100834.900000", "100833.310000", "100835.100000", "100833.510000", "100835.300000", "100832.712500", "100834.502500", "100831.917500", "100833.707500", "100832.117500", "100833.907500", "100832.315000", "100834.105000", "100832.515000", "100834.305000", "100832.912500", "100834.702500", "100833.110000", "100834.900000", "100833.310000", "100835.100000", "100833.510000", "100835.300000", "100832.712500", "100834.502500", "100831.917500", "100833.707500", "100832.117500", "100833.907500", "100832.315000", "100834.105000", "100832.515000", "100834.305000", "100832.912500", "100834.702500", "100833.110000", "100834.900000", "100833.310000", "100835.100000", "100833.510000", "100835.300000", "100832.712500", "100838.102500", "100835.517500", "100837.307500", "100835.717500", "100837.507500", "100835.915000", "100837.705000", "100836.115000", "100837.905000", "100836.512500", "100838.302500", "100836.710000", "100838.500000", "100836.910000", "100838.700000", "100837.110000", "100838.900000", "100836.312500", "100838.102500", "100835.517500", "100837.307500", "100835.717500", "100837.507500", "100835.915000", "100837.705000", "100836.115000", "100837.905000", "100836.512500", "100838.302500", "100836.710000", "100838.500000", "100836.910000", "100838.700000", "100837.110000", "100838.900000", "100836.312500", "100838.102500", "100835.517500", "100837.307500", "100835.717500", "100837.507500", "100835.915000", "100837.705000", "100836.115000", "100837.905000", "100836.512500", "100838.302500", "100836.710000", "100838.500000", "100836.910000", "100838.700000", "100837.110000", "100838.900000", "100836.312500", "100838.102500", "100835.517500", "100837.307500", "100835.717500", "100837.507500", "100835.915000", "100837.705000", "100836.115000", "100837.905000", "100836.512500", "100838.302500", "100836.710000", "100838.500000", "100836.910000", "100838.700000", "100837.110000", "100838.900000", "100836.312500", "100841.702500", "100839.117500", "100840.907500", "100839.317500", "100841.107500", "100839.515000", "100841.305000", "100839.715000", "100841.505000", "100840.112500", "100841.902500", "100840.310000", "100842.100000", "100840.510000", "100842.300000", "100840.710000", "100842.500000", "100839.912500", "100841.702500", "100839.117500", "100840.907500", "100839.317500", "100841.107500", "100839.515000", "100841.305000", "100839.715000", "100841.505000", "100840.112500", "100841.902500", "100840.310000", "100842.100000", "100840.510000", "100842.300000", "100840.710000", "100842.500000", "100839.912500", "100841.702500", "100839.117500", "100840.907500", "100839.317500", "100841.107500", "100839.515000", "100841.305000", "100839.715000", "100841.505000", "100840.112500", "100841.902500", "100840.310000", "100842.100000", "100840.510000", "100842.300000", "100840.710000", "100842.500000", "100839.912500", "100841.702500", "100839.117500", "100840.907500", "100839.317500", "100841.107500", "100839.515000", "100841.305000", "100839.715000", "100841.505000", "100840.112500", "100841.902500", "100840.310000", "100842.100000", "100840.510000", "100842.300000", "100840.710000", "100842.500000", "100839.912500", "100845.302500", "100842.717500", "100844.507500", "100842.917500", "100844.707500", "100843.115000", "100844.905000", "100843.315000", "100845.105000", "100843.712500", "100845.502500", "100843.910000", "100845.700000", "100844.110000", "100845.900000", "100844.310000", "100846.100000", "100843.512500", "100845.302500", "100842.717500", "100844.507500", "100842.917500", "100844.707500", "100843.115000", "100844.905000", "100843.315000", "100845.105000", "100843.712500", "100845.502500", "100843.910000", "100845.700000", "100844.110000", "100845.900000", "100844.310000", "100846.100000", "100843.512500", "100845.302500", "100842.717500", "100844.507500", "100842.917500", "100844.707500", "100843.115000", "100844.905000", "100843.315000", "100845.105000", "100843.712500", "100845.502500", "100843.910000", "100845.700000", "100844.110000", "100845.900000", "100844.310000", "100846.100000", "100843.512500", "100845.302500", "100842.717500", "100844.507500", "100842.917500", "100844.707500", "100843.115000", "100844.905000", "100843.315000", "100845.105000", "100843.712500", "100845.502500", "100843.910000", "100845.700000", "100844.110000", "100845.900000", "100844.310000", "100846.100000", "100843.512500", "100848.902500", "100846.317500", "100848.107500", "100846.517500", "100848.307500", "100846.715000", "100848.505000", "100846.915000", "100848.705000", "100847.312500", "100849.102500", "100847.510000", "100849.300000", "100847.710000", "100849.500000", "100847.910000", "100849.700000", "100847.112500", "100848.902500", "100846.317500", "100848.107500", "100846.517500", "100848.307500", "100846.715000", "100848.505000", "100846.915000", "100848.705000", "100847.312500", "100849.102500", "100847.510000", "100849.300000", "100847.710000", "100849.500000", "100847.910000", "100849.700000", "100847.112500", "100848.902500", "100846.317500", "100848.107500", "100846.517500", "100848.307500", "100846.715000", "100848.505000", "100846.915000", "100848.705000", "100847.312500", "100849.102500", "100847.510000", "100849.300000", "100847.710000", "100849.500000", "100847.910000", "100849.700000", "100847.112500", "100848.902500", "100846.317500", "100848.107500", "100846.517500", "100848.307500", "100846.715000", "100848.505000", "100846.915000", "100848.705000", "100847.312500", "100849.102500", "100847.510000", "100849.300000", "100847.710000", "100849.500000", "100847.910000", "100849.700000", "100847.112500", "100852.502500", "100849.917500", "100851.707500", "100850.117500", "100851.907500", "100850.315000", "100852.105000", "100850.515000", "100852.305000", "100850.912500", "100852.702500", "100851.110000", "100852.900000", "100851.310000", "100853.100000", "100851.510000", "100853.300000", "100850.712500", "100852.502500", "100849.917500", "100851.707500", "100850.117500", "100851.907500", "100850.315000", "100852.105000", "100850.515000", "100852.305000", "100850.912500", "100852.702500", "100851.110000", "100852.900000", "100851.310000", "100853.100000", "100851.510000", "100853.300000", "100850.712500", "100852.502500", "100849.917500", "100851.707500", "100850.117500", "100851.907500", "100850.315000", "100852.105000", "100850.515000", "100852.305000", "100850.912500", "100852.702500", "100851.110000", "100852.900000", "100851.310000", "100853.100000", "100851.510000", "100853.300000", "100850.712500", "100852.502500", "100849.917500", "100851.707500", "100850.117500", "100851.907500", "100850.315000", "100852.105000", "100850.515000", "100852.305000", "100850.912500", "100852.702500", "100851.110000", "100852.900000", "100851.310000", "100853.100000", "100851.510000", "100853.300000", "100850.712500", "100856.102500", "100853.517500", "100855.307500", "100853.717500", "100855.507500", "100853.915000", "100855.705000", "100854.115000", "100855.905000", "100854.512500", "100856.302500", "100854.710000", "100856.500000", "100854.910000", "100856.700000", "100855.110000", "100856.900000", "100854.312500", "100856.102500", "100853.517500", "100855.307500", "100853.717500", "100855.507500", "100853.915000", "100855.705000", "100854.115000", "100855.905000", "100854.512500", "100856.302500", "100854.710000", "100856.500000", "100854.910000", "100856.700000", "100855.110000", "100856.900000", "100854.312500", "100856.102500", "100853.517500", "100855.307500", "100853.717500", "100855.507500", "100853.915000", "100855.705000", "100854.115000", "100855.905000", "100854.512500", "100856.302500", "100854.710000", "100856.500000", "100854.910000", "100856.700000", "100855.110000", "100856.900000", "100854.312500", "100856.102500", "100853.517500", "100855.307500", "100853.717500", "100855.507500", "100853.915000", "100855.705000", "100854.115000", "100855.905000", "100854.512500", "100856.302500", "100854.710000", "100856.500000", "100854.910000", "100856.700000", "100855.110000", "100856.900000", "100854.312500", "100859.702500", "100857.117500", "100858.907500", "100857.317500", "100859.107500", "100857.515000", "100859.305000", "100857.715000", "100859.505000", "100858.112500", "100859.902500", "100858.310000", "100900.100000", "100858.510000", "100900.300000", "100858.710000", "100900.500000", "100857.912500", "100859.702500", "100857.117500", "100858.907500", "100857.317500", "100859.107500", "100857.515000", "100859.305000", "100857.715000", "100859.505000", "100858.112500", "100859.902500", "100858.310000", "100900.100000", "100858.510000", "100900.300000", "100858.710000", "100900.500000", "100857.912500", "100859.702500", "100857.117500", "100858.907500", "100857.317500", "100859.107500", "100857.515000", "100859.305000", "100857.715000", "100859.505000", "100858.112500", "100859.902500", "100858.310000", "100900.100000", "100858.510000", "100900.300000", "100858.710000", "100900.500000", "100857.912500", "100859.702500", "100857.117500", "100858.907500", "100857.317500", "100859.107500", "100857.515000", "100859.305000", "100857.715000", "100859.505000", "100858.112500", "100859.902500", "100858.310000", "100900.100000", "100858.510000", "100900.300000", "100858.710000", "100900.500000", "100857.912500", "100903.302500", "100900.717500", "100902.507500", "100900.917500", "100902.707500", "100901.115000", "100902.905000", "100901.315000", "100903.105000", "100901.712500", "100903.502500", "100901.910000", "100903.700000", "100902.110000", "100903.900000", "100902.310000", "100904.100000", "100901.512500", "100903.302500", "100900.717500", "100902.507500", "100900.917500", "100902.707500", "100901.115000", "100902.905000", "100901.315000", "100903.105000", "100901.712500", "100903.502500", "100901.910000", "100903.700000", "100902.110000", "100903.900000", "100902.310000", "100904.100000", "100901.512500", "100903.302500", "100900.717500", "100902.507500", "100900.917500", "100902.707500", "100901.115000", "100902.905000", "100901.315000", "100903.105000", "100901.712500", "100903.502500", "100901.910000", "100903.700000", "100902.110000", "100903.900000", "100902.310000", "100904.100000", "100901.512500", "100903.302500", "100900.717500", "100902.507500", "100900.917500", "100902.707500", "100901.115000", "100902.905000", "100901.315000", "100903.105000", "100901.712500", "100903.502500", "100901.910000", "100903.700000", "100902.110000", "100903.900000", "100902.310000", "100904.100000", "100901.512500", "100906.902500", "100904.317500", "100906.107500", "100904.517500", "100906.307500", "100904.715000", "100906.505000", "100904.915000", "100906.705000", "100905.312500", "100907.102500", "100905.510000", "100907.300000", "100905.710000", "100907.500000", "100905.910000", "100907.700000", "100905.112500", "100906.902500", "100904.317500", "100906.107500", "100904.517500", "100906.307500", "100904.715000", "100906.505000", "100904.915000", "100906.705000", "100905.312500", "100907.102500", "100905.510000", "100907.300000", "100905.710000", "100907.500000", "100905.910000", "100907.700000", "100905.112500", "100906.902500", "100904.317500", "100906.107500", "100904.517500", "100906.307500", "100904.715000", "100906.505000", "100904.915000", "100906.705000", "100905.312500", "100907.102500", "100905.510000", "100907.300000", "100905.710000", "100907.500000", "100905.910000", "100907.700000", "100905.112500", "100906.902500", "100904.317500", "100906.107500", "100904.517500", "100906.307500", "100904.715000", "100906.505000", "100904.915000", "100906.705000", "100905.312500", "100907.102500", "100905.510000", "100907.300000", "100905.710000", "100907.500000", "100905.910000", "100907.700000", "100905.112500", "100910.502500", "100907.917500", "100909.707500", "100908.117500", "100909.907500", "100908.315000", "100910.105000", "100908.515000", "100910.305000", "100908.912500", "100910.702500", "100909.110000", "100910.900000", "100909.310000", "100911.100000", "100909.510000", "100911.300000", "100908.712500", "100910.502500", "100907.917500", "100909.707500", "100908.117500", "100909.907500", "100908.315000", "100910.105000", "100908.515000", "100910.305000", "100908.912500", "100910.702500", "100909.110000", "100910.900000", "100909.310000", "100911.100000", "100909.510000", "100911.300000", "100908.712500", "100910.502500", "100907.917500", "100909.707500", "100908.117500", "100909.907500", "100908.315000", "100910.105000", "100908.515000", "100910.305000", "100908.912500", "100910.702500", "100909.110000", "100910.900000", "100909.310000", "100911.100000", "100909.510000", "100911.300000", "100908.712500", "100910.502500", "100907.917500", "100909.707500", "100908.117500", "100909.907500", "100908.315000", "100910.105000", "100908.515000", "100910.305000", "100908.912500", "100910.702500", "100909.110000", "100910.900000", "100909.310000", "100911.100000", "100909.510000", "100911.300000", "100908.712500", "100914.102500", "100911.517500", "100913.307500", "100911.717500", "100913.507500", "100911.915000", "100913.705000", "100912.115000", "100913.905000", "100912.512500", "100914.302500", "100912.710000", "100914.500000", "100912.910000", "100914.700000", "100913.110000", "100914.900000", "100912.312500", "100914.102500", "100911.517500", "100913.307500", "100911.717500", "100913.507500", "100911.915000", "100913.705000", "100912.115000", "100913.905000", "100912.512500", "100914.302500", "100912.710000", "100914.500000", "100912.910000", "100914.700000", "100913.110000", "100914.900000", "100912.312500", "100914.102500", "100911.517500", "100913.307500", "100911.717500", "100913.507500", "100911.915000", "100913.705000", "100912.115000", "100913.905000", "100912.512500", "100914.302500", "100912.710000", "100914.500000", "100912.910000", "100914.700000", "100913.110000", "100914.900000", "100912.312500", "100914.102500", "100911.517500", "100913.307500", "100911.717500", "100913.507500", "100911.915000", "100913.705000", "100912.115000", "100913.905000", "100912.512500", "100914.302500", "100912.710000", "100914.500000", "100912.910000", "100914.700000", "100913.110000", "100914.900000", "100912.312500", "100917.702500", "100915.117500", "100916.907500", "100915.317500", "100917.107500", "100915.515000", "100917.305000", "100915.715000", "100917.505000", "100916.112500", "100917.902500", "100916.310000", "100918.100000", "100916.510000", "100918.300000", "100916.710000", "100918.500000", "100915.912500", "100917.702500", "100915.117500", "100916.907500", "100915.317500", "100917.107500", "100915.515000", "100917.305000", "100915.715000", "100917.505000", "100916.112500", "100917.902500", "100916.310000", "100918.100000", "100916.510000", "100918.300000", "100916.710000", "100918.500000", "100915.912500", "100917.702500", "100915.117500", "100916.907500", "100915.317500", "100917.107500", "100915.515000", "100917.305000", "100915.715000", "100917.505000", "100916.112500", "100917.902500", "100916.310000", "100918.100000", "100916.510000", "100918.300000", "100916.710000", "100918.500000", "100915.912500", "100917.702500", "100915.117500", "100916.907500", "100915.317500", "100917.107500", "100915.515000", "100917.305000", "100915.715000", "100917.505000", "100916.112500", "100917.902500", "100916.310000", "100918.100000", "100916.510000", "100918.300000", "100916.710000", "100918.500000", "100915.912500", "100921.302500", "100918.717500", "100920.507500", "100918.917500", "100920.707500", "100919.115000", "100920.905000", "100919.315000", "100921.105000", "100919.712500", "100921.502500", "100919.910000", "100921.700000", "100920.110000", "100921.900000", "100920.310000", "100922.100000", "100919.512500", "100921.302500", "100918.717500", "100920.507500", "100918.917500", "100920.707500", "100919.115000", "100920.905000", "100919.315000", "100921.105000", "100919.712500", "100921.502500", "100919.910000", "100921.700000", "100920.110000", "100921.900000", "100920.310000", "100922.100000", "100919.512500", "100921.302500", "100918.717500", "100920.507500", "100918.917500", "100920.707500", "100919.115000", "100920.905000", "100919.315000", "100921.105000", "100919.712500", "100921.502500", "100919.910000", "100921.700000", "100920.110000", "100921.900000", "100920.310000", "100922.100000", "100919.512500", "100921.302500", "100918.717500", "100920.507500", "100918.917500", "100920.707500", "100919.115000", "100920.905000", "100919.315000", "100921.105000", "100919.712500", "100921.502500", "100919.910000", "100921.700000", "100920.110000", "100921.900000", "100920.310000", "100922.100000", "100919.512500", "100924.902500", "100922.317500", "100924.107500", "100922.517500", "100924.307500", "100922.715000", "100924.505000", "100922.915000", "100924.705000", "100923.312500", "100925.102500", "100923.510000", "100925.300000", "100923.710000", "100925.500000", "100923.910000", "100925.700000", "100923.112500", "100924.902500", "100922.317500", "100924.107500", "100922.517500", "100924.307500", "100922.715000", "100924.505000", "100922.915000", "100924.705000", "100923.312500", "100925.102500", "100923.510000", "100925.300000", "100923.710000", "100925.500000", "100923.910000", "100925.700000", "100923.112500", "100924.902500", "100922.317500", "100924.107500", "100922.517500", "100924.307500", "100922.715000", "100924.505000", "100922.915000", "100924.705000", "100923.312500", "100925.102500", "100923.510000", "100925.300000", "100923.710000", "100925.500000", "100923.910000", "100925.700000", "100923.112500", "100924.902500", "100922.317500", "100924.107500", "100922.517500", "100924.307500", "100922.715000", "100924.505000", "100922.915000", "100924.705000", "100923.312500", "100925.102500", "100923.510000", "100925.300000", "100