{
  "AcquisitionMatrixPE": 122,
  "AcquisitionNumber": 1,
  "AcquisitionTime": "09:08:37.545000",
  "BandwidthPerPixelPhaseEncode": 27.785,
  "BaseResolution": 122,
  "BodyPartExamined": "BRAIN",
  "CoilCombinationMethod": "Adaptive Combine",
  "ConsistencyInfo": "N4_VE11C_LATEST_20160120",
  "ConversionSoftware": "dcm2niix",
  "ConversionSoftwareVersion": "v1.0.20220720",
  "DerivedVendorReportedEchoSpacing": 0.000590011,
  "DeviceSerialNumber": "66112",
  "DiffusionScheme": "Monopolar",
  "DwellTime": 2e-06,
  "EchoTime": 0.068,
  "EchoTrainLength": 61,
  "EffectiveEchoSpacing": 0.000295005,
  "FlipAngle": 90,
  "HeudiconvVersion": "0.13.1",
  "ImageOrientationPatientDICOM": [0.970814, -0.239823, 0.00211268, 0.227881, 0.925148, 0.303597],
  "ImageOrientationText": "Tra>Cor(17.2)>Sag(4.3)",
  "ImageType": [
    "ORIGINAL",
    "PRIMARY",
    "DIFFUSION",
    "NONE",
    "ND",
    "NORM"
],
  "ImagingFrequency": 123.252,
  "InPlanePhaseEncodingDirectionDICOM": "COL",
  "InstitutionAddress": "Maynard 3,Hanover,NH,US,03755",
  "InstitutionName": "Dartmouth College - PBS",
  "InstitutionalDepartmentName": "Department",
  "MRAcquisitionType": "2D",
  "MagneticFieldStrength": 3,
  "Manufacturer": "Siemens",
  "ManufacturersModelName": "Prisma",
  "Modality": "MR",
  "MultibandAccelerationFactor": 4,
  "NonlinearGradientCorrection": false,
  "ParallelReductionFactorInPlane": 2,
  "PartialFourier": 1,
  "PatientPosition": "HFS",
  "PercentPhaseFOV": 100,
  "PercentSampling": 100,
  "PhaseEncodingDirection": "j-",
  "PhaseEncodingSteps": 122,
  "PhaseResolution": 1,
  "PixelBandwidth": 2050,
  "ProcedureStepDescription": "dbic^QA",
  "ProtocolName": "dwi_acq-DTI-30-p2-s4",
  "PulseSequenceDetails": "%SiemensSeq%\\ep2d_diff",
  "ReceiveCoilActiveElements": "HEA;HEP",
  "ReceiveCoilName": "Head_32",
  "ReconMatrixPE": 122,
  "RefLinesPE": 38,
  "RepetitionTime": 3.6,
  "SAR": 0.160757,
  "ScanOptions": "FS",
  "ScanningSequence": "EP",
  "SequenceName": "*ep_b0",
  "SequenceVariant": "SK\\SP",
  "SeriesDescription": "dwi_acq-DTI-30-p2-s4",
  "SeriesNumber": 9,
  "ShimSetting": [4145, -7700, -7508, 318, -85, -140, -41, 87],
  "SliceThickness": 2,
  "SliceTiming": [2.58594, 0, 1.78906, 0.19531, 1.99219, 0.39844, 2.1875, 0.59375, 2.38281, 0.99219, 2.78125, 1.19531, 2.98438, 1.39062, 3.17969, 1.59375, 3.38281, 0.79688, 2.58594, 0, 1.78906, 0.19531, 1.99219, 0.39844, 2.1875, 0.59375, 2.38281, 0.99219, 2.78125, 1.19531, 2.98438, 1.39062, 3.17969, 1.59375, 3.38281, 0.79688, 2.58594, 0, 1.78906, 0.19531, 1.99219, 0.39844, 2.1875, 0.59375, 2.38281, 0.99219, 2.78125, 1.19531, 2.98438, 1.39062, 3.17969, 1.59375, 3.38281, 0.79688, 2.58594, 0, 1.78906, 0.19531, 1.99219, 0.39844, 2.1875, 0.59375, 2.38281, 0.99219, 2.78125, 1.19531, 2.98438, 1.39062, 3.17969, 1.59375, 3.38281, 0.79688],
  "SoftwareVersions": "syngo MR E11",
  "SpacingBetweenSlices": 2,
  "SpoilingState": true,
  "StationName": "AWP66112",
  "TotalReadoutTime": 0.0356956,
  "TxRefAmp": 226.984,
  "dcmmeta_affine": [
    [-1.9097987413406372, 0.44829097390174866, 0.1495283842086792, 77.72766876220703],
    [0.47178301215171814, 1.8199632167816162, 0.5885105133056641, -152.9200439453125],
    [0.004156089853495359, -0.5972408056259155, 1.9055938720703125, -30.566547393798828],
    [0.0, 0.0, 0.0, 1.0]
],
  "dcmmeta_reorient_transform": [
    [0.0, -1.0, 0.0, 121.0],
    [1.0, 0.0, 0.0, 0.0],
    [0.0, 0.0, -1.0, 71.0],
    [0.0, 0.0, 0.0, 1.0]
],
  "dcmmeta_shape": [122, 122, 72, 31],
  "dcmmeta_slice_dim": 2,
  "dcmmeta_version": 0.6,
  "global": {
    "const": {
      "AccessionNumber": "qa",
      "AcquisitionMatrix": [122, 0, 0, 122],
      "AngioFlag": "N",
      "BitsAllocated": 16,
      "BitsStored": 12,
      "BodyPartExamined": "BRAIN",
      "Columns": 122,
      "EchoNumbers": 1,
      "EchoTime": 68.0,
      "EchoTrainLength": 61,
      "FlipAngle": 90.0,
      "HighBit": 11,
      "ImageOrientationPatient": [0.97081432559619, -0.2398230218405, 0.00211267898587, 0.22788124313485, 0.92514795932833, 0.30359741826626],
      "ImageType": [
        "ORIGINAL",
        "PRIMARY",
        "DIFFUSION",
        "NONE",
        "ND",
        "NORM"
],
      "ImagedNucleus": "1H",
      "ImagingFrequency": 123.252425,
      "InPlanePhaseEncodingDirection": "COL",
      "MRAcquisitionType": "2D",
      "MagneticFieldStrength": 3.0,
      "Manufacturer": "SIEMENS",
      "ManufacturerModelName": "Prisma",
      "Modality": "MR",
      "NumberOfAverages": 1.0,
      "NumberOfPhaseEncodingSteps": 122,
      "PercentPhaseFieldOfView": 100.0,
      "PercentSampling": 100.0,
      "PerformedProcedureStepStartTime": "084448.050000",
      "PhotometricInterpretation": "MONOCHROME2",
      "PixelBandwidth": 2050.0,
      "PixelRepresentation": 0,
      "PixelSpacing": [1.9672131538391, 1.9672131538391],
      "ProtocolName": "dwi_acq-DTI-30-p2-s4",
      "RepetitionTime": 3600.0,
      "Rows": 122,
      "SAR": 0.16075677167902,
      "SamplesPerPixel": 1,
      "ScanOptions": "FS",
      "ScanningSequence": "EP",
      "SequenceVariant": [
        "SK",
        "SP"
],
      "SeriesDescription": "dwi_acq-DTI-30-p2-s4",
      "SeriesNumber": 9,
      "SeriesTime": "090846.558000",
      "SliceThickness": 2.0,
      "SmallestImagePixelValue": 0,
      "SoftwareVersions": "syngo MR E11",
      "SpacingBetweenSlices": 2.0,
      "SpecificCharacterSet": "ISO_IR 100",
      "StudyID": "81",
      "StudyTime": "084447.974000",
      "TransmitCoilName": "Body",
      "VariableFlipAngleFlag": "N",
      "WindowCenterWidthExplanation": "Algo1",
      "dBdt": 0.0},
    "slices": {
      "AcquisitionTime": ["090837.545000", "090834.960000", "090836.750000", "090835.160000", "090836.950000", "090835.357500", "090837.147500", "090835.557500", "090837.347500", "090835.955000", "090837.745000", "090836.155000", "090837.945000", "090836.352500", "090838.142500", "090836.552500", "090838.342500", "090835.755000", "090837.545000", "090834.960000", "090836.750000", "090835.160000", "090836.950000", "090835.357500", "090837.147500", "090835.557500", "090837.347500", "090835.955000", "090837.745000", "090836.155000", "090837.945000", "090836.352500", "090838.142500", "090836.552500", "090838.342500", "090835.755000", "090837.545000", "090834.960000", "090836.750000", "090835.160000", "090836.950000", "090835.357500", "090837.147500", "090835.557500", "090837.347500", "090835.955000", "090837.745000", "090836.155000", "090837.945000", "090836.352500", "090838.142500", "090836.552500", "090838.342500", "090835.755000", "090837.545000", "090834.960000", "090836.750000", "090835.160000", "090836.950000", "090835.357500", "090837.147500", "090835.557500", "090837.347500", "090835.955000", "090837.745000", "090836.155000", "090837.945000", "090836.352500", "090838.142500", "090836.552500", "090838.342500", "090835.755000", "090841.145000", "090838.560000", "090840.350000", "090838.760000", "090840.550000", "090838.957500", "090840.747500", "090839.157500", "090840.947500", "090839.555000", "090841.345000", "090839.755000", "090841.545000", "090839.952500", "090841.742500", "090840.152500", "090841.942500", "090839.355000", "090841.145000", "090838.560000", "090840.350000", "090838.760000", "090840.550000", "090838.957500", "090840.747500", "090839.157500", "090840.947500", "090839.555000", "090841.345000", "090839.755000", "090841.545000", "090839.952500", "090841.742500", "090840.152500", "090841.942500", "090839.355000", "090841.145000", "090838.560000", "090840.350000", "090838.760000", "090840.550000", "090838.957500", "090840.747500", "090839.157500", "090840.947500", "090839.555000", "090841.345000", "090839.755000", "090841.545000", "090839.952500", "090841.742500", "090840.152500", "090841.942500", "090839.355000", "090841.145000", "090838.560000", "090840.350000", "090838.760000", "090840.550000", "090838.957500", "090840.747500", "090839.157500", "090840.947500", "090839.555000", "090841.345000", "090839.755000", "090841.545000", "090839.952500", "090841.742500", "090840.152500", "090841.942500", "090839.355000", "090844.745000", "090842.160000", "090843.950000", "090842.360000", "090844.150000", "090842.557500", "090844.347500", "090842.757500", "090844.547500", "090843.155000", "090844.945000", "090843.355000", "090845.145000", "090843.552500", "090845.342500", "090843.752500", "090845.542500", "090842.955000", "090844.745000", "090842.160000", "090843.950000", "090842.360000", "090844.150000", "090842.557500", "090844.347500", "090842.757500", "090844.547500", "090843.155000", "090844.945000", "090843.355000", "090845.145000", "090843.552500", "090845.342500", "090843.752500", "090845.542500", "090842.955000", "090844.745000", "090842.160000", "090843.950000", "090842.360000", "090844.150000", "090842.557500", "090844.347500", "090842.757500", "090844.547500", "090843.155000", "090844.945000", "090843.355000", "090845.145000", "090843.552500", "090845.342500", "090843.752500", "090845.542500", "090842.955000", "090844.745000", "090842.160000", "090843.950000", "090842.360000", "090844.150000", "090842.557500", "090844.347500", "090842.757500", "090844.547500", "090843.155000", "090844.945000", "090843.355000", "090845.145000", "090843.552500", "090845.342500", "090843.752500", "090845.542500", "090842.955000", "090848.345000", "090845.760000", "090847.550000", "090845.960000", "090847.750000", "090846.157500", "090847.947500", "090846.357500", "090848.147500", "090846.755000", "090848.545000", "090846.955000", "090848.745000", "090847.152500", "090848.942500", "090847.352500", "090849.142500", "090846.555000", "090848.345000", "090845.760000", "090847.550000", "090845.960000", "090847.750000", "090846.157500", "090847.947500", "090846.357500", "090848.147500", "090846.755000", "090848.545000", "090846.955000", "090848.745000", "090847.152500", "090848.942500", "090847.352500", "090849.142500", "090846.555000", "090848.345000", "090845.760000", "090847.550000", "090845.960000", "090847.750000", "090846.157500", "090847.947500", "090846.357500", "090848.147500", "090846.755000", "090848.545000", "090846.955000", "090848.745000", "090847.152500", "090848.942500", "090847.352500", "090849.142500", "090846.555000", "090848.345000", "090845.760000", "090847.550000", "090845.960000", "090847.750000", "090846.157500", "090847.947500", "090846.357500", "090848.147500", "090846.755000", "090848.545000", "090846.955000", "090848.745000", "090847.152500", "090848.942500", "090847.352500", "090849.142500", "090846.555000", "090851.945000", "090849.360000", "090851.150000", "090849.560000", "090851.350000", "090849.757500", "090851.547500", "090849.957500", "090851.747500", "090850.355000", "090852.145000", "090850.555000", "090852.345000", "090850.752500", "090852.542500", "090850.952500", "090852.742500", "090850.155000", "090851.945000", "090849.360000", "090851.150000", "090849.560000", "090851.350000", "090849.757500", "090851.547500", "090849.957500", "090851.747500", "090850.355000", "090852.145000", "090850.555000", "090852.345000", "090850.752500", "090852.542500", "090850.952500", "090852.742500", "090850.155000", "090851.945000", "090849.360000", "090851.150000", "090849.560000", "090851.350000", "090849.757500", "090851.547500", "090849.957500", "090851.747500", "090850.355000", "090852.145000", "090850.555000", "090852.345000", "090850.752500", "090852.542500", "090850.952500", "090852.742500", "090850.155000", "090851.945000", "090849.360000", "090851.150000", "090849.560000", "090851.350000", "090849.757500", "090851.547500", "090849.957500", "090851.747500", "090850.355000", "090852.145000", "090850.555000", "090852.345000", "090850.752500", "090852.542500", "090850.952500", "090852.742500", "090850.155000", "090855.545000", "090852.960000", "090854.750000", "090853.160000", "090854.950000", "090853.357500", "090855.147500", "090853.557500", "090855.347500", "090853.955000", "090855.745000", "090854.155000", "090855.945000", "090854.352500", "090856.142500", "090854.552500", "090856.342500", "090853.755000", "090855.545000", "090852.960000", "090854.750000", "090853.160000", "090854.950000", "090853.357500", "090855.147500", "090853.557500", "090855.347500", "090853.955000", "090855.745000", "090854.155000", "090855.945000", "090854.352500", "090856.142500", "090854.552500", "090856.342500", "090853.755000", "090855.545000", "090852.960000", "090854.750000", "090853.160000", "090854.950000", "090853.357500", "090855.147500", "090853.557500", "090855.347500", "090853.955000", "090855.745000", "090854.155000", "090855.945000", "090854.352500", "090856.142500", "090854.552500", "090856.342500", "090853.755000", "090855.545000", "090852.960000", "090854.750000", "090853.160000", "090854.950000", "090853.357500", "090855.147500", "090853.557500", "090855.347500", "090853.955000", "090855.745000", "090854.155000", "090855.945000", "090854.352500", "090856.142500", "090854.552500", "090856.342500", "090853.755000", "090859.145000", "090856.560000", "090858.350000", "090856.760000", "090858.550000", "090856.957500", "090858.747500", "090857.157500", "090858.947500", "090857.555000", "090859.345000", "090857.755000", "090859.545000", "090857.952500", "090859.742500", "090858.152500", "090859.942500", "090857.355000", "090859.145000", "090856.560000", "090858.350000", "090856.760000", "090858.550000", "090856.957500", "090858.747500", "090857.157500", "090858.947500", "090857.555000", "090859.345000", "090857.755000", "090859.545000", "090857.952500", "090859.742500", "090858.152500", "090859.942500", "090857.355000", "090859.145000", "090856.560000", "090858.350000", "090856.760000", "090858.550000", "090856.957500", "090858.747500", "090857.157500", "090858.947500", "090857.555000", "090859.345000", "090857.755000", "090859.545000", "090857.952500", "090859.742500", "090858.152500", "090859.942500", "090857.355000", "090859.145000", "090856.560000", "090858.350000", "090856.760000", "090858.550000", "090856.957500", "090858.747500", "090857.157500", "090858.947500", "090857.555000", "090859.345000", "090857.755000", "090859.545000", "090857.952500", "090859.742500", "090858.152500", "090859.942500", "090857.355000", "090902.745000", "090900.160000", "090901.950000", "090900.360000", "090902.150000", "090900.557500", "090902.347500", "090900.757500", "090902.547500", "090901.155000", "090902.945000", "090901.355000", "090903.145000", "090901.552500", "090903.342500", "090901.752500", "090903.542500", "090900.955000", "090902.745000", "090900.160000", "090901.950000", "090900.360000", "090902.150000", "090900.557500", "090902.347500", "090900.757500", "090902.547500", "090901.155000", "090902.945000", "090901.355000", "090903.145000", "090901.552500", "090903.342500", "090901.752500", "090903.542500", "090900.955000", "090902.745000", "090900.160000", "090901.950000", "090900.360000", "090902.150000", "090900.557500", "090902.347500", "090900.757500", "090902.547500", "090901.155000", "090902.945000", "090901.355000", "090903.145000", "090901.552500", "090903.342500", "090901.752500", "090903.542500", "090900.955000", "090902.745000", "090900.160000", "090901.950000", "090900.360000", "090902.150000", "090900.557500", "090902.347500", "090900.757500", "090902.547500", "090901.155000", "090902.945000", "090901.355000", "090903.145000", "090901.552500", "090903.342500", "090901.752500", "090903.542500", "090900.955000", "090906.345000", "090903.760000", "090905.550000", "090903.960000", "090905.750000", "090904.157500", "090905.947500", "090904.357500", "090906.147500", "090904.755000", "090906.545000", "090904.955000", "090906.745000", "090905.152500", "090906.942500", "090905.352500", "090907.142500", "090904.555000", "090906.345000", "090903.760000", "090905.550000", "090903.960000", "090905.750000", "090904.157500", "090905.947500", "090904.357500", "090906.147500", "090904.755000", "090906.545000", "090904.955000", "090906.745000", "090905.152500", "090906.942500", "090905.352500", "090907.142500", "090904.555000", "090906.345000", "090903.760000", "090905.550000", "090903.960000", "090905.750000", "090904.157500", "090905.947500", "090904.357500", "090906.147500", "090904.755000", "090906.545000", "090904.955000", "090906.745000", "090905.152500", "090906.942500", "090905.352500", "090907.142500", "090904.555000", "090906.345000", "090903.760000", "090905.550000", "090903.960000", "090905.750000", "090904.157500", "090905.947500", "090904.357500", "090906.147500", "090904.755000", "090906.545000", "090904.955000", "090906.745000", "090905.152500", "090906.942500", "090905.352500", "090907.142500", "090904.555000", "090909.945000", "090907.360000", "090909.150000", "090907.560000", "090909.350000", "090907.757500", "090909.547500", "090907.957500", "090909.747500", "090908.355000", "090910.145000", "090908.555000", "090910.345000", "090908.752500", "090910.542500", "090908.952500", "090910.742500", "090908.155000", "090909.945000", "090907.360000", "090909.150000", "090907.560000", "090909.350000", "090907.757500", "090909.547500", "090907.957500", "090909.747500", "090908.355000", "090910.145000", "090908.555000", "090910.345000", "090908.752500", "090910.542500", "090908.952500", "090910.742500", "090908.155000", "090909.945000", "090907.360000", "090909.150000", "090907.560000", "090909.350000", "090907.757500", "090909.547500", "090907.957500", "090909.747500", "090908.355000", "090910.145000", "090908.555000", "090910.345000", "090908.752500", "090910.542500", "090908.952500", "090910.742500", "090908.155000", "090909.945000", "090907.360000", "090909.150000", "090907.560000", "090909.350000", "090907.757500", "090909.547500", "090907.957500", "090909.747500", "090908.355000", "090910.145000", "090908.555000", "090910.345000", "090908.752500", "090910.542500", "090908.952500", "090910.742500", "090908.155000", "090913.545000", "090910.960000", "090912.750000", "090911.160000", "090912.950000", "090911.357500", "090913.147500", "090911.557500", "090913.347500", "090911.955000", "090913.745000", "090912.155000", "090913.945000", "090912.352500", "090914.142500", "090912.552500", "090914.342500", "090911.755000", "090913.545000", "090910.960000", "090912.750000", "090911.160000", "090912.950000", "090911.357500", "090913.147500", "090911.557500", "090913.347500", "090911.955000", "090913.745000", "090912.155000", "090913.945000", "090912.352500", "090914.142500", "090912.552500", "090914.342500", "090911.755000", "090913.545000", "090910.960000", "090912.750000", "090911.160000", "090912.950000", "090911.357500", "090913.147500", "090911.557500", "090913.347500", "090911.955000", "090913.745000", "090912.155000", "090913.945000", "090912.352500", "090914.142500", "090912.552500", "090914.342500", "090911.755000", "090913.545000", "090910.960000", "090912.750000", "090911.160000", "090912.950000", "090911.357500", "090913.147500", "090911.557500", "090913.347500", "090911.955000", "090913.745000", "090912.155000", "090913.945000", "090912.352500", "090914.142500", "090912.552500", "090914.342500", "090911.755000", "090917.145000", "090914.560000", "090916.350000", "090914.760000", "090916.550000", "090914.957500", "090916.747500", "090915.157500", "090916.947500", "090915.555000", "090917.345000", "090915.755000", "090917.545000", "090915.952500", "090917.742500", "090916.152500", "090917.942500", "090915.355000", "090917.145000", "090914.560000", "090916.350000", "090914.760000", "090916.550000", "090914.957500", "090916.747500", "090915.157500", "090916.947500", "090915.555000", "090917.345000", "090915.755000", "090917.545000", "090915.952500", "090917.742500", "090916.152500", "090917.942500", "090915.355000", "090917.145000", "090914.560000", "090916.350000", "090914.760000", "090916.550000", "090914.957500", "090916.747500", "090915.157500", "090916.947500", "090915.555000", "090917.345000", "090915.755000", "090917.545000", "090915.952500", "090917.742500", "090916.152500", "090917.942500", "090915.355000", "090917.145000", "090914.560000", "090916.350000", "090914.760000", "090916.550000", "090914.957500", "090916.747500", "090915.157500", "090916.947500", "090915.555000", "090917.345000", "090915.755000", "090917.545000", "090915.952500", "090917.742500", "090916.152500", "090917.942500", "090915.355000", "090920.745000", "090918.160000", "090919.950000", "090918.360000", "090920.150000", "090918.557500", "090920.347500", "090918.757500", "090920.547500", "090919.155000", "090920.945000", "090919.355000", "090921.145000", "090919.552500", "090921.342500", "090919.752500", "090921.542500", "090918.955000", "090920.745000", "090918.160000", "090919.950000", "090918.360000", "090920.150000", "090918.557500", "090920.347500", "090918.757500", "090920.547500", "090919.155000", "090920.945000", "090919.355000", "090921.145000", "090919.552500", "090921.342500", "090919.752500", "090921.542500", "090918.955000", "090920.745000", "090918.160000", "090919.950000", "090918.360000", "090920.150000", "090918.557500", "090920.347500", "090918.757500", "090920.547500", "090919.155000", "090920.945000", "090919.355000", "090921.145000", "090919.552500", "090921.342500", "090919.752500", "090921.542500", "090918.955000", "090920.745000", "090918.160000", "090919.950000", "090918.360000", "090920.150000", "090918.557500", "090920.347500", "090918.757500", "090920.547500", "090919.155000", "090920.945000", "090919.355000", "090921.145000", "090919.552500", "090921.342500", "090919.752500", "090921.542500", "090918.955000", "090924.345000", "090921.760000", "090923.550000", "090921.960000", "090923.750000", "090922.157500", "090923.947500", "090922.357500", "090924.147500", "090922.755000", "090924.545000", "090922.955000", "090924.745000", "090923.152500", "090924.942500", "090923.352500", "090925.142500", "090922.555000", "090924.345000", "090921.760000", "090923.550000", "090921.960000", "090923.750000", "090922.157500", "090923.947500", "090922.357500", "090924.147500", "090922.755000", "090924.545000", "090922.955000", "090924.745000", "090923.152500", "090924.942500", "090923.352500", "090925.142500", "090922.555000", "090924.345000", "090921.760000", "090923.550000", "090921.960000", "090923.750000", "090922.157500", "090923.947500", "090922.357500", "090924.147500", "090922.755000", "090924.545000", "090922.955000", "090924.745000", "090923.152500", "090924.942500", "090923.352500", "090925.142500", "090922.555000", "090924.345000", "090921.760000", "090923.550000", "090921.960000", "090923.750000", "090922.157500", "090923.947500", "090922.357500", "090924.147500", "090922.755000", "090924.545000", "090922.955000", "090924.745000", "090923.152500", "090924.942500", "090923.352500", "090925.142500", "090922.555000", "090927.945000", "090925.360000", "090927.150000", "090925.560000", "090927.350000", "090925.757500", "090927.547500", "090925.957500", "090927.747500", "090926.355000", "090928.145000", "090926.555000", "090928.345000", "090926.752500", "090928.542500", "090926.952500", "090928.742500", "090926.155000", "090927.945000", "090925.360000", "090927.150000", "090925.560000", "090927.350000", "090925.757500", "090927.547500", "090925.957500", "090927.747500", "090926.355000", "090928.145000", "090926.555000", "090928.345000", "090926.752500", "090928.542500", "090926.952500", "090928.742500", "090926.155000", "090927.945000", "090925.360000", "090927.150000", "090925.560000", "090927.350000", "090925.757500", "090927.547500", "090925.957500", "090927.747500", "090926.355000", "090928.145000", "090926.555000", "090928.345000", "090926.752500", "090928.542500", "090926.952500", "090928.742500", "090926.155000", "090927.945000", "090925.360000", "090927.150000", "090925.560000", "090927.350000", "090925.757500", "090927.547500", "090925.957500", "090927.747500", "090926.355000", "090928.145000", "090926.555000", "090928.345000", "090926.752500", "090928.542500", "090926.952500", "090928.742500", "090926.155000", "090931.545000", "090928.960000", "090930.750000", "090929.160000", "090930.950000", "090929.357500", "090931.147500", "090929.557500", "090931.347500", "090929.955000", "090931.745000", "090930.155000", "090931.945000", "090930.352500", "090932.142500", "090930.552500", "090932.342500", "090929.755000", "090931.545000", "090928.960000", "090930.750000", "090929.160000", "090930.950000", "090929.357500", "090931.147500", "090929.557500", "090931.347500", "090929.955000", "090931.745000", "090930.155000", "090931.945000", "090930.352500", "090932.142500", "090930.552500", "090932.342500", "090929.755000", "090931.545000", "090928.960000", "090930.750000", "090929.160000", "090930.950000", "090929.357500", "090931.147500", "090929.557500", "090931.347500", "090929.955000", "090931.745000", "090930.155000", "090931.945000", "090930.352500", "090932.142500", "090930.552500", "090932.342500", "090929.755000", "090931.545000", "090928.960000", "090930.750000", "090929.160000", "090930.950000", "090929.357500", "090931.147500", "090929.557500", "090931.347500", "090929.955000", "090931.745000", "090930.155000", "090931.945000", "090930.352500", "090932.142500", "090930.552500", "090932.342500", "090929.755000", "090935.145000", "090932.560000", "090934.350000", "090932.760000", "090934.550000", "090932.957500", "090934.747500", "090933.157500", "090934.947500", "090933.555000", "090935.345000", "090933.755000", "090935.545000", "090933.952500", "090935.742500", "090934.152500", "090935.942500", "090933.355000", "090935.145000", "090932.560000", "090934.350000", "090932.760000", "090934.550000", "090932.957500", "090934.747500", "090933.157500", "090934.947500", "090933.555000", "090935.345000", "090933.755000", "090935.545000", "090933.952500", "090935.742500", "090934.152500", "090935.942500", "090933.355000", "090935.145000", "090932.560000", "090934.350000", "090932.760000", "090934.550000", "090932.957500", "090934.747500", "090933.157500", "090934.947500", "090933.555000", "090935.345000", "090933.755000", "090935.545000", "090933.952500", "090935.742500", "090934.152500", "090935.942500", "090933.355000", "090935.145000", "090932.560000", "090934.350000", "090932.760000", "090934.550000", "090932.957500", "090934.747500", "090933.157500", "090934.947500", "090933.555000", "090935.345000", "090933.755000", "090935.545000", "090933.952500", "090935.742500", "090934.152500", "090935.942500", "090933.355000", "090938.745000", "090936.160000", "090937.950000", "090936.360000", "090938.150000", "090936.557500", "090938.347500", "090936.757500", "090938.547500", "090937.155000", "090938.945000", "090937.355000", "090939.145000", "090937.552500", "090939.342500", "090937.752500", "090939.542500", "090936.955000", "090938.745000", "090936.160000", "090937.950000", "090936.360000", "090938.150000", "090936.557500", "090938.347500", "090936.757500", "090938.547500", "090937.155000", "090938.945000", "090937.355000", "090939.145000", "090937.552500", "090939.342500", "090937.752500", "090939.542500", "090936.955000", "090938.745000", "090936.160000", "090937.950000", "090936.360000", "090938.150000", "090936.557500", "090938.347500", "090936.757500", "090938.547500", "090937.155000", "090938.945000", "090937.355000", "090939.145000", "090937.552500", "090939.342500", "090937.752500", "090939.542500", "090936.955000", "090938.745000", "090936.160000", "090937.950000", "090936.360000", "090938.150000", "090936.557500", "090938.347500", "090936.757500", "090938.547500", "090937.155000", "090938.945000", "090937.355000", "090939.145000", "090937.552500", "090939.342500", "090937.752500", "090939.542500", "090936.955000", "090942.345000", "090939.760000", "090941.550000", "090939.960000", "090941.750000", "090940.157500", "090941.947500", "090940.357500", "090942.147500", "090940.755000", "090942.545000", "090940.955000", "090942.745000", "090941.152500", "090942.942500", "090941.352500", "090943.142500", "090940.555000", "090942.345000", "090939.760000", "090941.550000", "090939.960000", "090941.750000", "090940.157500", "090941.947500", "090940.357500", "090942.147500", "090940.755000", "090942.545000", "090940.955000", "090942.745000", "090941.152500", "090942.942500", "090941.352500", "090943.142500", "090940.555000", "090942.345000", "090939.760000", "090941.550000", "090939.960000", "090941.750000", "090940.157500", "090941.947500", "090940.357500", "090942.147500", "090940.755000", "090942.545000", "090940.955000", "090942.745000", "090941.152500", "090942.942500", "090941.352500", "090943.142500", "090940.555000", "090942.345000", "090939.760000", "090941.550000", "090939.960000", "090941.750000", "090940.157500", "090941.947500", "090940.357500", "090942.147500", "090940.755000", "090942.545000", "090940.955000", "090942.745000", "090941.152500", "090942.942500", "090941.352500", "090943.142500", "090940.555000", "090945.945000", "090943.360000", "090945.150000", "090943.560000", "090945.350000", "090943.757500", "090945.547500", "090943.957500", "090945.747500", "090944.355000", "090946.145000", "090944.555000", "090946.345000", "090944.752500", "090946.542500", "090944.952500", "090946.742500", "090944.155000", "090945.945000", "090943.360000", "090945.150000", "090943.560000", "090945.350000", "090943.757500", "090945.547500", "090943.957500", "090945.747500", "090944.355000", "090946.145000", "090944.555000", "090946.345000", "090944.752500", "090946.542500", "090944.952500", "090946.742500", "090944.155000", "090945.945000", "090943.360000", "090945.150000", "090943.560000", "090945.350000", "090943.757500", "090945.547500", "090943.957500", "090945.747500", "090944.355000", "090946.145000", "090944.555000", "090946.345000", "090944.752500", "090946.542500", "090944.952500", "090946.742500", "090944.155000", "090945.945000", "090943.360000", "090945.150000", "090943.560000", "090945.350000", "090943.757500", "090945.547500", "090943.957500", "090945.747500", "090944.355000", "090946.145000", "090