{
  "AcquisitionMatrixPE": 122,
  "AcquisitionNumber": 1,
  "AcquisitionTime": "10:35:35.477500",
  "BandwidthPerPixelPhaseEncode": 27.785,
  "BaseResolution": 122,
  "BodyPartExamined": "BRAIN",
  "CoilCombinationMethod": "Adaptive Combine",
  "ConsistencyInfo": "N4_VE11C_LATEST_20160120",
  "ConversionSoftware": "dcm2niix",
  "ConversionSoftwareVersion": "v1.0.20220720",
  "DerivedVendorReportedEchoSpacing": 0.000590011,
  "DeviceSerialNumber": "66112",
  "DiffusionScheme": "Monopolar",
  "DwellTime": 2e-06,
  "EchoTime": 0.068,
  "EchoTrainLength": 61,
  "EffectiveEchoSpacing": 0.000295005,
  "FlipAngle": 90,
  "HeudiconvVersion": "0.13.1",
  "ImageOrientationPatientDICOM": [0.980874, 0.194425, 0.00924536, -0.187644, 0.931905, 0.310391],
  "ImageOrientationText": "Tra>Cor(17.9)>Sag(-3.0)",
  "ImageType": [
    "ORIGINAL",
    "PRIMARY",
    "DIFFUSION",
    "NONE",
    "ND",
    "NORM"
],
  "ImagingFrequency": 123.252,
  "InPlanePhaseEncodingDirectionDICOM": "COL",
  "InstitutionAddress": "Maynard 3,Hanover,NH,US,03755",
  "InstitutionName": "Dartmouth College - PBS",
  "InstitutionalDepartmentName": "Department",
  "MRAcquisitionType": "2D",
  "MagneticFieldStrength": 3,
  "Manufacturer": "Siemens",
  "ManufacturersModelName": "Prisma",
  "Modality": "MR",
  "MultibandAccelerationFactor": 4,
  "NonlinearGradientCorrection": false,
  "ParallelReductionFactorInPlane": 2,
  "PartialFourier": 1,
  "PatientPosition": "HFS",
  "PercentPhaseFOV": 100,
  "PercentSampling": 100,
  "PhaseEncodingDirection": "j-",
  "PhaseEncodingSteps": 122,
  "PhaseResolution": 1,
  "PixelBandwidth": 2050,
  "ProcedureStepDescription": "dbic^QA",
  "ProtocolName": "dwi_acq-DTI-30-p2-s4",
  "PulseSequenceDetails": "%SiemensSeq%\\ep2d_diff",
  "ReceiveCoilActiveElements": "HEA;HEP",
  "ReceiveCoilName": "Head_32",
  "ReconMatrixPE": 122,
  "RefLinesPE": 38,
  "RepetitionTime": 3.6,
  "SAR": 0.159713,
  "ScanOptions": "FS",
  "ScanningSequence": "EP",
  "SequenceName": "*ep_b0",
  "SequenceVariant": "SK\\SP",
  "SeriesDescription": "dwi_acq-DTI-30-p2-s4",
  "SeriesNumber": 13,
  "ShimSetting": [4146, -7706, -7510, 283, -83, -102, -5, 49],
  "SliceThickness": 2,
  "SliceTiming": [2.58594, 0, 1.78906, 0.20312, 1.99219, 0.39844, 2.1875, 0.59375, 2.39062, 0.99219, 2.78125, 1.19531, 2.98438, 1.39062, 3.1875, 1.59375, 3.38281, 0.79688, 2.58594, 0, 1.78906, 0.20312, 1.99219, 0.39844, 2.1875, 0.59375, 2.39062, 0.99219, 2.78125, 1.19531, 2.98438, 1.39062, 3.1875, 1.59375, 3.38281, 0.79688, 2.58594, 0, 1.78906, 0.20312, 1.99219, 0.39844, 2.1875, 0.59375, 2.39062, 0.99219, 2.78125, 1.19531, 2.98438, 1.39062, 3.1875, 1.59375, 3.38281, 0.79688, 2.58594, 0, 1.78906, 0.20312, 1.99219, 0.39844, 2.1875, 0.59375, 2.39062, 0.99219, 2.78125, 1.19531, 2.98438, 1.39062, 3.1875, 1.59375, 3.38281, 0.79688],
  "SoftwareVersions": "syngo MR E11",
  "SpacingBetweenSlices": 2,
  "SpoilingState": true,
  "StationName": "AWP66112",
  "TotalReadoutTime": 0.0356956,
  "TxRefAmp": 220.019,
  "dcmmeta_affine": [
    [-1.929587960243225, -0.36913570761680603, -0.10346388816833496, 145.45428466796875],
    [-0.3824749290943146, 1.8332557678222656, 0.6123790740966797, -101.01139831542969],
    [0.018187593668699265, -0.6106060743331909, 1.901123046875, -29.607967376708984],
    [0.0, 0.0, 0.0, 1.0]
],
  "dcmmeta_reorient_transform": [
    [0.0, -1.0, 0.0, 121.0],
    [1.0, 0.0, 0.0, 0.0],
    [0.0, 0.0, -1.0, 71.0],
    [0.0, 0.0, 0.0, 1.0]
],
  "dcmmeta_shape": [122, 122, 72, 31],
  "dcmmeta_slice_dim": 2,
  "dcmmeta_version": 0.6,
  "global": {
    "const": {
      "AccessionNumber": "qa",
      "AcquisitionMatrix": [122, 0, 0, 122],
      "AngioFlag": "N",
      "BitsAllocated": 16,
      "BitsStored": 12,
      "BodyPartExamined": "BRAIN",
      "Columns": 122,
      "EchoNumbers": 1,
      "EchoTime": 68.0,
      "EchoTrainLength": 61,
      "FlipAngle": 90.0,
      "HighBit": 11,
      "ImageOrientationPatient": [0.98087386561332, 0.19442474911767, 0.00924536031329, -0.1876439782614, 0.93190499009568, 0.31039140912241],
      "ImageType": [
        "ORIGINAL",
        "PRIMARY",
        "DIFFUSION",
        "NONE",
        "ND",
        "NORM"
],
      "ImagedNucleus": "1H",
      "ImagingFrequency": 123.25234,
      "InPlanePhaseEncodingDirection": "COL",
      "MRAcquisitionType": "2D",
      "MagneticFieldStrength": 3.0,
      "Manufacturer": "SIEMENS",
      "ManufacturerModelName": "Prisma",
      "Modality": "MR",
      "NumberOfAverages": 1.0,
      "NumberOfPhaseEncodingSteps": 122,
      "PercentPhaseFieldOfView": 100.0,
      "PercentSampling": 100.0,
      "PerformedProcedureStepStartTime": "095930.317000",
      "PhotometricInterpretation": "MONOCHROME2",
      "PixelBandwidth": 2050.0,
      "PixelRepresentation": 0,
      "PixelSpacing": [1.9672131538391, 1.9672131538391],
      "ProtocolName": "dwi_acq-DTI-30-p2-s4",
      "RepetitionTime": 3600.0,
      "Rows": 122,
      "SAR": 0.15971267211401,
      "SamplesPerPixel": 1,
      "ScanOptions": "FS",
      "ScanningSequence": "EP",
      "SequenceVariant": [
        "SK",
        "SP"
],
      "SeriesDescription": "dwi_acq-DTI-30-p2-s4",
      "SeriesNumber": 13,
      "SeriesTime": "103544.490000",
      "SliceThickness": 2.0,
      "SmallestImagePixelValue": 0,
      "SoftwareVersions": "syngo MR E11",
      "SpacingBetweenSlices": 2.0,
      "SpecificCharacterSet": "ISO_IR 100",
      "StudyID": "3",
      "StudyTime": "095930.263000",
      "TransmitCoilName": "Body",
      "VariableFlipAngleFlag": "N",
      "WindowCenterWidthExplanation": "Algo1",
      "dBdt": 0.0},
    "slices": {
      "AcquisitionTime": ["103535.477500", "103532.892500", "103534.682500", "103533.090000", "103534.880000", "103533.290000", "103535.080000", "103533.487500", "103535.277500", "103533.885000", "103535.675000", "103534.085000", "103535.875000", "103534.285000", "103536.075000", "103534.482500", "103536.272500", "103533.687500", "103535.477500", "103532.892500", "103534.682500", "103533.090000", "103534.880000", "103533.290000", "103535.080000", "103533.487500", "103535.277500", "103533.885000", "103535.675000", "103534.085000", "103535.875000", "103534.285000", "103536.075000", "103534.482500", "103536.272500", "103533.687500", "103535.477500", "103532.892500", "103534.682500", "103533.090000", "103534.880000", "103533.290000", "103535.080000", "103533.487500", "103535.277500", "103533.885000", "103535.675000", "103534.085000", "103535.875000", "103534.285000", "103536.075000", "103534.482500", "103536.272500", "103533.687500", "103535.477500", "103532.892500", "103534.682500", "103533.090000", "103534.880000", "103533.290000", "103535.080000", "103533.487500", "103535.277500", "103533.885000", "103535.675000", "103534.085000", "103535.875000", "103534.285000", "103536.075000", "103534.482500", "103536.272500", "103533.687500", "103539.077500", "103536.492500", "103538.282500", "103536.690000", "103538.480000", "103536.890000", "103538.680000", "103537.087500", "103538.877500", "103537.485000", "103539.275000", "103537.685000", "103539.475000", "103537.885000", "103539.675000", "103538.082500", "103539.872500", "103537.287500", "103539.077500", "103536.492500", "103538.282500", "103536.690000", "103538.480000", "103536.890000", "103538.680000", "103537.087500", "103538.877500", "103537.485000", "103539.275000", "103537.685000", "103539.475000", "103537.885000", "103539.675000", "103538.082500", "103539.872500", "103537.287500", "103539.077500", "103536.492500", "103538.282500", "103536.690000", "103538.480000", "103536.890000", "103538.680000", "103537.087500", "103538.877500", "103537.485000", "103539.275000", "103537.685000", "103539.475000", "103537.885000", "103539.675000", "103538.082500", "103539.872500", "103537.287500", "103539.077500", "103536.492500", "103538.282500", "103536.690000", "103538.480000", "103536.890000", "103538.680000", "103537.087500", "103538.877500", "103537.485000", "103539.275000", "103537.685000", "103539.475000", "103537.885000", "103539.675000", "103538.082500", "103539.872500", "103537.287500", "103542.677500", "103540.092500", "103541.882500", "103540.290000", "103542.080000", "103540.490000", "103542.280000", "103540.687500", "103542.477500", "103541.085000", "103542.875000", "103541.285000", "103543.075000", "103541.485000", "103543.275000", "103541.682500", "103543.472500", "103540.887500", "103542.677500", "103540.092500", "103541.882500", "103540.290000", "103542.080000", "103540.490000", "103542.280000", "103540.687500", "103542.477500", "103541.085000", "103542.875000", "103541.285000", "103543.075000", "103541.485000", "103543.275000", "103541.682500", "103543.472500", "103540.887500", "103542.677500", "103540.092500", "103541.882500", "103540.290000", "103542.080000", "103540.490000", "103542.280000", "103540.687500", "103542.477500", "103541.085000", "103542.875000", "103541.285000", "103543.075000", "103541.485000", "103543.275000", "103541.682500", "103543.472500", "103540.887500", "103542.677500", "103540.092500", "103541.882500", "103540.290000", "103542.080000", "103540.490000", "103542.280000", "103540.687500", "103542.477500", "103541.085000", "103542.875000", "103541.285000", "103543.075000", "103541.485000", "103543.275000", "103541.682500", "103543.472500", "103540.887500", "103546.277500", "103543.692500", "103545.482500", "103543.890000", "103545.680000", "103544.090000", "103545.880000", "103544.287500", "103546.077500", "103544.685000", "103546.475000", "103544.885000", "103546.675000", "103545.085000", "103546.875000", "103545.282500", "103547.072500", "103544.487500", "103546.277500", "103543.692500", "103545.482500", "103543.890000", "103545.680000", "103544.090000", "103545.880000", "103544.287500", "103546.077500", "103544.685000", "103546.475000", "103544.885000", "103546.675000", "103545.085000", "103546.875000", "103545.282500", "103547.072500", "103544.487500", "103546.277500", "103543.692500", "103545.482500", "103543.890000", "103545.680000", "103544.090000", "103545.880000", "103544.287500", "103546.077500", "103544.685000", "103546.475000", "103544.885000", "103546.675000", "103545.085000", "103546.875000", "103545.282500", "103547.072500", "103544.487500", "103546.277500", "103543.692500", "103545.482500", "103543.890000", "103545.680000", "103544.090000", "103545.880000", "103544.287500", "103546.077500", "103544.685000", "103546.475000", "103544.885000", "103546.675000", "103545.085000", "103546.875000", "103545.282500", "103547.072500", "103544.487500", "103549.877500", "103547.292500", "103549.082500", "103547.490000", "103549.280000", "103547.690000", "103549.480000", "103547.887500", "103549.677500", "103548.285000", "103550.075000", "103548.485000", "103550.275000", "103548.685000", "103550.475000", "103548.882500", "103550.672500", "103548.087500", "103549.877500", "103547.292500", "103549.082500", "103547.490000", "103549.280000", "103547.690000", "103549.480000", "103547.887500", "103549.677500", "103548.285000", "103550.075000", "103548.485000", "103550.275000", "103548.685000", "103550.475000", "103548.882500", "103550.672500", "103548.087500", "103549.877500", "103547.292500", "103549.082500", "103547.490000", "103549.280000", "103547.690000", "103549.480000", "103547.887500", "103549.677500", "103548.285000", "103550.075000", "103548.485000", "103550.275000", "103548.685000", "103550.475000", "103548.882500", "103550.672500", "103548.087500", "103549.877500", "103547.292500", "103549.082500", "103547.490000", "103549.280000", "103547.690000", "103549.480000", "103547.887500", "103549.677500", "103548.285000", "103550.075000", "103548.485000", "103550.275000", "103548.685000", "103550.475000", "103548.882500", "103550.672500", "103548.087500", "103553.477500", "103550.892500", "103552.682500", "103551.090000", "103552.880000", "103551.290000", "103553.080000", "103551.487500", "103553.277500", "103551.885000", "103553.675000", "103552.085000", "103553.875000", "103552.285000", "103554.075000", "103552.482500", "103554.272500", "103551.687500", "103553.477500", "103550.892500", "103552.682500", "103551.090000", "103552.880000", "103551.290000", "103553.080000", "103551.487500", "103553.277500", "103551.885000", "103553.675000", "103552.085000", "103553.875000", "103552.285000", "103554.075000", "103552.482500", "103554.272500", "103551.687500", "103553.477500", "103550.892500", "103552.682500", "103551.090000", "103552.880000", "103551.290000", "103553.080000", "103551.487500", "103553.277500", "103551.885000", "103553.675000", "103552.085000", "103553.875000", "103552.285000", "103554.075000", "103552.482500", "103554.272500", "103551.687500", "103553.477500", "103550.892500", "103552.682500", "103551.090000", "103552.880000", "103551.290000", "103553.080000", "103551.487500", "103553.277500", "103551.885000", "103553.675000", "103552.085000", "103553.875000", "103552.285000", "103554.075000", "103552.482500", "103554.272500", "103551.687500", "103557.077500", "103554.492500", "103556.282500", "103554.690000", "103556.480000", "103554.890000", "103556.680000", "103555.087500", "103556.877500", "103555.485000", "103557.275000", "103555.685000", "103557.475000", "103555.885000", "103557.675000", "103556.082500", "103557.872500", "103555.287500", "103557.077500", "103554.492500", "103556.282500", "103554.690000", "103556.480000", "103554.890000", "103556.680000", "103555.087500", "103556.877500", "103555.485000", "103557.275000", "103555.685000", "103557.475000", "103555.885000", "103557.675000", "103556.082500", "103557.872500", "103555.287500", "103557.077500", "103554.492500", "103556.282500", "103554.690000", "103556.480000", "103554.890000", "103556.680000", "103555.087500", "103556.877500", "103555.485000", "103557.275000", "103555.685000", "103557.475000", "103555.885000", "103557.675000", "103556.082500", "103557.872500", "103555.287500", "103557.077500", "103554.492500", "103556.282500", "103554.690000", "103556.480000", "103554.890000", "103556.680000", "103555.087500", "103556.877500", "103555.485000", "103557.275000", "103555.685000", "103557.475000", "103555.885000", "103557.675000", "103556.082500", "103557.872500", "103555.287500", "103600.677500", "103558.092500", "103559.882500", "103558.290000", "103600.080000", "103558.490000", "103600.280000", "103558.687500", "103600.477500", "103559.085000", "103600.875000", "103559.285000", "103601.075000", "103559.485000", "103601.275000", "103559.682500", "103601.472500", "103558.887500", "103600.677500", "103558.092500", "103559.882500", "103558.290000", "103600.080000", "103558.490000", "103600.280000", "103558.687500", "103600.477500", "103559.085000", "103600.875000", "103559.285000", "103601.075000", "103559.485000", "103601.275000", "103559.682500", "103601.472500", "103558.887500", "103600.677500", "103558.092500", "103559.882500", "103558.290000", "103600.080000", "103558.490000", "103600.280000", "103558.687500", "103600.477500", "103559.085000", "103600.875000", "103559.285000", "103601.075000", "103559.485000", "103601.275000", "103559.682500", "103601.472500", "103558.887500", "103600.677500", "103558.092500", "103559.882500", "103558.290000", "103600.080000", "103558.490000", "103600.280000", "103558.687500", "103600.477500", "103559.085000", "103600.875000", "103559.285000", "103601.075000", "103559.485000", "103601.275000", "103559.682500", "103601.472500", "103558.887500", "103604.277500", "103601.692500", "103603.482500", "103601.890000", "103603.680000", "103602.090000", "103603.880000", "103602.287500", "103604.077500", "103602.685000", "103604.475000", "103602.885000", "103604.675000", "103603.085000", "103604.875000", "103603.282500", "103605.072500", "103602.487500", "103604.277500", "103601.692500", "103603.482500", "103601.890000", "103603.680000", "103602.090000", "103603.880000", "103602.287500", "103604.077500", "103602.685000", "103604.475000", "103602.885000", "103604.675000", "103603.085000", "103604.875000", "103603.282500", "103605.072500", "103602.487500", "103604.277500", "103601.692500", "103603.482500", "103601.890000", "103603.680000", "103602.090000", "103603.880000", "103602.287500", "103604.077500", "103602.685000", "103604.475000", "103602.885000", "103604.675000", "103603.085000", "103604.875000", "103603.282500", "103605.072500", "103602.487500", "103604.277500", "103601.692500", "103603.482500", "103601.890000", "103603.680000", "103602.090000", "103603.880000", "103602.287500", "103604.077500", "103602.685000", "103604.475000", "103602.885000", "103604.675000", "103603.085000", "103604.875000", "103603.282500", "103605.072500", "103602.487500", "103607.877500", "103605.292500", "103607.082500", "103605.490000", "103607.280000", "103605.690000", "103607.480000", "103605.887500", "103607.677500", "103606.285000", "103608.075000", "103606.485000", "103608.275000", "103606.685000", "103608.475000", "103606.882500", "103608.672500", "103606.087500", "103607.877500", "103605.292500", "103607.082500", "103605.490000", "103607.280000", "103605.690000", "103607.480000", "103605.887500", "103607.677500", "103606.285000", "103608.075000", "103606.485000", "103608.275000", "103606.685000", "103608.475000", "103606.882500", "103608.672500", "103606.087500", "103607.877500", "103605.292500", "103607.082500", "103605.490000", "103607.280000", "103605.690000", "103607.480000", "103605.887500", "103607.677500", "103606.285000", "103608.075000", "103606.485000", "103608.275000", "103606.685000", "103608.475000", "103606.882500", "103608.672500", "103606.087500", "103607.877500", "103605.292500", "103607.082500", "103605.490000", "103607.280000", "103605.690000", "103607.480000", "103605.887500", "103607.677500", "103606.285000", "103608.075000", "103606.485000", "103608.275000", "103606.685000", "103608.475000", "103606.882500", "103608.672500", "103606.087500", "103611.477500", "103608.892500", "103610.682500", "103609.090000", "103610.880000", "103609.290000", "103611.080000", "103609.487500", "103611.277500", "103609.885000", "103611.675000", "103610.085000", "103611.875000", "103610.285000", "103612.075000", "103610.482500", "103612.272500", "103609.687500", "103611.477500", "103608.892500", "103610.682500", "103609.090000", "103610.880000", "103609.290000", "103611.080000", "103609.487500", "103611.277500", "103609.885000", "103611.675000", "103610.085000", "103611.875000", "103610.285000", "103612.075000", "103610.482500", "103612.272500", "103609.687500", "103611.477500", "103608.892500", "103610.682500", "103609.090000", "103610.880000", "103609.290000", "103611.080000", "103609.487500", "103611.277500", "103609.885000", "103611.675000", "103610.085000", "103611.875000", "103610.285000", "103612.075000", "103610.482500", "103612.272500", "103609.687500", "103611.477500", "103608.892500", "103610.682500", "103609.090000", "103610.880000", "103609.290000", "103611.080000", "103609.487500", "103611.277500", "103609.885000", "103611.675000", "103610.085000", "103611.875000", "103610.285000", "103612.075000", "103610.482500", "103612.272500", "103609.687500", "103615.077500", "103612.492500", "103614.282500", "103612.690000", "103614.480000", "103612.890000", "103614.680000", "103613.087500", "103614.877500", "103613.485000", "103615.275000", "103613.685000", "103615.475000", "103613.885000", "103615.675000", "103614.082500", "103615.872500", "103613.287500", "103615.077500", "103612.492500", "103614.282500", "103612.690000", "103614.480000", "103612.890000", "103614.680000", "103613.087500", "103614.877500", "103613.485000", "103615.275000", "103613.685000", "103615.475000", "103613.885000", "103615.675000", "103614.082500", "103615.872500", "103613.287500", "103615.077500", "103612.492500", "103614.282500", "103612.690000", "103614.480000", "103612.890000", "103614.680000", "103613.087500", "103614.877500", "103613.485000", "103615.275000", "103613.685000", "103615.475000", "103613.885000", "103615.675000", "103614.082500", "103615.872500", "103613.287500", "103615.077500", "103612.492500", "103614.282500", "103612.690000", "103614.480000", "103612.890000", "103614.680000", "103613.087500", "103614.877500", "103613.485000", "103615.275000", "103613.685000", "103615.475000", "103613.885000", "103615.675000", "103614.082500", "103615.872500", "103613.287500", "103618.677500", "103616.092500", "103617.882500", "103616.290000", "103618.080000", "103616.490000", "103618.280000", "103616.687500", "103618.477500", "103617.085000", "103618.875000", "103617.285000", "103619.075000", "103617.485000", "103619.275000", "103617.682500", "103619.472500", "103616.887500", "103618.677500", "103616.092500", "103617.882500", "103616.290000", "103618.080000", "103616.490000", "103618.280000", "103616.687500", "103618.477500", "103617.085000", "103618.875000", "103617.285000", "103619.075000", "103617.485000", "103619.275000", "103617.682500", "103619.472500", "103616.887500", "103618.677500", "103616.092500", "103617.882500", "103616.290000", "103618.080000", "103616.490000", "103618.280000", "103616.687500", "103618.477500", "103617.085000", "103618.875000", "103617.285000", "103619.075000", "103617.485000", "103619.275000", "103617.682500", "103619.472500", "103616.887500", "103618.677500", "103616.092500", "103617.882500", "103616.290000", "103618.080000", "103616.490000", "103618.280000", "103616.687500", "103618.477500", "103617.085000", "103618.875000", "103617.285000", "103619.075000", "103617.485000", "103619.275000", "103617.682500", "103619.472500", "103616.887500", "103622.277500", "103619.692500", "103621.482500", "103619.890000", "103621.680000", "103620.090000", "103621.880000", "103620.287500", "103622.077500", "103620.685000", "103622.475000", "103620.885000", "103622.675000", "103621.085000", "103622.875000", "103621.282500", "103623.072500", "103620.487500", "103622.277500", "103619.692500", "103621.482500", "103619.890000", "103621.680000", "103620.090000", "103621.880000", "103620.287500", "103622.077500", "103620.685000", "103622.475000", "103620.885000", "103622.675000", "103621.085000", "103622.875000", "103621.282500", "103623.072500", "103620.487500", "103622.277500", "103619.692500", "103621.482500", "103619.890000", "103621.680000", "103620.090000", "103621.880000", "103620.287500", "103622.077500", "103620.685000", "103622.475000", "103620.885000", "103622.675000", "103621.085000", "103622.875000", "103621.282500", "103623.072500", "103620.487500", "103622.277500", "103619.692500", "103621.482500", "103619.890000", "103621.680000", "103620.090000", "103621.880000", "103620.287500", "103622.077500", "103620.685000", "103622.475000", "103620.885000", "103622.675000", "103621.085000", "103622.875000", "103621.282500", "103623.072500", "103620.487500", "103625.877500", "103623.292500", "103625.082500", "103623.490000", "103625.280000", "103623.690000", "103625.480000", "103623.887500", "103625.677500", "103624.285000", "103626.075000", "103624.485000", "103626.275000", "103624.685000", "103626.475000", "103624.882500", "103626.672500", "103624.087500", "103625.877500", "103623.292500", "103625.082500", "103623.490000", "103625.280000", "103623.690000", "103625.480000", "103623.887500", "103625.677500", "103624.285000", "103626.075000", "103624.485000", "103626.275000", "103624.685000", "103626.475000", "103624.882500", "103626.672500", "103624.087500", "103625.877500", "103623.292500", "103625.082500", "103623.490000", "103625.280000", "103623.690000", "103625.480000", "103623.887500", "103625.677500", "103624.285000", "103626.075000", "103624.485000", "103626.275000", "103624.685000", "103626.475000", "103624.882500", "103626.672500", "103624.087500", "103625.877500", "103623.292500", "103625.082500", "103623.490000", "103625.280000", "103623.690000", "103625.480000", "103623.887500", "103625.677500", "103624.285000", "103626.075000", "103624.485000", "103626.275000", "103624.685000", "103626.475000", "103624.882500", "103626.672500", "103624.087500", "103629.477500", "103626.892500", "103628.682500", "103627.090000", "103628.880000", "103627.290000", "103629.080000", "103627.487500", "103629.277500", "103627.885000", "103629.675000", "103628.085000", "103629.875000", "103628.285000", "103630.075000", "103628.482500", "103630.272500", "103627.687500", "103629.477500", "103626.892500", "103628.682500", "103627.090000", "103628.880000", "103627.290000", "103629.080000", "103627.487500", "103629.277500", "103627.885000", "103629.675000", "103628.085000", "103629.875000", "103628.285000", "103630.075000", "103628.482500", "103630.272500", "103627.687500", "103629.477500", "103626.892500", "103628.682500", "103627.090000", "103628.880000", "103627.290000", "103629.080000", "103627.487500", "103629.277500", "103627.885000", "103629.675000", "103628.085000", "103629.875000", "103628.285000", "103630.075000", "103628.482500", "103630.272500", "103627.687500", "103629.477500", "103626.892500", "103628.682500", "103627.090000", "103628.880000", "103627.290000", "103629.080000", "103627.487500", "103629.277500", "103627.885000", "103629.675000", "103628.085000", "103629.875000", "103628.285000", "103630.075000", "103628.482500", "103630.272500", "103627.687500", "103633.077500", "103630.492500", "103632.282500", "103630.690000", "103632.480000", "103630.890000", "103632.680000", "103631.087500", "103632.877500", "103631.485000", "103633.275000", "103631.685000", "103633.475000", "103631.885000", "103633.675000", "103632.082500", "103633.872500", "103631.287500", "103633.077500", "103630.492500", "103632.282500", "103630.690000", "103632.480000", "103630.890000", "103632.680000", "103631.087500", "103632.877500", "103631.485000", "103633.275000", "103631.685000", "103633.475000", "103631.885000", "103633.675000", "103632.082500", "103633.872500", "103631.287500", "103633.077500", "103630.492500", "103632.282500", "103630.690000", "103632.480000", "103630.890000", "103632.680000", "103631.087500", "103632.877500", "103631.485000", "103633.275000", "103631.685000", "103633.475000", "103631.885000", "103633.675000", "103632.082500", "103633.872500", "103631.287500", "103633.077500", "103630.492500", "103632.282500", "103630.690000", "103632.480000", "103630.890000", "103632.680000", "103631.087500", "103632.877500", "103631.485000", "103633.275000", "103631.685000", "103633.475000", "103631.885000", "103633.675000", "103632.082500", "103633.872500", "103631.287500", "103636.677500", "103634.092500", "103635.882500", "103634.290000", "103636.080000", "103634.490000", "103636.280000", "103634.687500", "103636.477500", "103635.085000", "103636.875000", "103635.285000", "103637.075000", "103635.485000", "103637.275000", "103635.682500", "103637.472500", "103634.887500", "103636.677500", "103634.092500", "103635.882500", "103634.290000", "103636.080000", "103634.490000", "103636.280000", "103634.687500", "103636.477500", "103635.085000", "103636.875000", "103635.285000", "103637.075000", "103635.485000", "103637.275000", "103635.682500", "103637.472500", "103634.887500", "103636.677500", "103634.092500", "103635.882500", "103634.290000", "103636.080000", "103634.490000", "103636.280000", "103634.687500", "103636.477500", "103635.085000", "103636.875000", "103635.285000", "103637.075000", "103635.485000", "103637.275000", "103635.682500", "103637.472500", "103634.887500", "103636.677500", "103634.092500", "103635.882500", "103634.290000", "103636.080000", "103634.490000", "103636.280000", "103634.687500", "103636.477500", "103635.085000", "103636.875000", "103635.285000", "103637.075000", "103635.485000", "103637.275000", "103635.682500", "103637.472500", "103634.887500", "103640.277500", "103637.692500", "103639.482500", "103637.890000", "103639.680000", "103638.090000", "103639.880000", "103638.287500", "103640.077500", "103638.685000", "103640.475000", "103638.885000", "103640.675000", "103639.085000", "103640.875000", "103639.282500", "103641.072500", "103638.487500", "103640.277500", "103637.692500", "103639.482500", "103637.890000", "103639.680000", "103638.090000", "103639.880000", "103638.287500", "103640.077500", "103638.685000", "103640.475000", "103638.885000", "103640.675000", "103639.085000", "103640.875000", "103639.282500", "103641.072500", "103638.487500", "103640.277500", "103637.692500", "103639.482500", "103637.890000", "103639.680000", "103638.090000", "103639.880000", "103638.287500", "103640.077500", "103638.685000", "103640.475000", "103638.885000", "103640.675000", "103639.085000", "103640.875000", "103639.282500", "103641.072500", "103638.487500", "103640.277500", "103637.692500", "103639.482500", "103637.890000", "103639.680000", "103638.090000", "103639.880000", "103638.287500", "103640.077500", "103638.685000", "103640.475000", "103638.885000", "103640.675000", "103639.085000", "103640.875000", "103639.282500", "103641.072500", "103638.487500", "103643.877500", "103641.292500", "103643.082500", "103641.490000", "103643.280000", "103641.690000", "103643.480000", "103641.887500", "103643.677500", "103642.285000", "103644.075000", "103642.485000", "103644.275000", "103642.685000", "103644.475000", "103642.882500", "103644.672500", "103642.087500", "103643.877500", "103641.292500", "103643.082500", "103641.490000", "103643.280000", "103641.690000", "103643.480000", "103641.887500", "103643.677500", "103642.285000", "103644.075000", "103642.485000", "103644.275000", "103642.685000", "103644.475000", "103642.882500", "103644.672500", "103642.087500", "103643.877500", "103641.292500", "103643.082500", "103641.490000", "103643.280000", "103641.690000", "103643.480000", "103641.887500", "103643.677500", "103642.285000", "103644.075000", "103642.485000", "103644.275000", "103642.685000", "103644.475000", "103642.882500", "103644.672500", "103642.087500", "103643.877500", "103641.292500", "103643.082500", "103641.490000", "103643.280000", "103641.690000", "103643.480000", "103641.887500", "103643.677500", "103642.285000", "103644.075000", "103642.