{
  "AcquisitionMatrixPE": 80,
  "AcquisitionNumber": 1,
  "AcquisitionTime": "09:15:27.110000",
  "BandwidthPerPixelPhaseEncode": 44.643,
  "BaseResolution": 80,
  "BodyPartExamined": "BRAIN",
  "CoilCombinationMethod": "Sum of Squares",
  "ConsistencyInfo": "N4_VE11C_LATEST_20160120",
  "ConversionSoftware": "dcm2niix",
  "ConversionSoftwareVersion": "v1.0.20220720",
  "DerivedVendorReportedEchoSpacing": 0.000559998,
  "DeviceSerialNumber": "66112",
  "DwellTime": 2.7e-06,
  "EchoTime": 0.035,
  "EchoTrainLength": 39,
  "EffectiveEchoSpacing": 0.000279999,
  "FlipAngle": 90,
  "HeudiconvVersion": "0.13.1",
  "ImageOrientationPatientDICOM": [0.984971, 0.172347, 0.0113388, -0.16748, 0.93698, 0.306625],
  "ImageOrientationText": "Tra>Cor(17.7)>Sag(-2.4)",
  "ImageType": [
    "ORIGINAL",
    "PRIMARY",
    "M",
    "ND",
    "NORM",
    "MOSAIC"
],
  "ImagingFrequency": 123.252,
  "InPlanePhaseEncodingDirectionDICOM": "COL",
  "InstitutionAddress": "Maynard 3,Hanover,NH,US,03755",
  "InstitutionName": "Dartmouth College - PBS",
  "InstitutionalDepartmentName": "Department",
  "MRAcquisitionType": "2D",
  "MagneticFieldStrength": 3,
  "Manufacturer": "Siemens",
  "ManufacturersModelName": "Prisma",
  "Modality": "MR",
  "MultibandAccelerationFactor": 4,
  "NonlinearGradientCorrection": false,
  "ParallelReductionFactorInPlane": 2,
  "PartialFourier": 1,
  "PatientPosition": "HFS",
  "PercentPhaseFOV": 100,
  "PercentSampling": 100,
  "PhaseEncodingDirection": "j-",
  "PhaseEncodingSteps": 79,
  "PhaseResolution": 1,
  "PixelBandwidth": 2315,
  "ProcedureStepDescription": "dbic^QA",
  "ProtocolName": "func-bold_task-rest_acq-p2-s4-3.5mm",
  "PulseSequenceDetails": "%SiemensSeq%\\ep2d_bold",
  "ReceiveCoilActiveElements": "HEA;HEP",
  "ReceiveCoilName": "Head_32",
  "ReconMatrixPE": 80,
  "RefLinesPE": 24,
  "RepetitionTime": 2,
  "SAR": 0.0179139,
  "ScanOptions": "FS",
  "ScanningSequence": "EP",
  "SequenceName": "*epfid2d1_80",
  "SequenceVariant": "SK",
  "SeriesDescription": "func-bold_task-rest_acq-p2-s4-3.5mm",
  "SeriesNumber": 7,
  "ShimSetting": [4147, -7690, -7522, 260, -24, -201, -45, 67],
  "SliceThickness": 3.5,
  "SliceTiming": [1.485, 0, 0.99, 0.2475, 1.2375, 0.7425, 1.7325, 0.495, 1.485, 0, 0.99, 0.2475, 1.2375, 0.7425, 1.7325, 0.495, 1.485, 0, 0.99, 0.2475, 1.2375, 0.7425, 1.7325, 0.495, 1.485, 0, 0.99, 0.2475, 1.2375, 0.7425, 1.7325, 0.495],
  "SoftwareVersions": "syngo MR E11",
  "SpacingBetweenSlices": 3.99,
  "StationName": "AWP66112",
  "TaskName": "rest",
  "TotalReadoutTime": 0.0221199,
  "TxRefAmp": 231.226,
  "dcmmeta_affine": [
    [-2.9549129009246826, -0.5024390816688538, -0.1684648096561432, 145.4776611328125],
    [-0.5170416235923767, 2.8109402656555176, 1.2126233577728271, -97.7770767211914],
    [0.03401625528931618, -0.9198747277259827, 3.7975337505340576, -33.533485412597656],
    [0.0, 0.0, 0.0, 1.0]
],
  "dcmmeta_reorient_transform": [
    [0.0, -1.0, 0.0, 79.0],
    [1.0, 0.0, 0.0, 0.0],
    [0.0, 0.0, 1.0, 0.0],
    [0.0, 0.0, 0.0, 1.0]
],
  "dcmmeta_shape": [80, 80, 32, 200],
  "dcmmeta_slice_dim": 2,
  "dcmmeta_version": 0.6,
  "global": {
    "const": {
      "AccessionNumber": "qa",
      "AcquisitionMatrix": [80, 0, 0, 80],
      "AngioFlag": "N",
      "BitsAllocated": 16,
      "BitsStored": 12,
      "BodyPartExamined": "BRAIN",
      "Columns": 480,
      "EchoNumbers": 1,
      "EchoTime": 35.0,
      "EchoTrainLength": 39,
      "FlipAngle": 90.0,
      "HighBit": 11,
      "ImageOrientationPatient": [0.98497100244667, 0.17234719915526, 0.01133875136602, -0.1674796925853, 0.93698010730664, 0.30662490290773],
      "ImagePositionPatient": [-596.27975679877, -789.88359507029, -296.98178182173],
      "ImageType": [
        "ORIGINAL",
        "PRIMARY",
        "M",
        "ND",
        "NORM",
        "MOSAIC"
],
      "ImagedNucleus": "1H",
      "ImagingFrequency": 123.252468,
      "InPlanePhaseEncodingDirection": "COL",
      "MRAcquisitionType": "2D",
      "MagneticFieldStrength": 3.0,
      "Manufacturer": "SIEMENS",
      "ManufacturerModelName": "Prisma",
      "Modality": "MR",
      "NumberOfAverages": 1.0,
      "NumberOfPhaseEncodingSteps": 79,
      "PercentPhaseFieldOfView": 100.0,
      "PercentSampling": 100.0,
      "PerformedProcedureStepStartTime": "090648.937000",
      "PhotometricInterpretation": "MONOCHROME2",
      "PixelBandwidth": 2315.0,
      "PixelRepresentation": 0,
      "PixelSpacing": [3.0, 3.0],
      "ProtocolName": "func-bold_task-rest_acq-p2-s4-3.5mm",
      "RepetitionTime": 2000.0,
      "Rows": 480,
      "SAR": 0.01791394516125,
      "SamplesPerPixel": 1,
      "ScanOptions": "FS",
      "ScanningSequence": "EP",
      "SequenceName": "*epfid2d1_80",
      "SequenceVariant": "SK",
      "SeriesDescription": "func-bold_task-rest_acq-p2-s4-3.5mm",
      "SeriesNumber": 7,
      "SeriesTime": "091609.312000",
      "SliceLocation": -67.774234317086,
      "SliceThickness": 3.5,
      "SmallestImagePixelValue": 0,
      "SoftwareVersions": "syngo MR E11",
      "SpacingBetweenSlices": 3.9899999129224,
      "SpecificCharacterSet": "ISO_IR 100",
      "StudyID": "42",
      "StudyTime": "090648.869000",
      "TransmitCoilName": "Body",
      "VariableFlipAngleFlag": "N",
      "WindowCenterWidthExplanation": "Algo1",
      "dBdt": 0.0},
    "slices": {}
  },
  "time": {
    "samples": {
      "AcquisitionNumber": [1, 2, 3, 4, 5, 6, 7, 8, 9, 10, 11, 12, 13, 14, 15, 16, 17, 18, 19, 20, 21, 22, 23, 24, 25, 26, 27, 28, 29, 30, 31, 32, 33, 34, 35, 36, 37, 38, 39, 40, 41, 42, 43, 44, 45, 46, 47, 48, 49, 50, 51, 52, 53, 54, 55, 56, 57, 58, 59, 60, 61, 62, 63, 64, 65, 66, 67, 68, 69, 70, 71, 72, 73, 74, 75, 76, 77, 78, 79, 80, 81, 82, 83, 84, 85, 86, 87, 88, 89, 90, 91, 92, 93, 94, 95, 96, 97, 98, 99, 100, 101, 102, 103, 104, 105, 106, 107, 108, 109, 110, 111, 112, 113, 114, 115, 116, 117, 118, 119, 120, 121, 122, 123, 124, 125, 126, 127, 128, 129, 130, 131, 132, 133, 134, 135, 136, 137, 138, 139, 140, 141, 142, 143, 144, 145, 146, 147, 148, 149, 150, 151, 152, 153, 154, 155, 156, 157, 158, 159, 160, 161, 162, 163, 164, 165, 166, 167, 168, 169, 170, 171, 172, 173, 174, 175, 176, 177, 178, 179, 180, 181, 182, 183, 184, 185, 186, 187, 188, 189, 190, 191, 192, 193, 194, 195, 196, 197, 198, 199, 200],
      "AcquisitionTime": ["091527.110000", "091529.110000", "091531.110000", "091533.110000", "091535.110000", "091537.110000", "091539.110000", "091541.110000", "091543.110000", "091545.110000", "091547.110000", "091549.110000", "091551.110000", "091553.110000", "091555.110000", "091557.110000", "091559.110000", "091601.110000", "091603.110000", "091605.110000", "091607.110000", "091609.110000", "091611.110000", "091613.110000", "091615.110000", "091617.110000", "091619.110000", "091621.110000", "091623.110000", "091625.110000", "091627.110000", "091629.110000", "091631.110000", "091633.110000", "091635.110000", "091637.110000", "091639.110000", "091641.110000", "091643.110000", "091645.110000", "091647.110000", "091649.110000", "091651.110000", "091653.110000", "091655.110000", "091657.110000", "091659.110000", "091701.110000", "091703.110000", "091705.110000", "091707.110000", "091709.110000", "091711.110000", "091713.110000", "091715.110000", "091717.110000", "091719.110000", "091721.110000", "091723.110000", "091725.110000", "091727.110000", "091729.110000", "091731.110000", "091733.110000", "091735.110000", "091737.110000", "091739.110000", "091741.110000", "091743.110000", "091745.110000", "091747.110000", "091749.110000", "091751.110000", "091753.110000", "091755.110000", "091757.110000", "091759.110000", "091801.110000", "091803.110000", "091805.110000", "091807.110000", "091809.110000", "091811.110000", "091813.110000", "091815.110000", "091817.110000", "091819.110000", "091821.110000", "091823.110000", "091825.110000", "091827.110000", "091829.110000", "091831.110000", "091833.110000", "091835.110000", "091837.110000", "091839.110000", "091841.110000", "091843.110000", "091845.110000", "091847.110000", "091849.110000", "091851.110000", "091853.110000", "091855.110000", "091857.110000", "091859.110000", "091901.110000", "091903.110000", "091905.110000", "091907.110000", "091909.110000", "091911.110000", "091913.110000", "091915.110000", "091917.110000", "091919.110000", "091921.110000", "091923.110000", "091925.110000", "091927.110000", "091929.110000", "091931.110000", "091933.110000", "091935.110000", "091937.110000", "091939.110000", "091941.110000", "091943.110000", "091945.110000", "091947.110000", "091949.110000", "091951.110000", "091953.110000", "091955.110000", "091957.110000", "091959.110000", "092001.110000", "092003.110000", "092005.110000", "092007.110000", "092009.110000", "092011.110000", "092013.110000", "092015.110000", "092017.110000", "092019.110000", "092021.110000", "092023.110000", "092025.110000", "092027.110000", "092029.110000", "092031.110000", "092033.110000", "092035.110000", "092037.110000", "092039.110000", "092041.110000", "092043.110000", "092045.110000", "092047.110000", "092049.110000", "092051.110000", "092053.110000", "092055.110000", "092057.110000", "092059.110000", "092101.110000", "092103.110000", "092105.110000", "092107.110000", "092109.110000", "092111.110000", "092113.110000", "092115.110000", "092117.110000", "092119.110000", "092121.110000", "092123.110000", "092125.110000", "092127.110000", "092129.110000", "092131.110000", "092133.110000", "092135.110000", "092137.110000", "092139.110000", "092141.110000", "092143.110000", "092145.110000", "092147.110000", "092149.110000", "092151.110000", "092153.110000", "092155.110000", "092157.110000", "092159.110000", "092201.110000", "092203.110000", "092205.110000"],
      "ContentTime": ["091609.316000", "091609.320000", "091609.323000", "091609.325000", "091609.328000", "091609.339000", "091609.342000", "091609.344000", "091609.347000", "091609.349000", "091609.352000", "091609.354000", "091609.357000", "091609.359000", "091609.362000", "091609.364000", "091609.367000", "091609.369000", "091609.372000", "091609.374000", "091609.377000", "091649.311000", "091649.314000", "091649.317000", "091649.319000", "091649.322000", "091649.324000", "091649.327000", "091649.329000", "091649.331000", "091649.334000", "091649.336000", "091649.339000", "091649.341000", "091649.344000", "091649.346000", "091649.349000", "091649.351000", "091649.354000", "091649.356000", "091649.359000", "091729.311000", "091729.314000", "091729.316000", "091729.319000", "091729.322000", "091729.324000", "091729.326000", "091729.329000", "091729.331000", "091729.334000", "091729.336000", "091729.339000", "091729.341000", "091729.344000", "091729.346000", "091729.349000", "091729.351000", "091729.354000", "091729.356000", "091729.359000", "091809.310000", "091809.313000", "091809.316000", "091809.318000", "091809.320000", "091809.323000", "091809.325000", "091809.328000", "091809.330000", "091809.333000", "091809.335000", "091809.338000", "091809.340000", "091809.343000", "091809.345000", "091809.348000", "091809.350000", "091809.353000", "091809.355000", "091809.358000", "091849.310000", "091849.321000", "091849.323000", "091849.326000", "091849.328000", "091849.331000", "091849.333000", "091849.336000", "091849.338000", "091849.340000", "091849.343000", "091849.346000", "091849.348000", "091849.351000", "091849.353000", "091849.356000", "091849.358000", "091849.361000", "091849.363000", "091849.366000", "091929.311000", "091929.314000", "091929.316000", "091929.319000", "091929.321000", "091929.324000", "091929.326000", "091929.329000", "091929.332000", "091929.334000", "091929.337000", "091929.339000", "091929.342000", "091929.344000", "091929.347000", "091929.349000", "091929.351000", "091929.354000", "091929.356000", "091929.359000", "092009.311000", "092009.314000", "092009.316000", "092009.319000", "092009.321000", "092009.324000", "092009.326000", "092009.329000", "092009.331000", "092009.334000", "092009.336000", "092009.339000", "092009.341000", "092009.344000", "092009.346000", "092009.349000", "092009.351000", "092009.354000", "092009.356000", "092009.359000", "092049.310000", "092049.313000", "092049.315000", "092049.318000", "092049.320000", "092049.323000", "092049.325000", "092049.328000", "092049.331000", "092049.333000", "092049.336000", "092049.338000", "092049.341000", "092049.343000", "092049.345000", "092049.348000", "092049.350000", "092049.353000", "092049.355000", "092049.358000", "092129.311000", "092129.314000", "092129.326000", "092129.329000", "092129.331000", "092129.334000", "092129.336000", "092129.339000", "092129.341000", "092129.364000", "092129.366000", "092129.369000", "092129.371000", "092129.374000", "092129.376000", "092129.379000", "092129.381000", "092129.384000", "092129.386000", "092129.388000", "092206.126000", "092206.129000", "092206.132000", "092206.134000", "092206.137000", "092206.140000", "092206.142000", "092206.144000", "092206.147000", "092206.149000", "092206.152000", "092206.155000", "092206.163000", "092206.166000", "092206.169000", "092206.172000", "092206.175000", "092206.179000", "092206.184000"],
      "InstanceCreationTime": ["091609.316000", "091609.320000", "091609.323000", "091609.325000", "091609.328000", "091609.339000", "091609.342000", "091609.344000", "091609.347000", "091609.349000", "091609.352000", "091609.354000", "091609.357000", "091609.359000", "091609.362000", "091609.364000", "091609.367000", "091609.369000", "091609.372000", "091609.374000", "091609.377000", "091649.311000", "091649.314000", "091649.317000", "091649.319000", "091649.322000", "091649.324000", "091649.327000", "091649.329000", "091649.331000", "091649.334000", "091649.336000", "091649.339000", "091649.341000", "091649.344000", "091649.346000", "091649.349000", "091649.351000", "091649.354000", "091649.356000", "091649.359000", "091729.311000", "091729.314000", "091729.316000", "091729.319000", "091729.322000", "091729.324000", "091729.326000", "091729.329000", "091729.331000", "091729.334000", "091729.336000", "091729.339000", "091729.341000", "091729.344000", "091729.346000", "091729.349000", "091729.351000", "091729.354000", "091729.356000", "091729.359000", "091809.310000", "091809.313000", "091809.316000", "091809.318000", "091809.320000", "091809.323000", "091809.325000", "091809.328000", "091809.330000", "091809.333000", "091809.335000", "091809.338000", "091809.340000", "091809.343000", "091809.345000", "091809.348000", "091809.350000", "091809.353000", "091809.355000", "091809.358000", "091849.310000", "091849.321000", "091849.323000", "091849.326000", "091849.328000", "091849.331000", "091849.333000", "091849.336000", "091849.338000", "091849.340000", "091849.343000", "091849.346000", "091849.348000", "091849.351000", "091849.353000", "091849.356000", "091849.358000", "091849.361000", "091849.363000", "091849.366000", "091929.311000", "091929.314000", "091929.316000", "091929.319000", "091929.321000", "091929.324000", "091929.326000", "091929.329000", "091929.332000", "091929.334000", "091929.337000", "091929.339000", "091929.342000", "091929.344000", "091929.347000", "091929.349000", "091929.351000", "091929.354000", "091929.356000", "091929.359000", "092009.311000", "092009.314000", "092009.316000", "092009.319000", "092009.321000", "092009.324000", "092009.326000", "092009.329000", "092009.331000", "092009.334000", "092009.336000", "092009.339000", "092009.341000", "092009.344000", "092009.346000", "092009.349000", "092009.351000", "092009.354000", "092009.356000", "092009.359000", "092049.310000", "092049.313000", "092049.315000", "092049.318000", "092049.320000", "092049.323000", "092049.325000", "092049.328000", "092049.331000", "092049.333000", "092049.336000", "092049.338000", "092049.341000", "092049.343000", "092049.345000", "092049.348000", "092049.350000", "092049.353000", "092049.355000", "092049.358000", "092129.311000", "092129.314000", "092129.326000", "092129.329000", "092129.331000", "092129.334000", "092129.336000", "092129.339000", "092129.341000", "092129.364000", "092129.366000", "092129.369000", "092129.371000", "092129.374000", "092129.376000", "092129.379000", "092129.381000", "092129.384000", "092129.386000", "092129.388000", "092206.126000", "092206.129000", "092206.132000", "092206.134000", "092206.137000", "092206.140000", "092206.142000", "092206.144000", "092206.147000", "092206.149000", "092206.152000", "092206.155000", "092206.163000", "092206.166000", "092206.169000", "092206.172000", "092206.175000", "092206.179000", "092206.184000"],
      "InstanceNumber": [1, 2, 3, 4, 5, 6, 7, 8, 9, 10, 11, 12, 13, 14, 15, 16, 17, 18, 19, 20, 21, 22, 23, 24, 25, 26, 27, 28, 29, 30, 31, 32, 33, 34, 35, 36, 37, 38, 39, 40, 41, 42, 43, 44, 45, 46, 47, 48, 49, 50, 51, 52, 53, 54, 55, 56, 57, 58, 59, 60, 61, 62, 63, 64, 65, 66, 67, 68, 69, 70, 71, 72, 73, 74, 75, 76, 77, 78, 79, 80, 81, 82, 83, 84, 85, 86, 87, 88, 89, 90, 91, 92, 93, 94, 95, 96, 97, 98, 99, 100, 101, 102, 103, 104, 105, 106, 107, 108, 109, 110, 111, 112, 113, 114, 115, 116, 117, 118, 119, 120, 121, 122, 123, 124, 125, 126, 127, 128, 129, 130, 131, 132, 133, 134, 135, 136, 137, 138, 139, 140, 141, 142, 143, 144, 145, 146, 147, 148, 149, 150, 151, 152, 153, 154, 155, 156, 157, 158, 159, 160, 161, 162, 163, 164, 165, 166, 167, 168, 169, 170, 171, 172, 173, 174, 175, 176, 177, 178, 179, 180, 181, 182, 183, 184, 185, 186, 187, 188, 189, 190, 191, 192, 193, 194, 195, 196, 197, 198, 199, 200],
      "LargestImagePixelValue": [2133, 2137, 2132, 2129, 2134, 2135, 2136, 2138, 2136, 2136, 2133, 2131, 2138, 2132, 2135, 2133, 2140, 2136, 2137, 2132, 2139, 2136, 2136, 2138, 2130, 2132, 2133, 2137, 2135, 2136, 2133, 2132, 2136, 2133, 2130, 2137, 2138, 2132, 2134, 2137, 2138, 2139, 2137, 2135, 2131, 2140, 2135, 2133, 2132, 2133, 2129, 2136, 2137, 2136, 2138, 2134, 2132, 2139, 2131, 2133, 2132, 2131, 2140, 2136, 2132, 2135, 2137, 2136, 2135, 2135, 2134, 2133, 2135, 2133, 2133, 2140, 2133, 2137, 2135, 2134, 2133, 2134, 2137, 2131, 2134, 2130, 2131, 2134, 2136, 2138, 2136, 2132, 2130, 2133, 2135, 2132, 2136, 2134, 2136, 2132, 2132, 2136, 2138, 2135, 2133, 2132, 2134, 2133, 2131, 2128, 2131, 2133, 2135, 2133, 2138, 2136, 2134, 2132, 2134, 2132, 2129, 2134, 2137, 2132, 2131, 2130, 2132, 2136, 2132, 2135, 2134, 2131, 2135, 2134, 2134, 2136, 2131, 2134, 2133, 2134, 2138, 2133, 2134, 2131, 2138, 2132, 2138, 2137, 2132, 2138, 2133, 2137, 2131, 2135, 2135, 2132, 2138, 2129, 2133, 2135, 2136, 2136, 2130, 2133, 2128, 2130, 2133, 2130, 2129, 2131, 2133, 2134, 2132, 2128, 2136, 2133, 2130, 2134, 2133, 2136, 2133, 2136, 2138, 2130, 2135, 2129, 2133, 2131, 2132, 2133, 2138, 2133, 2136, 2139, 2140, 2137, 2134, 2131, 2134, 2129],
      "WindowCenter": [926.0, 926.0, 927.0, 927.0, 926.0, 927.0, 926.0, 927.0, 926.0, 927.0, 927.0, 927.0, 927.0, 926.0, 927.0, 927.0, 927.0, 925.0, 927.0, 927.0, 927.0, 926.0, 926.0, 926.0, 925.0, 927.0, 927.0, 927.0, 926.0, 926.0, 927.0, 927.0, 926.0, 927.0, 927.0, 927.0, 927.0, 927.0, 927.0, 927.0, 927.0, 926.0, 927.0, 926.0, 926.0, 927.0, 926.0, 926.0, 926.0, 925.0, 927.0, 926.0, 927.0, 926.0, 926.0, 927.0, 926.0, 926.0, 926.0, 927.0, 927.0, 926.0, 927.0, 926.0, 927.0, 926.0, 927.0, 927.0, 927.0, 926.0, 927.0, 926.0, 926.0, 927.0, 926.0, 926.0, 927.0, 926.0, 926.0, 927.0, 926.0, 926.0, 926.0, 926.0, 926.0, 926.0, 926.0, 926.0, 926.0, 926.0, 926.0, 927.0, 926.0, 926.0, 926.0, 926.0, 926.0, 927.0, 926.0, 926.0, 927.0, 927.0, 927.0, 926.0, 926.0, 926.0, 927.0, 926.0, 927.0, 927.0, 927.0, 927.0, 926.0, 926.0, 927.0, 927.0, 926.0, 926.0, 926.0, 926.0, 926.0, 927.0, 927.0, 927.0, 926.0, 927.0, 926.0, 926.0, 927.0, 926.0, 927.0, 926.0, 926.0, 926.0, 926.0, 926.0, 926.0, 926.0, 926.0, 926.0, 926.0, 926.0, 926.0, 926.0, 926.0, 926.0, 926.0, 926.0, 926.0, 926.0, 926.0, 927.0, 927.0, 926.0, 927.0, 926.0, 926.0, 926.0, 926.0, 926.0, 926.0, 926.0, 926.0, 926.0, 926.0, 927.0, 926.0, 926.0, 926.0, 926.0, 926.0, 926.0, 927.0, 926.0, 926.0, 926.0, 926.0, 926.0, 926.0, 926.0, 926.0, 927.0, 926.0, 926.0, 926.0, 926.0, 927.0, 926.0, 927.0, 927.0, 926.0, 926.0, 927.0, 926.0, 926.0, 926.0, 926.0, 926.0, 926.0, 926.0],
      "WindowWidth": [2121.0, 2121.0, 2122.0, 2122.0, 2122.0, 2123.0, 2122.0, 2123.0, 2121.0, 2123.0, 2122.0, 2122.0, 2123.0, 2121.0, 2122.0, 2122.0, 2123.0, 2121.0, 2123.0, 2122.0, 2123.0, 2122.0, 2121.0, 2121.0, 2121.0, 2122.0, 2122.0, 2123.0, 2122.0, 2122.0, 2122.0, 2122.0, 2122.0, 2122.0, 2123.0, 2122.0, 2122.0, 2123.0, 2122.0, 2123.0, 2123.0, 2122.0, 2123.0, 2122.0, 2122.0, 2123.0, 2122.0, 2122.0, 2122.0, 2121.0, 2123.0, 2122.0, 2123.0, 2122.0, 2122.0, 2123.0, 2122.0, 2121.0, 2122.0, 2123.0, 2123.0, 2122.0, 2123.0, 2122.0, 2123.0, 2122.0, 2123.0, 2122.0, 2123.0, 2122.0, 2123.0, 2122.0, 2122.0, 2123.0, 2122.0, 2122.0, 2123.0, 2122.0, 2122.0, 2123.0, 2122.0, 2122.0, 2122.0, 2122.0, 2122.0, 2122.0, 2122.0, 2121.0, 2122.0, 2122.0, 2122.0, 2123.0, 2122.0, 2122.0, 2122.0, 2123.0, 2122.0, 2123.0, 2122.0, 2122.0, 2123.0, 2123.0, 2123.0, 2122.0, 2122.0, 2122.0, 2123.0, 2122.0, 2123.0, 2123.0, 2124.0, 2123.0, 2122.0, 2122.0, 2123.0, 2123.0, 2123.0, 2122.0, 2122.0, 2122.0, 2122.0, 2123.0, 2123.0, 2123.0, 2122.0, 2123.0, 2122.0, 2122.0, 2123.0, 2123.0, 2123.0, 2122.0, 2122.0, 2122.0, 2122.0, 2122.0, 2122.0, 2122.0, 2122.0, 2122.0, 2122.0, 2123.0, 2122.0, 2122.0, 2122.0, 2122.0, 2122.0, 2122.0, 2122.0, 2122.0, 2122.0, 2123.0, 2123.0, 2122.0, 2123.0, 2122.0, 2122.0, 2122.0, 2122.0, 2122.0, 2122.0, 2122.0, 2122.0, 2122.0, 2122.0, 2123.0, 2122.0, 2122.0, 2122.0, 2122.0, 2122.0, 2121.0, 2123.0, 2122.0, 2122.0, 2122.0, 2122.0, 2122.0, 2122.0, 2122.0, 2122.0, 2123.0, 2122.0, 2122.0, 2122.0, 2122.0, 2123.0, 2122.0, 2123.0, 2123.0, 2122.0, 2122.0, 2123.0, 2123.0, 2122.0, 2122.0, 2122.0, 2122.0, 2122.0, 2122.0]
    },
    "slices": {}
  }
}