{
  "AcquisitionMatrixPE": 80,
  "AcquisitionNumber": 1,
  "AcquisitionTime": "08:33:36.835000",
  "BandwidthPerPixelPhaseEncode": 48.077,
  "BaseResolution": 80,
  "BodyPartExamined": "BRAIN",
  "CoilCombinationMethod": "Sum of Squares",
  "ConsistencyInfo": "N4_VE11C_LATEST_20160120",
  "ConversionSoftware": "dcm2niix",
  "ConversionSoftwareVersion": "v1.0.20220720",
  "DerivedVendorReportedEchoSpacing": 0.000519999,
  "DeviceSerialNumber": "66112",
  "DwellTime": 2.7e-06,
  "EchoTime": 0.035,
  "EchoTrainLength": 39,
  "EffectiveEchoSpacing": 0.00026,
  "FlipAngle": 90,
  "HeudiconvVersion": "0.13.1",
  "ImageOrientationPatientDICOM": [0.991184, -0.132102, -0.0101367, 0.12926, 0.947391, 0.292817],
  "ImageOrientationText": "Tra>Cor(17.0)>Sag(1.7)",
  "ImageType": [
    "ORIGINAL",
    "PRIMARY",
    "M",
    "ND",
    "NORM",
    "MOSAIC"
],
  "ImagingFrequency": 123.252,
  "InPlanePhaseEncodingDirectionDICOM": "COL",
  "InstitutionAddress": "Maynard 3,Hanover,NH,US,03755",
  "InstitutionName": "Dartmouth College - PBS",
  "InstitutionalDepartmentName": "Department",
  "MRAcquisitionType": "2D",
  "MagneticFieldStrength": 3,
  "Manufacturer": "Siemens",
  "ManufacturersModelName": "Prisma",
  "MatrixCoilMode": "GRAPPA",
  "Modality": "MR",
  "NonlinearGradientCorrection": false,
  "ParallelReductionFactorInPlane": 2,
  "PartialFourier": 1,
  "PatientPosition": "HFS",
  "PercentPhaseFOV": 100,
  "PercentSampling": 100,
  "PhaseEncodingDirection": "j-",
  "PhaseEncodingSteps": 79,
  "PhaseResolution": 1,
  "PixelBandwidth": 2315,
  "ProcedureStepDescription": "dbic^QA",
  "ProtocolName": "func-bold_task-rest_acq-p2",
  "PulseSequenceDetails": "%SiemensSeq%\\ep2d_bold",
  "ReceiveCoilActiveElements": "HC1-7;NC1,2",
  "ReceiveCoilName": "HeadNeck_64",
  "ReconMatrixPE": 80,
  "RefLinesPE": 24,
  "RepetitionTime": 2,
  "SAR": 0.0360402,
  "ScanOptions": "FS",
  "ScanningSequence": "EP",
  "SequenceName": "*epfid2d1_80",
  "SequenceVariant": "SK",
  "SeriesDescription": "func-bold_task-rest_acq-p2",
  "SeriesNumber": 5,
  "ShimSetting": [4143, -7699, -7505, 177, -90, -254, -54, 76],
  "SliceThickness": 3.5,
  "SliceTiming": [0.99, 0, 1.055, 0.0675, 1.1225, 0.1325, 1.1875, 0.1975, 1.255, 0.265, 1.32, 0.33, 1.385, 0.3975, 1.4525, 0.4625, 1.5175, 0.5275, 1.585, 0.595, 1.65, 0.66, 1.715, 0.725, 1.7825, 0.7925, 1.8475, 0.8575, 1.915, 0.925],
  "SoftwareVersions": "syngo MR E11",
  "SpacingBetweenSlices": 3.99,
  "StationName": "AWP66112",
  "TaskName": "rest",
  "TotalReadoutTime": 0.02054,
  "TxRefAmp": 209.564,
  "dcmmeta_affine": [
    [-2.973552942276001, 0.3877803087234497, 0.11602271348237991, 104.93212890625],
    [0.3963063955307007, 2.8421733379364014, 1.163269281387329, -131.23411560058594],
    [-0.03041008859872818, -0.8784518837928772, 3.8148975372314453, -25.02257537841797],
    [0.0, 0.0, 0.0, 1.0]
],
  "dcmmeta_reorient_transform": [
    [0.0, -1.0, 0.0, 79.0],
    [1.0, 0.0, 0.0, 0.0],
    [0.0, 0.0, 1.0, 0.0],
    [0.0, 0.0, 0.0, 1.0]
],
  "dcmmeta_shape": [80, 80, 30, 200],
  "dcmmeta_slice_dim": 2,
  "dcmmeta_version": 0.6,
  "global": {
    "const": {
      "AccessionNumber": "qa64",
      "AcquisitionMatrix": [80, 0, 0, 80],
      "AngioFlag": "N",
      "BitsAllocated": 16,
      "BitsStored": 12,
      "BodyPartExamined": "BRAIN",
      "Columns": 480,
      "EchoNumbers": 1,
      "EchoTime": 35.0,
      "EchoTrainLength": 39,
      "FlipAngle": 90.0,
      "HighBit": 11,
      "ImageOrientationPatient": [0.9911842784414, -0.1321021330536, -0.0101366963705, 0.1292601032487, 0.94739107669583, 0.29281730397171],
      "ImagePositionPatient": [-807.83340558248, -582.47093863051, -264.02864129364],
      "ImageType": [
        "ORIGINAL",
        "PRIMARY",
        "M",
        "ND",
        "NORM",
        "MOSAIC"
],
      "ImagedNucleus": "1H",
      "ImagingFrequency": 123.252364,
      "InPlanePhaseEncodingDirection": "COL",
      "MRAcquisitionType": "2D",
      "MagneticFieldStrength": 3.0,
      "Manufacturer": "SIEMENS",
      "ManufacturerModelName": "Prisma",
      "Modality": "MR",
      "NumberOfAverages": 1.0,
      "NumberOfPhaseEncodingSteps": 79,
      "PercentPhaseFieldOfView": 100.0,
      "PercentSampling": 100.0,
      "PerformedProcedureStepStartTime": "082912.714000",
      "PhotometricInterpretation": "MONOCHROME2",
      "PixelBandwidth": 2315.0,
      "PixelRepresentation": 0,
      "PixelSpacing": [3.0, 3.0],
      "ProtocolName": "func-bold_task-rest_acq-p2",
      "RepetitionTime": 2000.0,
      "Rows": 480,
      "SAR": 0.03604016241484,
      "SamplesPerPixel": 1,
      "ScanOptions": "FS",
      "ScanningSequence": "EP",
      "SequenceName": "*epfid2d1_80",
      "SequenceVariant": "SK",
      "SeriesDescription": "func-bold_task-rest_acq-p2",
      "SeriesNumber": 5,
      "SeriesTime": "083418.893000",
      "SliceLocation": -59.134000056543,
      "SliceThickness": 3.5,
      "SmallestImagePixelValue": 0,
      "SoftwareVersions": "syngo MR E11",
      "SpacingBetweenSlices": 3.9900000496701,
      "SpecificCharacterSet": "ISO_IR 100",
      "StudyID": "13",
      "StudyTime": "082912.638000",
      "TransmitCoilName": "Body",
      "VariableFlipAngleFlag": "N",
      "WindowCenterWidthExplanation": "Algo1",
      "dBdt": 0.0},
    "slices": {}
  },
  "time": {
    "samples": {
      "AcquisitionNumber": [1, 2, 3, 4, 5, 6, 7, 8, 9, 10, 11, 12, 13, 14, 15, 16, 17, 18, 19, 20, 21, 22, 23, 24, 25, 26, 27, 28, 29, 30, 31, 32, 33, 34, 35, 36, 37, 38, 39, 40, 41, 42, 43, 44, 45, 46, 47, 48, 49, 50, 51, 52, 53, 54, 55, 56, 57, 58, 59, 60, 61, 62, 63, 64, 65, 66, 67, 68, 69, 70, 71, 72, 73, 74, 75, 76, 77, 78, 79, 80, 81, 82, 83, 84, 85, 86, 87, 88, 89, 90, 91, 92, 93, 94, 95, 96, 97, 98, 99, 100, 101, 102, 103, 104, 105, 106, 107, 108, 109, 110, 111, 112, 113, 114, 115, 116, 117, 118, 119, 120, 121, 122, 123, 124, 125, 126, 127, 128, 129, 130, 131, 132, 133, 134, 135, 136, 137, 138, 139, 140, 141, 142, 143, 144, 145, 146, 147, 148, 149, 150, 151, 152, 153, 154, 155, 156, 157, 158, 159, 160, 161, 162, 163, 164, 165, 166, 167, 168, 169, 170, 171, 172, 173, 174, 175, 176, 177, 178, 179, 180, 181, 182, 183, 184, 185, 186, 187, 188, 189, 190, 191, 192, 193, 194, 195, 196, 197, 198, 199, 200],
      "AcquisitionTime": ["083336.835000", "083338.835000", "083340.835000", "083342.835000", "083344.835000", "083346.835000", "083348.835000", "083350.835000", "083352.835000", "083354.835000", "083356.835000", "083358.835000", "083400.835000", "083402.835000", "083404.835000", "083406.835000", "083408.835000", "083410.835000", "083412.835000", "083414.835000", "083416.835000", "083418.835000", "083420.835000", "083422.835000", "083424.835000", "083426.835000", "083428.835000", "083430.835000", "083432.835000", "083434.835000", "083436.835000", "083438.835000", "083440.835000", "083442.835000", "083444.835000", "083446.835000", "083448.835000", "083450.835000", "083452.835000", "083454.835000", "083456.835000", "083458.835000", "083500.835000", "083502.835000", "083504.835000", "083506.835000", "083508.835000", "083510.835000", "083512.835000", "083514.835000", "083516.835000", "083518.835000", "083520.835000", "083522.835000", "083524.835000", "083526.835000", "083528.835000", "083530.835000", "083532.835000", "083534.835000", "083536.835000", "083538.835000", "083540.835000", "083542.835000", "083544.835000", "083546.835000", "083548.835000", "083550.835000", "083552.835000", "083554.835000", "083556.835000", "083558.835000", "083600.835000", "083602.835000", "083604.835000", "083606.835000", "083608.835000", "083610.835000", "083612.835000", "083614.835000", "083616.835000", "083618.835000", "083620.835000", "083622.835000", "083624.835000", "083626.835000", "083628.835000", "083630.835000", "083632.835000", "083634.835000", "083636.835000", "083638.835000", "083640.835000", "083642.835000", "083644.835000", "083646.835000", "083648.835000", "083650.835000", "083652.835000", "083654.835000", "083656.835000", "083658.835000", "083700.835000", "083702.835000", "083704.835000", "083706.835000", "083708.835000", "083710.835000", "083712.835000", "083714.835000", "083716.835000", "083718.835000", "083720.835000", "083722.835000", "083724.835000", "083726.835000", "083728.835000", "083730.835000", "083732.835000", "083734.835000", "083736.835000", "083738.835000", "083740.835000", "083742.835000", "083744.835000", "083746.835000", "083748.835000", "083750.835000", "083752.835000", "083754.835000", "083756.835000", "083758.835000", "083800.835000", "083802.835000", "083804.835000", "083806.835000", "083808.835000", "083810.835000", "083812.835000", "083814.835000", "083816.835000", "083818.835000", "083820.835000", "083822.835000", "083824.835000", "083826.835000", "083828.835000", "083830.835000", "083832.835000", "083834.835000", "083836.835000", "083838.835000", "083840.835000", "083842.835000", "083844.835000", "083846.835000", "083848.835000", "083850.835000", "083852.835000", "083854.835000", "083856.835000", "083858.835000", "083900.835000", "083902.835000", "083904.835000", "083906.835000", "083908.835000", "083910.835000", "083912.835000", "083914.835000", "083916.835000", "083918.835000", "083920.835000", "083922.835000", "083924.835000", "083926.835000", "083928.835000", "083930.835000", "083932.835000", "083934.835000", "083936.835000", "083938.835000", "083940.835000", "083942.835000", "083944.835000", "083946.835000", "083948.835000", "083950.835000", "083952.835000", "083954.835000", "083956.835000", "083958.835000", "084000.835000", "084002.835000", "084004.835000", "084006.835000", "084008.835000", "084010.835000", "084012.835000", "084014.835000"],
      "ContentTime": ["083418.897000", "083418.900000", "083418.903000", "083418.905000", "083418.908000", "083418.910000", "083418.913000", "083418.916000", "083418.918000", "083418.921000", "083418.923000", "083418.926000", "083418.928000", "083418.941000", "083418.943000", "083418.946000", "083418.948000", "083418.951000", "083418.954000", "083418.956000", "083418.959000", "083458.891000", "083458.894000", "083458.897000", "083458.900000", "083458.902000", "083458.905000", "083458.907000", "083458.910000", "083458.912000", "083458.915000", "083458.918000", "083458.920000", "083458.923000", "083458.925000", "083458.928000", "083458.930000", "083458.933000", "083458.935000", "083458.938000", "083458.941000", "083538.891000", "083538.894000", "083538.905000", "083538.908000", "083538.910000", "083538.913000", "083538.915000", "083538.918000", "083538.920000", "083538.923000", "083538.926000", "083538.928000", "083538.931000", "083538.933000", "083538.936000", "083538.938000", "083538.941000", "083538.944000", "083538.946000", "083538.949000", "083618.891000", "083618.893000", "083618.896000", "083618.899000", "083618.901000", "083618.904000", "083618.906000", "083618.909000", "083618.911000", "083618.914000", "083618.916000", "083618.919000", "083618.922000", "083618.924000", "083618.927000", "083618.929000", "083618.932000", "083618.934000", "083618.937000", "083618.939000", "083658.891000", "083658.894000", "083658.897000", "083658.899000", "083658.902000", "083658.905000", "083658.907000", "083658.910000", "083658.912000", "083658.915000", "083658.917000", "083658.920000", "083658.923000", "083658.925000", "083658.928000", "083658.930000", "083658.933000", "083658.936000", "083658.938000", "083658.941000", "083738.892000", "083738.894000", "083738.897000", "083738.900000", "083738.902000", "083738.926000", "083738.929000", "083738.931000", "083738.934000", "083738.936000", "083738.939000", "083738.942000", "083738.944000", "083738.947000", "083738.949000", "083738.952000", "083738.955000", "083738.957000", "083738.960000", "083738.962000", "083818.891000", "083818.893000", "083818.896000", "083818.899000", "083818.901000", "083818.904000", "083818.906000", "083818.909000", "083818.911000", "083818.914000", "083818.916000", "083818.919000", "083818.922000", "083818.924000", "083818.927000", "083818.929000", "083818.932000", "083818.934000", "083818.937000", "083818.940000", "083858.891000", "083858.894000", "083858.897000", "083858.899000", "083858.902000", "083858.905000", "083858.907000", "083858.910000", "083858.912000", "083858.915000", "083858.918000", "083858.920000", "083858.923000", "083858.925000", "083858.928000", "083858.931000", "083858.933000", "083858.936000", "083858.938000", "083858.941000", "083938.892000", "083938.894000", "083938.897000", "083938.900000", "083938.902000", "083938.905000", "083938.907000", "083938.910000", "083938.912000", "083938.915000", "083938.917000", "083938.920000", "083938.922000", "083938.925000", "083938.928000", "083938.930000", "083938.933000", "083938.935000", "083938.938000", "083938.941000", "084016.234000", "084016.237000", "084016.240000", "084016.243000", "084016.245000", "084016.248000", "084016.250000", "084016.253000", "084016.256000", "084016.258000", "084016.261000", "084016.269000", "084016.272000", "084016.275000", "084016.278000", "084016.281000", "084016.286000", "084016.289000", "084016.292000"],
      "InstanceCreationTime": ["083418.897000", "083418.900000", "083418.903000", "083418.905000", "083418.908000", "083418.910000", "083418.913000", "083418.916000", "083418.918000", "083418.921000", "083418.923000", "083418.926000", "083418.928000", "083418.941000", "083418.943000", "083418.946000", "083418.948000", "083418.951000", "083418.954000", "083418.956000", "083418.959000", "083458.891000", "083458.894000", "083458.897000", "083458.900000", "083458.902000", "083458.905000", "083458.907000", "083458.910000", "083458.912000", "083458.915000", "083458.918000", "083458.920000", "083458.923000", "083458.925000", "083458.928000", "083458.930000", "083458.933000", "083458.935000", "083458.938000", "083458.941000", "083538.891000", "083538.894000", "083538.905000", "083538.908000", "083538.910000", "083538.913000", "083538.915000", "083538.918000", "083538.920000", "083538.923000", "083538.926000", "083538.928000", "083538.931000", "083538.933000", "083538.936000", "083538.938000", "083538.941000", "083538.944000", "083538.946000", "083538.949000", "083618.891000", "083618.893000", "083618.896000", "083618.899000", "083618.901000", "083618.904000", "083618.906000", "083618.909000", "083618.911000", "083618.914000", "083618.916000", "083618.919000", "083618.922000", "083618.924000", "083618.927000", "083618.929000", "083618.932000", "083618.934000", "083618.937000", "083618.939000", "083658.891000", "083658.894000", "083658.897000", "083658.899000", "083658.902000", "083658.905000", "083658.907000", "083658.910000", "083658.912000", "083658.915000", "083658.917000", "083658.920000", "083658.923000", "083658.925000", "083658.928000", "083658.930000", "083658.933000", "083658.936000", "083658.938000", "083658.941000", "083738.892000", "083738.894000", "083738.897000", "083738.900000", "083738.902000", "083738.926000", "083738.929000", "083738.931000", "083738.934000", "083738.936000", "083738.939000", "083738.942000", "083738.944000", "083738.947000", "083738.949000", "083738.952000", "083738.955000", "083738.957000", "083738.960000", "083738.962000", "083818.891000", "083818.893000", "083818.896000", "083818.899000", "083818.901000", "083818.904000", "083818.906000", "083818.909000", "083818.911000", "083818.914000", "083818.916000", "083818.919000", "083818.922000", "083818.924000", "083818.927000", "083818.929000", "083818.932000", "083818.934000", "083818.937000", "083818.940000", "083858.891000", "083858.894000", "083858.897000", "083858.899000", "083858.902000", "083858.905000", "083858.907000", "083858.910000", "083858.912000", "083858.915000", "083858.918000", "083858.920000", "083858.923000", "083858.925000", "083858.928000", "083858.931000", "083858.933000", "083858.936000", "083858.938000", "083858.941000", "083938.892000", "083938.894000", "083938.897000", "083938.900000", "083938.902000", "083938.905000", "083938.907000", "083938.910000", "083938.912000", "083938.915000", "083938.917000", "083938.920000", "083938.922000", "083938.925000", "083938.928000", "083938.930000", "083938.933000", "083938.935000", "083938.938000", "083938.941000", "084016.234000", "084016.237000", "084016.240000", "084016.243000", "084016.245000", "084016.248000", "084016.250000", "084016.253000", "084016.256000", "084016.258000", "084016.261000", "084016.269000", "084016.272000", "084016.275000", "084016.278000", "084016.281000", "084016.286000", "084016.289000", "084016.292000"],
      "InstanceNumber": [1, 2, 3, 4, 5, 6, 7, 8, 9, 10, 11, 12, 13, 14, 15, 16, 17, 18, 19, 20, 21, 22, 23, 24, 25, 26, 27, 28, 29, 30, 31, 32, 33, 34, 35, 36, 37, 38, 39, 40, 41, 42, 43, 44, 45, 46, 47, 48, 49, 50, 51, 52, 53, 54, 55, 56, 57, 58, 59, 60, 61, 62, 63, 64, 65, 66, 67, 68, 69, 70, 71, 72, 73, 74, 75, 76, 77, 78, 79, 80, 81, 82, 83, 84, 85, 86, 87, 88, 89, 90, 91, 92, 93, 94, 95, 96, 97, 98, 99, 100, 101, 102, 103, 104, 105, 106, 107, 108, 109, 110, 111, 112, 113, 114, 115, 116, 117, 118, 119, 120, 121, 122, 123, 124, 125, 126, 127, 128, 129, 130, 131, 132, 133, 134, 135, 136, 137, 138, 139, 140, 141, 142, 143, 144, 145, 146, 147, 148, 149, 150, 151, 152, 153, 154, 155, 156, 157, 158, 159, 160, 161, 162, 163, 164, 165, 166, 167, 168, 169, 170, 171, 172, 173, 174, 175, 176, 177, 178, 179, 180, 181, 182, 183, 184, 185, 186, 187, 188, 189, 190, 191, 192, 193, 194, 195, 196, 197, 198, 199, 200],
      "LargestImagePixelValue": [3713, 3720, 3725, 3717, 3712, 3708, 3716, 3713, 3725, 3712, 3712, 3718, 3710, 3717, 3716, 3728, 3743, 3722, 3718, 3731, 3719, 3734, 3729, 3717, 3728, 3717, 3711, 3729, 3723, 3707, 3725, 3727, 3731, 3724, 3728, 3732, 3735, 3738, 3716, 3710, 3719, 3724, 3724, 3718, 3714, 3729, 3723, 3723, 3721, 3712, 3724, 3719, 3726, 3712, 3719, 3722, 3725, 3724, 3713, 3719, 3716, 3725, 3720, 3715, 3722, 3716, 3721, 3725, 3727, 3724, 3706, 3711, 3707, 3727, 3721, 3717, 3720, 3738, 3724, 3730, 3724, 3721, 3721, 3714, 3728, 3717, 3722, 3720, 3715, 3718, 3709, 3714, 3717, 3720, 3720, 3706, 3717, 3715, 3719, 3725, 3711, 3721, 3721, 3715, 3720, 3718, 3724, 3716, 3721, 3709, 3715, 3715, 3708, 3706, 3707, 3719, 3714, 3714, 3716, 3709, 3716, 3716, 3720, 3707, 3712, 3723, 3720, 3714, 3709, 3722, 3709, 3719, 3715, 3717, 3708, 3705, 3717, 3716, 3713, 3719, 3711, 3706, 3718, 3720, 3728, 3718, 3709, 3709, 3723, 3709, 3714, 3720, 3714, 3714, 3714, 3716, 3706, 3714, 3708, 3716, 3731, 3716, 3715, 3708, 3720, 3712, 3718, 3709, 3704, 3720, 3704, 3716, 3719, 3711, 3712, 3711, 3708, 3716, 3725, 3704, 3724, 3711, 3710, 3711, 3713, 3713, 3714, 3708, 3713, 3704, 3711, 3704, 3707, 3714, 3713, 3706, 3715, 3713, 3708, 3711],
      "WindowCenter": [1400.0, 1398.0, 1398.0, 1399.0, 1399.0, 1399.0, 1399.0, 1399.0, 1398.0, 1398.0, 1398.0, 1398.0, 1399.0, 1398.0, 1398.0, 1398.0, 1398.0, 1398.0, 1398.0, 1398.0, 1398.0, 1397.0, 1398.0, 1398.0, 1398.0, 1398.0, 1397.0, 1398.0, 1397.0, 1397.0, 1397.0, 1398.0, 1398.0, 1397.0, 1398.0, 1397.0, 1397.0, 1398.0, 1397.0, 1397.0, 1397.0, 1397.0, 1397.0, 1397.0, 1397.0, 1397.0, 1397.0, 1398.0, 1397.0, 1397.0, 1397.0, 1397.0, 1396.0, 1396.0, 1396.0, 1396.0, 1396.0, 1396.0, 1396.0, 1396.0, 1396.0, 1397.0, 1397.0, 1396.0, 1396.0, 1396.0, 1396.0, 1397.0, 1396.0, 1396.0, 1397.0, 1396.0, 1396.0, 1397.0, 1396.0, 1396.0, 1396.0, 1396.0, 1397.0, 1395.0, 1397.0, 1397.0, 1396.0, 1396.0, 1396.0, 1396.0, 1395.0, 1396.0, 1395.0, 1396.0, 1396.0, 1396.0, 1396.0, 1396.0, 1396.0, 1396.0, 1395.0, 1395.0, 1396.0, 1395.0, 1395.0, 1395.0, 1395.0, 1395.0, 1395.0, 1395.0, 1396.0, 1395.0, 1396.0, 1395.0, 1395.0, 1395.0, 1395.0, 1395.0, 1395.0, 1395.0, 1395.0, 1395.0, 1395.0, 1395.0, 1395.0, 1395.0, 1395.0, 1395.0, 1395.0, 1395.0, 1395.0, 1395.0, 1395.0, 1395.0, 1394.0, 1394.0, 1395.0, 1395.0, 1395.0, 1394.0, 1395.0, 1395.0, 1394.0, 1394.0, 1394.0, 1394.0, 1394.0, 1394.0, 1394.0, 1394.0, 1394.0, 1394.0, 1394.0, 1394.0, 1394.0, 1394.0, 1394.0, 1394.0, 1394.0, 1394.0, 1394.0, 1394.0, 1394.0, 1394.0, 1394.0, 1394.0, 1394.0, 1394.0, 1393.0, 1394.0, 1394.0, 1394.0, 1394.0, 1394.0, 1395.0, 1394.0, 1394.0, 1394.0, 1394.0, 1394.0, 1394.0, 1394.0, 1394.0, 1393.0, 1393.0, 1393.0, 1394.0, 1393.0, 1393.0, 1394.0, 1393.0, 1393.0, 1393.0, 1393.0, 1393.0, 1393.0, 1394.0, 1393.0, 1394.0, 1393.0, 1393.0, 1393.0, 1393.0, 1393.0],
      "WindowWidth": [3249.0, 3248.0, 3248.0, 3248.0, 3248.0, 3248.0, 3248.0, 3248.0, 3247.0, 3248.0, 3248.0, 3248.0, 3248.0, 3247.0, 3247.0, 3247.0, 3247.0, 3247.0, 3247.0, 3247.0, 3247.0, 3248.0, 3247.0, 3247.0, 3247.0, 3247.0, 3247.0, 3247.0, 3247.0, 3247.0, 3247.0, 3247.0, 3247.0, 3247.0, 3247.0, 3247.0, 3247.0, 3247.0, 3247.0, 3247.0, 3247.0, 3247.0, 3247.0, 3247.0, 3246.0, 3246.0, 3246.0, 3246.0, 3246.0, 3246.0, 3246.0, 3246.0, 3246.0, 3246.0, 3246.0, 3246.0, 3246.0, 3246.0, 3246.0, 3246.0, 3246.0, 3246.0, 3246.0, 3245.0, 3246.0, 3246.0, 3246.0, 3246.0, 3246.0, 3245.0, 3245.0, 3245.0, 3245.0, 3245.0, 3245.0, 3245.0, 3245.0, 3245.0, 3245.0, 3246.0, 3245.0, 3245.0, 3245.0, 3245.0, 3245.0, 3245.0, 3245.0, 3245.0, 3245.0, 3245.0, 3245.0, 3245.0, 3245.0, 3245.0, 3245.0, 3245.0, 3245.0, 3245.0, 3245.0, 3245.0, 3245.0, 3245.0, 3245.0, 3245.0, 3245.0, 3245.0, 3245.0, 3245.0, 3245.0, 3245.0, 3245.0, 3245.0, 3245.0, 3245.0, 3245.0, 3245.0, 3245.0, 3245.0, 3245.0, 3245.0, 3244.0, 3244.0, 3244.0, 3244.0, 3244.0, 3244.0, 3244.0, 3244.0, 3244.0, 3244.0, 3244.0, 3244.0, 3244.0, 3244.0, 3244.0, 3244.0, 3244.0, 3244.0, 3244.0, 3244.0, 3244.0, 3244.0, 3244.0, 3244.0, 3244.0, 3244.0, 3244.0, 3243.0, 3243.0, 3243.0, 3243.0, 3243.0, 3243.0, 3243.0, 3243.0, 3243.0, 3243.0, 3243.0, 3243.0, 3243.0, 3243.0, 3243.0, 3243.0, 3243.0, 3243.0, 3243.0, 3243.0, 3243.0, 3243.0, 3243.0, 3242.0, 3243.0, 3243.0, 3243.0, 3243.0, 3242.0, 3242.0, 3242.0, 3242.0, 3243.0, 3243.0, 3243.0, 3243.0, 3243.0, 3243.0, 3242.0, 3243.0, 3243.0, 3243.0, 3243.0, 3243.0, 3242.0, 3241.0, 3242.0, 3242.0, 3242.0, 3242.0, 3242.0, 3242.0, 3242.0]
    },
    "slices": {}
  }
}