{
  "AcquisitionMatrixPE": 80,
  "AcquisitionNumber": 1,
  "AcquisitionTime": "10:00:17.387500",
  "BandwidthPerPixelPhaseEncode": 25,
  "BaseResolution": 80,
  "BodyPartExamined": "BRAIN",
  "CoilCombinationMethod": "Sum of Squares",
  "ConsistencyInfo": "N4_VE11E_LATEST_20181129",
  "ConversionSoftware": "dcm2niix",
  "ConversionSoftwareVersion": "v1.0.20220720",
  "DerivedVendorReportedEchoSpacing": 0.0005,
  "DeviceSerialNumber": "66112",
  "DwellTime": 2.7e-06,
  "EchoTime": 0.03,
  "EchoTrainLength": 80,
  "EffectiveEchoSpacing": 0.0005,
  "FlipAngle": 77,
  "HeudiconvVersion": "0.13.1",
  "ImageOrientationPatientDICOM": [0.988038, 0.153986, 0.00832126, -0.14925, 0.941291, 0.302813],
  "ImageOrientationText": "Tra>Cor(17.5)>Sag(-2.2)",
  "ImageType": [
    "ORIGINAL",
    "PRIMARY",
    "M",
    "ND",
    "NORM",
    "MOSAIC"
],
  "ImagingFrequency": 123.261,
  "InPlanePhaseEncodingDirectionDICOM": "COL",
  "InstitutionAddress": "Maynard 3,Hanover,NH,US,03755",
  "InstitutionName": "Dartmouth College - PBS",
  "InstitutionalDepartmentName": "Department",
  "MRAcquisitionType": "2D",
  "MagneticFieldStrength": 3,
  "Manufacturer": "Siemens",
  "ManufacturersModelName": "Prisma",
  "MatrixCoilMode": "SENSE",
  "Modality": "MR",
  "NonlinearGradientCorrection": false,
  "PartialFourier": 1,
  "PatientPosition": "HFS",
  "PercentPhaseFOV": 100,
  "PercentSampling": 100,
  "PhaseEncodingDirection": "j-",
  "PhaseEncodingSteps": 80,
  "PhaseResolution": 1,
  "PixelBandwidth": 2315,
  "ProcedureStepDescription": "dbic^QA",
  "ProtocolName": "func-bold_fa-77",
  "PulseSequenceDetails": "%SiemensSeq%\\ep2d_bold",
  "ReceiveCoilActiveElements": "HEA;HEP",
  "ReceiveCoilName": "Head_32",
  "ReconMatrixPE": 80,
  "RepetitionTime": 2,
  "SAR": 0.0430992,
  "ScanOptions": "FS",
  "ScanningSequence": "EP",
  "SequenceName": "*epfid2d1_80",
  "SequenceVariant": "SK",
  "SeriesDescription": "func-bold_fa-77",
  "SeriesNumber": 7,
  "ShimSetting": [4247, -7744, -7481, -12, -184, -77, -24, 81],
  "SliceThickness": 3.5,
  "SliceTiming": [0.99, 0, 1.0575, 0.0675, 1.1225, 0.1325, 1.19, 0.2, 1.255, 0.265, 1.32, 0.33, 1.3875, 0.3975, 1.4525, 0.4625, 1.5175, 0.53, 1.585, 0.595, 1.65, 0.66, 1.7175, 0.7275, 1.7825, 0.7925, 1.8475, 0.86, 1.915, 0.925],
  "SoftwareVersions": "syngo MR E11",
  "SpacingBetweenSlices": 3.99,
  "StationName": "AWP66112",
  "TotalReadoutTime": 0.0395,
  "TxRefAmp": 221.369,
  "dcmmeta_affine": [
    [-2.964114189147949, -0.44775089621543884, -0.15479618310928345, 138.8999481201172],
    [-0.46195656061172485, 2.823873281478882, 1.1987249851226807, -108.9680404663086],
    [0.02496377006173134, -0.9084378480911255, 3.802525043487549, -21.566110610961914],
    [0.0, 0.0, 0.0, 1.0]
],
  "dcmmeta_reorient_transform": [
    [0.0, -1.0, 0.0, 79.0],
    [1.0, 0.0, 0.0, 0.0],
    [0.0, 0.0, 1.0, 0.0],
    [0.0, 0.0, 0.0, 1.0]
],
  "dcmmeta_shape": [80, 80, 30, 200],
  "dcmmeta_slice_dim": 2,
  "dcmmeta_version": 0.6,
  "global": {
    "const": {
      "AccessionNumber": "qa",
      "AcquisitionMatrix": [80, 0, 0, 80],
      "AngioFlag": "N",
      "BitsAllocated": 16,
      "BitsStored": 12,
      "BodyPartExamined": "BRAIN",
      "Columns": 480,
      "EchoNumbers": 1,
      "EchoTime": 30.0,
      "EchoTrainLength": 80,
      "FlipAngle": 77.0,
      "HighBit": 11,
      "ImageOrientationPatient": [0.98803806386181, 0.15398552218985, 0.00832125688428, -0.1492503000605, 0.94129106329332, 0.3028126187859],
      "ImagePositionPatient": [-606.8002916482, -771.28389115115, -280.01302591954],
      "ImageType": [
        "ORIGINAL",
        "PRIMARY",
        "M",
        "ND",
        "NORM",
        "MOSAIC"
],
      "ImagedNucleus": "1H",
      "ImagingFrequency": 123.261242,
      "InPlanePhaseEncodingDirection": "COL",
      "MRAcquisitionType": "2D",
      "MagneticFieldStrength": 3.0,
      "Manufacturer": "SIEMENS",
      "ManufacturerModelName": "Prisma",
      "Modality": "MR",
      "NumberOfAverages": 1.0,
      "NumberOfPhaseEncodingSteps": 80,
      "PercentPhaseFieldOfView": 100.0,
      "PercentSampling": 100.0,
      "PerformedProcedureStepStartTime": "093944.795000",
      "PhotometricInterpretation": "MONOCHROME2",
      "PixelBandwidth": 2315.0,
      "PixelRepresentation": 0,
      "PixelSpacing": [3.0, 3.0],
      "ProtocolName": "func-bold_fa-77",
      "RepetitionTime": 2000.0,
      "Rows": 480,
      "SAR": 0.04309915384031,
      "SamplesPerPixel": 1,
      "ScanOptions": "FS",
      "ScanningSequence": "EP",
      "SequenceName": "*epfid2d1_80",
      "SequenceVariant": "SK",
      "SeriesDescription": "func-bold_fa-77",
      "SeriesNumber": 7,
      "SeriesTime": "100110.825000",
      "SliceLocation": -58.679091701527,
      "SliceThickness": 3.5,
      "SmallestImagePixelValue": 0,
      "SoftwareVersions": "syngo MR E11",
      "SpacingBetweenSlices": 3.9899999687523,
      "SpecificCharacterSet": "ISO_IR 100",
      "StudyID": "45",
      "StudyTime": "093944.748000",
      "TransmitCoilName": "Body",
      "VariableFlipAngleFlag": "N",
      "WindowCenterWidthExplanation": "Algo1"
    },
    "slices": {}
  },
  "time": {
    "samples": {
      "AcquisitionNumber": [1, 2, 3, 4, 5, 6, 7, 8, 9, 10, 11, 12, 13, 14, 15, 16, 17, 18, 19, 20, 21, 22, 23, 24, 25, 26, 27, 28, 29, 30, 31, 32, 33, 34, 35, 36, 37, 38, 39, 40, 41, 42, 43, 44, 45, 46, 47, 48, 49, 50, 51, 52, 53, 54, 55, 56, 57, 58, 59, 60, 61, 62, 63, 64, 65, 66, 67, 68, 69, 70, 71, 72, 73, 74, 75, 76, 77, 78, 79, 80, 81, 82, 83, 84, 85, 86, 87, 88, 89, 90, 91, 92, 93, 94, 95, 96, 97, 98, 99, 100, 101, 102, 103, 104, 105, 106, 107, 108, 109, 110, 111, 112, 113, 114, 115, 116, 117, 118, 119, 120, 121, 122, 123, 124, 125, 126, 127, 128, 129, 130, 131, 132, 133, 134, 135, 136, 137, 138, 139, 140, 141, 142, 143, 144, 145, 146, 147, 148, 149, 150, 151, 152, 153, 154, 155, 156, 157, 158, 159, 160, 161, 162, 163, 164, 165, 166, 167, 168, 169, 170, 171, 172, 173, 174, 175, 176, 177, 178, 179, 180, 181, 182, 183, 184, 185, 186, 187, 188, 189, 190, 191, 192, 193, 194, 195, 196, 197, 198, 199, 200],
      "AcquisitionTime": ["100017.387500", "100019.387500", "100021.387500", "100023.387500", "100025.387500", "100027.387500", "100029.387500", "100031.387500", "100033.387500", "100035.387500", "100037.387500", "100039.387500", "100041.387500", "100043.387500", "100045.387500", "100047.387500", "100049.387500", "100051.387500", "100053.387500", "100055.387500", "100057.387500", "100059.387500", "100101.387500", "100103.387500", "100105.387500", "100107.387500", "100109.387500", "100111.387500", "100113.387500", "100115.387500", "100117.387500", "100119.387500", "100121.387500", "100123.387500", "100125.387500", "100127.387500", "100129.387500", "100131.387500", "100133.387500", "100135.387500", "100137.387500", "100139.387500", "100141.387500", "100143.387500", "100145.387500", "100147.387500", "100149.387500", "100151.387500", "100153.387500", "100155.387500", "100157.387500", "100159.387500", "100201.387500", "100203.387500", "100205.387500", "100207.387500", "100209.387500", "100211.387500", "100213.387500", "100215.387500", "100217.387500", "100219.387500", "100221.387500", "100223.387500", "100225.387500", "100227.387500", "100229.387500", "100231.387500", "100233.387500", "100235.387500", "100237.387500", "100239.387500", "100241.387500", "100243.387500", "100245.387500", "100247.387500", "100249.387500", "100251.387500", "100253.387500", "100255.387500", "100257.387500", "100259.387500", "100301.387500", "100303.387500", "100305.387500", "100307.387500", "100309.387500", "100311.387500", "100313.387500", "100315.387500", "100317.387500", "100319.387500", "100321.387500", "100323.387500", "100325.387500", "100327.387500", "100329.387500", "100331.387500", "100333.387500", "100335.387500", "100337.387500", "100339.387500", "100341.387500", "100343.387500", "100345.387500", "100347.387500", "100349.387500", "100351.387500", "100353.387500", "100355.387500", "100357.387500", "100359.387500", "100401.387500", "100403.387500", "100405.387500", "100407.387500", "100409.387500", "100411.387500", "100413.387500", "100415.387500", "100417.387500", "100419.387500", "100421.387500", "100423.387500", "100425.387500", "100427.387500", "100429.387500", "100431.387500", "100433.387500", "100435.387500", "100437.387500", "100439.387500", "100441.387500", "100443.387500", "100445.387500", "100447.387500", "100449.387500", "100451.387500", "100453.387500", "100455.387500", "100457.387500", "100459.387500", "100501.387500", "100503.387500", "100505.387500", "100507.387500", "100509.387500", "100511.387500", "100513.387500", "100515.387500", "100517.387500", "100519.387500", "100521.387500", "100523.387500", "100525.387500", "100527.387500", "100529.387500", "100531.387500", "100533.387500", "100535.387500", "100537.387500", "100539.387500", "100541.387500", "100543.387500", "100545.387500", "100547.387500", "100549.387500", "100551.387500", "100553.387500", "100555.387500", "100557.387500", "100559.387500", "100601.387500", "100603.387500", "100605.387500", "100607.387500", "100609.387500", "100611.387500", "100613.387500", "100615.387500", "100617.387500", "100619.387500", "100621.387500", "100623.387500", "100625.387500", "100627.387500", "100629.387500", "100631.387500", "100633.387500", "100635.387500", "100637.387500", "100639.387500", "100641.387500", "100643.387500", "100645.387500", "100647.387500", "100649.387500", "100651.387500", "100653.387500", "100655.387500"],
      "ContentTime": ["100110.828000", "100110.831000", "100110.834000", "100110.836000", "100110.845000", "100110.848000", "100110.850000", "100110.852000", "100110.854000", "100110.857000", "100110.859000", "100110.861000", "100110.864000", "100110.866000", "100110.868000", "100110.870000", "100110.873000", "100110.875000", "100110.881000", "100110.883000", "100110.885000", "100110.887000", "100110.890000", "100110.892000", "100110.894000", "100110.897000", "100150.823000", "100150.826000", "100150.828000", "100150.830000", "100150.832000", "100150.835000", "100150.837000", "100150.839000", "100150.842000", "100150.844000", "100150.846000", "100150.849000", "100150.851000", "100150.853000", "100150.855000", "100150.858000", "100150.860000", "100150.862000", "100150.865000", "100150.867000", "100230.823000", "100230.826000", "100230.828000", "100230.831000", "100230.833000", "100230.835000", "100230.837000", "100230.840000", "100230.842000", "100230.844000", "100230.847000", "100230.849000", "100230.851000", "100230.854000", "100230.856000", "100230.858000", "100230.860000", "100230.863000", "100230.865000", "100230.874000", "100310.823000", "100310.826000", "100310.828000", "100310.830000", "100310.832000", "100310.835000", "100310.837000", "100310.839000", "100310.842000", "100310.844000", "100310.846000", "100310.848000", "100310.851000", "100310.853000", "100310.855000", "100310.858000", "100310.860000", "100310.862000", "100310.864000", "100310.867000", "100350.822000", "100350.825000", "100350.827000", "100350.829000", "100350.831000", "100350.834000", "100350.836000", "100350.838000", "100350.841000", "100350.843000", "100350.845000", "100350.848000", "100350.850000", "100350.852000", "100350.854000", "100350.857000", "100350.859000", "100350.861000", "100350.864000", "100350.866000", "100430.823000", "100430.826000", "100430.828000", "100430.831000", "100430.833000", "100430.835000", "100430.838000", "100430.840000", "100430.842000", "100430.844000", "100430.847000", "100430.849000", "100430.852000", "100430.854000", "100430.856000", "100430.859000", "100430.861000", "100430.863000", "100430.865000", "100430.868000", "100510.823000", "100510.826000", "100510.828000", "100510.830000", "100510.833000", "100510.835000", "100510.837000", "100510.840000", "100510.842000", "100510.844000", "100510.847000", "100510.849000", "100510.851000", "100510.854000", "100510.856000", "100510.858000", "100510.860000", "100510.863000", "100510.865000", "100510.867000", "100550.823000", "100550.826000", "100550.828000", "100550.830000", "100550.833000", "100550.835000", "100550.837000", "100550.840000", "100550.842000", "100550.844000", "100550.846000", "100550.849000", "100550.851000", "100550.854000", "100550.856000", "100550.858000", "100550.860000", "100550.863000", "100550.865000", "100550.867000", "100630.823000", "100630.826000", "100630.828000", "100630.831000", "100630.833000", "100630.835000", "100630.838000", "100630.840000", "100630.842000", "100630.844000", "100630.847000", "100630.849000", "100630.852000", "100630.854000", "100630.856000", "100630.858000", "100630.861000", "100630.863000", "100630.865000", "100630.868000", "100657.532000", "100657.534000", "100657.537000", "100657.539000", "100657.542000", "100657.544000", "100657.547000", "100657.550000", "100657.553000", "100657.556000", "100657.558000", "100657.561000", "100657.564000", "100657.566000"],
      "InstanceCreationTime": ["100110.828000", "100110.831000", "100110.834000", "100110.836000", "100110.845000", "100110.848000", "100110.850000", "100110.852000", "100110.854000", "100110.857000", "100110.859000", "100110.861000", "100110.864000", "100110.866000", "100110.868000", "100110.870000", "100110.873000", "100110.875000", "100110.881000", "100110.883000", "100110.885000", "100110.887000", "100110.890000", "100110.892000", "100110.894000", "100110.897000", "100150.823000", "100150.826000", "100150.828000", "100150.830000", "100150.832000", "100150.835000", "100150.837000", "100150.839000", "100150.842000", "100150.844000", "100150.846000", "100150.849000", "100150.851000", "100150.853000", "100150.855000", "100150.858000", "100150.860000", "100150.862000", "100150.865000", "100150.867000", "100230.823000", "100230.826000", "100230.828000", "100230.831000", "100230.833000", "100230.835000", "100230.837000", "100230.840000", "100230.842000", "100230.844000", "100230.847000", "100230.849000", "100230.851000", "100230.854000", "100230.856000", "100230.858000", "100230.860000", "100230.863000", "100230.865000", "100230.874000", "100310.823000", "100310.826000", "100310.828000", "100310.830000", "100310.832000", "100310.835000", "100310.837000", "100310.839000", "100310.842000", "100310.844000", "100310.846000", "100310.848000", "100310.851000", "100310.853000", "100310.855000", "100310.858000", "100310.860000", "100310.862000", "100310.864000", "100310.867000", "100350.822000", "100350.825000", "100350.827000", "100350.829000", "100350.831000", "100350.834000", "100350.836000", "100350.838000", "100350.841000", "100350.843000", "100350.845000", "100350.848000", "100350.850000", "100350.852000", "100350.854000", "100350.857000", "100350.859000", "100350.861000", "100350.864000", "100350.866000", "100430.823000", "100430.826000", "100430.828000", "100430.831000", "100430.833000", "100430.835000", "100430.838000", "100430.840000", "100430.842000", "100430.844000", "100430.847000", "100430.849000", "100430.852000", "100430.854000", "100430.856000", "100430.859000", "100430.861000", "100430.863000", "100430.865000", "100430.868000", "100510.823000", "100510.826000", "100510.828000", "100510.830000", "100510.833000", "100510.835000", "100510.837000", "100510.840000", "100510.842000", "100510.844000", "100510.847000", "100510.849000", "100510.851000", "100510.854000", "100510.856000", "100510.858000", "100510.860000", "100510.863000", "100510.865000", "100510.867000", "100550.823000", "100550.826000", "100550.828000", "100550.830000", "100550.833000", "100550.835000", "100550.837000", "100550.840000", "100550.842000", "100550.844000", "100550.846000", "100550.849000", "100550.851000", "100550.854000", "100550.856000", "100550.858000", "100550.860000", "100550.863000", "100550.865000", "100550.867000", "100630.823000", "100630.826000", "100630.828000", "100630.831000", "100630.833000", "100630.835000", "100630.838000", "100630.840000", "100630.842000", "100630.844000", "100630.847000", "100630.849000", "100630.852000", "100630.854000", "100630.856000", "100630.858000", "100630.861000", "100630.863000", "100630.865000", "100630.868000", "100657.532000", "100657.534000", "100657.537000", "100657.539000", "100657.542000", "100657.544000", "100657.547000", "100657.550000", "100657.553000", "100657.556000", "100657.558000", "100657.561000", "100657.564000", "100657.566000"],
      "InstanceNumber": [1, 2, 3, 4, 5, 6, 7, 8, 9, 10, 11, 12, 13, 14, 15, 16, 17, 18, 19, 20, 21, 22, 23, 24, 25, 26, 27, 28, 29, 30, 31, 32, 33, 34, 35, 36, 37, 38, 39, 40, 41, 42, 43, 44, 45, 46, 47, 48, 49, 50, 51, 52, 53, 54, 55, 56, 57, 58, 59, 60, 61, 62, 63, 64, 65, 66, 67, 68, 69, 70, 71, 72, 73, 74, 75, 76, 77, 78, 79, 80, 81, 82, 83, 84, 85, 86, 87, 88, 89, 90, 91, 92, 93, 94, 95, 96, 97, 98, 99, 100, 101, 102, 103, 104, 105, 106, 107, 108, 109, 110, 111, 112, 113, 114, 115, 116, 117, 118, 119, 120, 121, 122, 123, 124, 125, 126, 127, 128, 129, 130, 131, 132, 133, 134, 135, 136, 137, 138, 139, 140, 141, 142, 143, 144, 145, 146, 147, 148, 149, 150, 151, 152, 153, 154, 155, 156, 157, 158, 159, 160, 161, 162, 163, 164, 165, 166, 167, 168, 169, 170, 171, 172, 173, 174, 175, 176, 177, 178, 179, 180, 181, 182, 183, 184, 185, 186, 187, 188, 189, 190, 191, 192, 193, 194, 195, 196, 197, 198, 199, 200],
      "LargestImagePixelValue": [2071, 2071, 2070, 2071, 2070, 2072, 2072, 2073, 2073, 2073, 2072, 2072, 2071, 2070, 2069, 2073, 2069, 2068, 2069, 2068, 2069, 2071, 2070, 2070, 2071, 2070, 2069, 2069, 2071, 2071, 2070, 2068, 2071, 2068, 2069, 2066, 2067, 2067, 2070, 2070, 2070, 2069, 2070, 2070, 2069, 2070, 2071, 2071, 2069, 2070, 2068, 2072, 2068, 2072, 2070, 2071, 2071, 2070, 2068, 2069, 2069, 2070, 2068, 2068, 2069, 2070, 2070, 2069, 2069, 2070, 2070, 2067, 2068, 2068, 2069, 2069, 2069, 2067, 2068, 2070, 2069, 2071, 2068, 2068, 2069, 2067, 2067, 2067, 2068, 2067, 2070, 2070, 2067, 2067, 2069, 2066, 2068, 2068, 2068, 2067, 2065, 2067, 2065, 2068, 2068, 2068, 2068, 2069, 2066, 2067, 2068, 2067, 2068, 2068, 2069, 2069, 2067, 2069, 2068, 2068, 2071, 2068, 2070, 2068, 2068, 2067, 2068, 2066, 2067, 2069, 2065, 2067, 2068, 2064, 2068, 2068, 2070, 2068, 2069, 2070, 2067, 2066, 2069, 2069, 2069, 2070, 2069, 2068, 2068, 2068, 2068, 2067, 2067, 2068, 2067, 2067, 2067, 2066, 2066, 2067, 2065, 2069, 2066, 2066, 2066, 2068, 2068, 2065, 2066, 2067, 2067, 2066, 2067, 2066, 2067, 2068, 2067, 2067, 2069, 2070, 2070, 2069, 2068, 2068, 2068, 2069, 2067, 2066, 2067, 2068, 2064, 2066, 2066, 2067, 2066, 2067, 2066, 2066, 2068, 2068],
      "WindowCenter": [987.0, 987.0, 987.0, 987.0, 986.0, 987.0, 986.0, 987.0, 987.0, 987.0, 987.0, 986.0, 987.0, 986.0, 987.0, 987.0, 986.0, 987.0, 987.0, 987.0, 987.0, 987.0, 987.0, 986.0, 987.0, 986.0, 986.0, 987.0, 986.0, 987.0, 986.0, 987.0, 987.0, 987.0, 987.0, 987.0, 987.0, 988.0, 987.0, 987.0, 987.0, 986.0, 986.0, 987.0, 986.0, 987.0, 987.0, 987.0, 987.0, 987.0, 987.0, 987.0, 987.0, 987.0, 987.0, 987.0, 986.0, 986.0, 987.0, 986.0, 986.0, 986.0, 986.0, 986.0, 986.0, 986.0, 986.0, 986.0, 986.0, 985.0, 985.0, 986.0, 986.0, 986.0, 986.0, 986.0, 986.0, 986.0, 986.0, 985.0, 986.0, 986.0, 985.0, 985.0, 986.0, 985.0, 985.0, 986.0, 986.0, 986.0, 986.0, 985.0, 986.0, 986.0, 986.0, 987.0, 987.0, 986.0, 986.0, 986.0, 986.0, 986.0, 985.0, 986.0, 986.0, 986.0, 986.0, 986.0, 986.0, 985.0, 986.0, 986.0, 986.0, 986.0, 985.0, 986.0, 986.0, 986.0, 987.0, 985.0, 986.0, 985.0, 986.0, 986.0, 986.0, 986.0, 985.0, 985.0, 986.0, 986.0, 986.0, 986.0, 986.0, 986.0, 985.0, 986.0, 986.0, 987.0, 986.0, 986.0, 986.0, 986.0, 985.0, 986.0, 985.0, 986.0, 986.0, 986.0, 986.0, 986.0, 986.0, 985.0, 986.0, 985.0, 985.0, 985.0, 985.0, 985.0, 985.0, 985.0, 986.0, 986.0, 986.0, 985.0, 986.0, 985.0, 985.0, 985.0, 985.0, 985.0, 985.0, 985.0, 985.0, 985.0, 985.0, 985.0, 985.0, 985.0, 985.0, 985.0, 985.0, 985.0, 985.0, 985.0, 985.0, 985.0, 985.0, 985.0, 985.0, 985.0, 985.0, 985.0, 985.0, 984.0, 985.0, 985.0, 985.0, 985.0, 985.0, 985.0],
      "WindowWidth": [2178.0, 2178.0, 2178.0, 2178.0, 2177.0, 2178.0, 2177.0, 2178.0, 2178.0, 2178.0, 2178.0, 2177.0, 2178.0, 2177.0, 2178.0, 2178.0, 2177.0, 2177.0, 2177.0, 2177.0, 2178.0, 2178.0, 2178.0, 2176.0, 2177.0, 2177.0, 2176.0, 2177.0, 2176.0, 2177.0, 2176.0, 2177.0, 2177.0, 2177.0, 2177.0, 2177.0, 2177.0, 2177.0, 2177.0, 2177.0, 2177.0, 2176.0, 2176.0, 2177.0, 2176.0, 2177.0, 2177.0, 2177.0, 2177.0, 2177.0, 2177.0, 2177.0, 2177.0, 2176.0, 2177.0, 2176.0, 2176.0, 2176.0, 2177.0, 2176.0, 2176.0, 2176.0, 2176.0, 2176.0, 2176.0, 2176.0, 2176.0, 2176.0, 2176.0, 2176.0, 2176.0, 2176.0, 2176.0, 2176.0, 2176.0, 2176.0, 2176.0, 2176.0, 2176.0, 2175.0, 2176.0, 2176.0, 2175.0, 2175.0, 2176.0, 2175.0, 2175.0, 2175.0, 2175.0, 2175.0, 2175.0, 2175.0, 2175.0, 2175.0, 2175.0, 2176.0, 2176.0, 2175.0, 2175.0, 2175.0, 2175.0, 2175.0, 2174.0, 2175.0, 2175.0, 2175.0, 2175.0, 2175.0, 2175.0, 2174.0, 2175.0, 2175.0, 2175.0, 2175.0, 2174.0, 2175.0, 2175.0, 2175.0, 2176.0, 2174.0, 2175.0, 2174.0, 2175.0, 2175.0, 2174.0, 2174.0, 2174.0, 2174.0, 2175.0, 2174.0, 2175.0, 2174.0, 2174.0, 2174.0, 2174.0, 2174.0, 2175.0, 2175.0, 2174.0, 2174.0, 2174.0, 2174.0, 2174.0, 2174.0, 2174.0, 2174.0, 2174.0, 2174.0, 2174.0, 2175.0, 2174.0, 2174.0, 2174.0, 2173.0, 2174.0, 2174.0, 2173.0, 2174.0, 2174.0, 2174.0, 2174.0, 2174.0, 2174.0, 2173.0, 2174.0, 2173.0, 2174.0, 2174.0, 2173.0, 2174.0, 2173.0, 2174.0, 2174.0, 2174.0, 2174.0, 2174.0, 2174.0, 2174.0, 2173.0, 2174.0, 2174.0, 2174.0, 2173.0, 2174.0, 2174.0, 2174.0, 2174.0, 2174.0, 2174.0, 2174.0, 2174.0, 2174.0, 2174.0, 2173.0, 2173.0, 2174.0, 2173.0, 2173.0, 2173.0, 2173.0]
    },
    "slices": {}
  }
}