{
  "AcquisitionMatrixPE": 80,
  "AcquisitionNumber": 1,
  "AcquisitionTime": "09:46:33.835000",
  "BandwidthPerPixelPhaseEncode": 48.077,
  "BaseResolution": 80,
  "BodyPartExamined": "BRAIN",
  "CoilCombinationMethod": "Sum of Squares",
  "ConsistencyInfo": "N4_VE11E_LATEST_20181129",
  "ConversionSoftware": "dcm2niix",
  "ConversionSoftwareVersion": "v1.0.20220720",
  "DerivedVendorReportedEchoSpacing": 0.000519999,
  "DeviceSerialNumber": "66112",
  "DwellTime": 2.7e-06,
  "EchoTime": 0.035,
  "EchoTrainLength": 39,
  "EffectiveEchoSpacing": 0.00026,
  "FlipAngle": 90,
  "HeudiconvVersion": "0.13.1",
  "ImageOrientationPatientDICOM": [0.988038, 0.153986, 0.00832126, -0.14925, 0.941291, 0.302813],
  "ImageOrientationText": "Tra>Cor(17.5)>Sag(-2.2)",
  "ImageType": [
    "ORIGINAL",
    "PRIMARY",
    "M",
    "ND",
    "NORM",
    "MOSAIC"
],
  "ImagingFrequency": 123.261,
  "InPlanePhaseEncodingDirectionDICOM": "COL",
  "InstitutionAddress": "Maynard 3,Hanover,NH,US,03755",
  "InstitutionName": "Dartmouth College - PBS",
  "InstitutionalDepartmentName": "Department",
  "MRAcquisitionType": "2D",
  "MagneticFieldStrength": 3,
  "Manufacturer": "Siemens",
  "ManufacturersModelName": "Prisma",
  "MatrixCoilMode": "GRAPPA",
  "Modality": "MR",
  "NonlinearGradientCorrection": false,
  "ParallelReductionFactorInPlane": 2,
  "PartialFourier": 1,
  "PatientPosition": "HFS",
  "PercentPhaseFOV": 100,
  "PercentSampling": 100,
  "PhaseEncodingDirection": "j-",
  "PhaseEncodingSteps": 79,
  "PhaseResolution": 1,
  "PixelBandwidth": 2315,
  "ProcedureStepDescription": "dbic^QA",
  "ProtocolName": "func-bold_task-rest_acq-p2",
  "PulseSequenceDetails": "%SiemensSeq%\\ep2d_bold",
  "ReceiveCoilActiveElements": "HEA;HEP",
  "ReceiveCoilName": "Head_32",
  "ReconMatrixPE": 80,
  "RefLinesPE": 24,
  "RepetitionTime": 2,
  "SAR": 0.054844,
  "ScanOptions": "FS",
  "ScanningSequence": "EP",
  "SequenceName": "*epfid2d1_80",
  "SequenceVariant": "SK",
  "SeriesDescription": "func-bold_task-rest_acq-p2",
  "SeriesNumber": 5,
  "ShimSetting": [4247, -7744, -7481, -13, -183, -75, -24, 81],
  "SliceThickness": 3.5,
  "SliceTiming": [0.99, 0, 1.055, 0.065, 1.12, 0.13, 1.1875, 0.1975, 1.2525, 0.2625, 1.32, 0.33, 1.385, 0.395, 1.45, 0.46, 1.5175, 0.5275, 1.5825, 0.5925, 1.65, 0.66, 1.715, 0.725, 1.78, 0.79, 1.8475, 0.8575, 1.9125, 0.9225],
  "SoftwareVersions": "syngo MR E11",
  "SpacingBetweenSlices": 3.99,
  "StationName": "AWP66112",
  "TaskName": "rest",
  "TotalReadoutTime": 0.02054,
  "TxRefAmp": 221.369,
  "dcmmeta_affine": [
    [-2.964114189147949, -0.44775089621543884, -0.15479616820812225, 138.97048950195312],
    [-0.46195656061172485, 2.823873281478882, 1.1987249851226807, -109.37767028808594],
    [0.02496377006173134, -0.9084378480911255, 3.802525043487549, -20.7672176361084],
    [0.0, 0.0, 0.0, 1.0]
],
  "dcmmeta_reorient_transform": [
    [0.0, -1.0, 0.0, 79.0],
    [1.0, 0.0, 0.0, 0.0],
    [0.0, 0.0, 1.0, 0.0],
    [0.0, 0.0, 0.0, 1.0]
],
  "dcmmeta_shape": [80, 80, 30, 200],
  "dcmmeta_slice_dim": 2,
  "dcmmeta_version": 0.6,
  "global": {
    "const": {
      "AccessionNumber": "qa",
      "AcquisitionMatrix": [80, 0, 0, 80],
      "AngioFlag": "N",
      "BitsAllocated": 16,
      "BitsStored": 12,
      "BodyPartExamined": "BRAIN",
      "Columns": 480,
      "EchoNumbers": 1,
      "EchoTime": 35.0,
      "EchoTrainLength": 39,
      "FlipAngle": 90.0,
      "HighBit": 11,
      "ImageOrientationPatient": [0.98803806386181, 0.15398552218985, 0.00832125688428, -0.1492503000605, 0.94129106329332, 0.3028126187859],
      "ImagePositionPatient": [-606.87082635432, -770.87426132938, -279.21413294469],
      "ImageType": [
        "ORIGINAL",
        "PRIMARY",
        "M",
        "ND",
        "NORM",
        "MOSAIC"
],
      "ImagedNucleus": "1H",
      "ImagingFrequency": 123.261246,
      "InPlanePhaseEncodingDirection": "COL",
      "MRAcquisitionType": "2D",
      "MagneticFieldStrength": 3.0,
      "Manufacturer": "SIEMENS",
      "ManufacturerModelName": "Prisma",
      "Modality": "MR",
      "NumberOfAverages": 1.0,
      "NumberOfPhaseEncodingSteps": 79,
      "PercentPhaseFieldOfView": 100.0,
      "PercentSampling": 100.0,
      "PerformedProcedureStepStartTime": "093944.795000",
      "PhotometricInterpretation": "MONOCHROME2",
      "PixelBandwidth": 2315.0,
      "PixelRepresentation": 0,
      "PixelSpacing": [3.0, 3.0],
      "ProtocolName": "func-bold_task-rest_acq-p2",
      "RepetitionTime": 2000.0,
      "Rows": 480,
      "SAR": 0.0548440088651,
      "SamplesPerPixel": 1,
      "ScanOptions": "FS",
      "ScanningSequence": "EP",
      "SequenceName": "*epfid2d1_80",
      "SequenceVariant": "SK",
      "SeriesDescription": "func-bold_task-rest_acq-p2",
      "SeriesNumber": 5,
      "SeriesTime": "094730.911000",
      "SliceLocation": -58.043538197956,
      "SliceThickness": 3.5,
      "SmallestImagePixelValue": 0,
      "SoftwareVersions": "syngo MR E11",
      "SpacingBetweenSlices": 3.9899999489926,
      "SpecificCharacterSet": "ISO_IR 100",
      "StudyID": "45",
      "StudyTime": "093944.748000",
      "TransmitCoilName": "Body",
      "VariableFlipAngleFlag": "N",
      "WindowCenterWidthExplanation": "Algo1"
    },
    "slices": {}
  },
  "time": {
    "samples": {
      "AcquisitionNumber": [1, 2, 3, 4, 5, 6, 7, 8, 9, 10, 11, 12, 13, 14, 15, 16, 17, 18, 19, 20, 21, 22, 23, 24, 25, 26, 27, 28, 29, 30, 31, 32, 33, 34, 35, 36, 37, 38, 39, 40, 41, 42, 43, 44, 45, 46, 47, 48, 49, 50, 51, 52, 53, 54, 55, 56, 57, 58, 59, 60, 61, 62, 63, 64, 65, 66, 67, 68, 69, 70, 71, 72, 73, 74, 75, 76, 77, 78, 79, 80, 81, 82, 83, 84, 85, 86, 87, 88, 89, 90, 91, 92, 93, 94, 95, 96, 97, 98, 99, 100, 101, 102, 103, 104, 105, 106, 107, 108, 109, 110, 111, 112, 113, 114, 115, 116, 117, 118, 119, 120, 121, 122, 123, 124, 125, 126, 127, 128, 129, 130, 131, 132, 133, 134, 135, 136, 137, 138, 139, 140, 141, 142, 143, 144, 145, 146, 147, 148, 149, 150, 151, 152, 153, 154, 155, 156, 157, 158, 159, 160, 161, 162, 163, 164, 165, 166, 167, 168, 169, 170, 171, 172, 173, 174, 175, 176, 177, 178, 179, 180, 181, 182, 183, 184, 185, 186, 187, 188, 189, 190, 191, 192, 193, 194, 195, 196, 197, 198, 199, 200],
      "AcquisitionTime": ["094633.835000", "094635.835000", "094637.835000", "094639.835000", "094641.835000", "094643.835000", "094645.835000", "094647.835000", "094649.835000", "094651.835000", "094653.835000", "094655.835000", "094657.835000", "094659.835000", "094701.835000", "094703.835000", "094705.835000", "094707.835000", "094709.835000", "094711.835000", "094713.835000", "094715.835000", "094717.835000", "094719.835000", "094721.835000", "094723.835000", "094725.835000", "094727.835000", "094729.835000", "094731.835000", "094733.835000", "094735.835000", "094737.835000", "094739.835000", "094741.835000", "094743.835000", "094745.835000", "094747.835000", "094749.835000", "094751.835000", "094753.835000", "094755.835000", "094757.835000", "094759.835000", "094801.835000", "094803.835000", "094805.835000", "094807.835000", "094809.835000", "094811.835000", "094813.835000", "094815.835000", "094817.835000", "094819.835000", "094821.835000", "094823.835000", "094825.835000", "094827.835000", "094829.835000", "094831.835000", "094833.835000", "094835.835000", "094837.835000", "094839.835000", "094841.835000", "094843.835000", "094845.835000", "094847.835000", "094849.835000", "094851.835000", "094853.835000", "094855.835000", "094857.835000", "094859.835000", "094901.835000", "094903.835000", "094905.835000", "094907.835000", "094909.835000", "094911.835000", "094913.835000", "094915.835000", "094917.835000", "094919.835000", "094921.835000", "094923.835000", "094925.835000", "094927.835000", "094929.835000", "094931.835000", "094933.835000", "094935.835000", "094937.835000", "094939.835000", "094941.835000", "094943.835000", "094945.835000", "094947.835000", "094949.835000", "094951.835000", "094953.835000", "094955.835000", "094957.835000", "094959.835000", "095001.835000", "095003.835000", "095005.835000", "095007.835000", "095009.835000", "095011.835000", "095013.835000", "095015.835000", "095017.835000", "095019.835000", "095021.835000", "095023.835000", "095025.835000", "095027.835000", "095029.835000", "095031.835000", "095033.835000", "095035.835000", "095037.835000", "095039.835000", "095041.835000", "095043.835000", "095045.835000", "095047.835000", "095049.835000", "095051.835000", "095053.835000", "095055.835000", "095057.835000", "095059.835000", "095101.835000", "095103.835000", "095105.835000", "095107.835000", "095109.835000", "095111.835000", "095113.835000", "095115.835000", "095117.835000", "095119.835000", "095121.835000", "095123.835000", "095125.835000", "095127.835000", "095129.835000", "095131.835000", "095133.835000", "095135.835000", "095137.835000", "095139.835000", "095141.835000", "095143.835000", "095145.835000", "095147.835000", "095149.835000", "095151.835000", "095153.835000", "095155.835000", "095157.835000", "095159.835000", "095201.835000", "095203.835000", "095205.835000", "095207.835000", "095209.835000", "095211.835000", "095213.835000", "095215.835000", "095217.835000", "095219.835000", "095221.835000", "095223.835000", "095225.835000", "095227.835000", "095229.835000", "095231.835000", "095233.835000", "095235.835000", "095237.835000", "095239.835000", "095241.835000", "095243.835000", "095245.835000", "095247.835000", "095249.835000", "095251.835000", "095253.835000", "095255.835000", "095257.835000", "095259.835000", "095301.835000", "095303.835000", "095305.835000", "095307.835000", "095309.835000", "095311.835000"],
      "ContentTime": ["094730.914000", "094730.917000", "094730.920000", "094730.922000", "094730.924000", "094730.934000", "094730.945000", "094730.947000", "094730.950000", "094730.952000", "094730.954000", "094730.956000", "094730.959000", "094730.961000", "094730.963000", "094730.966000", "094730.968000", "094730.970000", "094730.973000", "094730.975000", "094730.977000", "094730.980000", "094730.982000", "094730.984000", "094730.987000", "094730.989000", "094730.991000", "094730.993000", "094810.909000", "094810.912000", "094810.914000", "094810.916000", "094810.919000", "094810.933000", "094810.935000", "094810.937000", "094810.940000", "094810.942000", "094810.944000", "094810.947000", "094810.949000", "094810.951000", "094810.954000", "094810.956000", "094810.958000", "094810.960000", "094810.963000", "094810.965000", "094850.909000", "094850.912000", "094850.914000", "094850.916000", "094850.919000", "094850.921000", "094850.923000", "094850.926000", "094850.928000", "094850.930000", "094850.933000", "094850.935000", "094850.943000", "094850.946000", "094850.948000", "094850.950000", "094850.953000", "094850.955000", "094850.957000", "094850.960000", "094930.909000", "094930.912000", "094930.914000", "094930.917000", "094930.919000", "094930.921000", "094930.924000", "094930.926000", "094930.928000", "094930.931000", "094930.933000", "094930.935000", "094930.938000", "094930.940000", "094930.942000", "094930.945000", "094930.947000", "094930.949000", "094930.952000", "094930.954000", "095010.909000", "095010.912000", "095010.914000", "095010.917000", "095010.919000", "095010.921000", "095010.923000", "095010.926000", "095010.928000", "095010.930000", "095010.933000", "095010.935000", "095010.937000", "095010.940000", "095010.942000", "095010.944000", "095010.947000", "095010.949000", "095010.951000", "095010.954000", "095050.909000", "095050.912000", "095050.914000", "095050.916000", "095050.919000", "095050.921000", "095050.923000", "095050.926000", "095050.928000", "095050.930000", "095050.933000", "095050.935000", "095050.937000", "095050.940000", "095050.942000", "095050.944000", "095050.947000", "095050.949000", "095050.951000", "095050.954000", "095130.909000", "095130.912000", "095130.914000", "095130.916000", "095130.919000", "095130.921000", "095130.923000", "095130.926000", "095130.928000", "095130.930000", "095130.933000", "095130.935000", "095130.937000", "095130.940000", "095130.942000", "095130.944000", "095130.947000", "095130.949000", "095130.951000", "095130.954000", "095210.909000", "095210.912000", "095210.914000", "095210.916000", "095210.919000", "095210.921000", "095210.923000", "095210.926000", "095210.928000", "095210.931000", "095210.933000", "095210.935000", "095210.938000", "095210.940000", "095210.942000", "095210.945000", "095210.947000", "095210.949000", "095210.951000", "095210.954000", "095250.909000", "095250.912000", "095250.914000", "095250.916000", "095250.919000", "095250.921000", "095250.923000", "095250.926000", "095250.928000", "095250.930000", "095250.933000", "095250.935000", "095250.937000", "095250.939000", "095250.942000", "095250.944000", "095250.946000", "095250.949000", "095250.951000", "095250.953000", "095313.401000", "095313.404000", "095313.406000", "095313.409000", "095313.411000", "095313.413000", "095313.416000", "095313.418000", "095313.420000", "095313.423000", "095313.425000", "095313.428000"],
      "InstanceCreationTime": ["094730.914000", "094730.917000", "094730.920000", "094730.922000", "094730.924000", "094730.934000", "094730.945000", "094730.947000", "094730.950000", "094730.952000", "094730.954000", "094730.956000", "094730.959000", "094730.961000", "094730.963000", "094730.966000", "094730.968000", "094730.970000", "094730.973000", "094730.975000", "094730.977000", "094730.980000", "094730.982000", "094730.984000", "094730.987000", "094730.989000", "094730.991000", "094730.993000", "094810.909000", "094810.912000", "094810.914000", "094810.916000", "094810.919000", "094810.933000", "094810.935000", "094810.937000", "094810.940000", "094810.942000", "094810.944000", "094810.947000", "094810.949000", "094810.951000", "094810.954000", "094810.956000", "094810.958000", "094810.960000", "094810.963000", "094810.965000", "094850.909000", "094850.912000", "094850.914000", "094850.916000", "094850.919000", "094850.921000", "094850.923000", "094850.926000", "094850.928000", "094850.930000", "094850.933000", "094850.935000", "094850.943000", "094850.946000", "094850.948000", "094850.950000", "094850.953000", "094850.955000", "094850.957000", "094850.960000", "094930.909000", "094930.912000", "094930.914000", "094930.917000", "094930.919000", "094930.921000", "094930.924000", "094930.926000", "094930.928000", "094930.931000", "094930.933000", "094930.935000", "094930.938000", "094930.940000", "094930.942000", "094930.945000", "094930.947000", "094930.949000", "094930.952000", "094930.954000", "095010.909000", "095010.912000", "095010.914000", "095010.917000", "095010.919000", "095010.921000", "095010.923000", "095010.926000", "095010.928000", "095010.930000", "095010.933000", "095010.935000", "095010.937000", "095010.940000", "095010.942000", "095010.944000", "095010.947000", "095010.949000", "095010.951000", "095010.954000", "095050.909000", "095050.912000", "095050.914000", "095050.916000", "095050.919000", "095050.921000", "095050.923000", "095050.926000", "095050.928000", "095050.930000", "095050.933000", "095050.935000", "095050.937000", "095050.940000", "095050.942000", "095050.944000", "095050.947000", "095050.949000", "095050.951000", "095050.954000", "095130.909000", "095130.912000", "095130.914000", "095130.916000", "095130.919000", "095130.921000", "095130.923000", "095130.926000", "095130.928000", "095130.930000", "095130.933000", "095130.935000", "095130.937000", "095130.940000", "095130.942000", "095130.944000", "095130.947000", "095130.949000", "095130.951000", "095130.954000", "095210.909000", "095210.912000", "095210.914000", "095210.916000", "095210.919000", "095210.921000", "095210.923000", "095210.926000", "095210.928000", "095210.931000", "095210.933000", "095210.935000", "095210.938000", "095210.940000", "095210.942000", "095210.945000", "095210.947000", "095210.949000", "095210.951000", "095210.954000", "095250.909000", "095250.912000", "095250.914000", "095250.916000", "095250.919000", "095250.921000", "095250.923000", "095250.926000", "095250.928000", "095250.930000", "095250.933000", "095250.935000", "095250.937000", "095250.939000", "095250.942000", "095250.944000", "095250.946000", "095250.949000", "095250.951000", "095250.953000", "095313.401000", "095313.404000", "095313.406000", "095313.409000", "095313.411000", "095313.413000", "095313.416000", "095313.418000", "095313.420000", "095313.423000", "095313.425000", "095313.428000"],
      "InstanceNumber": [1, 2, 3, 4, 5, 6, 7, 8, 9, 10, 11, 12, 13, 14, 15, 16, 17, 18, 19, 20, 21, 22, 23, 24, 25, 26, 27, 28, 29, 30, 31, 32, 33, 34, 35, 36, 37, 38, 39, 40, 41, 42, 43, 44, 45, 46, 47, 48, 49, 50, 51, 52, 53, 54, 55, 56, 57, 58, 59, 60, 61, 62, 63, 64, 65, 66, 67, 68, 69, 70, 71, 72, 73, 74, 75, 76, 77, 78, 79, 80, 81, 82, 83, 84, 85, 86, 87, 88, 89, 90, 91, 92, 93, 94, 95, 96, 97, 98, 99, 100, 101, 102, 103, 104, 105, 106, 107, 108, 109, 110, 111, 112, 113, 114, 115, 116, 117, 118, 119, 120, 121, 122, 123, 124, 125, 126, 127, 128, 129, 130, 131, 132, 133, 134, 135, 136, 137, 138, 139, 140, 141, 142, 143, 144, 145, 146, 147, 148, 149, 150, 151, 152, 153, 154, 155, 156, 157, 158, 159, 160, 161, 162, 163, 164, 165, 166, 167, 168, 169, 170, 171, 172, 173, 174, 175, 176, 177, 178, 179, 180, 181, 182, 183, 184, 185, 186, 187, 188, 189, 190, 191, 192, 193, 194, 195, 196, 197, 198, 199, 200],
      "LargestImagePixelValue": [2151, 2140, 2140, 2128, 2144, 2138, 2137, 2144, 2145, 2140, 2140, 2141, 2145, 2147, 2145, 2133, 2146, 2142, 2138, 2140, 2150, 2133, 2138, 2149, 2138, 2145, 2138, 2142, 2139, 2140, 2144, 2139, 2139, 2144, 2144, 2142, 2135, 2131, 2137, 2134, 2137, 2148, 2141, 2141, 2139, 2139, 2130, 2142, 2142, 2138, 2144, 2139, 2141, 2137, 2143, 2148, 2142, 2132, 2134, 2137, 2133, 2134, 2132, 2129, 2139, 2135, 2147, 2135, 2127, 2141, 2138, 2130, 2140, 2137, 2142, 2134, 2144, 2138, 2143, 2124, 2133, 2139, 2137, 2138, 2130, 2129, 2142, 2139, 2137, 2130, 2131, 2129, 2134, 2137, 2143, 2138, 2134, 2128, 2142, 2130, 2134, 2134, 2136, 2140, 2127, 2128, 2127, 2128, 2126, 2136, 2135, 2131, 2135, 2143, 2129, 2130, 2139, 2138, 2132, 2140, 2135, 2136, 2135, 2141, 2138, 2135, 2128, 2134, 2144, 2127, 2134, 2132, 2124, 2137, 2126, 2140, 2137, 2141, 2134, 2134, 2148, 2138, 2135, 2131, 2135, 2128, 2134, 2132, 2134, 2134, 2126, 2131, 2143, 2132, 2132, 2128, 2128, 2137, 2140, 2131, 2129, 2131, 2126, 2135, 2129, 2132, 2127, 2124, 2130, 2139, 2135, 2131, 2128, 2135, 2134, 2136, 2133, 2130, 2130, 2134, 2138, 2144, 2138, 2130, 2139, 2136, 2131, 2133, 2138, 2133, 2136, 2122, 2128, 2140, 2130, 2129, 2142, 2132, 2129, 2121],
      "WindowCenter": [1003.0, 1003.0, 1003.0, 1003.0, 1003.0, 1003.0, 1002.0, 1003.0, 1002.0, 1003.0, 1002.0, 1002.0, 1002.0, 1002.0, 1002.0, 1003.0, 1002.0, 1002.0, 1003.0, 1002.0, 1002.0, 1002.0, 1002.0, 1003.0, 1002.0, 1002.0, 1003.0, 1002.0, 1002.0, 1002.0, 1002.0, 1002.0, 1002.0, 1002.0, 1002.0, 1002.0, 1002.0, 1002.0, 1002.0, 1002.0, 1002.0, 1002.0, 1003.0, 1003.0, 1002.0, 1002.0, 1002.0, 1003.0, 1002.0, 1002.0, 1002.0, 1002.0, 1002.0, 1002.0, 1002.0, 1002.0, 1002.0, 1002.0, 1002.0, 1002.0, 1002.0, 1002.0, 1002.0, 1002.0, 1002.0, 1002.0, 1002.0, 1002.0, 1002.0, 1002.0, 1002.0, 1002.0, 1002.0, 1002.0, 1003.0, 1002.0, 1002.0, 1002.0, 1002.0, 1002.0, 1002.0, 1002.0, 1002.0, 1003.0, 1002.0, 1002.0, 1002.0, 1003.0, 1002.0, 1002.0, 1002.0, 1002.0, 1002.0, 1002.0, 1002.0, 1002.0, 1002.0, 1002.0, 1002.0, 1001.0, 1002.0, 1002.0, 1002.0, 1002.0, 1001.0, 1002.0, 1002.0, 1001.0, 1001.0, 1001.0, 1001.0, 1002.0, 1001.0, 1001.0, 1001.0, 1001.0, 1001.0, 1001.0, 1001.0, 1001.0, 1001.0, 1001.0, 1001.0, 1001.0, 1001.0, 1001.0, 1001.0, 1001.0, 1001.0, 1001.0, 1001.0, 1001.0, 1001.0, 1001.0, 1002.0, 1001.0, 1001.0, 1001.0, 1001.0, 1001.0, 1001.0, 1001.0, 1001.0, 1001.0, 1002.0, 1001.0, 1001.0, 1001.0, 1001.0, 1001.0, 1001.0, 1001.0, 1001.0, 1002.0, 1001.0, 1001.0, 1001.0, 1001.0, 1001.0, 1001.0, 1001.0, 1001.0, 1001.0, 1001.0, 1001.0, 1001.0, 1001.0, 1001.0, 1001.0, 1001.0, 1002.0, 1001.0, 1001.0, 1002.0, 1002.0, 1001.0, 1001.0, 1001.0, 1001.0, 1001.0, 1002.0, 1001.0, 1001.0, 1001.0, 1001.0, 1001.0, 1001.0, 1001.0, 1001.0, 1001.0, 1002.0, 1001.0, 1001.0, 1002.0, 1001.0, 1001.0, 1002.0, 1001.0, 1001.0, 1002.0],
      "WindowWidth": [2216.0, 2216.0, 2216.0, 2215.0, 2216.0, 2215.0, 2215.0, 2215.0, 2215.0, 2215.0, 2215.0, 2215.0, 2215.0, 2215.0, 2215.0, 2215.0, 2215.0, 2215.0, 2216.0, 2215.0, 2215.0, 2215.0, 2215.0, 2215.0, 2215.0, 2215.0, 2215.0, 2215.0, 2215.0, 2215.0, 2214.0, 2215.0, 2215.0, 2215.0, 2215.0, 2215.0, 2215.0, 2215.0, 2214.0, 2214.0, 2214.0, 2214.0, 2215.0, 2215.0, 2214.0, 2214.0, 2214.0, 2215.0, 2214.0, 2214.0, 2214.0, 2214.0, 2214.0, 2214.0, 2214.0, 2214.0, 2214.0, 2214.0, 2214.0, 2213.0, 2214.0, 2214.0, 2214.0, 2214.0, 2214.0, 2213.0, 2214.0, 2213.0, 2214.0, 2213.0, 2214.0, 2213.0, 2213.0, 2213.0, 2214.0, 2213.0, 2213.0, 2213.0, 2213.0, 2213.0, 2213.0, 2213.0, 2213.0, 2214.0, 2213.0, 2213.0, 2213.0, 2213.0, 2213.0, 2213.0, 2213.0, 2213.0, 2213.0, 2213.0, 2213.0, 2213.0, 2212.0, 2213.0, 2213.0, 2212.0, 2212.0, 2213.0, 2212.0, 2212.0, 2212.0, 2212.0, 2212.0, 2212.0, 2212.0, 2212.0, 2212.0, 2212.0, 2212.0, 2212.0, 2212.0, 2212.0, 2212.0, 2212.0, 2212.0, 2212.0, 2212.0, 2212.0, 2212.0, 2212.0, 2212.0, 2212.0, 2212.0, 2212.0, 2211.0, 2211.0, 2211.0, 2212.0, 2212.0, 2212.0, 2212.0, 2212.0, 2212.0, 2212.0, 2212.0, 2211.0, 2212.0, 2211.0, 2212.0, 2212.0, 2212.0, 2211.0, 2211.0, 2211.0, 2211.0, 2211.0, 2211.0, 2211.0, 2211.0, 2212.0, 2211.0, 2211.0, 2211.0, 2211.0, 2211.0, 2211.0, 2211.0, 2211.0, 2211.0, 2211.0, 2211.0, 2211.0, 2211.0, 2211.0, 2211.0, 2211.0, 2212.0, 2211.0, 2211.0, 2211.0, 2212.0, 2211.0, 2211.0, 2211.0, 2211.0, 2211.0, 2211.0, 2211.0, 2211.0, 2211.0, 2211.0, 2211.0, 2211.0, 2211.0, 2210.0, 2211.0, 2211.0, 2210.0, 2211.0, 2211.0, 2211.0, 2210.0, 2211.0, 2210.0, 2210.0, 2211.0]
    },
    "slices": {}
  }
}