{
  "AcquisitionMatrixPE": 80,
  "AcquisitionNumber": 1,
  "AcquisitionTime": "10:07:4.470000",
  "BandwidthPerPixelPhaseEncode": 25,
  "BaseResolution": 80,
  "BodyPartExamined": "BRAIN",
  "CoilCombinationMethod": "Sum of Squares",
  "ConsistencyInfo": "N4_VE11E_LATEST_20181129",
  "ConversionSoftware": "dcm2niix",
  "ConversionSoftwareVersion": "v1.0.20220720",
  "DerivedVendorReportedEchoSpacing": 0.0005,
  "DeviceSerialNumber": "66112",
  "DwellTime": 2.7e-06,
  "EchoTime": 0.03,
  "EchoTrainLength": 80,
  "EffectiveEchoSpacing": 0.0005,
  "FlipAngle": 10,
  "HeudiconvVersion": "0.13.1",
  "ImageOrientationPatientDICOM": [0.988038, 0.153986, 0.00832126, -0.14925, 0.941291, 0.302813],
  "ImageOrientationText": "Tra>Cor(17.5)>Sag(-2.2)",
  "ImageType": [
    "ORIGINAL",
    "PRIMARY",
    "M",
    "ND",
    "NORM",
    "MOSAIC"
],
  "ImagingFrequency": 123.261,
  "InPlanePhaseEncodingDirectionDICOM": "COL",
  "InstitutionAddress": "Maynard 3,Hanover,NH,US,03755",
  "InstitutionName": "Dartmouth College - PBS",
  "InstitutionalDepartmentName": "Department",
  "MRAcquisitionType": "2D",
  "MagneticFieldStrength": 3,
  "Manufacturer": "Siemens",
  "ManufacturersModelName": "Prisma",
  "MatrixCoilMode": "SENSE",
  "Modality": "MR",
  "NonlinearGradientCorrection": false,
  "PartialFourier": 1,
  "PatientPosition": "HFS",
  "PercentPhaseFOV": 100,
  "PercentSampling": 100,
  "PhaseEncodingDirection": "j-",
  "PhaseEncodingSteps": 80,
  "PhaseResolution": 1,
  "PixelBandwidth": 2315,
  "ProcedureStepDescription": "dbic^QA",
  "ProtocolName": "func-bold_fa-10",
  "PulseSequenceDetails": "%SiemensSeq%\\ep2d_bold",
  "ReceiveCoilActiveElements": "HEA;HEP",
  "ReceiveCoilName": "Head_32",
  "ReconMatrixPE": 80,
  "RepetitionTime": 2,
  "SAR": 0.0115613,
  "ScanOptions": "FS",
  "ScanningSequence": "EP",
  "SequenceName": "*epfid2d1_80",
  "SequenceVariant": "SK",
  "SeriesDescription": "func-bold_fa-10",
  "SeriesNumber": 8,
  "ShimSetting": [4247, -7744, -7481, -12, -184, -77, -24, 81],
  "SliceThickness": 3.5,
  "SliceTiming": [0.99, 0, 1.055, 0.065, 1.12, 0.13, 1.1875, 0.1975, 1.2525, 0.2625, 1.3175, 0.33, 1.385, 0.395, 1.45, 0.46, 1.5175, 0.5275, 1.5825, 0.5925, 1.6475, 0.66, 1.715, 0.725, 1.78, 0.79, 1.8475, 0.8575, 1.9125, 0.9225],
  "SoftwareVersions": "syngo MR E11",
  "SpacingBetweenSlices": 3.99,
  "StationName": "AWP66112",
  "TotalReadoutTime": 0.0395,
  "TxRefAmp": 221.369,
  "dcmmeta_affine": [
    [-2.964114189147949, -0.44775089621543884, -0.15479618310928345, 138.8999481201172],
    [-0.46195656061172485, 2.823873281478882, 1.1987249851226807, -108.9680404663086],
    [0.02496377006173134, -0.9084378480911255, 3.802525043487549, -21.566110610961914],
    [0.0, 0.0, 0.0, 1.0]
],
  "dcmmeta_reorient_transform": [
    [0.0, -1.0, 0.0, 79.0],
    [1.0, 0.0, 0.0, 0.0],
    [0.0, 0.0, 1.0, 0.0],
    [0.0, 0.0, 0.0, 1.0]
],
  "dcmmeta_shape": [80, 80, 30, 200],
  "dcmmeta_slice_dim": 2,
  "dcmmeta_version": 0.6,
  "global": {
    "const": {
      "AccessionNumber": "qa",
      "AcquisitionMatrix": [80, 0, 0, 80],
      "AngioFlag": "N",
      "BitsAllocated": 16,
      "BitsStored": 12,
      "BodyPartExamined": "BRAIN",
      "Columns": 480,
      "EchoNumbers": 1,
      "EchoTime": 30.0,
      "EchoTrainLength": 80,
      "FlipAngle": 10.0,
      "HighBit": 11,
      "ImageOrientationPatient": [0.98803806386181, 0.15398552218985, 0.00832125688428, -0.1492503000605, 0.94129106329332, 0.3028126187859],
      "ImagePositionPatient": [-606.8002916482, -771.28389115115, -280.01302591954],
      "ImageType": [
        "ORIGINAL",
        "PRIMARY",
        "M",
        "ND",
        "NORM",
        "MOSAIC"
],
      "ImagedNucleus": "1H",
      "ImagingFrequency": 123.261244,
      "InPlanePhaseEncodingDirection": "COL",
      "MRAcquisitionType": "2D",
      "MagneticFieldStrength": 3.0,
      "Manufacturer": "SIEMENS",
      "ManufacturerModelName": "Prisma",
      "Modality": "MR",
      "NumberOfAverages": 1.0,
      "NumberOfPhaseEncodingSteps": 80,
      "PercentPhaseFieldOfView": 100.0,
      "PercentSampling": 100.0,
      "PerformedProcedureStepStartTime": "093944.795000",
      "PhotometricInterpretation": "MONOCHROME2",
      "PixelBandwidth": 2315.0,
      "PixelRepresentation": 0,
      "PixelSpacing": [3.0, 3.0],
      "ProtocolName": "func-bold_fa-10",
      "RepetitionTime": 2000.0,
      "Rows": 480,
      "SAR": 0.01156131015422,
      "SamplesPerPixel": 1,
      "ScanOptions": "FS",
      "ScanningSequence": "EP",
      "SequenceName": "*epfid2d1_80",
      "SequenceVariant": "SK",
      "SeriesDescription": "func-bold_fa-10",
      "SeriesNumber": 8,
      "SeriesTime": "100750.929000",
      "SliceLocation": -58.679091701527,
      "SliceThickness": 3.5,
      "SmallestImagePixelValue": 0,
      "SoftwareVersions": "syngo MR E11",
      "SpacingBetweenSlices": 3.9899999687523,
      "SpecificCharacterSet": "ISO_IR 100",
      "StudyID": "45",
      "StudyTime": "093944.748000",
      "TransmitCoilName": "Body",
      "VariableFlipAngleFlag": "N",
      "WindowCenterWidthExplanation": "Algo1"
    },
    "slices": {}
  },
  "time": {
    "samples": {
      "AcquisitionNumber": [1, 2, 3, 4, 5, 6, 7, 8, 9, 10, 11, 12, 13, 14, 15, 16, 17, 18, 19, 20, 21, 22, 23, 24, 25, 26, 27, 28, 29, 30, 31, 32, 33, 34, 35, 36, 37, 38, 39, 40, 41, 42, 43, 44, 45, 46, 47, 48, 49, 50, 51, 52, 53, 54, 55, 56, 57, 58, 59, 60, 61, 62, 63, 64, 65, 66, 67, 68, 69, 70, 71, 72, 73, 74, 75, 76, 77, 78, 79, 80, 81, 82, 83, 84, 85, 86, 87, 88, 89, 90, 91, 92, 93, 94, 95, 96, 97, 98, 99, 100, 101, 102, 103, 104, 105, 106, 107, 108, 109, 110, 111, 112, 113, 114, 115, 116, 117, 118, 119, 120, 121, 122, 123, 124, 125, 126, 127, 128, 129, 130, 131, 132, 133, 134, 135, 136, 137, 138, 139, 140, 141, 142, 143, 144, 145, 146, 147, 148, 149, 150, 151, 152, 153, 154, 155, 156, 157, 158, 159, 160, 161, 162, 163, 164, 165, 166, 167, 168, 169, 170, 171, 172, 173, 174, 175, 176, 177, 178, 179, 180, 181, 182, 183, 184, 185, 186, 187, 188, 189, 190, 191, 192, 193, 194, 195, 196, 197, 198, 199, 200],
      "AcquisitionTime": ["100704.470000", "100706.470000", "100708.470000", "100710.470000", "100712.470000", "100714.470000", "100716.470000", "100718.470000", "100720.470000", "100722.470000", "100724.470000", "100726.470000", "100728.470000", "100730.470000", "100732.470000", "100734.470000", "100736.470000", "100738.470000", "100740.470000", "100742.470000", "100744.470000", "100746.470000", "100748.470000", "100750.470000", "100752.470000", "100754.470000", "100756.470000", "100758.470000", "100800.470000", "100802.470000", "100804.470000", "100806.470000", "100808.470000", "100810.470000", "100812.470000", "100814.470000", "100816.470000", "100818.470000", "100820.470000", "100822.470000", "100824.470000", "100826.470000", "100828.470000", "100830.470000", "100832.470000", "100834.470000", "100836.470000", "100838.470000", "100840.470000", "100842.470000", "100844.470000", "100846.470000", "100848.470000", "100850.470000", "100852.470000", "100854.470000", "100856.470000", "100858.470000", "100900.470000", "100902.470000", "100904.470000", "100906.470000", "100908.470000", "100910.470000", "100912.470000", "100914.470000", "100916.470000", "100918.470000", "100920.470000", "100922.470000", "100924.470000", "100926.470000", "100928.470000", "100930.470000", "100932.470000", "100934.470000", "100936.470000", "100938.470000", "100940.470000", "100942.470000", "100944.470000", "100946.470000", "100948.470000", "100950.470000", "100952.470000", "100954.470000", "100956.470000", "100958.470000", "101000.470000", "101002.470000", "101004.470000", "101006.470000", "101008.470000", "101010.470000", "101012.470000", "101014.470000", "101016.470000", "101018.470000", "101020.470000", "101022.470000", "101024.470000", "101026.470000", "101028.470000", "101030.470000", "101032.470000", "101034.470000", "101036.470000", "101038.470000", "101040.470000", "101042.470000", "101044.470000", "101046.470000", "101048.470000", "101050.470000", "101052.470000", "101054.470000", "101056.470000", "101058.470000", "101100.470000", "101102.470000", "101104.470000", "101106.470000", "101108.470000", "101110.470000", "101112.470000", "101114.470000", "101116.470000", "101118.470000", "101120.470000", "101122.470000", "101124.470000", "101126.470000", "101128.470000", "101130.470000", "101132.470000", "101134.470000", "101136.470000", "101138.470000", "101140.470000", "101142.470000", "101144.470000", "101146.470000", "101148.470000", "101150.470000", "101152.470000", "101154.470000", "101156.470000", "101158.470000", "101200.470000", "101202.470000", "101204.470000", "101206.470000", "101208.470000", "101210.470000", "101212.470000", "101214.470000", "101216.470000", "101218.470000", "101220.470000", "101222.470000", "101224.470000", "101226.470000", "101228.470000", "101230.470000", "101232.470000", "101234.470000", "101236.470000", "101238.470000", "101240.470000", "101242.470000", "101244.470000", "101246.470000", "101248.470000", "101250.470000", "101252.470000", "101254.470000", "101256.470000", "101258.470000", "101300.470000", "101302.470000", "101304.470000", "101306.470000", "101308.470000", "101310.470000", "101312.470000", "101314.470000", "101316.470000", "101318.470000", "101320.470000", "101322.470000", "101324.470000", "101326.470000", "101328.470000", "101330.470000", "101332.470000", "101334.470000", "101336.470000", "101338.470000", "101340.470000", "101342.470000"],
      "ContentTime": ["100750.932000", "100750.935000", "100750.937000", "100750.940000", "100750.942000", "100750.945000", "100750.947000", "100750.949000", "100750.951000", "100750.954000", "100750.956000", "100750.958000", "100750.960000", "100750.963000", "100750.965000", "100750.967000", "100750.976000", "100750.978000", "100750.980000", "100750.982000", "100750.985000", "100750.987000", "100750.989000", "100830.908000", "100830.911000", "100830.913000", "100830.915000", "100830.918000", "100830.920000", "100830.922000", "100830.924000", "100830.927000", "100830.929000", "100830.931000", "100830.933000", "100830.936000", "100830.938000", "100830.940000", "100830.943000", "100830.945000", "100830.947000", "100830.949000", "100830.952000", "100910.909000", "100910.912000", "100910.914000", "100910.916000", "100910.919000", "100910.921000", "100910.923000", "100910.925000", "100910.928000", "100910.930000", "100910.932000", "100910.934000", "100910.937000", "100910.939000", "100910.941000", "100910.944000", "100910.946000", "100910.948000", "100910.950000", "100910.953000", "100950.909000", "100950.912000", "100950.914000", "100950.916000", "100950.918000", "100950.921000", "100950.923000", "100950.925000", "100950.927000", "100950.930000", "100950.932000", "100950.934000", "100950.936000", "100950.939000", "100950.941000", "100950.943000", "100950.945000", "100950.948000", "100950.950000", "100950.952000", "101030.910000", "101030.912000", "101030.914000", "101030.917000", "101030.919000", "101030.921000", "101030.924000", "101030.926000", "101030.928000", "101030.930000", "101030.933000", "101030.935000", "101030.937000", "101030.940000", "101030.942000", "101030.944000", "101030.946000", "101030.949000", "101030.951000", "101030.954000", "101110.909000", "101110.912000", "101110.914000", "101110.916000", "101110.919000", "101110.921000", "101110.923000", "101110.925000", "101110.928000", "101110.930000", "101110.932000", "101110.941000", "101110.944000", "101110.946000", "101110.948000", "101110.951000", "101110.953000", "101110.955000", "101110.957000", "101110.960000", "101150.909000", "101150.912000", "101150.914000", "101150.916000", "101150.919000", "101150.921000", "101150.923000", "101150.926000", "101150.928000", "101150.930000", "101150.932000", "101150.935000", "101150.937000", "101150.939000", "101150.942000", "101150.944000", "101150.946000", "101150.948000", "101150.951000", "101150.953000", "101230.909000", "101230.912000", "101230.914000", "101230.916000", "101230.918000", "101230.921000", "101230.923000", "101230.925000", "101230.928000", "101230.930000", "101230.932000", "101230.935000", "101230.937000", "101230.939000", "101230.941000", "101230.944000", "101230.946000", "101230.948000", "101230.950000", "101230.953000", "101310.909000", "101310.912000", "101310.914000", "101310.916000", "101310.919000", "101310.921000", "101310.923000", "101310.926000", "101310.928000", "101310.930000", "101310.932000", "101310.935000", "101310.937000", "101310.939000", "101310.942000", "101310.944000", "101310.946000", "101310.948000", "101310.951000", "101310.953000", "101344.003000", "101344.005000", "101344.008000", "101344.010000", "101344.013000", "101344.015000", "101344.017000", "101344.020000", "101344.022000", "101344.024000", "101344.026000", "101344.029000", "101344.032000", "101344.034000", "101344.036000", "101344.039000", "101344.041000"],
      "InstanceCreationTime": ["100750.932000", "100750.935000", "100750.937000", "100750.940000", "100750.942000", "100750.945000", "100750.947000", "100750.949000", "100750.951000", "100750.954000", "100750.956000", "100750.958000", "100750.960000", "100750.963000", "100750.965000", "100750.967000", "100750.976000", "100750.978000", "100750.980000", "100750.982000", "100750.985000", "100750.987000", "100750.989000", "100830.908000", "100830.911000", "100830.913000", "100830.915000", "100830.918000", "100830.920000", "100830.922000", "100830.924000", "100830.927000", "100830.929000", "100830.931000", "100830.933000", "100830.936000", "100830.938000", "100830.940000", "100830.943000", "100830.945000", "100830.947000", "100830.949000", "100830.952000", "100910.909000", "100910.912000", "100910.914000", "100910.916000", "100910.919000", "100910.921000", "100910.923000", "100910.925000", "100910.928000", "100910.930000", "100910.932000", "100910.934000", "100910.937000", "100910.939000", "100910.941000", "100910.944000", "100910.946000", "100910.948000", "100910.950000", "100910.953000", "100950.909000", "100950.912000", "100950.914000", "100950.916000", "100950.918000", "100950.921000", "100950.923000", "100950.925000", "100950.927000", "100950.930000", "100950.932000", "100950.934000", "100950.936000", "100950.939000", "100950.941000", "100950.943000", "100950.945000", "100950.948000", "100950.950000", "100950.952000", "101030.910000", "101030.912000", "101030.914000", "101030.917000", "101030.919000", "101030.921000", "101030.924000", "101030.926000", "101030.928000", "101030.930000", "101030.933000", "101030.935000", "101030.937000", "101030.940000", "101030.942000", "101030.944000", "101030.946000", "101030.949000", "101030.951000", "101030.954000", "101110.909000", "101110.912000", "101110.914000", "101110.916000", "101110.919000", "101110.921000", "101110.923000", "101110.925000", "101110.928000", "101110.930000", "101110.932000", "101110.941000", "101110.944000", "101110.946000", "101110.948000", "101110.951000", "101110.953000", "101110.955000", "101110.957000", "101110.960000", "101150.909000", "101150.912000", "101150.914000", "101150.916000", "101150.919000", "101150.921000", "101150.923000", "101150.926000", "101150.928000", "101150.930000", "101150.932000", "101150.935000", "101150.937000", "101150.939000", "101150.942000", "101150.944000", "101150.946000", "101150.948000", "101150.951000", "101150.953000", "101230.909000", "101230.912000", "101230.914000", "101230.916000", "101230.918000", "101230.921000", "101230.923000", "101230.925000", "101230.928000", "101230.930000", "101230.932000", "101230.935000", "101230.937000", "101230.939000", "101230.941000", "101230.944000", "101230.946000", "101230.948000", "101230.950000", "101230.953000", "101310.909000", "101310.912000", "101310.914000", "101310.916000", "101310.919000", "101310.921000", "101310.923000", "101310.926000", "101310.928000", "101310.930000", "101310.932000", "101310.935000", "101310.937000", "101310.939000", "101310.942000", "101310.944000", "101310.946000", "101310.948000", "101310.951000", "101310.953000", "101344.003000", "101344.005000", "101344.008000", "101344.010000", "101344.013000", "101344.015000", "101344.017000", "101344.020000", "101344.022000", "101344.024000", "101344.026000", "101344.029000", "101344.032000", "101344.034000", "101344.036000", "101344.039000", "101344.041000"],
      "InstanceNumber": [1, 2, 3, 4, 5, 6, 7, 8, 9, 10, 11, 12, 13, 14, 15, 16, 17, 18, 19, 20, 21, 22, 23, 24, 25, 26, 27, 28, 29, 30, 31, 32, 33, 34, 35, 36, 37, 38, 39, 40, 41, 42, 43, 44, 45, 46, 47, 48, 49, 50, 51, 52, 53, 54, 55, 56, 57, 58, 59, 60, 61, 62, 63, 64, 65, 66, 67, 68, 69, 70, 71, 72, 73, 74, 75, 76, 77, 78, 79, 80, 81, 82, 83, 84, 85, 86, 87, 88, 89, 90, 91, 92, 93, 94, 95, 96, 97, 98, 99, 100, 101, 102, 103, 104, 105, 106, 107, 108, 109, 110, 111, 112, 113, 114, 115, 116, 117, 118, 119, 120, 121, 122, 123, 124, 125, 126, 127, 128, 129, 130, 131, 132, 133, 134, 135, 136, 137, 138, 139, 140, 141, 142, 143, 144, 145, 146, 147, 148, 149, 150, 151, 152, 153, 154, 155, 156, 157, 158, 159, 160, 161, 162, 163, 164, 165, 166, 167, 168, 169, 170, 171, 172, 173, 174, 175, 176, 177, 178, 179, 180, 181, 182, 183, 184, 185, 186, 187, 188, 189, 190, 191, 192, 193, 194, 195, 196, 197, 198, 199, 200],
      "LargestImagePixelValue": [349, 350, 350, 350, 350, 352, 349, 349, 349, 351, 353, 352, 350, 350, 351, 350, 349, 349, 349, 349, 349, 351, 350, 350, 349, 351, 349, 350, 350, 349, 350, 350, 351, 350, 351, 350, 351, 350, 350, 349, 351, 349, 350, 351, 351, 350, 351, 351, 350, 351, 349, 350, 349, 349, 349, 350, 350, 350, 349, 351, 350, 350, 349, 352, 350, 350, 349, 349, 349, 349, 350, 349, 349, 350, 350, 349, 350, 349, 351, 349, 351, 348, 351, 349, 348, 349, 349, 349, 349, 350, 349, 349, 348, 349, 349, 351, 349, 350, 349, 349, 349, 349, 350, 349, 349, 350, 347, 350, 350, 350, 349, 349, 350, 348, 350, 350, 349, 348, 349, 348, 350, 350, 350, 349, 349, 350, 348, 350, 349, 350, 350, 350, 349, 349, 350, 349, 349, 350, 349, 351, 350, 350, 350, 351, 349, 349, 350, 350, 349, 349, 350, 351, 349, 349, 350, 349, 349, 348, 349, 348, 351, 349, 350, 349, 348, 348, 349, 348, 349, 350, 350, 349, 349, 350, 349, 350, 348, 350, 350, 349, 348, 351, 349, 351, 350, 352, 348, 348, 349, 351, 349, 350, 349, 348, 348, 349, 350, 349, 350, 350],
      "WindowCenter": [284.0, 284.0, 284.0, 285.0, 284.0, 285.0, 284.0, 284.0, 284.0, 285.0, 284.0, 285.0, 285.0, 285.0, 285.0, 284.0, 284.0, 284.0, 284.0, 284.0, 284.0, 284.0, 284.0, 284.0, 284.0, 284.0, 284.0, 285.0, 285.0, 284.0, 284.0, 284.0, 285.0, 285.0, 284.0, 284.0, 284.0, 285.0, 284.0, 284.0, 284.0, 284.0, 284.0, 285.0, 284.0, 284.0, 284.0, 285.0, 284.0, 284.0, 284.0, 284.0, 284.0, 284.0, 284.0, 284.0, 285.0, 284.0, 284.0, 283.0, 285.0, 284.0, 284.0, 284.0, 284.0, 284.0, 284.0, 283.0, 283.0, 284.0, 284.0, 284.0, 284.0, 284.0, 284.0, 284.0, 285.0, 283.0, 284.0, 284.0, 284.0, 284.0, 284.0, 284.0, 283.0, 283.0, 283.0, 284.0, 283.0, 284.0, 284.0, 284.0, 284.0, 283.0, 284.0, 284.0, 284.0, 284.0, 283.0, 284.0, 284.0, 283.0, 284.0, 283.0, 284.0, 284.0, 284.0, 283.0, 284.0, 283.0, 284.0, 283.0, 284.0, 283.0, 284.0, 284.0, 283.0, 284.0, 283.0, 284.0, 284.0, 285.0, 284.0, 284.0, 283.0, 284.0, 283.0, 284.0, 283.0, 284.0, 284.0, 283.0, 283.0, 283.0, 284.0, 283.0, 283.0, 284.0, 283.0, 283.0, 283.0, 284.0, 284.0, 284.0, 283.0, 283.0, 284.0, 284.0, 284.0, 283.0, 283.0, 283.0, 284.0, 283.0, 284.0, 283.0, 283.0, 283.0, 283.0, 283.0, 284.0, 283.0, 283.0, 283.0, 283.0, 284.0, 283.0, 283.0, 283.0, 283.0, 284.0, 283.0, 283.0, 284.0, 283.0, 284.0, 283.0, 284.0, 284.0, 283.0, 283.0, 284.0, 283.0, 283.0, 283.0, 283.0, 283.0, 283.0, 283.0, 284.0, 283.0, 283.0, 283.0, 283.0, 283.0, 283.0, 283.0, 283.0, 283.0, 284.0],
      "WindowWidth": [621.0, 622.0, 622.0, 622.0, 622.0, 622.0, 621.0, 621.0, 621.0, 622.0, 622.0, 622.0, 622.0, 622.0, 622.0, 622.0, 621.0, 621.0, 622.0, 621.0, 621.0, 622.0, 622.0, 622.0, 621.0, 622.0, 621.0, 622.0, 622.0, 621.0, 622.0, 622.0, 622.0, 622.0, 622.0, 621.0, 622.0, 622.0, 622.0, 621.0, 622.0, 621.0, 622.0, 622.0, 622.0, 622.0, 622.0, 622.0, 622.0, 622.0, 621.0, 621.0, 621.0, 621.0, 621.0, 621.0, 622.0, 621.0, 621.0, 620.0, 622.0, 621.0, 621.0, 621.0, 622.0, 621.0, 621.0, 620.0, 620.0, 621.0, 621.0, 621.0, 621.0, 622.0, 622.0, 621.0, 622.0, 620.0, 621.0, 621.0, 621.0, 621.0, 621.0, 621.0, 620.0, 620.0, 620.0, 621.0, 620.0, 622.0, 621.0, 621.0, 621.0, 620.0, 621.0, 621.0, 621.0, 621.0, 620.0, 621.0, 621.0, 620.0, 621.0, 620.0, 621.0, 621.0, 621.0, 620.0, 621.0, 620.0, 621.0, 620.0, 621.0, 620.0, 621.0, 621.0, 620.0, 620.0, 620.0, 620.0, 621.0, 622.0, 621.0, 621.0, 619.0, 621.0, 620.0, 622.0, 620.0, 621.0, 620.0, 620.0, 620.0, 620.0, 621.0, 619.0, 620.0, 621.0, 620.0, 620.0, 620.0, 621.0, 621.0, 620.0, 620.0, 620.0, 622.0, 620.0, 621.0, 619.0, 620.0, 620.0, 621.0, 620.0, 621.0, 619.0, 620.0, 619.0, 620.0, 619.0, 621.0, 620.0, 620.0, 620.0, 619.0, 621.0, 619.0, 620.0, 619.0, 620.0, 620.0, 620.0, 620.0, 621.0, 620.0, 620.0, 619.0, 620.0, 620.0, 620.0, 620.0, 620.0, 619.0, 620.0, 620.0, 620.0, 619.0, 619.0, 620.0, 620.0, 620.0, 620.0, 620.0, 619.0, 620.0, 619.0, 620.0, 619.0, 620.0, 620.0]
    },
    "slices": {}
  }
}