{
  "AcquisitionMatrixPE": 80,
  "AcquisitionNumber": 1,
  "AcquisitionTime": "09:53:28.057500",
  "BandwidthPerPixelPhaseEncode": 46.296,
  "BaseResolution": 80,
  "BodyPartExamined": "BRAIN",
  "CoilCombinationMethod": "Sum of Squares",
  "ConsistencyInfo": "N4_VE11E_LATEST_20181129",
  "ConversionSoftware": "dcm2niix",
  "ConversionSoftwareVersion": "v1.0.20220720",
  "DerivedVendorReportedEchoSpacing": 0.000540003,
  "DeviceSerialNumber": "66112",
  "DwellTime": 2.7e-06,
  "EchoTime": 0.035,
  "EchoTrainLength": 39,
  "EffectiveEchoSpacing": 0.000270002,
  "FlipAngle": 90,
  "HeudiconvVersion": "0.13.1",
  "ImageOrientationPatientDICOM": [0.988038, 0.153986, 0.00832126, -0.14925, 0.941291, 0.302813],
  "ImageOrientationText": "Tra>Cor(17.5)>Sag(-2.2)",
  "ImageType": [
    "ORIGINAL",
    "PRIMARY",
    "M",
    "ND",
    "NORM",
    "MOSAIC"
],
  "ImagingFrequency": 123.261,
  "InPlanePhaseEncodingDirectionDICOM": "COL",
  "InstitutionAddress": "Maynard 3,Hanover,NH,US,03755",
  "InstitutionName": "Dartmouth College - PBS",
  "InstitutionalDepartmentName": "Department",
  "MRAcquisitionType": "2D",
  "MagneticFieldStrength": 3,
  "Manufacturer": "Siemens",
  "ManufacturersModelName": "Prisma",
  "Modality": "MR",
  "MultibandAccelerationFactor": 4,
  "NonlinearGradientCorrection": false,
  "ParallelReductionFactorInPlane": 2,
  "PartialFourier": 1,
  "PatientPosition": "HFS",
  "PercentPhaseFOV": 100,
  "PercentSampling": 100,
  "PhaseEncodingDirection": "j-",
  "PhaseEncodingSteps": 79,
  "PhaseResolution": 1,
  "PixelBandwidth": 2315,
  "ProcedureStepDescription": "dbic^QA",
  "ProtocolName": "func-bold_task-rest_acq-p2-s4-3.5mm",
  "PulseSequenceDetails": "%SiemensSeq%\\ep2d_bold",
  "ReceiveCoilActiveElements": "HEA;HEP",
  "ReceiveCoilName": "Head_32",
  "ReconMatrixPE": 80,
  "RefLinesPE": 24,
  "RepetitionTime": 2,
  "SAR": 0.0206243,
  "ScanOptions": "FS",
  "ScanningSequence": "EP",
  "SequenceName": "*epfid2d1_80",
  "SequenceVariant": "SK",
  "SeriesDescription": "func-bold_task-rest_acq-p2-s4-3.5mm",
  "SeriesNumber": 6,
  "ShimSetting": [4247, -7745, -7480, -14, -181, -72, -23, 81],
  "SliceThickness": 3.5,
  "SliceTiming": [1.485, 0, 0.99, 0.2475, 1.2375, 0.7425, 1.7325, 0.495, 1.485, 0, 0.99, 0.2475, 1.2375, 0.7425, 1.7325, 0.495, 1.485, 0, 0.99, 0.2475, 1.2375, 0.7425, 1.7325, 0.495, 1.485, 0, 0.99, 0.2475, 1.2375, 0.7425, 1.7325, 0.495],
  "SoftwareVersions": "syngo MR E11",
  "SpacingBetweenSlices": 3.99,
  "StationName": "AWP66112",
  "TaskName": "rest",
  "TotalReadoutTime": 0.0213301,
  "TxRefAmp": 221.369,
  "dcmmeta_affine": [
    [-2.964114189147949, -0.44775089621543884, -0.15479616820812225, 139.1252899169922],
    [-0.46195656061172485, 2.823873281478882, 1.1987249851226807, -110.5763931274414],
    [0.02496377006173134, -0.9084378480911255, 3.802525043487549, -24.56974220275879],
    [0.0, 0.0, 0.0, 1.0]
],
  "dcmmeta_reorient_transform": [
    [0.0, -1.0, 0.0, 79.0],
    [1.0, 0.0, 0.0, 0.0],
    [0.0, 0.0, 1.0, 0.0],
    [0.0, 0.0, 0.0, 1.0]
],
  "dcmmeta_shape": [80, 80, 32, 200],
  "dcmmeta_slice_dim": 2,
  "dcmmeta_version": 0.6,
  "global": {
    "const": {
      "AccessionNumber": "qa",
      "AcquisitionMatrix": [80, 0, 0, 80],
      "AngioFlag": "N",
      "BitsAllocated": 16,
      "BitsStored": 12,
      "BodyPartExamined": "BRAIN",
      "Columns": 480,
      "EchoNumbers": 1,
      "EchoTime": 35.0,
      "EchoTrainLength": 39,
      "FlipAngle": 90.0,
      "HighBit": 11,
      "ImageOrientationPatient": [0.98803806386181, 0.15398552218985, 0.00832125688428, -0.1492503000605, 0.94129106329332, 0.3028126187859],
      "ImagePositionPatient": [-607.02562247782, -769.67553658267, -283.01665751134],
      "ImageType": [
        "ORIGINAL",
        "PRIMARY",
        "M",
        "ND",
        "NORM",
        "MOSAIC"
],
      "ImagedNucleus": "1H",
      "ImagingFrequency": 123.261245,
      "InPlanePhaseEncodingDirection": "COL",
      "MRAcquisitionType": "2D",
      "MagneticFieldStrength": 3.0,
      "Manufacturer": "SIEMENS",
      "ManufacturerModelName": "Prisma",
      "Modality": "MR",
      "NumberOfAverages": 1.0,
      "NumberOfPhaseEncodingSteps": 79,
      "PercentPhaseFieldOfView": 100.0,
      "PercentSampling": 100.0,
      "PerformedProcedureStepStartTime": "093944.795000",
      "PhotometricInterpretation": "MONOCHROME2",
      "PixelBandwidth": 2315.0,
      "PixelRepresentation": 0,
      "PixelSpacing": [3.0, 3.0],
      "ProtocolName": "func-bold_task-rest_acq-p2-s4-3.5mm",
      "RepetitionTime": 2000.0,
      "Rows": 480,
      "SAR": 0.02062427142905,
      "SamplesPerPixel": 1,
      "ScanOptions": "FS",
      "ScanningSequence": "EP",
      "SequenceName": "*epfid2d1_80",
      "SequenceVariant": "SK",
      "SeriesDescription": "func-bold_task-rest_acq-p2-s4-3.5mm",
      "SeriesNumber": 6,
      "SeriesTime": "095410.740000",
      "SliceLocation": -62.033537688958,
      "SliceThickness": 3.5,
      "SmallestImagePixelValue": 0,
      "SoftwareVersions": "syngo MR E11",
      "SpacingBetweenSlices": 3.9899999380788,
      "SpecificCharacterSet": "ISO_IR 100",
      "StudyID": "45",
      "StudyTime": "093944.748000",
      "TransmitCoilName": "Body",
      "VariableFlipAngleFlag": "N",
      "WindowCenterWidthExplanation": "Algo1"
    },
    "slices": {}
  },
  "time": {
    "samples": {
      "AcquisitionNumber": [1, 2, 3, 4, 5, 6, 7, 8, 9, 10, 11, 12, 13, 14, 15, 16, 17, 18, 19, 20, 21, 22, 23, 24, 25, 26, 27, 28, 29, 30, 31, 32, 33, 34, 35, 36, 37, 38, 39, 40, 41, 42, 43, 44, 45, 46, 47, 48, 49, 50, 51, 52, 53, 54, 55, 56, 57, 58, 59, 60, 61, 62, 63, 64, 65, 66, 67, 68, 69, 70, 71, 72, 73, 74, 75, 76, 77, 78, 79, 80, 81, 82, 83, 84, 85, 86, 87, 88, 89, 90, 91, 92, 93, 94, 95, 96, 97, 98, 99, 100, 101, 102, 103, 104, 105, 106, 107, 108, 109, 110, 111, 112, 113, 114, 115, 116, 117, 118, 119, 120, 121, 122, 123, 124, 125, 126, 127, 128, 129, 130, 131, 132, 133, 134, 135, 136, 137, 138, 139, 140, 141, 142, 143, 144, 145, 146, 147, 148, 149, 150, 151, 152, 153, 154, 155, 156, 157, 158, 159, 160, 161, 162, 163, 164, 165, 166, 167, 168, 169, 170, 171, 172, 173, 174, 175, 176, 177, 178, 179, 180, 181, 182, 183, 184, 185, 186, 187, 188, 189, 190, 191, 192, 193, 194, 195, 196, 197, 198, 199, 200],
      "AcquisitionTime": ["095328.057500", "095330.057500", "095332.057500", "095334.057500", "095336.057500", "095338.057500", "095340.057500", "095342.057500", "095344.057500", "095346.057500", "095348.057500", "095350.057500", "095352.057500", "095354.057500", "095356.057500", "095358.057500", "095400.057500", "095402.057500", "095404.057500", "095406.057500", "095408.057500", "095410.057500", "095412.057500", "095414.057500", "095416.057500", "095418.057500", "095420.057500", "095422.057500", "095424.057500", "095426.057500", "095428.057500", "095430.057500", "095432.057500", "095434.057500", "095436.057500", "095438.057500", "095440.057500", "095442.057500", "095444.057500", "095446.057500", "095448.057500", "095450.057500", "095452.057500", "095454.057500", "095456.057500", "095458.057500", "095500.057500", "095502.057500", "095504.057500", "095506.057500", "095508.057500", "095510.057500", "095512.057500", "095514.057500", "095516.057500", "095518.057500", "095520.057500", "095522.057500", "095524.057500", "095526.057500", "095528.057500", "095530.057500", "095532.057500", "095534.057500", "095536.057500", "095538.057500", "095540.057500", "095542.057500", "095544.057500", "095546.057500", "095548.057500", "095550.057500", "095552.057500", "095554.057500", "095556.057500", "095558.057500", "095600.057500", "095602.057500", "095604.057500", "095606.057500", "095608.057500", "095610.057500", "095612.057500", "095614.057500", "095616.057500", "095618.057500", "095620.057500", "095622.057500", "095624.057500", "095626.057500", "095628.057500", "095630.057500", "095632.057500", "095634.057500", "095636.057500", "095638.057500", "095640.057500", "095642.057500", "095644.057500", "095646.057500", "095648.057500", "095650.057500", "095652.057500", "095654.057500", "095656.057500", "095658.057500", "095700.057500", "095702.057500", "095704.057500", "095706.057500", "095708.057500", "095710.057500", "095712.057500", "095714.057500", "095716.057500", "095718.057500", "095720.057500", "095722.057500", "095724.057500", "095726.057500", "095728.057500", "095730.057500", "095732.057500", "095734.057500", "095736.057500", "095738.057500", "095740.057500", "095742.057500", "095744.057500", "095746.057500", "095748.057500", "095750.057500", "095752.057500", "095754.057500", "095756.057500", "095758.057500", "095800.057500", "095802.057500", "095804.057500", "095806.057500", "095808.057500", "095810.057500", "095812.057500", "095814.057500", "095816.057500", "095818.057500", "095820.057500", "095822.057500", "095824.057500", "095826.057500", "095828.057500", "095830.057500", "095832.057500", "095834.057500", "095836.057500", "095838.057500", "095840.057500", "095842.057500", "095844.057500", "095846.057500", "095848.057500", "095850.057500", "095852.057500", "095854.057500", "095856.057500", "095858.057500", "095900.057500", "095902.057500", "095904.057500", "095906.057500", "095908.057500", "095910.057500", "095912.057500", "095914.057500", "095916.057500", "095918.057500", "095920.057500", "095922.057500", "095924.057500", "095926.057500", "095928.057500", "095930.057500", "095932.057500", "095934.057500", "095936.057500", "095938.057500", "095940.057500", "095942.057500", "095944.057500", "095946.057500", "095948.057500", "095950.057500", "095952.057500", "095954.057500", "095956.057500", "095958.057500", "100000.057500", "100002.057500", "100004.057500", "100006.057500"],
      "ContentTime": ["095410.743000", "095410.746000", "095410.748000", "095410.751000", "095410.753000", "095410.755000", "095410.758000", "095410.760000", "095410.762000", "095410.772000", "095410.774000", "095410.776000", "095410.779000", "095410.781000", "095410.783000", "095410.786000", "095410.794000", "095410.796000", "095410.798000", "095410.800000", "095410.803000", "095450.738000", "095450.741000", "095450.743000", "095450.745000", "095450.748000", "095450.750000", "095450.752000", "095450.755000", "095450.757000", "095450.759000", "095450.762000", "095450.764000", "095450.766000", "095450.768000", "095450.771000", "095450.773000", "095450.775000", "095450.778000", "095450.787000", "095450.789000", "095510.738000", "095510.741000", "095510.743000", "095510.745000", "095510.748000", "095510.750000", "095510.757000", "095510.759000", "095510.761000", "095510.764000", "095550.738000", "095550.741000", "095550.743000", "095550.746000", "095550.748000", "095550.750000", "095550.752000", "095550.759000", "095550.761000", "095550.763000", "095550.766000", "095550.768000", "095550.770000", "095550.773000", "095550.775000", "095550.777000", "095550.779000", "095550.782000", "095550.784000", "095550.787000", "095630.738000", "095630.741000", "095630.743000", "095630.745000", "095630.748000", "095630.750000", "095630.752000", "095630.755000", "095630.767000", "095630.769000", "095630.771000", "095630.774000", "095630.776000", "095630.778000", "095630.781000", "095630.783000", "095630.785000", "095630.788000", "095630.790000", "095630.792000", "095710.738000", "095710.741000", "095710.743000", "095710.745000", "095710.748000", "095710.750000", "095710.752000", "095710.755000", "095710.757000", "095710.759000", "095710.762000", "095710.764000", "095710.766000", "095710.769000", "095710.771000", "095710.773000", "095710.776000", "095710.778000", "095710.780000", "095710.783000", "095750.738000", "095750.741000", "095750.743000", "095750.745000", "095750.748000", "095750.750000", "095750.752000", "095750.755000", "095750.757000", "095750.759000", "095750.762000", "095750.764000", "095750.766000", "095750.769000", "095750.771000", "095750.773000", "095750.776000", "095750.778000", "095750.780000", "095750.782000", "095830.738000", "095830.741000", "095830.743000", "095830.745000", "095830.748000", "095830.750000", "095830.752000", "095830.755000", "095830.757000", "095830.759000", "095830.762000", "095830.764000", "095830.766000", "095830.769000", "095830.771000", "095830.773000", "095830.776000", "095830.778000", "095830.780000", "095830.783000", "095910.737000", "095910.740000", "095910.742000", "095910.744000", "095910.747000", "095910.749000", "095910.751000", "095910.754000", "095910.756000", "095910.759000", "095910.761000", "095910.763000", "095910.765000", "095910.768000", "095910.770000", "095910.772000", "095910.775000", "095910.777000", "095910.779000", "095910.782000", "095950.738000", "095950.741000", "095950.743000", "095950.745000", "095950.748000", "095950.750000", "095950.752000", "095950.755000", "095950.757000", "095950.759000", "095950.762000", "095950.764000", "095950.766000", "095950.769000", "095950.771000", "095950.773000", "095950.776000", "095950.778000", "095950.780000", "095950.783000", "100007.419000", "100007.422000", "100007.424000", "100007.427000", "100007.429000", "100007.431000", "100007.434000", "100007.436000", "100007.438000"],
      "InstanceCreationTime": ["095410.743000", "095410.746000", "095410.748000", "095410.751000", "095410.753000", "095410.755000", "095410.758000", "095410.760000", "095410.762000", "095410.772000", "095410.774000", "095410.776000", "095410.779000", "095410.781000", "095410.783000", "095410.786000", "095410.794000", "095410.796000", "095410.798000", "095410.800000", "095410.803000", "095450.738000", "095450.741000", "095450.743000", "095450.745000", "095450.748000", "095450.750000", "095450.752000", "095450.755000", "095450.757000", "095450.759000", "095450.762000", "095450.764000", "095450.766000", "095450.768000", "095450.771000", "095450.773000", "095450.775000", "095450.778000", "095450.787000", "095450.789000", "095510.738000", "095510.741000", "095510.743000", "095510.745000", "095510.748000", "095510.750000", "095510.757000", "095510.759000", "095510.761000", "095510.764000", "095550.738000", "095550.741000", "095550.743000", "095550.746000", "095550.748000", "095550.750000", "095550.752000", "095550.759000", "095550.761000", "095550.763000", "095550.766000", "095550.768000", "095550.770000", "095550.773000", "095550.775000", "095550.777000", "095550.779000", "095550.782000", "095550.784000", "095550.787000", "095630.738000", "095630.741000", "095630.743000", "095630.745000", "095630.748000", "095630.750000", "095630.752000", "095630.755000", "095630.767000", "095630.769000", "095630.771000", "095630.774000", "095630.776000", "095630.778000", "095630.781000", "095630.783000", "095630.785000", "095630.788000", "095630.790000", "095630.792000", "095710.738000", "095710.741000", "095710.743000", "095710.745000", "095710.748000", "095710.750000", "095710.752000", "095710.755000", "095710.757000", "095710.759000", "095710.762000", "095710.764000", "095710.766000", "095710.769000", "095710.771000", "095710.773000", "095710.776000", "095710.778000", "095710.780000", "095710.783000", "095750.738000", "095750.741000", "095750.743000", "095750.745000", "095750.748000", "095750.750000", "095750.752000", "095750.755000", "095750.757000", "095750.759000", "095750.762000", "095750.764000", "095750.766000", "095750.769000", "095750.771000", "095750.773000", "095750.776000", "095750.778000", "095750.780000", "095750.782000", "095830.738000", "095830.741000", "095830.743000", "095830.745000", "095830.748000", "095830.750000", "095830.752000", "095830.755000", "095830.757000", "095830.759000", "095830.762000", "095830.764000", "095830.766000", "095830.769000", "095830.771000", "095830.773000", "095830.776000", "095830.778000", "095830.780000", "095830.783000", "095910.737000", "095910.740000", "095910.742000", "095910.744000", "095910.747000", "095910.749000", "095910.751000", "095910.754000", "095910.756000", "095910.759000", "095910.761000", "095910.763000", "095910.765000", "095910.768000", "095910.770000", "095910.772000", "095910.775000", "095910.777000", "095910.779000", "095910.782000", "095950.738000", "095950.741000", "095950.743000", "095950.745000", "095950.748000", "095950.750000", "095950.752000", "095950.755000", "095950.757000", "095950.759000", "095950.762000", "095950.764000", "095950.766000", "095950.769000", "095950.771000", "095950.773000", "095950.776000", "095950.778000", "095950.780000", "095950.783000", "100007.419000", "100007.422000", "100007.424000", "100007.427000", "100007.429000", "100007.431000", "100007.434000", "100007.436000", "100007.438000"],
      "InstanceNumber": [1, 2, 3, 4, 5, 6, 7, 8, 9, 10, 11, 12, 13, 14, 15, 16, 17, 18, 19, 20, 21, 22, 23, 24, 25, 26, 27, 28, 29, 30, 31, 32, 33, 34, 35, 36, 37, 38, 39, 40, 41, 42, 43, 44, 45, 46, 47, 48, 49, 50, 51, 52, 53, 54, 55, 56, 57, 58, 59, 60, 61, 62, 63, 64, 65, 66, 67, 68, 69, 70, 71, 72, 73, 74, 75, 76, 77, 78, 79, 80, 81, 82, 83, 84, 85, 86, 87, 88, 89, 90, 91, 92, 93, 94, 95, 96, 97, 98, 99, 100, 101, 102, 103, 104, 105, 106, 107, 108, 109, 110, 111, 112, 113, 114, 115, 116, 117, 118, 119, 120, 121, 122, 123, 124, 125, 126, 127, 128, 129, 130, 131, 132, 133, 134, 135, 136, 137, 138, 139, 140, 141, 142, 143, 144, 145, 146, 147, 148, 149, 150, 151, 152, 153, 154, 155, 156, 157, 158, 159, 160, 161, 162, 163, 164, 165, 166, 167, 168, 169, 170, 171, 172, 173, 174, 175, 176, 177, 178, 179, 180, 181, 182, 183, 184, 185, 186, 187, 188, 189, 190, 191, 192, 193, 194, 195, 196, 197, 198, 199, 200],
      "LargestImagePixelValue": [2147, 2144, 2146, 2149, 2150, 2153, 2153, 2150, 2149, 2150, 2147, 2147, 2144, 2149, 2147, 2149, 2154, 2153, 2154, 2154, 2147, 2149, 2150, 2150, 2152, 2152, 2155, 2156, 2155, 2154, 2151, 2151, 2151, 2152, 2154, 2150, 2156, 2151, 2158, 2153, 2149, 2150, 2150, 2153, 2153, 2158, 2152, 2156, 2158, 2153, 2159, 2155, 2149, 2152, 2156, 2157, 2156, 2159, 2157, 2158, 2158, 2152, 2152, 2157, 2153, 2157, 2161, 2160, 2163, 2161, 2157, 2156, 2153, 2151, 2155, 2155, 2155, 2157, 2158, 2155, 2158, 2152, 2154, 2153, 2159, 2159, 2159, 2157, 2157, 2160, 2156, 2155, 2154, 2157, 2159, 2156, 2158, 2157, 2160, 2160, 2160, 2156, 2154, 2156, 2156, 2157, 2160, 2159, 2163, 2159, 2158, 2161, 2157, 2158, 2156, 2160, 2163, 2161, 2159, 2160, 2159, 2157, 2158, 2156, 2157, 2158, 2159, 2157, 2158, 2159, 2163, 2160, 2159, 2159, 2152, 2154, 2159, 2157, 2162, 2165, 2162, 2159, 2156, 2157, 2156, 2158, 2159, 2161, 2163, 2159, 2165, 2156, 2157, 2158, 2154, 2155, 2159, 2158, 2159, 2162, 2157, 2158, 2157, 2153, 2154, 2159, 2155, 2159, 2161, 2160, 2164, 2160, 2163, 2157, 2157, 2160, 2161, 2161, 2163, 2160, 2161, 2162, 2160, 2159, 2156, 2158, 2156, 2162, 2158, 2159, 2166, 2160, 2158, 2157, 2161, 2157, 2158, 2159, 2163, 2155],
      "WindowCenter": [942.0, 941.0, 941.0, 941.0, 941.0, 943.0, 941.0, 941.0, 941.0, 941.0, 941.0, 941.0, 941.0, 940.0, 941.0, 941.0, 942.0, 941.0, 941.0, 941.0, 942.0, 941.0, 941.0, 940.0, 942.0, 942.0, 941.0, 941.0, 942.0, 941.0, 941.0, 941.0, 944.0, 941.0, 941.0, 941.0, 941.0, 941.0, 941.0, 941.0, 941.0, 941.0, 942.0, 941.0, 941.0, 941.0, 942.0, 941.0, 941.0, 941.0, 941.0, 941.0, 942.0, 941.0, 941.0, 941.0, 941.0, 941.0, 941.0, 942.0, 942.0, 942.0, 941.0, 941.0, 941.0, 941.0, 942.0, 941.0, 941.0, 941.0, 941.0, 941.0, 940.0, 942.0, 941.0, 942.0, 941.0, 940.0, 941.0, 941.0, 941.0, 942.0, 941.0, 941.0, 941.0, 941.0, 941.0, 941.0, 941.0, 941.0, 941.0, 941.0, 941.0, 941.0, 942.0, 941.0, 942.0, 942.0, 941.0, 941.0, 941.0, 942.0, 942.0, 942.0, 941.0, 941.0, 940.0, 941.0, 941.0, 942.0, 941.0, 942.0, 942.0, 941.0, 941.0, 942.0, 941.0, 941.0, 940.0, 941.0, 941.0, 941.0, 940.0, 941.0, 941.0, 942.0, 941.0, 942.0, 941.0, 941.0, 941.0, 942.0, 941.0, 942.0, 942.0, 941.0, 942.0, 941.0, 942.0, 941.0, 941.0, 941.0, 940.0, 942.0, 941.0, 941.0, 942.0, 940.0, 941.0, 941.0, 942.0, 941.0, 941.0, 941.0, 941.0, 941.0, 941.0, 941.0, 942.0, 941.0, 942.0, 941.0, 941.0, 941.0, 940.0, 941.0, 941.0, 941.0, 941.0, 941.0, 941.0, 941.0, 942.0, 941.0, 941.0, 941.0, 942.0, 942.0, 941.0, 941.0, 940.0, 941.0, 941.0, 941.0, 941.0, 941.0, 942.0, 941.0, 941.0, 941.0, 941.0, 940.0, 940.0, 941.0, 941.0, 941.0, 941.0, 941.0, 941.0, 941.0],
      "WindowWidth": [2185.0, 2184.0, 2185.0, 2183.0, 2184.0, 2185.0, 2184.0, 2184.0, 2184.0, 2184.0, 2184.0, 2183.0, 2183.0, 2182.0, 2184.0, 2184.0, 2185.0, 2184.0, 2184.0, 2183.0, 2184.0, 2183.0, 2184.0, 2183.0, 2185.0, 2184.0, 2184.0, 2184.0, 2185.0, 2184.0, 2184.0, 2184.0, 2187.0, 2184.0, 2184.0, 2184.0, 2184.0, 2184.0, 2184.0, 2184.0, 2184.0, 2184.0, 2185.0, 2184.0, 2184.0, 2184.0, 2185.0, 2185.0, 2185.0, 2184.0, 2184.0, 2184.0, 2185.0, 2184.0, 2184.0, 2185.0, 2184.0, 2184.0, 2184.0, 2185.0, 2185.0, 2184.0, 2184.0, 2184.0, 2184.0, 2183.0, 2185.0, 2184.0, 2184.0, 2184.0, 2184.0, 2184.0, 2182.0, 2185.0, 2184.0, 2185.0, 2184.0, 2183.0, 2184.0, 2184.0, 2185.0, 2185.0, 2184.0, 2184.0, 2183.0, 2184.0, 2184.0, 2184.0, 2184.0, 2183.0, 2184.0, 2183.0, 2184.0, 2184.0, 2185.0, 2183.0, 2185.0, 2185.0, 2183.0, 2185.0, 2184.0, 2185.0, 2185.0, 2185.0, 2183.0, 2184.0, 2182.0, 2184.0, 2184.0, 2185.0, 2185.0, 2185.0, 2184.0, 2185.0, 2183.0, 2185.0, 2184.0, 2184.0, 2183.0, 2184.0, 2183.0, 2184.0, 2183.0, 2183.0, 2183.0, 2185.0, 2183.0, 2185.0, 2183.0, 2184.0, 2184.0, 2185.0, 2183.0, 2184.0, 2184.0, 2184.0, 2185.0, 2184.0, 2185.0, 2183.0, 2183.0, 2184.0, 2182.0, 2184.0, 2184.0, 2183.0, 2184.0, 2182.0, 2184.0, 2183.0, 2185.0, 2183.0, 2184.0, 2183.0, 2183.0, 2183.0, 2183.0, 2183.0, 2184.0, 2185.0, 2184.0, 2183.0, 2183.0, 2183.0, 2182.0, 2183.0, 2183.0, 2183.0, 2183.0, 2183.0, 2183.0, 2183.0, 2185.0, 2183.0, 2183.0, 2184.0, 2184.0, 2185.0, 2183.0, 2184.0, 2182.0, 2183.0, 2183.0, 2184.0, 2183.0, 2183.0, 2185.0, 2183.0, 2184.0, 2183.0, 2183.0, 2182.0, 2182.0, 2183.0, 2183.0, 2183.0, 2183.0, 2183.0, 2183.0, 2184.0]
    },
    "slices": {}
  }
}