{
  "AcquisitionMatrixPE": 80,
  "AcquisitionNumber": 1,
  "AcquisitionTime": "09:44:17.477500",
  "BandwidthPerPixelPhaseEncode": 25,
  "BaseResolution": 80,
  "BodyPartExamined": "BRAIN",
  "CoilCombinationMethod": "Sum of Squares",
  "ConsistencyInfo": "N4_VE11E_LATEST_20181129",
  "ConversionSoftware": "dcm2niix",
  "ConversionSoftwareVersion": "v1.0.20220720",
  "DerivedVendorReportedEchoSpacing": 0.0005,
  "DeviceSerialNumber": "66112",
  "DwellTime": 2.7e-06,
  "EchoTime": 0.03,
  "EchoTrainLength": 80,
  "EffectiveEchoSpacing": 0.0005,
  "FlipAngle": 10,
  "HeudiconvVersion": "0.13.1",
  "ImageOrientationPatientDICOM": [0.985029, 0.172005, 0.01153, -0.167313, 0.937756, 0.304335],
  "ImageOrientationText": "Tra>Cor(17.6)>Sag(-2.4)",
  "ImageType": [
    "ORIGINAL",
    "PRIMARY",
    "M",
    "ND",
    "NORM",
    "MOSAIC"
],
  "ImagingFrequency": 123.252,
  "InPlanePhaseEncodingDirectionDICOM": "COL",
  "InstitutionAddress": "Maynard 3,Hanover,NH,US,03755",
  "InstitutionName": "Dartmouth College - PBS",
  "InstitutionalDepartmentName": "Department",
  "MRAcquisitionType": "2D",
  "MagneticFieldStrength": 3,
  "Manufacturer": "Siemens",
  "ManufacturersModelName": "Prisma",
  "MatrixCoilMode": "SENSE",
  "Modality": "MR",
  "NonlinearGradientCorrection": false,
  "PartialFourier": 1,
  "PatientPosition": "HFS",
  "PercentPhaseFOV": 100,
  "PercentSampling": 100,
  "PhaseEncodingDirection": "j-",
  "PhaseEncodingSteps": 80,
  "PhaseResolution": 1,
  "PixelBandwidth": 2315,
  "ProcedureStepDescription": "dbic^QA",
  "ProtocolName": "func-bold_fa-10",
  "PulseSequenceDetails": "%SiemensSeq%\\ep2d_bold",
  "ReceiveCoilActiveElements": "HEA;HEP",
  "ReceiveCoilName": "Head_32",
  "ReconMatrixPE": 80,
  "RepetitionTime": 2,
  "SAR": 0.0101282,
  "ScanOptions": "FS",
  "ScanningSequence": "EP",
  "SequenceName": "*epfid2d1_80",
  "SequenceVariant": "SK",
  "SeriesDescription": "func-bold_fa-10",
  "SeriesNumber": 10,
  "ShimSetting": [4139, -7710, -7521, 269, -58, -124, 47, 59],
  "SliceThickness": 3.5,
  "SliceTiming": [0.9875, 0, 1.055, 0.065, 1.12, 0.13, 1.1875, 0.1975, 1.2525, 0.2625, 1.3175, 0.33, 1.385, 0.395, 1.45, 0.46, 1.5175, 0.5275, 1.5825, 0.5925, 1.6475, 0.6575, 1.715, 0.725, 1.78, 0.79, 1.8475, 0.8575, 1.9125, 0.9225],
  "SoftwareVersions": "syngo MR E11",
  "SpacingBetweenSlices": 3.99,
  "StationName": "AWP66112",
  "TotalReadoutTime": 0.0395,
  "TxRefAmp": 237.245,
  "dcmmeta_affine": [
    [-2.9550857543945312, -0.5019378662109375, -0.16572420299053192, 142.2270050048828],
    [-0.5160149931907654, 2.8132684230804443, 1.20381498336792, -91.55355072021484],
    [0.034589897841215134, -0.9130057692527771, 3.8004555702209473, -11.394644737243652],
    [0.0, 0.0, 0.0, 1.0]
],
  "dcmmeta_reorient_transform": [
    [0.0, -1.0, 0.0, 79.0],
    [1.0, 0.0, 0.0, 0.0],
    [0.0, 0.0, 1.0, 0.0],
    [0.0, 0.0, 0.0, 1.0]
],
  "dcmmeta_shape": [80, 80, 30, 200],
  "dcmmeta_slice_dim": 2,
  "dcmmeta_version": 0.6,
  "global": {
    "const": {
      "AccessionNumber": "qa",
      "AcquisitionMatrix": [80, 0, 0, 80],
      "AngioFlag": "N",
      "BitsAllocated": 16,
      "BitsStored": 12,
      "BodyPartExamined": "BRAIN",
      "Columns": 480,
      "EchoNumbers": 1,
      "EchoTime": 30.0,
      "EchoTrainLength": 80,
      "FlipAngle": 10.0,
      "HighBit": 11,
      "ImageOrientationPatient": [0.98502859982569, 0.17200499239983, 0.01152996595761, -0.167312613422, 0.93775611914455, 0.30433525986459],
      "ImagePositionPatient": [-593.20350682699, -796.55131621848, -273.04123728071],
      "ImageType": [
        "ORIGINAL",
        "PRIMARY",
        "M",
        "ND",
        "NORM",
        "MOSAIC"
],
      "ImagedNucleus": "1H",
      "ImagingFrequency": 123.252355,
      "InPlanePhaseEncodingDirection": "COL",
      "MRAcquisitionType": "2D",
      "MagneticFieldStrength": 3.0,
      "Manufacturer": "SIEMENS",
      "ManufacturerModelName": "Prisma",
      "Modality": "MR",
      "NumberOfAverages": 1.0,
      "NumberOfPhaseEncodingSteps": 80,
      "PercentPhaseFieldOfView": 100.0,
      "PercentSampling": 100.0,
      "PerformedProcedureStepStartTime": "092051.840000",
      "PhotometricInterpretation": "MONOCHROME2",
      "PixelBandwidth": 2315.0,
      "PixelRepresentation": 0,
      "PixelSpacing": [3.0, 3.0],
      "ProtocolName": "func-bold_fa-10",
      "RepetitionTime": 2000.0,
      "Rows": 480,
      "SAR": 0.01012822362016,
      "SamplesPerPixel": 1,
      "ScanOptions": "FS",
      "ScanningSequence": "EP",
      "SequenceName": "*epfid2d1_80",
      "SequenceVariant": "SK",
      "SeriesDescription": "func-bold_fa-10",
      "SeriesNumber": 10,
      "SeriesTime": "094516.642000",
      "SliceLocation": -44.383170309793,
      "SliceThickness": 3.5,
      "SmallestImagePixelValue": 0,
      "SoftwareVersions": "syngo MR E11",
      "SpacingBetweenSlices": 3.9899998242924,
      "SpecificCharacterSet": "ISO_IR 100",
      "StudyID": "7",
      "StudyTime": "092051.788000",
      "TransmitCoilName": "Body",
      "VariableFlipAngleFlag": "N",
      "WindowCenterWidthExplanation": "Algo1"
    },
    "slices": {}
  },
  "time": {
    "samples": {
      "AcquisitionNumber": [1, 2, 3, 4, 5, 6, 7, 8, 9, 10, 11, 12, 13, 14, 15, 16, 17, 18, 19, 20, 21, 22, 23, 24, 25, 26, 27, 28, 29, 30, 31, 32, 33, 34, 35, 36, 37, 38, 39, 40, 41, 42, 43, 44, 45, 46, 47, 48, 49, 50, 51, 52, 53, 54, 55, 56, 57, 58, 59, 60, 61, 62, 63, 64, 65, 66, 67, 68, 69, 70, 71, 72, 73, 74, 75, 76, 77, 78, 79, 80, 81, 82, 83, 84, 85, 86, 87, 88, 89, 90, 91, 92, 93, 94, 95, 96, 97, 98, 99, 100, 101, 102, 103, 104, 105, 106, 107, 108, 109, 110, 111, 112, 113, 114, 115, 116, 117, 118, 119, 120, 121, 122, 123, 124, 125, 126, 127, 128, 129, 130, 131, 132, 133, 134, 135, 136, 137, 138, 139, 140, 141, 142, 143, 144, 145, 146, 147, 148, 149, 150, 151, 152, 153, 154, 155, 156, 157, 158, 159, 160, 161, 162, 163, 164, 165, 166, 167, 168, 169, 170, 171, 172, 173, 174, 175, 176, 177, 178, 179, 180, 181, 182, 183, 184, 185, 186, 187, 188, 189, 190, 191, 192, 193, 194, 195, 196, 197, 198, 199, 200],
      "AcquisitionTime": ["094417.477500", "094419.477500", "094421.477500", "094423.477500", "094425.477500", "094427.477500", "094429.477500", "094431.477500", "094433.477500", "094435.477500", "094437.477500", "094439.477500", "094441.477500", "094443.477500", "094445.477500", "094447.477500", "094449.477500", "094451.477500", "094453.477500", "094455.477500", "094457.477500", "094459.477500", "094501.477500", "094503.477500", "094505.477500", "094507.477500", "094509.477500", "094511.477500", "094513.477500", "094515.477500", "094517.477500", "094519.477500", "094521.477500", "094523.477500", "094525.477500", "094527.477500", "094529.477500", "094531.477500", "094533.477500", "094535.477500", "094537.477500", "094539.477500", "094541.477500", "094543.477500", "094545.477500", "094547.477500", "094549.477500", "094551.477500", "094553.477500", "094555.477500", "094557.477500", "094559.477500", "094601.477500", "094603.477500", "094605.477500", "094607.477500", "094609.477500", "094611.477500", "094613.477500", "094615.477500", "094617.477500", "094619.477500", "094621.477500", "094623.477500", "094625.477500", "094627.477500", "094629.477500", "094631.477500", "094633.477500", "094635.477500", "094637.477500", "094639.477500", "094641.477500", "094643.477500", "094645.477500", "094647.477500", "094649.477500", "094651.477500", "094653.477500", "094655.477500", "094657.477500", "094659.477500", "094701.477500", "094703.477500", "094705.477500", "094707.477500", "094709.477500", "094711.477500", "094713.477500", "094715.477500", "094717.477500", "094719.477500", "094721.477500", "094723.477500", "094725.477500", "094727.477500", "094729.477500", "094731.477500", "094733.477500", "094735.477500", "094737.477500", "094739.477500", "094741.477500", "094743.477500", "094745.477500", "094747.477500", "094749.477500", "094751.477500", "094753.477500", "094755.477500", "094757.477500", "094759.477500", "094801.477500", "094803.477500", "094805.477500", "094807.477500", "094809.477500", "094811.477500", "094813.477500", "094815.477500", "094817.477500", "094819.477500", "094821.477500", "094823.477500", "094825.477500", "094827.477500", "094829.477500", "094831.477500", "094833.477500", "094835.477500", "094837.477500", "094839.477500", "094841.477500", "094843.477500", "094845.477500", "094847.477500", "094849.477500", "094851.477500", "094853.477500", "094855.477500", "094857.477500", "094859.477500", "094901.477500", "094903.477500", "094905.477500", "094907.477500", "094909.477500", "094911.477500", "094913.477500", "094915.477500", "094917.477500", "094919.477500", "094921.477500", "094923.477500", "094925.477500", "094927.477500", "094929.477500", "094931.477500", "094933.477500", "094935.477500", "094937.477500", "094939.477500", "094941.477500", "094943.477500", "094945.477500", "094947.477500", "094949.477500", "094951.477500", "094953.477500", "094955.477500", "094957.477500", "094959.477500", "095001.477500", "095003.477500", "095005.477500", "095007.477500", "095009.477500", "095011.477500", "095013.477500", "095015.477500", "095017.477500", "095019.477500", "095021.477500", "095023.477500", "095025.477500", "095027.477500", "095029.477500", "095031.477500", "095033.477500", "095035.477500", "095037.477500", "095039.477500", "095041.477500", "095043.477500", "095045.477500", "095047.477500", "095049.477500", "095051.477500", "095053.477500", "095055.477500"],
      "ContentTime": ["094516.645000", "094516.648000", "094516.651000", "094516.653000", "094516.655000", "094516.658000", "094516.660000", "094516.662000", "094516.664000", "094516.667000", "094516.669000", "094516.671000", "094516.674000", "094516.676000", "094516.687000", "094516.689000", "094516.692000", "094516.694000", "094516.696000", "094516.698000", "094516.701000", "094516.703000", "094516.705000", "094516.708000", "094516.710000", "094516.712000", "094516.715000", "094516.717000", "094516.719000", "094556.640000", "094556.643000", "094556.645000", "094556.647000", "094556.650000", "094556.652000", "094556.654000", "094556.656000", "094556.659000", "094556.661000", "094556.663000", "094556.666000", "094556.668000", "094556.670000", "094556.680000", "094556.682000", "094556.685000", "094556.687000", "094556.689000", "094556.692000", "094636.640000", "094636.643000", "094636.645000", "094636.647000", "094636.650000", "094636.652000", "094636.654000", "094636.657000", "094636.659000", "094636.661000", "094636.663000", "094636.666000", "094636.668000", "094636.670000", "094636.673000", "094636.675000", "094636.677000", "094636.679000", "094636.686000", "094636.688000", "094716.640000", "094716.643000", "094716.645000", "094716.648000", "094716.650000", "094716.652000", "094716.654000", "094716.657000", "094716.659000", "094716.661000", "094716.664000", "094716.666000", "094716.668000", "094716.670000", "094716.673000", "094716.675000", "094716.677000", "094716.680000", "094716.682000", "094716.684000", "094756.640000", "094756.643000", "094756.645000", "094756.647000", "094756.650000", "094756.652000", "094756.654000", "094756.656000", "094756.659000", "094756.661000", "094756.663000", "094756.666000", "094756.668000", "094756.670000", "094756.672000", "094756.675000", "094756.677000", "094756.679000", "094756.682000", "094756.684000", "094836.640000", "094836.642000", "094836.645000", "094836.647000", "094836.650000", "094836.652000", "094836.654000", "094836.656000", "094836.659000", "094836.661000", "094836.663000", "094836.666000", "094836.668000", "094836.670000", "094836.673000", "094836.675000", "094836.677000", "094836.679000", "094836.682000", "094836.684000", "094916.640000", "094916.643000", "094916.645000", "094916.647000", "094916.650000", "094916.652000", "094916.654000", "094916.657000", "094916.659000", "094916.661000", "094916.664000", "094916.666000", "094916.668000", "094916.671000", "094916.673000", "094916.675000", "094916.678000", "094916.680000", "094916.682000", "094916.684000", "094956.640000", "094956.643000", "094956.645000", "094956.647000", "094956.650000", "094956.652000", "094956.654000", "094956.657000", "094956.659000", "094956.661000", "094956.663000", "094956.666000", "094956.668000", "094956.670000", "094956.673000", "094956.675000", "094956.677000", "094956.680000", "094956.682000", "094956.684000", "095036.640000", "095036.643000", "095036.645000", "095036.647000", "095036.650000", "095036.652000", "095036.654000", "095036.657000", "095036.659000", "095036.661000", "095036.664000", "095036.666000", "095036.668000", "095036.670000", "095036.673000", "095036.675000", "095036.677000", "095036.680000", "095036.682000", "095036.684000", "095057.533000", "095057.536000", "095057.538000", "095057.540000", "095057.543000", "095057.545000", "095057.547000", "095057.550000", "095057.552000", "095057.554000", "095057.557000"],
      "InstanceCreationTime": ["094516.645000", "094516.648000", "094516.651000", "094516.653000", "094516.655000", "094516.658000", "094516.660000", "094516.662000", "094516.664000", "094516.667000", "094516.669000", "094516.671000", "094516.674000", "094516.676000", "094516.687000", "094516.689000", "094516.692000", "094516.694000", "094516.696000", "094516.698000", "094516.701000", "094516.703000", "094516.705000", "094516.708000", "094516.710000", "094516.712000", "094516.715000", "094516.717000", "094516.719000", "094556.640000", "094556.643000", "094556.645000", "094556.647000", "094556.650000", "094556.652000", "094556.654000", "094556.656000", "094556.659000", "094556.661000", "094556.663000", "094556.666000", "094556.668000", "094556.670000", "094556.680000", "094556.682000", "094556.685000", "094556.687000", "094556.689000", "094556.692000", "094636.640000", "094636.643000", "094636.645000", "094636.647000", "094636.650000", "094636.652000", "094636.654000", "094636.657000", "094636.659000", "094636.661000", "094636.663000", "094636.666000", "094636.668000", "094636.670000", "094636.673000", "094636.675000", "094636.677000", "094636.679000", "094636.686000", "094636.688000", "094716.640000", "094716.643000", "094716.645000", "094716.648000", "094716.650000", "094716.652000", "094716.654000", "094716.657000", "094716.659000", "094716.661000", "094716.664000", "094716.666000", "094716.668000", "094716.670000", "094716.673000", "094716.675000", "094716.677000", "094716.680000", "094716.682000", "094716.684000", "094756.640000", "094756.643000", "094756.645000", "094756.647000", "094756.650000", "094756.652000", "094756.654000", "094756.656000", "094756.659000", "094756.661000", "094756.663000", "094756.666000", "094756.668000", "094756.670000", "094756.672000", "094756.675000", "094756.677000", "094756.679000", "094756.682000", "094756.684000", "094836.640000", "094836.642000", "094836.645000", "094836.647000", "094836.650000", "094836.652000", "094836.654000", "094836.656000", "094836.659000", "094836.661000", "094836.663000", "094836.666000", "094836.668000", "094836.670000", "094836.673000", "094836.675000", "094836.677000", "094836.679000", "094836.682000", "094836.684000", "094916.640000", "094916.643000", "094916.645000", "094916.647000", "094916.650000", "094916.652000", "094916.654000", "094916.657000", "094916.659000", "094916.661000", "094916.664000", "094916.666000", "094916.668000", "094916.671000", "094916.673000", "094916.675000", "094916.678000", "094916.680000", "094916.682000", "094916.684000", "094956.640000", "094956.643000", "094956.645000", "094956.647000", "094956.650000", "094956.652000", "094956.654000", "094956.657000", "094956.659000", "094956.661000", "094956.663000", "094956.666000", "094956.668000", "094956.670000", "094956.673000", "094956.675000", "094956.677000", "094956.680000", "094956.682000", "094956.684000", "095036.640000", "095036.643000", "095036.645000", "095036.647000", "095036.650000", "095036.652000", "095036.654000", "095036.657000", "095036.659000", "095036.661000", "095036.664000", "095036.666000", "095036.668000", "095036.670000", "095036.673000", "095036.675000", "095036.677000", "095036.680000", "095036.682000", "095036.684000", "095057.533000", "095057.536000", "095057.538000", "095057.540000", "095057.543000", "095057.545000", "095057.547000", "095057.550000", "095057.552000", "095057.554000", "095057.557000"],
      "InstanceNumber": [1, 2, 3, 4, 5, 6, 7, 8, 9, 10, 11, 12, 13, 14, 15, 16, 17, 18, 19, 20, 21, 22, 23, 24, 25, 26, 27, 28, 29, 30, 31, 32, 33, 34, 35, 36, 37, 38, 39, 40, 41, 42, 43, 44, 45, 46, 47, 48, 49, 50, 51, 52, 53, 54, 55, 56, 57, 58, 59, 60, 61, 62, 63, 64, 65, 66, 67, 68, 69, 70, 71, 72, 73, 74, 75, 76, 77, 78, 79, 80, 81, 82, 83, 84, 85, 86, 87, 88, 89, 90, 91, 92, 93, 94, 95, 96, 97, 98, 99, 100, 101, 102, 103, 104, 105, 106, 107, 108, 109, 110, 111, 112, 113, 114, 115, 116, 117, 118, 119, 120, 121, 122, 123, 124, 125, 126, 127, 128, 129, 130, 131, 132, 133, 134, 135, 136, 137, 138, 139, 140, 141, 142, 143, 144, 145, 146, 147, 148, 149, 150, 151, 152, 153, 154, 155, 156, 157, 158, 159, 160, 161, 162, 163, 164, 165, 166, 167, 168, 169, 170, 171, 172, 173, 174, 175, 176, 177, 178, 179, 180, 181, 182, 183, 184, 185, 186, 187, 188, 189, 190, 191, 192, 193, 194, 195, 196, 197, 198, 199, 200],
      "LargestImagePixelValue": [363, 365, 362, 362, 365, 365, 363, 362, 361, 367, 361, 363, 364, 363, 362, 363, 361, 361, 362, 364, 365, 364, 363, 366, 360, 365, 363, 366, 363, 360, 361, 362, 363, 361, 361, 362, 365, 360, 361, 363, 362, 363, 362, 364, 358, 363, 364, 366, 359, 363, 362, 362, 363, 363, 362, 360, 361, 365, 362, 362, 363, 364, 364, 361, 363, 363, 363, 363, 361, 361, 365, 362, 362, 366, 363, 360, 361, 360, 364, 360, 363, 361, 364, 363, 363, 361, 360, 364, 364, 361, 364, 364, 361, 361, 367, 364, 362, 361, 368, 362, 365, 365, 362, 361, 359, 363, 360, 362, 361, 361, 360, 363, 365, 361, 362, 361, 363, 365, 361, 360, 360, 361, 363, 360, 370, 361, 363, 363, 361, 361, 362, 365, 362, 367, 361, 361, 362, 361, 363, 361, 364, 360, 365, 362, 366, 361, 364, 360, 361, 362, 361, 363, 361, 362, 362, 365, 360, 361, 363, 363, 363, 360, 363, 363, 365, 361, 362, 364, 361, 362, 362, 362, 360, 361, 360, 363, 360, 360, 361, 362, 362, 362, 362, 362, 362, 363, 363, 363, 361, 361, 364, 363, 364, 359, 360, 361, 363, 363, 360, 365],
      "WindowCenter": [304.0, 304.0, 304.0, 304.0, 304.0, 304.0, 304.0, 304.0, 304.0, 304.0, 304.0, 304.0, 304.0, 304.0, 304.0, 304.0, 304.0, 305.0, 304.0, 304.0, 304.0, 304.0, 304.0, 304.0, 304.0, 304.0, 304.0, 304.0, 304.0, 304.0, 304.0, 304.0, 304.0, 304.0, 304.0, 304.0, 305.0, 304.0, 304.0, 304.0, 304.0, 304.0, 304.0, 304.0, 304.0, 304.0, 304.0, 304.0, 304.0, 304.0, 304.0, 304.0, 304.0, 304.0, 304.0, 304.0, 304.0, 304.0, 304.0, 304.0, 304.0, 304.0, 304.0, 304.0, 304.0, 304.0, 304.0, 304.0, 304.0, 303.0, 304.0, 304.0, 304.0, 304.0, 304.0, 304.0, 304.0, 304.0, 304.0, 304.0, 304.0, 303.0, 304.0, 304.0, 304.0, 304.0, 304.0, 303.0, 304.0, 304.0, 305.0, 304.0, 304.0, 304.0, 304.0, 304.0, 304.0, 304.0, 304.0, 304.0, 304.0, 304.0, 304.0, 304.0, 304.0, 304.0, 305.0, 303.0, 304.0, 304.0, 304.0, 304.0, 304.0, 304.0, 304.0, 304.0, 305.0, 304.0, 304.0, 305.0, 304.0, 303.0, 304.0, 304.0, 304.0, 304.0, 304.0, 304.0, 304.0, 304.0, 304.0, 304.0, 304.0, 304.0, 303.0, 304.0, 304.0, 304.0, 304.0, 304.0, 304.0, 304.0, 304.0, 304.0, 304.0, 304.0, 304.0, 304.0, 304.0, 304.0, 305.0, 304.0, 304.0, 304.0, 303.0, 304.0, 304.0, 304.0, 304.0, 304.0, 304.0, 304.0, 304.0, 304.0, 304.0, 304.0, 304.0, 304.0, 304.0, 304.0, 305.0, 304.0, 304.0, 304.0, 304.0, 304.0, 304.0, 303.0, 304.0, 303.0, 304.0, 304.0, 303.0, 303.0, 303.0, 303.0, 304.0, 303.0, 303.0, 303.0, 304.0, 303.0, 304.0, 304.0, 303.0, 304.0, 304.0, 304.0, 304.0, 304.0],
      "WindowWidth": [657.0, 657.0, 658.0, 658.0, 657.0, 657.0, 657.0, 657.0, 657.0, 658.0, 658.0, 657.0, 657.0, 657.0, 657.0, 657.0, 657.0, 658.0, 657.0, 657.0, 657.0, 658.0, 657.0, 657.0, 657.0, 658.0, 657.0, 657.0, 658.0, 657.0, 657.0, 657.0, 658.0, 658.0, 657.0, 657.0, 658.0, 657.0, 658.0, 658.0, 657.0, 657.0, 657.0, 657.0, 657.0, 657.0, 658.0, 657.0, 657.0, 657.0, 657.0, 657.0, 658.0, 658.0, 657.0, 657.0, 657.0, 657.0, 657.0, 657.0, 657.0, 657.0, 658.0, 657.0, 657.0, 657.0, 657.0, 657.0, 657.0, 657.0, 658.0, 658.0, 657.0, 658.0, 657.0, 657.0, 658.0, 657.0, 657.0, 658.0, 657.0, 656.0, 657.0, 657.0, 657.0, 657.0, 658.0, 656.0, 657.0, 658.0, 658.0, 657.0, 658.0, 657.0, 657.0, 657.0, 657.0, 657.0, 658.0, 657.0, 657.0, 658.0, 658.0, 658.0, 657.0, 657.0, 658.0, 657.0, 657.0, 658.0, 657.0, 657.0, 658.0, 657.0, 657.0, 657.0, 658.0, 657.0, 657.0, 658.0, 658.0, 656.0, 658.0, 657.0, 658.0, 658.0, 657.0, 657.0, 657.0, 657.0, 657.0, 657.0, 657.0, 657.0, 656.0, 657.0, 657.0, 658.0, 658.0, 658.0, 658.0, 658.0, 658.0, 657.0, 657.0, 658.0, 657.0, 657.0, 657.0, 657.0, 658.0, 658.0, 657.0, 657.0, 656.0, 657.0, 657.0, 657.0, 657.0, 657.0, 657.0, 657.0, 657.0, 657.0, 657.0, 657.0, 658.0, 657.0, 658.0, 657.0, 658.0, 657.0, 657.0, 658.0, 657.0, 657.0, 657.0, 656.0, 657.0, 656.0, 658.0, 657.0, 656.0, 656.0, 656.0, 656.0, 657.0, 656.0, 656.0, 656.0, 657.0, 656.0, 657.0, 657.0, 656.0, 657.0, 657.0, 657.0, 657.0, 657.0]
    },
    "slices": {}
  }
}