{
  "AcquisitionMatrixPE": 122,
  "AcquisitionNumber": 1,
  "AcquisitionTime": "09:52:42.465000",
  "BandwidthPerPixelPhaseEncode": 27.785,
  "BaseResolution": 122,
  "BodyPartExamined": "BRAIN",
  "CoilCombinationMethod": "Adaptive Combine",
  "ConsistencyInfo": "N4_VE11C_LATEST_20160120",
  "ConversionSoftware": "dcm2niix",
  "ConversionSoftwareVersion": "v1.0.20220720",
  "DerivedVendorReportedEchoSpacing": 0.000590011,
  "DeviceSerialNumber": "66112",
  "DiffusionScheme": "Monopolar",
  "DwellTime": 2e-06,
  "EchoTime": 0.068,
  "EchoTrainLength": 61,
  "EffectiveEchoSpacing": 0.000295005,
  "FlipAngle": 90,
  "HeudiconvVersion": "0.13.1",
  "ImageOrientationPatientDICOM": [0.986637, 0.162538, 0.0113557, -0.15821, 0.939044, 0.30523],
  "ImageOrientationText": "Tra>Cor(17.6)>Sag(-2.2)",
  "ImageType": [
    "ORIGINAL",
    "PRIMARY",
    "DIFFUSION",
    "NONE",
    "ND",
    "NORM"
],
  "ImagingFrequency": 123.253,
  "InPlanePhaseEncodingDirectionDICOM": "COL",
  "InstitutionAddress": "Maynard 3,Hanover,NH,US,03755",
  "InstitutionName": "Dartmouth College - PBS",
  "InstitutionalDepartmentName": "Department",
  "MRAcquisitionType": "2D",
  "MagneticFieldStrength": 3,
  "Manufacturer": "Siemens",
  "ManufacturersModelName": "Prisma",
  "Modality": "MR",
  "MultibandAccelerationFactor": 4,
  "NonlinearGradientCorrection": false,
  "ParallelReductionFactorInPlane": 2,
  "PartialFourier": 1,
  "PatientPosition": "HFS",
  "PercentPhaseFOV": 100,
  "PercentSampling": 100,
  "PhaseEncodingDirection": "j-",
  "PhaseEncodingSteps": 122,
  "PhaseResolution": 1,
  "PixelBandwidth": 2050,
  "ProcedureStepDescription": "dbic^QA",
  "ProtocolName": "dwi_acq-DTI-30-p2-s4",
  "PulseSequenceDetails": "%SiemensSeq%\\ep2d_diff",
  "ReceiveCoilActiveElements": "HEA;HEP",
  "ReceiveCoilName": "Head_32",
  "ReconMatrixPE": 122,
  "RefLinesPE": 38,
  "RepetitionTime": 3.6,
  "SAR": 0.161027,
  "ScanOptions": "FS",
  "ScanningSequence": "EP",
  "SequenceName": "*ep_b0",
  "SequenceVariant": "SK\\SP",
  "SeriesDescription": "dwi_acq-DTI-30-p2-s4",
  "SeriesNumber": 9,
  "ShimSetting": [4146, -7698, -7513, 271, -24, -246, -32, 41],
  "SliceThickness": 2,
  "SliceTiming": [2.58594, 0, 1.78906, 0.19531, 1.98438, 0.39844, 2.1875, 0.59375, 2.38281, 0.99219, 2.78125, 1.1875, 2.97656, 1.39062, 3.17969, 1.58594, 3.375, 0.78906, 2.58594, 0, 1.78906, 0.19531, 1.98438, 0.39844, 2.1875, 0.59375, 2.38281, 0.99219, 2.78125, 1.1875, 2.97656, 1.39062, 3.17969, 1.58594, 3.375, 0.78906, 2.58594, 0, 1.78906, 0.19531, 1.98438, 0.39844, 2.1875, 0.59375, 2.38281, 0.99219, 2.78125, 1.1875, 2.97656, 1.39062, 3.17969, 1.58594, 3.375, 0.78906, 2.58594, 0, 1.78906, 0.19531, 1.98438, 0.39844, 2.1875, 0.59375, 2.38281, 0.99219, 2.78125, 1.1875, 2.97656, 1.39062, 3.17969, 1.58594, 3.375, 0.78906],
  "SoftwareVersions": "syngo MR E11",
  "SpacingBetweenSlices": 2,
  "SpoilingState": true,
  "StationName": "AWP66112",
  "TotalReadoutTime": 0.0356956,
  "TxRefAmp": 231.065,
  "dcmmeta_affine": [
    [-1.9409252405166626, -0.3112332224845886, -0.0778958797454834, 144.6307373046875],
    [-0.31974607706069946, 1.8472999334335327, 0.6058979034423828, -107.28612518310547],
    [0.02233903296291828, -0.6004533767700195, 1.9044265747070312, -24.662696838378906],
    [0.0, 0.0, 0.0, 1.0]
],
  "dcmmeta_reorient_transform": [
    [0.0, -1.0, 0.0, 121.0],
    [1.0, 0.0, 0.0, 0.0],
    [0.0, 0.0, -1.0, 71.0],
    [0.0, 0.0, 0.0, 1.0]
],
  "dcmmeta_shape": [122, 122, 72, 31],
  "dcmmeta_slice_dim": 2,
  "dcmmeta_version": 0.6,
  "global": {
    "const": {
      "AccessionNumber": "qa",
      "AcquisitionMatrix": [122, 0, 0, 122],
      "AngioFlag": "N",
      "BitsAllocated": 16,
      "BitsStored": 12,
      "BodyPartExamined": "BRAIN",
      "Columns": 122,
      "EchoNumbers": 1,
      "EchoTime": 68.0,
      "EchoTrainLength": 61,
      "FlipAngle": 90.0,
      "HighBit": 11,
      "ImageOrientationPatient": [0.98663700721045, 0.16253757920002, 0.0113556748193, -0.1582102211268, 0.93904414033555, 0.30523045135193],
      "ImageType": [
        "ORIGINAL",
        "PRIMARY",
        "DIFFUSION",
        "NONE",
        "ND",
        "NORM"
],
      "ImagedNucleus": "1H",
      "ImagingFrequency": 123.25288,
      "InPlanePhaseEncodingDirection": "COL",
      "MRAcquisitionType": "2D",
      "MagneticFieldStrength": 3.0,
      "Manufacturer": "SIEMENS",
      "ManufacturerModelName": "Prisma",
      "Modality": "MR",
      "NumberOfAverages": 1.0,
      "NumberOfPhaseEncodingSteps": 122,
      "PercentPhaseFieldOfView": 100.0,
      "PercentSampling": 100.0,
      "PerformedProcedureStepStartTime": "092420.621000",
      "PhotometricInterpretation": "MONOCHROME2",
      "PixelBandwidth": 2050.0,
      "PixelRepresentation": 0,
      "PixelSpacing": [1.9672131538391, 1.9672131538391],
      "ProtocolName": "dwi_acq-DTI-30-p2-s4",
      "RepetitionTime": 3600.0,
      "Rows": 122,
      "SAR": 0.1610274474256,
      "SamplesPerPixel": 1,
      "ScanOptions": "FS",
      "ScanningSequence": "EP",
      "SequenceVariant": [
        "SK",
        "SP"
],
      "SeriesDescription": "dwi_acq-DTI-30-p2-s4",
      "SeriesNumber": 9,
      "SeriesTime": "095251.454000",
      "SliceThickness": 2.0,
      "SmallestImagePixelValue": 0,
      "SoftwareVersions": "syngo MR E11",
      "SpacingBetweenSlices": 2.0,
      "SpecificCharacterSet": "ISO_IR 100",
      "StudyID": "79",
      "StudyTime": "092420.560000",
      "TransmitCoilName": "Body",
      "VariableFlipAngleFlag": "N",
      "WindowCenterWidthExplanation": "Algo1",
      "dBdt": 0.0},
    "slices": {
      "AcquisitionTime": ["095242.465000", "095239.880000", "095241.670000", "095240.077500", "095241.867500", "095240.277500", "095242.067500", "095240.475000", "095242.265000", "095240.872500", "095242.662500", "095241.072500", "095242.862500", "095241.270000", "095243.060000", "095241.470000", "095243.260000", "095240.675000", "095242.465000", "095239.880000", "095241.670000", "095240.077500", "095241.867500", "095240.277500", "095242.067500", "095240.475000", "095242.265000", "095240.872500", "095242.662500", "095241.072500", "095242.862500", "095241.270000", "095243.060000", "095241.470000", "095243.260000", "095240.675000", "095242.465000", "095239.880000", "095241.670000", "095240.077500", "095241.867500", "095240.277500", "095242.067500", "095240.475000", "095242.265000", "095240.872500", "095242.662500", "095241.072500", "095242.862500", "095241.270000", "095243.060000", "095241.470000", "095243.260000", "095240.675000", "095242.465000", "095239.880000", "095241.670000", "095240.077500", "095241.867500", "095240.277500", "095242.067500", "095240.475000", "095242.265000", "095240.872500", "095242.662500", "095241.072500", "095242.862500", "095241.270000", "095243.060000", "095241.470000", "095243.260000", "095240.675000", "095246.065000", "095243.480000", "095245.270000", "095243.677500", "095245.467500", "095243.877500", "095245.667500", "095244.075000", "095245.865000", "095244.472500", "095246.262500", "095244.672500", "095246.462500", "095244.870000", "095246.660000", "095245.070000", "095246.860000", "095244.275000", "095246.065000", "095243.480000", "095245.270000", "095243.677500", "095245.467500", "095243.877500", "095245.667500", "095244.075000", "095245.865000", "095244.472500", "095246.262500", "095244.672500", "095246.462500", "095244.870000", "095246.660000", "095245.070000", "095246.860000", "095244.275000", "095246.065000", "095243.480000", "095245.270000", "095243.677500", "095245.467500", "095243.877500", "095245.667500", "095244.075000", "095245.865000", "095244.472500", "095246.262500", "095244.672500", "095246.462500", "095244.870000", "095246.660000", "095245.070000", "095246.860000", "095244.275000", "095246.065000", "095243.480000", "095245.270000", "095243.677500", "095245.467500", "095243.877500", "095245.667500", "095244.075000", "095245.865000", "095244.472500", "095246.262500", "095244.672500", "095246.462500", "095244.870000", "095246.660000", "095245.070000", "095246.860000", "095244.275000", "095249.665000", "095247.080000", "095248.870000", "095247.277500", "095249.067500", "095247.477500", "095249.267500", "095247.675000", "095249.465000", "095248.072500", "095249.862500", "095248.272500", "095250.062500", "095248.470000", "095250.260000", "095248.670000", "095250.460000", "095247.875000", "095249.665000", "095247.080000", "095248.870000", "095247.277500", "095249.067500", "095247.477500", "095249.267500", "095247.675000", "095249.465000", "095248.072500", "095249.862500", "095248.272500", "095250.062500", "095248.470000", "095250.260000", "095248.670000", "095250.460000", "095247.875000", "095249.665000", "095247.080000", "095248.870000", "095247.277500", "095249.067500", "095247.477500", "095249.267500", "095247.675000", "095249.465000", "095248.072500", "095249.862500", "095248.272500", "095250.062500", "095248.470000", "095250.260000", "095248.670000", "095250.460000", "095247.875000", "095249.665000", "095247.080000", "095248.870000", "095247.277500", "095249.067500", "095247.477500", "095249.267500", "095247.675000", "095249.465000", "095248.072500", "095249.862500", "095248.272500", "095250.062500", "095248.470000", "095250.260000", "095248.670000", "095250.460000", "095247.875000", "095253.265000", "095250.680000", "095252.470000", "095250.877500", "095252.667500", "095251.077500", "095252.867500", "095251.275000", "095253.065000", "095251.672500", "095253.462500", "095251.872500", "095253.662500", "095252.070000", "095253.860000", "095252.270000", "095254.060000", "095251.475000", "095253.265000", "095250.680000", "095252.470000", "095250.877500", "095252.667500", "095251.077500", "095252.867500", "095251.275000", "095253.065000", "095251.672500", "095253.462500", "095251.872500", "095253.662500", "095252.070000", "095253.860000", "095252.270000", "095254.060000", "095251.475000", "095253.265000", "095250.680000", "095252.470000", "095250.877500", "095252.667500", "095251.077500", "095252.867500", "095251.275000", "095253.065000", "095251.672500", "095253.462500", "095251.872500", "095253.662500", "095252.070000", "095253.860000", "095252.270000", "095254.060000", "095251.475000", "095253.265000", "095250.680000", "095252.470000", "095250.877500", "095252.667500", "095251.077500", "095252.867500", "095251.275000", "095253.065000", "095251.672500", "095253.462500", "095251.872500", "095253.662500", "095252.070000", "095253.860000", "095252.270000", "095254.060000", "095251.475000", "095256.865000", "095254.280000", "095256.070000", "095254.477500", "095256.267500", "095254.677500", "095256.467500", "095254.875000", "095256.665000", "095255.272500", "095257.062500", "095255.472500", "095257.262500", "095255.670000", "095257.460000", "095255.870000", "095257.660000", "095255.075000", "095256.865000", "095254.280000", "095256.070000", "095254.477500", "095256.267500", "095254.677500", "095256.467500", "095254.875000", "095256.665000", "095255.272500", "095257.062500", "095255.472500", "095257.262500", "095255.670000", "095257.460000", "095255.870000", "095257.660000", "095255.075000", "095256.865000", "095254.280000", "095256.070000", "095254.477500", "095256.267500", "095254.677500", "095256.467500", "095254.875000", "095256.665000", "095255.272500", "095257.062500", "095255.472500", "095257.262500", "095255.670000", "095257.460000", "095255.870000", "095257.660000", "095255.075000", "095256.865000", "095254.280000", "095256.070000", "095254.477500", "095256.267500", "095254.677500", "095256.467500", "095254.875000", "095256.665000", "095255.272500", "095257.062500", "095255.472500", "095257.262500", "095255.670000", "095257.460000", "095255.870000", "095257.660000", "095255.075000", "095300.465000", "095257.880000", "095259.670000", "095258.077500", "095259.867500", "095258.277500", "095300.067500", "095258.475000", "095300.265000", "095258.872500", "095300.662500", "095259.072500", "095300.862500", "095259.270000", "095301.060000", "095259.470000", "095301.260000", "095258.675000", "095300.465000", "095257.880000", "095259.670000", "095258.077500", "095259.867500", "095258.277500", "095300.067500", "095258.475000", "095300.265000", "095258.872500", "095300.662500", "095259.072500", "095300.862500", "095259.270000", "095301.060000", "095259.470000", "095301.260000", "095258.675000", "095300.465000", "095257.880000", "095259.670000", "095258.077500", "095259.867500", "095258.277500", "095300.067500", "095258.475000", "095300.265000", "095258.872500", "095300.662500", "095259.072500", "095300.862500", "095259.270000", "095301.060000", "095259.470000", "095301.260000", "095258.675000", "095300.465000", "095257.880000", "095259.670000", "095258.077500", "095259.867500", "095258.277500", "095300.067500", "095258.475000", "095300.265000", "095258.872500", "095300.662500", "095259.072500", "095300.862500", "095259.270000", "095301.060000", "095259.470000", "095301.260000", "095258.675000", "095304.065000", "095301.480000", "095303.270000", "095301.677500", "095303.467500", "095301.877500", "095303.667500", "095302.075000", "095303.865000", "095302.472500", "095304.262500", "095302.672500", "095304.462500", "095302.870000", "095304.660000", "095303.070000", "095304.860000", "095302.275000", "095304.065000", "095301.480000", "095303.270000", "095301.677500", "095303.467500", "095301.877500", "095303.667500", "095302.075000", "095303.865000", "095302.472500", "095304.262500", "095302.672500", "095304.462500", "095302.870000", "095304.660000", "095303.070000", "095304.860000", "095302.275000", "095304.065000", "095301.480000", "095303.270000", "095301.677500", "095303.467500", "095301.877500", "095303.667500", "095302.075000", "095303.865000", "095302.472500", "095304.262500", "095302.672500", "095304.462500", "095302.870000", "095304.660000", "095303.070000", "095304.860000", "095302.275000", "095304.065000", "095301.480000", "095303.270000", "095301.677500", "095303.467500", "095301.877500", "095303.667500", "095302.075000", "095303.865000", "095302.472500", "095304.262500", "095302.672500", "095304.462500", "095302.870000", "095304.660000", "095303.070000", "095304.860000", "095302.275000", "095307.665000", "095305.080000", "095306.870000", "095305.277500", "095307.067500", "095305.477500", "095307.267500", "095305.675000", "095307.465000", "095306.072500", "095307.862500", "095306.272500", "095308.062500", "095306.470000", "095308.260000", "095306.670000", "095308.460000", "095305.875000", "095307.665000", "095305.080000", "095306.870000", "095305.277500", "095307.067500", "095305.477500", "095307.267500", "095305.675000", "095307.465000", "095306.072500", "095307.862500", "095306.272500", "095308.062500", "095306.470000", "095308.260000", "095306.670000", "095308.460000", "095305.875000", "095307.665000", "095305.080000", "095306.870000", "095305.277500", "095307.067500", "095305.477500", "095307.267500", "095305.675000", "095307.465000", "095306.072500", "095307.862500", "095306.272500", "095308.062500", "095306.470000", "095308.260000", "095306.670000", "095308.460000", "095305.875000", "095307.665000", "095305.080000", "095306.870000", "095305.277500", "095307.067500", "095305.477500", "095307.267500", "095305.675000", "095307.465000", "095306.072500", "095307.862500", "095306.272500", "095308.062500", "095306.470000", "095308.260000", "095306.670000", "095308.460000", "095305.875000", "095311.265000", "095308.680000", "095310.470000", "095308.877500", "095310.667500", "095309.077500", "095310.867500", "095309.275000", "095311.065000", "095309.672500", "095311.462500", "095309.872500", "095311.662500", "095310.070000", "095311.860000", "095310.270000", "095312.060000", "095309.475000", "095311.265000", "095308.680000", "095310.470000", "095308.877500", "095310.667500", "095309.077500", "095310.867500", "095309.275000", "095311.065000", "095309.672500", "095311.462500", "095309.872500", "095311.662500", "095310.070000", "095311.860000", "095310.270000", "095312.060000", "095309.475000", "095311.265000", "095308.680000", "095310.470000", "095308.877500", "095310.667500", "095309.077500", "095310.867500", "095309.275000", "095311.065000", "095309.672500", "095311.462500", "095309.872500", "095311.662500", "095310.070000", "095311.860000", "095310.270000", "095312.060000", "095309.475000", "095311.265000", "095308.680000", "095310.470000", "095308.877500", "095310.667500", "095309.077500", "095310.867500", "095309.275000", "095311.065000", "095309.672500", "095311.462500", "095309.872500", "095311.662500", "095310.070000", "095311.860000", "095310.270000", "095312.060000", "095309.475000", "095314.865000", "095312.280000", "095314.070000", "095312.477500", "095314.267500", "095312.677500", "095314.467500", "095312.875000", "095314.665000", "095313.272500", "095315.062500", "095313.472500", "095315.262500", "095313.670000", "095315.460000", "095313.870000", "095315.660000", "095313.075000", "095314.865000", "095312.280000", "095314.070000", "095312.477500", "095314.267500", "095312.677500", "095314.467500", "095312.875000", "095314.665000", "095313.272500", "095315.062500", "095313.472500", "095315.262500", "095313.670000", "095315.460000", "095313.870000", "095315.660000", "095313.075000", "095314.865000", "095312.280000", "095314.070000", "095312.477500", "095314.267500", "095312.677500", "095314.467500", "095312.875000", "095314.665000", "095313.272500", "095315.062500", "095313.472500", "095315.262500", "095313.670000", "095315.460000", "095313.870000", "095315.660000", "095313.075000", "095314.865000", "095312.280000", "095314.070000", "095312.477500", "095314.267500", "095312.677500", "095314.467500", "095312.875000", "095314.665000", "095313.272500", "095315.062500", "095313.472500", "095315.262500", "095313.670000", "095315.460000", "095313.870000", "095315.660000", "095313.075000", "095318.465000", "095315.880000", "095317.670000", "095316.077500", "095317.867500", "095316.277500", "095318.067500", "095316.475000", "095318.265000", "095316.872500", "095318.662500", "095317.072500", "095318.862500", "095317.270000", "095319.060000", "095317.470000", "095319.260000", "095316.675000", "095318.465000", "095315.880000", "095317.670000", "095316.077500", "095317.867500", "095316.277500", "095318.067500", "095316.475000", "095318.265000", "095316.872500", "095318.662500", "095317.072500", "095318.862500", "095317.270000", "095319.060000", "095317.470000", "095319.260000", "095316.675000", "095318.465000", "095315.880000", "095317.670000", "095316.077500", "095317.867500", "095316.277500", "095318.067500", "095316.475000", "095318.265000", "095316.872500", "095318.662500", "095317.072500", "095318.862500", "095317.270000", "095319.060000", "095317.470000", "095319.260000", "095316.675000", "095318.465000", "095315.880000", "095317.670000", "095316.077500", "095317.867500", "095316.277500", "095318.067500", "095316.475000", "095318.265000", "095316.872500", "095318.662500", "095317.072500", "095318.862500", "095317.270000", "095319.060000", "095317.470000", "095319.260000", "095316.675000", "095322.065000", "095319.480000", "095321.270000", "095319.677500", "095321.467500", "095319.877500", "095321.667500", "095320.075000", "095321.865000", "095320.472500", "095322.262500", "095320.672500", "095322.462500", "095320.870000", "095322.660000", "095321.070000", "095322.860000", "095320.275000", "095322.065000", "095319.480000", "095321.270000", "095319.677500", "095321.467500", "095319.877500", "095321.667500", "095320.075000", "095321.865000", "095320.472500", "095322.262500", "095320.672500", "095322.462500", "095320.870000", "095322.660000", "095321.070000", "095322.860000", "095320.275000", "095322.065000", "095319.480000", "095321.270000", "095319.677500", "095321.467500", "095319.877500", "095321.667500", "095320.075000", "095321.865000", "095320.472500", "095322.262500", "095320.672500", "095322.462500", "095320.870000", "095322.660000", "095321.070000", "095322.860000", "095320.275000", "095322.065000", "095319.480000", "095321.270000", "095319.677500", "095321.467500", "095319.877500", "095321.667500", "095320.075000", "095321.865000", "095320.472500", "095322.262500", "095320.672500", "095322.462500", "095320.870000", "095322.660000", "095321.070000", "095322.860000", "095320.275000", "095325.665000", "095323.080000", "095324.870000", "095323.277500", "095325.067500", "095323.477500", "095325.267500", "095323.675000", "095325.465000", "095324.072500", "095325.862500", "095324.272500", "095326.062500", "095324.470000", "095326.260000", "095324.670000", "095326.460000", "095323.875000", "095325.665000", "095323.080000", "095324.870000", "095323.277500", "095325.067500", "095323.477500", "095325.267500", "095323.675000", "095325.465000", "095324.072500", "095325.862500", "095324.272500", "095326.062500", "095324.470000", "095326.260000", "095324.670000", "095326.460000", "095323.875000", "095325.665000", "095323.080000", "095324.870000", "095323.277500", "095325.067500", "095323.477500", "095325.267500", "095323.675000", "095325.465000", "095324.072500", "095325.862500", "095324.272500", "095326.062500", "095324.470000", "095326.260000", "095324.670000", "095326.460000", "095323.875000", "095325.665000", "095323.080000", "095324.870000", "095323.277500", "095325.067500", "095323.477500", "095325.267500", "095323.675000", "095325.465000", "095324.072500", "095325.862500", "095324.272500", "095326.062500", "095324.470000", "095326.260000", "095324.670000", "095326.460000", "095323.875000", "095329.265000", "095326.680000", "095328.470000", "095326.877500", "095328.667500", "095327.077500", "095328.867500", "095327.275000", "095329.065000", "095327.672500", "095329.462500", "095327.872500", "095329.662500", "095328.070000", "095329.860000", "095328.270000", "095330.060000", "095327.475000", "095329.265000", "095326.680000", "095328.470000", "095326.877500", "095328.667500", "095327.077500", "095328.867500", "095327.275000", "095329.065000", "095327.672500", "095329.462500", "095327.872500", "095329.662500", "095328.070000", "095329.860000", "095328.270000", "095330.060000", "095327.475000", "095329.265000", "095326.680000", "095328.470000", "095326.877500", "095328.667500", "095327.077500", "095328.867500", "095327.275000", "095329.065000", "095327.672500", "095329.462500", "095327.872500", "095329.662500", "095328.070000", "095329.860000", "095328.270000", "095330.060000", "095327.475000", "095329.265000", "095326.680000", "095328.470000", "095326.877500", "095328.667500", "095327.077500", "095328.867500", "095327.275000", "095329.065000", "095327.672500", "095329.462500", "095327.872500", "095329.662500", "095328.070000", "095329.860000", "095328.270000", "095330.060000", "095327.475000", "095332.865000", "095330.280000", "095332.070000", "095330.477500", "095332.267500", "095330.677500", "095332.467500", "095330.875000", "095332.665000", "095331.272500", "095333.062500", "095331.472500", "095333.262500", "095331.670000", "095333.460000", "095331.870000", "095333.660000", "095331.075000", "095332.865000", "095330.280000", "095332.070000", "095330.477500", "095332.267500", "095330.677500", "095332.467500", "095330.875000", "095332.665000", "095331.272500", "095333.062500", "095331.472500", "095333.262500", "095331.670000", "095333.460000", "095331.870000", "095333.660000", "095331.075000", "095332.865000", "095330.280000", "095332.070000", "095330.477500", "095332.267500", "095330.677500", "095332.467500", "095330.875000", "095332.665000", "095331.272500", "095333.062500", "095331.472500", "095333.262500", "095331.670000", "095333.460000", "095331.870000", "095333.660000", "095331.075000", "095332.865000", "095330.280000", "095332.070000", "095330.477500", "095332.267500", "095330.677500", "095332.467500", "095330.875000", "095332.665000", "095331.272500", "095333.062500", "095331.472500", "095333.262500", "095331.670000", "095333.460000", "095331.870000", "095333.660000", "095331.075000", "095336.465000", "095333.880000", "095335.670000", "095334.077500", "095335.867500", "095334.277500", "095336.067500", "095334.475000", "095336.265000", "095334.872500", "095336.662500", "095335.072500", "095336.862500", "095335.270000", "095337.060000", "095335.470000", "095337.260000", "095334.675000", "095336.465000", "095333.880000", "095335.670000", "095334.077500", "095335.867500", "095334.277500", "095336.067500", "095334.475000", "095336.265000", "095334.872500", "095336.662500", "095335.072500", "095336.862500", "095335.270000", "095337.060000", "095335.470000", "095337.260000", "095334.675000", "095336.465000", "095333.880000", "095335.670000", "095334.077500", "095335.867500", "095334.277500", "095336.067500", "095334.475000", "095336.265000", "095334.872500", "095336.662500", "095335.072500", "095336.862500", "095335.270000", "095337.060000", "095335.470000", "095337.260000", "095334.675000", "095336.465000", "095333.880000", "095335.670000", "095334.077500", "095335.867500", "095334.277500", "095336.067500", "095334.475000", "095336.265000", "095334.872500", "095336.662500", "095335.072500", "095336.862500", "095335.270000", "095337.060000", "095335.470000", "095337.260000", "095334.675000", "095340.065000", "095337.480000", "095339.270000", "095337.677500", "095339.467500", "095337.877500", "095339.667500", "095338.075000", "095339.865000", "095338.472500", "095340.262500", "095338.672500", "095340.462500", "095338.870000", "095340.660000", "095339.070000", "095340.860000", "095338.275000", "095340.065000", "095337.480000", "095339.270000", "095337.677500", "095339.467500", "095337.877500", "095339.667500", "095338.075000", "095339.865000", "095338.472500", "095340.262500", "095338.672500", "095340.462500", "095338.870000", "095340.660000", "095339.070000", "095340.860000", "095338.275000", "095340.065000", "095337.480000", "095339.270000", "095337.677500", "095339.467500", "095337.877500", "095339.667500", "095338.075000", "095339.865000", "095338.472500", "095340.262500", "095338.672500", "095340.462500", "095338.870000", "095340.660000", "095339.070000", "095340.860000", "095338.275000", "095340.065000", "095337.480000", "095339.270000", "095337.677500", "095339.467500", "095337.877500", "095339.667500", "095338.075000", "095339.865000", "095338.472500", "095340.262500", "095338.672500", "095340.462500", "095338.870000", "095340.660000", "095339.070000", "095340.860000", "095338.275000", "095343.665000", "095341.080000", "095342.870000", "095341.277500", "095343.067500", "095341.477500", "095343.267500", "095341.675000", "095343.465000", "095342.072500", "095343.862500", "095342.272500", "095344.062500", "095342.470000", "095344.260000", "095342.670000", "095344.460000", "095341.875000", "095343.665000", "095341.080000", "095342.870000", "095341.277500", "095343.067500", "095341.477500", "095343.267500", "095341.675000", "095343.465000", "095342.072500", "095343.862500", "095342.272500", "095344.062500", "095342.470000", "095344.260000", "095342.670000", "095344.460000", "095341.875000", "095343.665000", "095341.080000", "095342.870000", "095341.277500", "095343.067500", "095341.477500", "095343.267500", "095341.675000", "095343.465000", "095342.072500", "095343.862500", "095342.272500", "095344.062500", "095342.470000", "095344.260000", "095342.670000", "095344.460000", "095341.875000", "095343.665000", "095341.080000", "095342.870000", "095341.277500", "095343.067500", "095341.477500", "095343.267500", "095341.675000", "095343.465000", "095342.072500", "095343.862500", "095342.272500", "095344.062500", "095342.470000", "095344.260000", "095342.670000", "095344.460000", "095341.875000", "095347.265000", "095344.680000", "095346.470000", "095344.877500", "095346.667500", "095345.077500", "095346.867500", "095345.275000", "095347.065000", "095345.672500", "095347.462500", "095345.872500", "095347.662500", "095346.070000", "095347.860000", "095346.270000", "095348.060000", "095345.475000", "095347.265000", "095344.680000", "095346.470000", "095344.877500", "095346.667500", "095345.077500", "095346.867500", "095345.275000", "095347.065000", "095345.672500", "095347.462500", "095345.872500", "095347.662500", "095346.070000", "095347.860000", "095346.270000", "095348.060000", "095345.475000", "095347.265000", "095344.680000", "095346.470000", "095344.877500", "095346.667500", "095345.077500", "095346.867500", "095345.275000", "095347.065000", "095345.672500", "095347.462500", "095345.872500", "095347.662500", "095346.070000", "095347.860000", "095346.270000", "095348.060000", "095345.475000", "095347.265000", "095344.680000", "095346.470000", "095344.877500", "095346.667500", "095345.077500", "095346.867500", "095345.275000", "095347.065000", "095345.672500", "095347.462500", "095345.872500", "095347.662500", "095346.070000", "095347.860000", "095346.270000", "095348.060000", "095345.475000", "095350.865000", "095348.280000", "095350.070000", "095348.477500", "095350.267500", "095348.677500", "095350.467500", "095348.875000", "095350.665000", "095349.272500", "095351.062500", "095349.472500", "095351.262500", "095349.670000", "095351.460000", "095349.870000", "095351.660000", "095349.075000", "095350.865000", "095348.280000", "095350.070000", "095348.477500", "095350.267500", "095348.677500", "095350.467500", "095348.875000", "095350.665000", "095349.272500", "095351.062500", "095349.472500", "095351.262500", "095349.670000", "095351.460000", "095349.870000", "095351.660000", "095349.075000", "095350.865000", "095348.280000", "095350.070000", "095348.477500", "095350.267500", "095348.677500", "095350.467500", "095348.875000", "095350.665000", "095349.272500", "095351.062500", "095349.472500", "095351.262500", "095349.670000", "095351.460000", "095349.870000", "095351.660000", "095349.075000", "095350.865000", "095348.280000", "095350.070000", "095348.477500", "095350.267500", "095348.677500", "095350.467500", "095348.875000", "095350.665000", "095349.272500", "095351.062500", "095349.472500", "0