{
  "AcquisitionMatrixPE": 122,
  "AcquisitionNumber": 1,
  "AcquisitionTime": "09:36:3.072500",
  "BandwidthPerPixelPhaseEncode": 28.76,
  "BaseResolution": 122,
  "BodyPartExamined": "BRAIN",
  "CoilCombinationMethod": "Adaptive Combine",
  "ConsistencyInfo": "N4_VE11C_LATEST_20160120",
  "ConversionSoftware": "dcm2niix",
  "ConversionSoftwareVersion": "v1.0.20220720",
  "DerivedVendorReportedEchoSpacing": 0.000570008,
  "DeviceSerialNumber": "66112",
  "DiffusionScheme": "Monopolar",
  "DwellTime": 2e-06,
  "EchoTime": 0.075,
  "EchoTrainLength": 61,
  "EffectiveEchoSpacing": 0.000285004,
  "FlipAngle": 90,
  "HeudiconvVersion": "0.13.1",
  "ImageOrientationPatientDICOM": [0.985016, 0.172131, 0.0106664, -0.16731, 0.938767, 0.301205],
  "ImageOrientationText": "Tra>Cor(17.4)>Sag(-2.4)",
  "ImageType": [
    "ORIGINAL",
    "PRIMARY",
    "DIFFUSION",
    "NONE",
    "ND",
    "NORM"
],
  "ImagingFrequency": 123.253,
  "InPlanePhaseEncodingDirectionDICOM": "COL",
  "InstitutionAddress": "Maynard 3,Hanover,NH,US,03755",
  "InstitutionName": "Dartmouth College - PBS",
  "InstitutionalDepartmentName": "Department",
  "MRAcquisitionType": "2D",
  "MagneticFieldStrength": 3,
  "Manufacturer": "Siemens",
  "ManufacturersModelName": "Prisma",
  "MatrixCoilMode": "GRAPPA",
  "Modality": "MR",
  "NonlinearGradientCorrection": false,
  "ParallelReductionFactorInPlane": 2,
  "PartialFourier": 1,
  "PatientPosition": "HFS",
  "PercentPhaseFOV": 100,
  "PercentSampling": 100,
  "PhaseEncodingDirection": "j-",
  "PhaseEncodingSteps": 122,
  "PhaseResolution": 1,
  "PixelBandwidth": 2050,
  "ProcedureStepDescription": "dbic^QA",
  "ProtocolName": "dwi_acq-DTI-30-p2",
  "PulseSequenceDetails": "%SiemensSeq%\\ep2d_diff",
  "ReceiveCoilActiveElements": "HEA;HEP",
  "ReceiveCoilName": "Head_32",
  "ReconMatrixPE": 122,
  "RefLinesPE": 38,
  "RepetitionTime": 7.7,
  "SAR": 0.0871781,
  "ScanOptions": "FS",
  "ScanningSequence": "EP",
  "SequenceName": "*ep_b0",
  "SequenceVariant": "SK\\SP",
  "SeriesDescription": "dwi_acq-DTI-30-p2",
  "SeriesNumber": 12,
  "ShimSetting": [4147, -7674, -7527, 330, -11, -278, -88, 80],
  "SliceThickness": 2,
  "SliceTiming": [3.83594, 0, 3.94531, 0.10938, 4.05469, 0.21875, 4.17188, 0.32812, 4.27344, 0.4375, 4.38281, 0.54688, 4.49219, 0.65625, 4.60938, 0.76562, 4.71875, 0.875, 4.82812, 0.98438, 4.9375, 1.09375, 5.04688, 1.20312, 5.15625, 1.3125, 5.26562, 1.42188, 5.375, 1.53125, 5.48438, 1.64062, 5.59375, 1.75, 5.70312, 1.85938, 5.8125, 1.97656, 5.92188, 2.08594, 6.03125, 2.19531, 6.14062, 2.30469, 6.25, 2.41406, 6.35938, 2.52344, 6.46875, 2.63281, 6.57812, 2.74219, 6.6875, 2.85156, 6.79688, 2.96094, 6.91406, 3.07031, 7.02344, 3.17969, 7.125, 3.28906, 7.23438, 3.39844, 7.35156, 3.50781, 7.46094, 3.61719, 7.57031, 3.72656],
  "SoftwareVersions": "syngo MR E11",
  "SpacingBetweenSlices": 2,
  "SpoilingState": true,
  "StationName": "AWP66112",
  "TotalReadoutTime": 0.0344855,
  "TxRefAmp": 232.349,
  "dcmmeta_affine": [
    [-1.9377371072769165, -0.32913538813591003, -0.08366703987121582, 145.5489501953125],
    [-0.33861830830574036, 1.8467539548873901, 0.5969533920288086, -115.99440002441406],
    [0.020982997491955757, -0.5925347208976746, 1.9069976806640625, -57.19282913208008],
    [0.0, 0.0, 0.0, 1.0]
],
  "dcmmeta_reorient_transform": [
    [0.0, -1.0, 0.0, 121.0],
    [1.0, 0.0, 0.0, 0.0],
    [0.0, 0.0, -1.0, 69.0],
    [0.0, 0.0, 0.0, 1.0]
],
  "dcmmeta_shape": [122, 122, 70, 31],
  "dcmmeta_slice_dim": 2,
  "dcmmeta_version": 0.6,
  "global": {
    "const": {
      "AccessionNumber": "qa",
      "AcquisitionMatrix": [122, 0, 0, 122],
      "AngioFlag": "N",
      "BitsAllocated": 16,
      "BitsStored": 12,
      "BodyPartExamined": "BRAIN",
      "Columns": 122,
      "EchoNumbers": 1,
      "EchoTime": 75.0,
      "EchoTrainLength": 61,
      "FlipAngle": 90.0,
      "HighBit": 11,
      "ImageOrientationPatient": [0.985016324391, 0.17213096618296, 0.01066635664955, -0.1673104836564, 0.93876656718793, 0.3012051367239],
      "ImageType": [
        "ORIGINAL",
        "PRIMARY",
        "DIFFUSION",
        "NONE",
        "ND",
        "NORM"
],
      "ImagedNucleus": "1H",
      "ImagingFrequency": 123.252519,
      "InPlanePhaseEncodingDirection": "COL",
      "MRAcquisitionType": "2D",
      "MagneticFieldStrength": 3.0,
      "Manufacturer": "SIEMENS",
      "ManufacturerModelName": "Prisma",
      "Modality": "MR",
      "NumberOfAverages": 1.0,
      "NumberOfPhaseEncodingSteps": 122,
      "PercentPhaseFieldOfView": 100.0,
      "PercentSampling": 100.0,
      "PerformedProcedureStepStartTime": "091514.725000",
      "PhotometricInterpretation": "MONOCHROME2",
      "PixelBandwidth": 2050.0,
      "PixelRepresentation": 0,
      "PixelSpacing": [1.9672131538391, 1.9672131538391],
      "ProtocolName": "dwi_acq-DTI-30-p2",
      "RepetitionTime": 7700.0,
      "Rows": 122,
      "SAR": 0.08717810997814,
      "SamplesPerPixel": 1,
      "ScanOptions": "FS",
      "ScanningSequence": "EP",
      "SequenceVariant": [
        "SK",
        "SP"
],
      "SeriesDescription": "dwi_acq-DTI-30-p2",
      "SeriesNumber": 12,
      "SeriesTime": "093609.182000",
      "SliceThickness": 2.0,
      "SmallestImagePixelValue": 0,
      "SoftwareVersions": "syngo MR E11",
      "SpacingBetweenSlices": 2.0,
      "SpecificCharacterSet": "ISO_IR 100",
      "StudyID": "57",
      "StudyTime": "091514.648000",
      "TransmitCoilName": "Body",
      "VariableFlipAngleFlag": "N",
      "WindowCenterWidthExplanation": "Algo1",
      "dBdt": 0.0},
    "slices": {
      "AcquisitionTime": ["093603.072500", "093559.232500", "093603.182500", "093559.342500", "093603.292500", "093559.452500", "093603.402500", "093559.562500", "093603.510000", "093559.672500", "093603.620000", "093559.780000", "093603.730000", "093559.890000", "093603.840000", "093600.000000", "093603.950000", "093600.110000", "093604.060000", "093600.220000", "093604.170000", "093600.330000", "093604.280000", "093600.440000", "093604.390000", "093600.550000", "093604.497500", "093600.660000", "093604.607500", "093600.767500", "093604.717500", "093600.877500", "093604.827500", "093600.987500", "093604.937500", "093601.097500", "093605.047500", "093601.207500", "093605.157500", "093601.317500", "093605.267500", "093601.427500", "093605.377500", "093601.537500", "093605.485000", "093601.645000", "093605.595000", "093601.755000", "093605.705000", "093601.865000", "093605.815000", "093601.975000", "093605.925000", "093602.085000", "093606.035000", "093602.195000", "093606.145000", "093602.305000", "093606.255000", "093602.415000", "093606.362500", "093602.525000", "093606.472500", "093602.632500", "093606.582500", "093602.742500", "093606.692500", "093602.852500", "093606.802500", "093602.962500", "093610.772500", "093606.932500", "093610.882500", "093607.042500", "093610.992500", "093607.152500", "093611.102500", "093607.262500", "093611.210000", "093607.372500", "093611.320000", "093607.480000", "093611.430000", "093607.590000", "093611.540000", "093607.700000", "093611.650000", "093607.810000", "093611.760000", "093607.920000", "093611.870000", "093608.030000", "093611.980000", "093608.140000", "093612.090000", "093608.250000", "093612.197500", "093608.360000", "093612.307500", "093608.467500", "093612.417500", "093608.577500", "093612.527500", "093608.687500", "093612.637500", "093608.797500", "093612.747500", "093608.907500", "093612.857500", "093609.017500", "093612.967500", "093609.127500", "093613.077500", "093609.237500", "093613.185000", "093609.345000", "093613.295000", "093609.455000", "093613.405000", "093609.565000", "093613.515000", "093609.675000", "093613.625000", "093609.785000", "093613.735000", "093609.895000", "093613.845000", "093610.005000", "093613.955000", "093610.115000", "093614.062500", "093610.225000", "093614.172500", "093610.332500", "093614.282500", "093610.442500", "093614.392500", "093610.552500", "093614.502500", "093610.662500", "093618.472500", "093614.632500", "093618.582500", "093614.742500", "093618.692500", "093614.852500", "093618.802500", "093614.962500", "093618.910000", "093615.072500", "093619.020000", "093615.180000", "093619.130000", "093615.290000", "093619.240000", "093615.400000", "093619.350000", "093615.510000", "093619.460000", "093615.620000", "093619.570000", "093615.730000", "093619.680000", "093615.840000", "093619.790000", "093615.950000", "093619.897500", "093616.060000", "093620.007500", "093616.167500", "093620.117500", "093616.277500", "093620.227500", "093616.387500", "093620.337500", "093616.497500", "093620.447500", "093616.607500", "093620.557500", "093616.717500", "093620.667500", "093616.827500", "093620.777500", "093616.937500", "093620.885000", "093617.045000", "093620.995000", "093617.155000", "093621.105000", "093617.265000", "093621.215000", "093617.375000", "093621.325000", "093617.485000", "093621.435000", "093617.595000", "093621.545000", "093617.705000", "093621.655000", "093617.815000", "093621.762500", "093617.925000", "093621.872500", "093618.032500", "093621.982500", "093618.142500", "093622.092500", "093618.252500", "093622.202500", "093618.362500", "093626.172500", "093622.332500", "093626.282500", "093622.442500", "093626.392500", "093622.552500", "093626.502500", "093622.662500", "093626.610000", "093622.772500", "093626.720000", "093622.880000", "093626.830000", "093622.990000", "093626.940000", "093623.100000", "093627.050000", "093623.210000", "093627.160000", "093623.320000", "093627.270000", "093623.430000", "093627.380000", "093623.540000", "093627.490000", "093623.650000", "093627.597500", "093623.760000", "093627.707500", "093623.867500", "093627.817500", "093623.977500", "093627.927500", "093624.087500", "093628.037500", "093624.197500", "093628.147500", "093624.307500", "093628.257500", "093624.417500", "093628.367500", "093624.527500", "093628.477500", "093624.637500", "093628.585000", "093624.745000", "093628.695000", "093624.855000", "093628.805000", "093624.965000", "093628.915000", "093625.075000", "093629.025000", "093625.185000", "093629.135000", "093625.295000", "093629.245000", "093625.405000", "093629.355000", "093625.515000", "093629.462500", "093625.625000", "093629.572500", "093625.732500", "093629.682500", "093625.842500", "093629.792500", "093625.952500", "093629.902500", "093626.062500", "093633.872500", "093630.032500", "093633.982500", "093630.142500", "093634.092500", "093630.252500", "093634.202500", "093630.362500", "093634.310000", "093630.472500", "093634.420000", "093630.580000", "093634.530000", "093630.690000", "093634.640000", "093630.800000", "093634.750000", "093630.910000", "093634.860000", "093631.020000", "093634.970000", "093631.130000", "093635.080000", "093631.240000", "093635.190000", "093631.350000", "093635.297500", "093631.460000", "093635.407500", "093631.567500", "093635.517500", "093631.677500", "093635.627500", "093631.787500", "093635.737500", "093631.897500", "093635.847500", "093632.007500", "093635.957500", "093632.117500", "093636.067500", "093632.227500", "093636.177500", "093632.337500", "093636.285000", "093632.445000", "093636.395000", "093632.555000", "093636.505000", "093632.665000", "093636.615000", "093632.775000", "093636.725000", "093632.885000", "093636.835000", "093632.995000", "093636.945000", "093633.105000", "093637.055000", "093633.215000", "093637.162500", "093633.325000", "093637.272500", "093633.432500", "093637.382500", "093633.542500", "093637.492500", "093633.652500", "093637.602500", "093633.762500", "093641.572500", "093637.732500", "093641.682500", "093637.842500", "093641.792500", "093637.952500", "093641.902500", "093638.062500", "093642.010000", "093638.172500", "093642.120000", "093638.280000", "093642.230000", "093638.390000", "093642.340000", "093638.500000", "093642.450000", "093638.610000", "093642.560000", "093638.720000", "093642.670000", "093638.830000", "093642.780000", "093638.940000", "093642.890000", "093639.050000", "093642.997500", "093639.160000", "093643.107500", "093639.267500", "093643.217500", "093639.377500", "093643.327500", "093639.487500", "093643.437500", "093639.597500", "093643.547500", "093639.707500", "093643.657500", "093639.817500", "093643.767500", "093639.927500", "093643.877500", "093640.037500", "093643.985000", "093640.145000", "093644.095000", "093640.255000", "093644.205000", "093640.365000", "093644.315000", "093640.475000", "093644.425000", "093640.585000", "093644.535000", "093640.695000", "093644.645000", "093640.805000", "093644.755000", "093640.915000", "093644.862500", "093641.025000", "093644.972500", "093641.132500", "093645.082500", "093641.242500", "093645.192500", "093641.352500", "093645.302500", "093641.462500", "093649.272500", "093645.432500", "093649.382500", "093645.542500", "093649.492500", "093645.652500", "093649.602500", "093645.762500", "093649.710000", "093645.872500", "093649.820000", "093645.980000", "093649.930000", "093646.090000", "093650.040000", "093646.200000", "093650.150000", "093646.310000", "093650.260000", "093646.420000", "093650.370000", "093646.530000", "093650.480000", "093646.640000", "093650.590000", "093646.750000", "093650.697500", "093646.860000", "093650.807500", "093646.967500", "093650.917500", "093647.077500", "093651.027500", "093647.187500", "093651.137500", "093647.297500", "093651.247500", "093647.407500", "093651.357500", "093647.517500", "093651.467500", "093647.627500", "093651.577500", "093647.737500", "093651.685000", "093647.845000", "093651.795000", "093647.955000", "093651.905000", "093648.065000", "093652.015000", "093648.175000", "093652.125000", "093648.285000", "093652.235000", "093648.395000", "093652.345000", "093648.505000", "093652.455000", "093648.615000", "093652.562500", "093648.725000", "093652.672500", "093648.832500", "093652.782500", "093648.942500", "093652.892500", "093649.052500", "093653.002500", "093649.162500", "093656.972500", "093653.132500", "093657.082500", "093653.242500", "093657.192500", "093653.352500", "093657.302500", "093653.462500", "093657.410000", "093653.572500", "093657.520000", "093653.680000", "093657.630000", "093653.790000", "093657.740000", "093653.900000", "093657.850000", "093654.010000", "093657.960000", "093654.120000", "093658.070000", "093654.230000", "093658.180000", "093654.340000", "093658.290000", "093654.450000", "093658.397500", "093654.560000", "093658.507500", "093654.667500", "093658.617500", "093654.777500", "093658.727500", "093654.887500", "093658.837500", "093654.997500", "093658.947500", "093655.107500", "093659.057500", "093655.217500", "093659.167500", "093655.327500", "093659.277500", "093655.437500", "093659.385000", "093655.545000", "093659.495000", "093655.655000", "093659.605000", "093655.765000", "093659.715000", "093655.875000", "093659.825000", "093655.985000", "093659.935000", "093656.095000", "093700.045000", "093656.205000", "093700.155000", "093656.315000", "093700.262500", "093656.425000", "093700.372500", "093656.532500", "093700.482500", "093656.642500", "093700.592500", "093656.752500", "093700.702500", "093656.862500", "093704.672500", "093700.832500", "093704.782500", "093700.942500", "093704.892500", "093701.052500", "093705.002500", "093701.162500", "093705.110000", "093701.272500", "093705.220000", "093701.380000", "093705.330000", "093701.490000", "093705.440000", "093701.600000", "093705.550000", "093701.710000", "093705.660000", "093701.820000", "093705.770000", "093701.930000", "093705.880000", "093702.040000", "093705.990000", "093702.150000", "093706.097500", "093702.260000", "093706.207500", "093702.367500", "093706.317500", "093702.477500", "093706.427500", "093702.587500", "093706.537500", "093702.697500", "093706.647500", "093702.807500", "093706.757500", "093702.917500", "093706.867500", "093703.027500", "093706.977500", "093703.137500", "093707.085000", "093703.245000", "093707.195000", "093703.355000", "093707.305000", "093703.465000", "093707.415000", "093703.575000", "093707.525000", "093703.685000", "093707.635000", "093703.795000", "093707.745000", "093703.905000", "093707.855000", "093704.015000", "093707.962500", "093704.125000", "093708.072500", "093704.232500", "093708.182500", "093704.342500", "093708.292500", "093704.452500", "093708.402500", "093704.562500", "093712.372500", "093708.532500", "093712.482500", "093708.642500", "093712.592500", "093708.752500", "093712.702500", "093708.862500", "093712.810000", "093708.972500", "093712.920000", "093709.080000", "093713.030000", "093709.190000", "093713.140000", "093709.300000", "093713.250000", "093709.410000", "093713.360000", "093709.520000", "093713.470000", "093709.630000", "093713.580000", "093709.740000", "093713.690000", "093709.850000", "093713.797500", "093709.960000", "093713.907500", "093710.067500", "093714.017500", "093710.177500", "093714.127500", "093710.287500", "093714.237500", "093710.397500", "093714.347500", "093710.507500", "093714.457500", "093710.617500", "093714.567500", "093710.727500", "093714.677500", "093710.837500", "093714.785000", "093710.945000", "093714.895000", "093711.055000", "093715.005000", "093711.165000", "093715.115000", "093711.275000", "093715.225000", "093711.385000", "093715.335000", "093711.495000", "093715.445000", "093711.605000", "093715.555000", "093711.715000", "093715.662500", "093711.825000", "093715.772500", "093711.932500", "093715.882500", "093712.042500", "093715.992500", "093712.152500", "093716.102500", "093712.262500", "093720.072500", "093716.232500", "093720.182500", "093716.342500", "093720.292500", "093716.452500", "093720.402500", "093716.562500", "093720.510000", "093716.672500", "093720.620000", "093716.780000", "093720.730000", "093716.890000", "093720.840000", "093717.000000", "093720.950000", "093717.110000", "093721.060000", "093717.220000", "093721.170000", "093717.330000", "093721.280000", "093717.440000", "093721.390000", "093717.550000", "093721.497500", "093717.660000", "093721.607500", "093717.767500", "093721.717500", "093717.877500", "093721.827500", "093717.987500", "093721.937500", "093718.097500", "093722.047500", "093718.207500", "093722.157500", "093718.317500", "093722.267500", "093718.427500", "093722.377500", "093718.537500", "093722.485000", "093718.645000", "093722.595000", "093718.755000", "093722.705000", "093718.865000", "093722.815000", "093718.975000", "093722.925000", "093719.085000", "093723.035000", "093719.195000", "093723.145000", "093719.305000", "093723.255000", "093719.415000", "093723.362500", "093719.525000", "093723.472500", "093719.632500", "093723.582500", "093719.742500", "093723.692500", "093719.852500", "093723.802500", "093719.962500", "093727.772500", "093723.932500", "093727.882500", "093724.042500", "093727.992500", "093724.152500", "093728.102500", "093724.262500", "093728.210000", "093724.372500", "093728.320000", "093724.480000", "093728.430000", "093724.590000", "093728.540000", "093724.700000", "093728.650000", "093724.810000", "093728.760000", "093724.920000", "093728.870000", "093725.030000", "093728.980000", "093725.140000", "093729.090000", "093725.250000", "093729.197500", "093725.360000", "093729.307500", "093725.467500", "093729.417500", "093725.577500", "093729.527500", "093725.687500", "093729.637500", "093725.797500", "093729.747500", "093725.907500", "093729.857500", "093726.017500", "093729.967500", "093726.127500", "093730.077500", "093726.237500", "093730.185000", "093726.345000", "093730.295000", "093726.455000", "093730.405000", "093726.565000", "093730.515000", "093726.675000", "093730.625000", "093726.785000", "093730.735000", "093726.895000", "093730.845000", "093727.005000", "093730.955000", "093727.115000", "093731.062500", "093727.225000", "093731.172500", "093727.332500", "093731.282500", "093727.442500", "093731.392500", "093727.552500", "093731.502500", "093727.662500", "093735.472500", "093731.632500", "093735.582500", "093731.742500", "093735.692500", "093731.852500", "093735.802500", "093731.962500", "093735.910000", "093732.072500", "093736.020000", "093732.180000", "093736.130000", "093732.290000", "093736.240000", "093732.400000", "093736.350000", "093732.510000", "093736.460000", "093732.620000", "093736.570000", "093732.730000", "093736.680000", "093732.840000", "093736.790000", "093732.950000", "093736.897500", "093733.060000", "093737.007500", "093733.167500", "093737.117500", "093733.277500", "093737.227500", "093733.387500", "093737.337500", "093733.497500", "093737.447500", "093733.607500", "093737.557500", "093733.717500", "093737.667500", "093733.827500", "093737.777500", "093733.937500", "093737.885000", "093734.045000", "093737.995000", "093734.155000", "093738.105000", "093734.265000", "093738.215000", "093734.375000", "093738.325000", "093734.485000", "093738.435000", "093734.595000", "093738.545000", "093734.705000", "093738.655000", "093734.815000", "093738.762500", "093734.925000", "093738.872500", "093735.032500", "093738.982500", "093735.142500", "093739.092500", "093735.252500", "093739.202500", "093735.362500", "093743.172500", "093739.332500", "093743.282500", "093739.442500", "093743.392500", "093739.552500", "093743.502500", "093739.662500", "093743.610000", "093739.772500", "093743.720000", "093739.880000", "093743.830000", "093739.990000", "093743.940000", "093740.100000", "093744.050000", "093740.210000", "093744.160000", "093740.320000", "093744.270000", "093740.430000", "093744.380000", "093740.540000", "093744.490000", "093740.650000", "093744.597500", "093740.760000", "093744.707500", "093740.867500", "093744.817500", "093740.977500", "093744.927500", "093741.087500", "093745.037500", "093741.197500", "093745.147500", "093741.307500", "093745.257500", "093741.417500", "093745.367500", "093741.527500", "093745.477500", "093741.637500", "093745.585000", "093741.745000", "093745.695000", "093741.855000", "093745.805000", "093741.965000", "093745.915000", "093742.075000", "093746.025000", "093742.185000", "093746.135000", "093742.295000", "093746.245000", "093742.405000", "093746.355000", "093742.515000", "093746.462500", "093742.625000", "093746.572500", "093742.732500", "093746.682500", "093742.842500", "093746.792500", "093742.952500", "093746.902500", "093743.062500", "093750.872500", "093747.032500", "093750.982500", "093747.142500", "093751.092500", "093747.252500", "093751.202500", "093747.362500", "093751.310000", "093747.472500", "093751.420000", "093747.580000", "093751.530000", "093747.690000", "093751.640000", "093747.800000", "093751.750000", "093747.910000", "093751.860000", "093748.020000", "093751.970000", "093748.130000", "093752.080000", "093748.240000", "093752.190000", "093748.350000", "093752.297500", "093748.460000", "093752.407500", "093748.567500", "093752.517500", "093748.677500", "093752.627500", "093748.787500", "093752.737500", "093748.897500", "093752.847500", "093749.007500", "093752.957500", "093749.117500", "093753.067500", "093749.227500", "093753.177500", "093749.337500", "093753.285000", "093749.445000", "093753.395000", "093749.555000", "093753.505000", "093749.665000", "093753.615000", "093749.775000", "093753.725000", "093749.885000", "093753.835000", "093749.995000", "093753.945000", "093750.105000", "093754.055000", "093750.215000", "093754.162500", "093750.325000", "093754.272500", "093750.432500", "093754.382500", "093750.542500", "093754.492500", "093750.652500", "093754.602500", "093750.762500", "093758.572500", "093754.732500", "093758.682500", "093754.842500", "093758.792500", "093754.952500", "093758.902500", "093755.062500", "093759.010000", "093755.172500", "093759.120000", "093755.280000", "093759.230000", "093755.390000", "093759.340000", "093755.500000", "093759.450000", "093755.610000", "093759.560000", "093755.720000", "093759.670000", "093755.830000", "093759.780000", "093755.940000", "093759.890000", "093756.050000", "093759.997500", "093756.160000", "093800.107500", "093756.267500", "093800.217500", "093756.377500", "093800.327500", "093756.487500", "093800.437500", "093756.597500", "093800.547500", "093756.707500", "093800.657500", "093756.817500", "093800.767500", "093756.927500", "093800.877500", "093757.037500", "093800.985000", "093757.145000", "093801.095000", "093757.255000", "093801.205000", "093757.365000", "093801.315000", "093757.475000", "093801.425000", "093757.585000", "093801.535000", "093757.695000", "093801.645000", "093757.805000", "093801.755000", "093757.915000", "093801.862500", "093758.025000", "093801.972500", "093758.132500", "093802.082500", "093758.242500", "093802.192500", "093758.352500", "093802.302500", "093758.462500", "093806.272500", "093802.432500", "093806.382500", "093802.542500", "093806.492500", "093802.652500", "093806.602500", "093802.762500", "093806.710000", "093802.872500", "093806.820000", "093802.980000", "093806.930000", "093803.090000", "093807.040000", "093803.200000", "093807.150000", "093803.310000", "093807.260000", "093803.420000", "093807.370000", "093803.530000", "093807.480000", "093803.640000", "093807.590000", "093803.750000", "093807.697500", "093803.860000", "093807.807500", "093803.967500", "093807.917500", "093804.077500", "093808.027500", "093804.187500", "093808.137500", "093804.297500", "093808.247500", "093804.407500", "093808.357500", "093804.517500", "093808.467500", "093804.627500", "093808.577500", "093804.737500", "093808.685000", "093804.845000", "093808.795000", "093804.955000", "093808.905000", "093805.065000", "093809.015000", "093805.175000", "093809.125000", "093805.285000", "093809.235000", "093805.395000", "093809.345000", "093805.505000", "093809.455000", "093805.615000", "093809.562500", "093805.725000", "093809.672500", "093805.832500", "093809.782500", "093805.942500", "093809.892500", "093806.052500", "093810.002500", "093806.162500", "093813.972500", "093810.132500", "093814.082500", "093810.242500", "093814.192500", "093810.352500", "093814.302500", "093810.462500", "093814.410000", "093810.572500", "093814.520000", "093810.680000", "093814.630000", "093810.790000", "093814.740000", "093810.900000", "093814.850000", "093811.010000", "093814.960000", "093811.120000", "093815.070000", "093811.230000", "093815.180000", "093811.340000", "093815.290000", "093811.450000", "093815.397500", "093811.560000", "093815.507500", "093811.667500", "093815.617500", "093811.777500", "093815.727500", "093811.887500", "093815.837500", "093811.997500", "093815.947500", "093812.107500", "093816.057500", "093812.217500", "093816.167500", "093812.327500", "093816.277500", "093812.437500", "093816.385000", "093812.545000", "093816.495000", "093812.655000", "093816.605000", "093812.765000", "093816.715000", "093812.875000", "093816.825000", "093812.985000", "093816.935000", "093813.095000", "093817.045000", "093813.205000", "093817.155000", "093813.315000", "093817.262500", "093813.425000", "093817.372500", "093813.532500", "093817.482500", "093813.642500", "093817.592500", "093813.752500", "093817.702500", "093813.862500", "093821.672500", "093817.832500", "093821.782500", "093817.942500", "093821.892500", "093818.052500", "093822.002500", "093818.162500", "093822.110000", "093818.272500", "093822.220000", "093818.380000", "093822.330000", "093818.490000", "093822.440000", "093818.600000", "093822.550000", "093818.710000", "093822.660000", "093818.820000", "093822.770000", "093818.930000", "093822.880000", "093819.040000", "093822.990000", "093819.150000", "093823.097500", "093819.260000", "093823.207500", "093819.367500", "093823.317500", "093819.477500", "093823.427500", "093819.587500", "093823.537500", "093819.697500", "093823.647500", "093819.807500", "093823.757500", "093819.917500", "093823.867500", "093820.027500", "093823.977500", "093820.137500", "093824.085000", "093820.245000", "093824.195000", "093820.355000", "093824.305000", "093820.465000", "093824.415000", "093820.575000", "093824.525000", "093820.685000", "093824.635000", "093820.795000", "093824.745000", "093820.905000", "093824.855000", "093821.015000", "093824.962500", "093821.125000", "093825.072500", "093821.232500", "093825.182500", "093821.342500", "093825.292500", "093821.452500", "093825.402500", "093821.562500", "093829.372500", "093825.532500", "093829.482500", "093825.642500", "093829.592500", "093825.752500", "093829.702500", "093825.862500", "093829.810000", "093825.972500", "093829.920000", "093826.080000", "093830.030000", "093826.190000", "093830.140000", "093826.300000", "093830.250000", "093826.410000", "093830.360000", "093826.520000", "093830.470000", "093826.630000", "093830.580000", "093826.740000", "093830.690000", "093826.850000", "093830.797500", "093826.960000", "093830.907500", "093827.067500", "093831.017500", "093827.177500", "093831.127500", "093827.287500", "093831.237500", "093827.397500", "093831.347500", "093827.507500", "093831.457500", "093827.617500", "093831.567500", "093827.727500", "093831.677500", "093827.837500", "093831.785000", "093827.945000", "093831.895000", "093828.055000", "093832.005000", "093828.165000", "093832.115000", "093828.275000", "093832.225000", "093828.385000", "093832.335000", "093828.495000", "093832.445000", "093828.605000", "093832.555000", "093828.715000", "093832.662500", "093828.825000", "093832.772500", "093828.932500", "093832.882500", "093829.042500", "093832.992500", "093829.152500", "093833.102500", "093829.262500", "093837.072500", "093833.232500", "093837.182500", "093833.342500", "093837.292500", "093833.452500", "093837.402500", "093833.562500", "093837.510000", "093833.672500", "093837.620000", "093833.780000", "093837.730000", "093833.890000", "093837.840000", "093834.000000", "093837.950000", "093834.110000", "093838.060000", "093834.220000", "093838.170000", "093834.330000", "093838.280000", "093834.440000", "093838.390000", "093834.550000", "093838.497500", "093834.660000", "093838.607500", "093834.767500", "093838.717500", "093834.877500", "093838.827500", "093834.987500", "093838.937500", 