{
  "AcquisitionMatrixPE": 80,
  "AcquisitionNumber": 1,
  "AcquisitionTime": "10:03:4.477500",
  "BandwidthPerPixelPhaseEncode": 25,
  "BaseResolution": 80,
  "BodyPartExamined": "BRAIN",
  "CoilCombinationMethod": "Sum of Squares",
  "ConsistencyInfo": "N4_VE11E_LATEST_20181129",
  "ConversionSoftware": "dcm2niix",
  "ConversionSoftwareVersion": "v1.0.20220720",
  "DerivedVendorReportedEchoSpacing": 0.0005,
  "DeviceSerialNumber": "66112",
  "DwellTime": 2.7e-06,
  "EchoTime": 0.03,
  "EchoTrainLength": 80,
  "EffectiveEchoSpacing": 0.0005,
  "FlipAngle": 10,
  "HeudiconvVersion": "0.13.1",
  "ImageOrientationPatientDICOM": [0.997518, 0.0703081, 0.00388252, -0.0681789, 0.950582, 0.302894],
  "ImageOrientationText": "Tra>Cor(17.6)>Sag(-1.0)",
  "ImageType": [
    "ORIGINAL",
    "PRIMARY",
    "M",
    "ND",
    "NORM",
    "MOSAIC"
],
  "ImagingFrequency": 123.252,
  "InPlanePhaseEncodingDirectionDICOM": "COL",
  "InstitutionAddress": "Maynard 3,Hanover,NH,US,03755",
  "InstitutionName": "Dartmouth College - PBS",
  "InstitutionalDepartmentName": "Department",
  "MRAcquisitionType": "2D",
  "MagneticFieldStrength": 3,
  "Manufacturer": "Siemens",
  "ManufacturersModelName": "Prisma",
  "MatrixCoilMode": "SENSE",
  "Modality": "MR",
  "NonlinearGradientCorrection": false,
  "PartialFourier": 1,
  "PatientPosition": "HFS",
  "PercentPhaseFOV": 100,
  "PercentSampling": 100,
  "PhaseEncodingDirection": "j-",
  "PhaseEncodingSteps": 80,
  "PhaseResolution": 1,
  "PixelBandwidth": 2315,
  "ProcedureStepDescription": "dbic^QA",
  "ProtocolName": "func-bold_fa-10",
  "PulseSequenceDetails": "%SiemensSeq%\\ep2d_bold",
  "ReceiveCoilActiveElements": "HEA;HEP",
  "ReceiveCoilName": "Head_32",
  "ReconMatrixPE": 80,
  "RepetitionTime": 2,
  "SAR": 0.0117286,
  "ScanOptions": "FS",
  "ScanningSequence": "EP",
  "SequenceName": "*epfid2d1_80",
  "SequenceVariant": "SK",
  "SeriesDescription": "func-bold_fa-10",
  "SeriesNumber": 10,
  "ShimSetting": [4142, -7707, -7520, 262, -77, -94, -9, 62],
  "SliceThickness": 3.5,
  "SliceTiming": [0.99, 0, 1.0575, 0.0675, 1.1225, 0.1325, 1.19, 0.2, 1.255, 0.265, 1.32, 0.33, 1.3875, 0.3975, 1.4525, 0.4625, 1.5175, 0.53, 1.585, 0.595, 1.65, 0.66, 1.7175, 0.7275, 1.7825, 0.7925, 1.8475, 0.86, 1.915, 0.925],
  "SoftwareVersions": "syngo MR E11",
  "SpacingBetweenSlices": 3.99,
  "StationName": "AWP66112",
  "TotalReadoutTime": 0.0395,
  "TxRefAmp": 231.168,
  "dcmmeta_affine": [
    [-2.992553234100342, -0.20453666150569916, -0.07024487107992172, 128.87574768066406],
    [-0.21092434227466583, 2.851747512817383, 1.2066022157669067, -113.47703552246094],
    [0.011647558771073818, -0.9086812138557434, 3.8025355339050293, -9.618643760681152],
    [0.0, 0.0, 0.0, 1.0]
],
  "dcmmeta_reorient_transform": [
    [0.0, -1.0, 0.0, 79.0],
    [1.0, 0.0, 0.0, 0.0],
    [0.0, 0.0, 1.0, 0.0],
    [0.0, 0.0, 0.0, 1.0]
],
  "dcmmeta_shape": [80, 80, 30, 200],
  "dcmmeta_slice_dim": 2,
  "dcmmeta_version": 0.6,
  "global": {
    "const": {
      "AccessionNumber": "qa",
      "AcquisitionMatrix": [80, 0, 0, 80],
      "AngioFlag": "N",
      "BitsAllocated": 16,
      "BitsStored": 12,
      "BodyPartExamined": "BRAIN",
      "Columns": 480,
      "EchoNumbers": 1,
      "EchoTime": 30.0,
      "EchoTrainLength": 80,
      "FlipAngle": 10.0,
      "HighBit": 11,
      "ImageOrientationPatient": [0.99751776687415, 0.07030811341647, 0.00388251957217, -0.0681788865857, 0.95058246615284, 0.30289373461122],
      "ImagePositionPatient": [-670.32068603603, -724.34535356615, -265.47021160579],
      "ImageType": [
        "ORIGINAL",
        "PRIMARY",
        "M",
        "ND",
        "NORM",
        "MOSAIC"
],
      "ImagedNucleus": "1H",
      "ImagingFrequency": 123.252351,
      "InPlanePhaseEncodingDirection": "COL",
      "MRAcquisitionType": "2D",
      "MagneticFieldStrength": 3.0,
      "Manufacturer": "SIEMENS",
      "ManufacturerModelName": "Prisma",
      "Modality": "MR",
      "NumberOfAverages": 1.0,
      "NumberOfPhaseEncodingSteps": 80,
      "PercentPhaseFieldOfView": 100.0,
      "PercentSampling": 100.0,
      "PerformedProcedureStepStartTime": "093150.059000",
      "PhotometricInterpretation": "MONOCHROME2",
      "PixelBandwidth": 2315.0,
      "PixelRepresentation": 0,
      "PixelSpacing": [3.0, 3.0],
      "ProtocolName": "func-bold_fa-10",
      "RepetitionTime": 2000.0,
      "Rows": 480,
      "SAR": 0.01172856288195,
      "SamplesPerPixel": 1,
      "ScanOptions": "FS",
      "ScanningSequence": "EP",
      "SequenceName": "*epfid2d1_80",
      "SequenceVariant": "SK",
      "SeriesDescription": "func-bold_fa-10",
      "SeriesNumber": 10,
      "SeriesTime": "100345.887000",
      "SliceLocation": -45.751817319619,
      "SliceThickness": 3.5,
      "SmallestImagePixelValue": 0,
      "SoftwareVersions": "syngo MR E11",
      "SpacingBetweenSlices": 3.9899999431927,
      "SpecificCharacterSet": "ISO_IR 100",
      "StudyID": "3",
      "StudyTime": "093150.009000",
      "TransmitCoilName": "Body",
      "VariableFlipAngleFlag": "N",
      "WindowCenterWidthExplanation": "Algo1"
    },
    "slices": {}
  },
  "time": {
    "samples": {
      "AcquisitionNumber": [1, 2, 3, 4, 5, 6, 7, 8, 9, 10, 11, 12, 13, 14, 15, 16, 17, 18, 19, 20, 21, 22, 23, 24, 25, 26, 27, 28, 29, 30, 31, 32, 33, 34, 35, 36, 37, 38, 39, 40, 41, 42, 43, 44, 45, 46, 47, 48, 49, 50, 51, 52, 53, 54, 55, 56, 57, 58, 59, 60, 61, 62, 63, 64, 65, 66, 67, 68, 69, 70, 71, 72, 73, 74, 75, 76, 77, 78, 79, 80, 81, 82, 83, 84, 85, 86, 87, 88, 89, 90, 91, 92, 93, 94, 95, 96, 97, 98, 99, 100, 101, 102, 103, 104, 105, 106, 107, 108, 109, 110, 111, 112, 113, 114, 115, 116, 117, 118, 119, 120, 121, 122, 123, 124, 125, 126, 127, 128, 129, 130, 131, 132, 133, 134, 135, 136, 137, 138, 139, 140, 141, 142, 143, 144, 145, 146, 147, 148, 149, 150, 151, 152, 153, 154, 155, 156, 157, 158, 159, 160, 161, 162, 163, 164, 165, 166, 167, 168, 169, 170, 171, 172, 173, 174, 175, 176, 177, 178, 179, 180, 181, 182, 183, 184, 185, 186, 187, 188, 189, 190, 191, 192, 193, 194, 195, 196, 197, 198, 199, 200],
      "AcquisitionTime": ["100304.477500", "100306.477500", "100308.477500", "100310.477500", "100312.477500", "100314.477500", "100316.477500", "100318.477500", "100320.477500", "100322.477500", "100324.477500", "100326.477500", "100328.477500", "100330.477500", "100332.477500", "100334.477500", "100336.477500", "100338.477500", "100340.477500", "100342.477500", "100344.477500", "100346.477500", "100348.477500", "100350.477500", "100352.477500", "100354.477500", "100356.477500", "100358.477500", "100400.477500", "100402.477500", "100404.477500", "100406.477500", "100408.477500", "100410.477500", "100412.477500", "100414.477500", "100416.477500", "100418.477500", "100420.477500", "100422.477500", "100424.477500", "100426.477500", "100428.477500", "100430.477500", "100432.477500", "100434.477500", "100436.477500", "100438.477500", "100440.477500", "100442.477500", "100444.477500", "100446.477500", "100448.477500", "100450.477500", "100452.477500", "100454.477500", "100456.477500", "100458.477500", "100500.477500", "100502.477500", "100504.477500", "100506.477500", "100508.477500", "100510.477500", "100512.477500", "100514.477500", "100516.477500", "100518.477500", "100520.477500", "100522.477500", "100524.477500", "100526.477500", "100528.477500", "100530.477500", "100532.477500", "100534.477500", "100536.477500", "100538.477500", "100540.477500", "100542.477500", "100544.477500", "100546.477500", "100548.477500", "100550.477500", "100552.477500", "100554.477500", "100556.477500", "100558.477500", "100600.477500", "100602.477500", "100604.477500", "100606.477500", "100608.477500", "100610.477500", "100612.477500", "100614.477500", "100616.477500", "100618.477500", "100620.477500", "100622.477500", "100624.477500", "100626.477500", "100628.477500", "100630.477500", "100632.477500", "100634.477500", "100636.477500", "100638.477500", "100640.477500", "100642.477500", "100644.477500", "100646.477500", "100648.477500", "100650.477500", "100652.477500", "100654.477500", "100656.477500", "100658.477500", "100700.477500", "100702.477500", "100704.477500", "100706.477500", "100708.477500", "100710.477500", "100712.477500", "100714.477500", "100716.477500", "100718.477500", "100720.477500", "100722.477500", "100724.477500", "100726.477500", "100728.477500", "100730.477500", "100732.477500", "100734.477500", "100736.477500", "100738.477500", "100740.477500", "100742.477500", "100744.477500", "100746.477500", "100748.477500", "100750.477500", "100752.477500", "100754.477500", "100756.477500", "100758.477500", "100800.477500", "100802.477500", "100804.477500", "100806.477500", "100808.477500", "100810.477500", "100812.477500", "100814.477500", "100816.477500", "100818.477500", "100820.477500", "100822.477500", "100824.477500", "100826.477500", "100828.477500", "100830.477500", "100832.477500", "100834.477500", "100836.477500", "100838.477500", "100840.477500", "100842.477500", "100844.477500", "100846.477500", "100848.477500", "100850.477500", "100852.477500", "100854.477500", "100856.477500", "100858.477500", "100900.477500", "100902.477500", "100904.477500", "100906.477500", "100908.477500", "100910.477500", "100912.477500", "100914.477500", "100916.477500", "100918.477500", "100920.477500", "100922.477500", "100924.477500", "100926.477500", "100928.477500", "100930.477500", "100932.477500", "100934.477500", "100936.477500", "100938.477500", "100940.477500", "100942.477500"],
      "ContentTime": ["100345.891000", "100345.894000", "100345.896000", "100345.898000", "100345.901000", "100345.903000", "100345.905000", "100345.908000", "100345.910000", "100345.917000", "100345.919000", "100345.921000", "100345.923000", "100345.926000", "100345.928000", "100345.930000", "100345.933000", "100345.935000", "100345.937000", "100345.940000", "100345.942000", "100405.886000", "100405.889000", "100405.892000", "100405.894000", "100405.896000", "100405.899000", "100405.901000", "100405.903000", "100405.915000", "100405.917000", "100445.887000", "100445.890000", "100445.892000", "100445.895000", "100445.897000", "100445.899000", "100445.901000", "100445.904000", "100445.906000", "100445.908000", "100445.911000", "100445.913000", "100445.915000", "100445.917000", "100445.920000", "100445.922000", "100445.924000", "100445.927000", "100445.929000", "100445.931000", "100525.886000", "100525.889000", "100525.891000", "100525.893000", "100525.896000", "100525.898000", "100525.900000", "100525.902000", "100525.905000", "100525.907000", "100525.913000", "100525.915000", "100525.917000", "100525.919000", "100525.922000", "100525.924000", "100525.926000", "100525.929000", "100525.931000", "100525.933000", "100605.886000", "100605.889000", "100605.891000", "100605.893000", "100605.895000", "100605.898000", "100605.900000", "100605.903000", "100605.905000", "100605.907000", "100605.909000", "100605.912000", "100605.914000", "100605.917000", "100605.919000", "100605.921000", "100605.923000", "100605.926000", "100605.928000", "100605.930000", "100645.886000", "100645.889000", "100645.891000", "100645.893000", "100645.896000", "100645.898000", "100645.900000", "100645.902000", "100645.905000", "100645.907000", "100645.909000", "100645.912000", "100645.914000", "100645.916000", "100645.919000", "100645.921000", "100645.923000", "100645.926000", "100645.928000", "100645.930000", "100725.887000", "100725.890000", "100725.892000", "100725.894000", "100725.897000", "100725.899000", "100725.901000", "100725.904000", "100725.906000", "100725.908000", "100725.911000", "100725.913000", "100725.915000", "100725.918000", "100725.920000", "100725.922000", "100725.925000", "100725.927000", "100725.929000", "100725.932000", "100805.886000", "100805.889000", "100805.891000", "100805.894000", "100805.896000", "100805.899000", "100805.901000", "100805.903000", "100805.906000", "100805.908000", "100805.910000", "100805.912000", "100805.915000", "100805.917000", "100805.919000", "100805.922000", "100805.924000", "100805.926000", "100805.929000", "100805.931000", "100845.886000", "100845.889000", "100845.891000", "100845.894000", "100845.896000", "100845.898000", "100845.901000", "100845.903000", "100845.905000", "100845.908000", "100845.910000", "100845.912000", "100845.915000", "100845.917000", "100845.919000", "100845.922000", "100845.924000", "100845.926000", "100845.929000", "100845.931000", "100925.887000", "100925.890000", "100925.892000", "100925.895000", "100925.897000", "100925.899000", "100925.902000", "100925.904000", "100925.906000", "100925.909000", "100925.911000", "100925.913000", "100925.916000", "100925.918000", "100925.920000", "100925.923000", "100925.925000", "100925.927000", "100925.930000", "100925.932000", "100943.523000", "100943.526000", "100943.528000", "100943.531000", "100943.534000", "100943.536000", "100943.538000", "100943.541000", "100943.543000"],
      "InstanceCreationTime": ["100345.891000", "100345.894000", "100345.896000", "100345.898000", "100345.901000", "100345.903000", "100345.905000", "100345.908000", "100345.910000", "100345.917000", "100345.919000", "100345.921000", "100345.923000", "100345.926000", "100345.928000", "100345.930000", "100345.933000", "100345.935000", "100345.937000", "100345.940000", "100345.942000", "100405.886000", "100405.889000", "100405.892000", "100405.894000", "100405.896000", "100405.899000", "100405.901000", "100405.903000", "100405.915000", "100405.917000", "100445.887000", "100445.890000", "100445.892000", "100445.895000", "100445.897000", "100445.899000", "100445.901000", "100445.904000", "100445.906000", "100445.908000", "100445.911000", "100445.913000", "100445.915000", "100445.917000", "100445.920000", "100445.922000", "100445.924000", "100445.927000", "100445.929000", "100445.931000", "100525.886000", "100525.889000", "100525.891000", "100525.893000", "100525.896000", "100525.898000", "100525.900000", "100525.902000", "100525.905000", "100525.907000", "100525.913000", "100525.915000", "100525.917000", "100525.919000", "100525.922000", "100525.924000", "100525.926000", "100525.929000", "100525.931000", "100525.933000", "100605.886000", "100605.889000", "100605.891000", "100605.893000", "100605.895000", "100605.898000", "100605.900000", "100605.903000", "100605.905000", "100605.907000", "100605.909000", "100605.912000", "100605.914000", "100605.917000", "100605.919000", "100605.921000", "100605.923000", "100605.926000", "100605.928000", "100605.930000", "100645.886000", "100645.889000", "100645.891000", "100645.893000", "100645.896000", "100645.898000", "100645.900000", "100645.902000", "100645.905000", "100645.907000", "100645.909000", "100645.912000", "100645.914000", "100645.916000", "100645.919000", "100645.921000", "100645.923000", "100645.926000", "100645.928000", "100645.930000", "100725.887000", "100725.890000", "100725.892000", "100725.894000", "100725.897000", "100725.899000", "100725.901000", "100725.904000", "100725.906000", "100725.908000", "100725.911000", "100725.913000", "100725.915000", "100725.918000", "100725.920000", "100725.922000", "100725.925000", "100725.927000", "100725.929000", "100725.932000", "100805.886000", "100805.889000", "100805.891000", "100805.894000", "100805.896000", "100805.899000", "100805.901000", "100805.903000", "100805.906000", "100805.908000", "100805.910000", "100805.912000", "100805.915000", "100805.917000", "100805.919000", "100805.922000", "100805.924000", "100805.926000", "100805.929000", "100805.931000", "100845.886000", "100845.889000", "100845.891000", "100845.894000", "100845.896000", "100845.898000", "100845.901000", "100845.903000", "100845.905000", "100845.908000", "100845.910000", "100845.912000", "100845.915000", "100845.917000", "100845.919000", "100845.922000", "100845.924000", "100845.926000", "100845.929000", "100845.931000", "100925.887000", "100925.890000", "100925.892000", "100925.895000", "100925.897000", "100925.899000", "100925.902000", "100925.904000", "100925.906000", "100925.909000", "100925.911000", "100925.913000", "100925.916000", "100925.918000", "100925.920000", "100925.923000", "100925.925000", "100925.927000", "100925.930000", "100925.932000", "100943.523000", "100943.526000", "100943.528000", "100943.531000", "100943.534000", "100943.536000", "100943.538000", "100943.541000", "100943.543000"],
      "InstanceNumber": [1, 2, 3, 4, 5, 6, 7, 8, 9, 10, 11, 12, 13, 14, 15, 16, 17, 18, 19, 20, 21, 22, 23, 24, 25, 26, 27, 28, 29, 30, 31, 32, 33, 34, 35, 36, 37, 38, 39, 40, 41, 42, 43, 44, 45, 46, 47, 48, 49, 50, 51, 52, 53, 54, 55, 56, 57, 58, 59, 60, 61, 62, 63, 64, 65, 66, 67, 68, 69, 70, 71, 72, 73, 74, 75, 76, 77, 78, 79, 80, 81, 82, 83, 84, 85, 86, 87, 88, 89, 90, 91, 92, 93, 94, 95, 96, 97, 98, 99, 100, 101, 102, 103, 104, 105, 106, 107, 108, 109, 110, 111, 112, 113, 114, 115, 116, 117, 118, 119, 120, 121, 122, 123, 124, 125, 126, 127, 128, 129, 130, 131, 132, 133, 134, 135, 136, 137, 138, 139, 140, 141, 142, 143, 144, 145, 146, 147, 148, 149, 150, 151, 152, 153, 154, 155, 156, 157, 158, 159, 160, 161, 162, 163, 164, 165, 166, 167, 168, 169, 170, 171, 172, 173, 174, 175, 176, 177, 178, 179, 180, 181, 182, 183, 184, 185, 186, 187, 188, 189, 190, 191, 192, 193, 194, 195, 196, 197, 198, 199, 200],
      "LargestImagePixelValue": [366, 369, 367, 365, 369, 368, 368, 368, 367, 369, 368, 369, 367, 371, 371, 369, 368, 369, 368, 368, 368, 368, 368, 369, 367, 369, 369, 368, 367, 368, 366, 368, 367, 367, 367, 368, 371, 369, 366, 367, 366, 368, 367, 369, 367, 368, 368, 366, 366, 367, 370, 368, 367, 366, 367, 366, 368, 368, 368, 367, 368, 367, 365, 366, 365, 366, 367, 366, 367, 369, 369, 368, 367, 366, 367, 369, 369, 370, 369, 366, 365, 367, 367, 367, 368, 368, 367, 367, 369, 367, 368, 365, 367, 367, 366, 366, 368, 366, 366, 367, 368, 364, 368, 368, 368, 366, 367, 368, 366, 368, 367, 365, 366, 368, 367, 366, 368, 368, 370, 367, 366, 367, 368, 365, 368, 370, 368, 368, 369, 369, 369, 369, 369, 367, 369, 369, 370, 370, 369, 370, 368, 368, 369, 365, 365, 367, 364, 366, 369, 368, 368, 367, 367, 367, 365, 365, 365, 366, 368, 367, 366, 366, 367, 367, 364, 369, 370, 369, 366, 369, 367, 368, 367, 368, 370, 368, 368, 368, 370, 367, 370, 369, 368, 365, 367, 370, 369, 368, 369, 369, 367, 367, 369, 369, 369, 367, 370, 367, 369, 370],
      "WindowCenter": [298.0, 297.0, 298.0, 298.0, 298.0, 298.0, 297.0, 298.0, 298.0, 298.0, 298.0, 298.0, 298.0, 299.0, 299.0, 298.0, 298.0, 298.0, 298.0, 298.0, 298.0, 298.0, 298.0, 298.0, 299.0, 298.0, 298.0, 298.0, 299.0, 298.0, 299.0, 298.0, 298.0, 299.0, 298.0, 298.0, 298.0, 298.0, 298.0, 298.0, 298.0, 298.0, 298.0, 298.0, 298.0, 298.0, 298.0, 298.0, 296.0, 298.0, 299.0, 298.0, 298.0, 298.0, 298.0, 298.0, 298.0, 297.0, 298.0, 298.0, 298.0, 298.0, 298.0, 298.0, 298.0, 298.0, 298.0, 298.0, 298.0, 298.0, 298.0, 298.0, 298.0, 298.0, 298.0, 298.0, 298.0, 298.0, 298.0, 298.0, 298.0, 298.0, 298.0, 298.0, 298.0, 298.0, 298.0, 298.0, 298.0, 298.0, 298.0, 298.0, 298.0, 298.0, 298.0, 298.0, 297.0, 298.0, 298.0, 298.0, 298.0, 298.0, 298.0, 297.0, 298.0, 298.0, 297.0, 297.0, 298.0, 298.0, 298.0, 298.0, 298.0, 297.0, 298.0, 297.0, 297.0, 298.0, 298.0, 298.0, 298.0, 297.0, 297.0, 297.0, 298.0, 298.0, 297.0, 297.0, 297.0, 298.0, 297.0, 298.0, 298.0, 298.0, 298.0, 298.0, 298.0, 298.0, 297.0, 298.0, 297.0, 297.0, 297.0, 298.0, 298.0, 297.0, 298.0, 297.0, 297.0, 297.0, 298.0, 298.0, 297.0, 298.0, 298.0, 298.0, 298.0, 298.0, 298.0, 298.0, 297.0, 298.0, 298.0, 298.0, 297.0, 297.0, 298.0, 298.0, 298.0, 297.0, 297.0, 297.0, 297.0, 297.0, 298.0, 298.0, 298.0, 298.0, 298.0, 297.0, 298.0, 297.0, 298.0, 297.0, 298.0, 298.0, 298.0, 297.0, 298.0, 298.0, 298.0, 298.0, 298.0, 298.0, 298.0, 297.0, 298.0, 298.0, 297.0, 298.0],
      "WindowWidth": [646.0, 645.0, 646.0, 646.0, 647.0, 646.0, 645.0, 647.0, 646.0, 647.0, 647.0, 646.0, 646.0, 647.0, 647.0, 647.0, 647.0, 647.0, 646.0, 646.0, 647.0, 646.0, 646.0, 647.0, 647.0, 647.0, 647.0, 646.0, 647.0, 647.0, 647.0, 647.0, 647.0, 647.0, 646.0, 646.0, 646.0, 646.0, 647.0, 647.0, 646.0, 646.0, 647.0, 646.0, 646.0, 645.0, 647.0, 647.0, 644.0, 646.0, 647.0, 646.0, 646.0, 646.0, 645.0, 646.0, 645.0, 645.0, 646.0, 645.0, 645.0, 645.0, 646.0, 645.0, 646.0, 646.0, 645.0, 646.0, 645.0, 645.0, 646.0, 645.0, 647.0, 645.0, 647.0, 645.0, 646.0, 646.0, 647.0, 646.0, 646.0, 645.0, 646.0, 646.0, 646.0, 647.0, 647.0, 646.0, 646.0, 646.0, 646.0, 645.0, 646.0, 645.0, 646.0, 645.0, 645.0, 645.0, 645.0, 645.0, 646.0, 645.0, 645.0, 645.0, 645.0, 645.0, 645.0, 645.0, 645.0, 645.0, 645.0, 645.0, 645.0, 645.0, 645.0, 645.0, 645.0, 645.0, 646.0, 645.0, 645.0, 645.0, 645.0, 645.0, 645.0, 646.0, 645.0, 645.0, 645.0, 645.0, 645.0, 645.0, 645.0, 646.0, 645.0, 646.0, 646.0, 646.0, 645.0, 646.0, 645.0, 645.0, 645.0, 645.0, 645.0, 645.0, 646.0, 645.0, 645.0, 645.0, 645.0, 645.0, 645.0, 645.0, 645.0, 645.0, 645.0, 645.0, 645.0, 645.0, 645.0, 645.0, 645.0, 645.0, 645.0, 645.0, 646.0, 645.0, 645.0, 645.0, 645.0, 645.0, 645.0, 645.0, 646.0, 645.0, 645.0, 645.0, 646.0, 645.0, 646.0, 645.0, 645.0, 645.0, 645.0, 646.0, 645.0, 645.0, 645.0, 645.0, 645.0, 645.0, 645.0, 645.0, 645.0, 645.0, 646.0, 645.0, 645.0, 646.0]
    },
    "slices": {}
  }
}