{
  "AcquisitionMatrixPE": 80,
  "AcquisitionNumber": 1,
  "AcquisitionTime": "09:49:31.150000",
  "BandwidthPerPixelPhaseEncode": 46.296,
  "BaseResolution": 80,
  "BodyPartExamined": "BRAIN",
  "CoilCombinationMethod": "Sum of Squares",
  "ConsistencyInfo": "N4_VE11E_LATEST_20181129",
  "ConversionSoftware": "dcm2niix",
  "ConversionSoftwareVersion": "v1.0.20220720",
  "DerivedVendorReportedEchoSpacing": 0.000540003,
  "DeviceSerialNumber": "66112",
  "DwellTime": 2.7e-06,
  "EchoTime": 0.035,
  "EchoTrainLength": 39,
  "EffectiveEchoSpacing": 0.000270002,
  "FlipAngle": 90,
  "HeudiconvVersion": "0.13.1",
  "ImageOrientationPatientDICOM": [0.997518, 0.0703081, 0.00388252, -0.0681789, 0.950582, 0.302894],
  "ImageOrientationText": "Tra>Cor(17.6)>Sag(-1.0)",
  "ImageType": [
    "ORIGINAL",
    "PRIMARY",
    "M",
    "ND",
    "NORM",
    "MOSAIC"
],
  "ImagingFrequency": 123.252,
  "InPlanePhaseEncodingDirectionDICOM": "COL",
  "InstitutionAddress": "Maynard 3,Hanover,NH,US,03755",
  "InstitutionName": "Dartmouth College - PBS",
  "InstitutionalDepartmentName": "Department",
  "MRAcquisitionType": "2D",
  "MagneticFieldStrength": 3,
  "Manufacturer": "Siemens",
  "ManufacturersModelName": "Prisma",
  "Modality": "MR",
  "MultibandAccelerationFactor": 4,
  "NonlinearGradientCorrection": false,
  "ParallelReductionFactorInPlane": 2,
  "PartialFourier": 1,
  "PatientPosition": "HFS",
  "PercentPhaseFOV": 100,
  "PercentSampling": 100,
  "PhaseEncodingDirection": "j-",
  "PhaseEncodingSteps": 79,
  "PhaseResolution": 1,
  "PixelBandwidth": 2315,
  "ProcedureStepDescription": "dbic^QA",
  "ProtocolName": "func-bold_task-rest_acq-p2-s4-3.5mm",
  "PulseSequenceDetails": "%SiemensSeq%\\ep2d_bold",
  "ReceiveCoilActiveElements": "HEA;HEP",
  "ReceiveCoilName": "Head_32",
  "ReconMatrixPE": 80,
  "RefLinesPE": 24,
  "RepetitionTime": 2,
  "SAR": 0.0209226,
  "ScanOptions": "FS",
  "ScanningSequence": "EP",
  "SequenceName": "*epfid2d1_80",
  "SequenceVariant": "SK",
  "SeriesDescription": "func-bold_task-rest_acq-p2-s4-3.5mm",
  "SeriesNumber": 7,
  "ShimSetting": [4142, -7707, -7520, 262, -77, -97, -10, 63],
  "SliceThickness": 3.5,
  "SliceTiming": [1.485, 0, 0.99, 0.2475, 1.2375, 0.7425, 1.7325, 0.495, 1.485, 0, 0.99, 0.2475, 1.2375, 0.7425, 1.7325, 0.495, 1.485, 0, 0.99, 0.2475, 1.2375, 0.7425, 1.7325, 0.495, 1.485, 0, 0.99, 0.2475, 1.2375, 0.7425, 1.7325, 0.495],
  "SoftwareVersions": "syngo MR E11",
  "SpacingBetweenSlices": 3.99,
  "StationName": "AWP66112",
  "TaskName": "rest",
  "TotalReadoutTime": 0.0213301,
  "TxRefAmp": 231.168,
  "dcmmeta_affine": [
    [-2.992553234100342, -0.20453666150569916, -0.07024487853050232, 129.1657257080078],
    [-0.21092434227466583, 2.851747512817383, 1.2066023349761963, -117.89065551757812],
    [0.011647558771073818, -0.9086812138557434, 3.8025355339050293, -15.09116268157959],
    [0.0, 0.0, 0.0, 1.0]
],
  "dcmmeta_reorient_transform": [
    [0.0, -1.0, 0.0, 79.0],
    [1.0, 0.0, 0.0, 0.0],
    [0.0, 0.0, 1.0, 0.0],
    [0.0, 0.0, 0.0, 1.0]
],
  "dcmmeta_shape": [80, 80, 32, 200],
  "dcmmeta_slice_dim": 2,
  "dcmmeta_version": 0.6,
  "global": {
    "const": {
      "AccessionNumber": "qa",
      "AcquisitionMatrix": [80, 0, 0, 80],
      "AngioFlag": "N",
      "BitsAllocated": 16,
      "BitsStored": 12,
      "BodyPartExamined": "BRAIN",
      "Columns": 480,
      "EchoNumbers": 1,
      "EchoTime": 35.0,
      "EchoTrainLength": 39,
      "FlipAngle": 90.0,
      "HighBit": 11,
      "ImageOrientationPatient": [0.99751776687415, 0.07030811341647, 0.00388251957217, -0.0681788865857, 0.95058246615284, 0.30289373461122],
      "ImagePositionPatient": [-670.61065857974, -719.9317383394, -270.94273052669],
      "ImageType": [
        "ORIGINAL",
        "PRIMARY",
        "M",
        "ND",
        "NORM",
        "MOSAIC"
],
      "ImagedNucleus": "1H",
      "ImagingFrequency": 123.252349,
      "InPlanePhaseEncodingDirection": "COL",
      "MRAcquisitionType": "2D",
      "MagneticFieldStrength": 3.0,
      "Manufacturer": "SIEMENS",
      "ManufacturerModelName": "Prisma",
      "Modality": "MR",
      "NumberOfAverages": 1.0,
      "NumberOfPhaseEncodingSteps": 79,
      "PercentPhaseFieldOfView": 100.0,
      "PercentSampling": 100.0,
      "PerformedProcedureStepStartTime": "093150.059000",
      "PhotometricInterpretation": "MONOCHROME2",
      "PixelBandwidth": 2315.0,
      "PixelRepresentation": 0,
      "PixelSpacing": [3.0, 3.0],
      "ProtocolName": "func-bold_task-rest_acq-p2-s4-3.5mm",
      "RepetitionTime": 2000.0,
      "Rows": 480,
      "SAR": 0.02092263228011,
      "SamplesPerPixel": 1,
      "ScanOptions": "FS",
      "ScanningSequence": "EP",
      "SequenceName": "*epfid2d1_80",
      "SequenceVariant": "SK",
      "SeriesDescription": "func-bold_task-rest_acq-p2-s4-3.5mm",
      "SeriesNumber": 7,
      "SeriesTime": "095025.981000",
      "SliceLocation": -52.307029106107,
      "SliceThickness": 3.5,
      "SmallestImagePixelValue": 0,
      "SoftwareVersions": "syngo MR E11",
      "SpacingBetweenSlices": 3.9899999810244,
      "SpecificCharacterSet": "ISO_IR 100",
      "StudyID": "3",
      "StudyTime": "093150.009000",
      "TransmitCoilName": "Body",
      "VariableFlipAngleFlag": "N",
      "WindowCenterWidthExplanation": "Algo1"
    },
    "slices": {}
  },
  "time": {
    "samples": {
      "AcquisitionNumber": [1, 2, 3, 4, 5, 6, 7, 8, 9, 10, 11, 12, 13, 14, 15, 16, 17, 18, 19, 20, 21, 22, 23, 24, 25, 26, 27, 28, 29, 30, 31, 32, 33, 34, 35, 36, 37, 38, 39, 40, 41, 42, 43, 44, 45, 46, 47, 48, 49, 50, 51, 52, 53, 54, 55, 56, 57, 58, 59, 60, 61, 62, 63, 64, 65, 66, 67, 68, 69, 70, 71, 72, 73, 74, 75, 76, 77, 78, 79, 80, 81, 82, 83, 84, 85, 86, 87, 88, 89, 90, 91, 92, 93, 94, 95, 96, 97, 98, 99, 100, 101, 102, 103, 104, 105, 106, 107, 108, 109, 110, 111, 112, 113, 114, 115, 116, 117, 118, 119, 120, 121, 122, 123, 124, 125, 126, 127, 128, 129, 130, 131, 132, 133, 134, 135, 136, 137, 138, 139, 140, 141, 142, 143, 144, 145, 146, 147, 148, 149, 150, 151, 152, 153, 154, 155, 156, 157, 158, 159, 160, 161, 162, 163, 164, 165, 166, 167, 168, 169, 170, 171, 172, 173, 174, 175, 176, 177, 178, 179, 180, 181, 182, 183, 184, 185, 186, 187, 188, 189, 190, 191, 192, 193, 194, 195, 196, 197, 198, 199, 200],
      "AcquisitionTime": ["094931.150000", "094933.150000", "094935.150000", "094937.150000", "094939.150000", "094941.150000", "094943.150000", "094945.150000", "094947.150000", "094949.150000", "094951.150000", "094953.150000", "094955.150000", "094957.150000", "094959.150000", "095001.150000", "095003.150000", "095005.150000", "095007.150000", "095009.150000", "095011.150000", "095013.150000", "095015.150000", "095017.150000", "095019.150000", "095021.150000", "095023.150000", "095025.150000", "095027.150000", "095029.150000", "095031.150000", "095033.150000", "095035.150000", "095037.150000", "095039.150000", "095041.150000", "095043.150000", "095045.150000", "095047.150000", "095049.150000", "095051.150000", "095053.150000", "095055.150000", "095057.150000", "095059.150000", "095101.150000", "095103.150000", "095105.150000", "095107.150000", "095109.150000", "095111.150000", "095113.150000", "095115.150000", "095117.150000", "095119.150000", "095121.150000", "095123.150000", "095125.150000", "095127.150000", "095129.150000", "095131.150000", "095133.150000", "095135.150000", "095137.150000", "095139.150000", "095141.150000", "095143.150000", "095145.150000", "095147.150000", "095149.150000", "095151.150000", "095153.150000", "095155.150000", "095157.150000", "095159.150000", "095201.150000", "095203.150000", "095205.150000", "095207.150000", "095209.150000", "095211.150000", "095213.150000", "095215.150000", "095217.150000", "095219.150000", "095221.150000", "095223.150000", "095225.150000", "095227.150000", "095229.150000", "095231.150000", "095233.150000", "095235.150000", "095237.150000", "095239.150000", "095241.150000", "095243.150000", "095245.150000", "095247.150000", "095249.150000", "095251.150000", "095253.150000", "095255.150000", "095257.150000", "095259.150000", "095301.150000", "095303.150000", "095305.150000", "095307.150000", "095309.150000", "095311.150000", "095313.150000", "095315.150000", "095317.150000", "095319.150000", "095321.150000", "095323.150000", "095325.150000", "095327.150000", "095329.150000", "095331.150000", "095333.150000", "095335.150000", "095337.150000", "095339.150000", "095341.150000", "095343.150000", "095345.150000", "095347.150000", "095349.150000", "095351.150000", "095353.150000", "095355.150000", "095357.150000", "095359.150000", "095401.150000", "095403.150000", "095405.150000", "095407.150000", "095409.150000", "095411.150000", "095413.150000", "095415.150000", "095417.150000", "095419.150000", "095421.150000", "095423.150000", "095425.150000", "095427.150000", "095429.150000", "095431.150000", "095433.150000", "095435.150000", "095437.150000", "095439.150000", "095441.150000", "095443.150000", "095445.150000", "095447.150000", "095449.150000", "095451.150000", "095453.150000", "095455.150000", "095457.150000", "095459.150000", "095501.150000", "095503.150000", "095505.150000", "095507.150000", "095509.150000", "095511.150000", "095513.150000", "095515.150000", "095517.150000", "095519.150000", "095521.150000", "095523.150000", "095525.150000", "095527.150000", "095529.150000", "095531.150000", "095533.150000", "095535.150000", "095537.150000", "095539.150000", "095541.150000", "095543.150000", "095545.150000", "095547.150000", "095549.150000", "095551.150000", "095553.150000", "095555.150000", "095557.150000", "095559.150000", "095601.150000", "095603.150000", "095605.150000", "095607.150000", "095609.150000"],
      "ContentTime": ["095025.985000", "095025.988000", "095025.990000", "095025.992000", "095026.004000", "095026.006000", "095026.008000", "095026.018000", "095026.020000", "095026.022000", "095026.025000", "095026.027000", "095026.029000", "095026.032000", "095026.034000", "095026.036000", "095026.039000", "095026.041000", "095026.043000", "095026.045000", "095026.048000", "095026.050000", "095026.052000", "095026.055000", "095026.057000", "095026.059000", "095026.062000", "095105.981000", "095105.984000", "095105.986000", "095105.989000", "095105.991000", "095105.994000", "095105.996000", "095105.998000", "095106.005000", "095106.008000", "095106.010000", "095106.012000", "095106.015000", "095106.018000", "095106.020000", "095106.023000", "095106.025000", "095106.027000", "095106.030000", "095106.032000", "095145.980000", "095145.983000", "095145.985000", "095145.988000", "095145.990000", "095145.992000", "095145.995000", "095145.997000", "095146.001000", "095146.003000", "095146.006000", "095146.008000", "095146.010000", "095146.013000", "095146.016000", "095146.018000", "095146.021000", "095146.023000", "095146.026000", "095146.028000", "095225.980000", "095225.983000", "095225.985000", "095225.988000", "095225.990000", "095225.993000", "095225.995000", "095225.997000", "095226.001000", "095226.003000", "095226.006000", "095226.008000", "095226.010000", "095226.013000", "095226.017000", "095226.019000", "095226.022000", "095226.024000", "095226.027000", "095226.029000", "095305.980000", "095305.983000", "095305.985000", "095305.988000", "095305.990000", "095305.992000", "095305.995000", "095305.997000", "095305.999000", "095306.002000", "095306.004000", "095306.006000", "095306.009000", "095306.011000", "095306.015000", "095306.017000", "095306.020000", "095306.022000", "095306.024000", "095306.027000", "095345.980000", "095345.983000", "095345.985000", "095345.988000", "095345.990000", "095345.992000", "095345.995000", "095345.997000", "095346.001000", "095346.003000", "095346.005000", "095346.008000", "095346.010000", "095346.012000", "095346.019000", "095346.022000", "095346.024000", "095346.027000", "095346.029000", "095346.031000", "095425.980000", "095425.983000", "095425.985000", "095425.988000", "095425.990000", "095425.992000", "095425.995000", "095425.997000", "095425.999000", "095426.002000", "095426.004000", "095426.007000", "095426.009000", "095426.011000", "095426.015000", "095426.017000", "095426.020000", "095426.022000", "095426.024000", "095426.027000", "095505.980000", "095505.983000", "095505.985000", "095505.988000", "095505.990000", "095505.992000", "095505.995000", "095505.997000", "095506.000000", "095506.002000", "095506.004000", "095506.006000", "095506.009000", "095506.011000", "095506.015000", "095506.017000", "095506.020000", "095506.022000", "095506.025000", "095506.027000", "095545.981000", "095545.984000", "095545.986000", "095546.002000", "095546.004000", "095546.007000", "095546.009000", "095546.011000", "095546.015000", "095546.017000", "095546.020000", "095546.022000", "095546.025000", "095546.027000", "095546.029000", "095546.032000", "095546.034000", "095546.037000", "095546.039000", "095546.041000", "095610.161000", "095610.165000", "095610.168000", "095610.171000", "095610.174000", "095610.176000", "095610.179000", "095610.181000", "095610.184000", "095610.186000", "095610.188000", "095610.191000", "095610.193000"],
      "InstanceCreationTime": ["095025.985000", "095025.988000", "095025.990000", "095025.992000", "095026.004000", "095026.006000", "095026.008000", "095026.018000", "095026.020000", "095026.022000", "095026.025000", "095026.027000", "095026.029000", "095026.032000", "095026.034000", "095026.036000", "095026.039000", "095026.041000", "095026.043000", "095026.045000", "095026.048000", "095026.050000", "095026.052000", "095026.055000", "095026.057000", "095026.059000", "095026.062000", "095105.981000", "095105.984000", "095105.986000", "095105.989000", "095105.991000", "095105.994000", "095105.996000", "095105.998000", "095106.005000", "095106.008000", "095106.010000", "095106.012000", "095106.015000", "095106.018000", "095106.020000", "095106.023000", "095106.025000", "095106.027000", "095106.030000", "095106.032000", "095145.980000", "095145.983000", "095145.985000", "095145.988000", "095145.990000", "095145.992000", "095145.995000", "095145.997000", "095146.001000", "095146.003000", "095146.006000", "095146.008000", "095146.010000", "095146.013000", "095146.016000", "095146.018000", "095146.021000", "095146.023000", "095146.026000", "095146.028000", "095225.980000", "095225.983000", "095225.985000", "095225.988000", "095225.990000", "095225.993000", "095225.995000", "095225.997000", "095226.001000", "095226.003000", "095226.006000", "095226.008000", "095226.010000", "095226.013000", "095226.017000", "095226.019000", "095226.022000", "095226.024000", "095226.027000", "095226.029000", "095305.980000", "095305.983000", "095305.985000", "095305.988000", "095305.990000", "095305.992000", "095305.995000", "095305.997000", "095305.999000", "095306.002000", "095306.004000", "095306.006000", "095306.009000", "095306.011000", "095306.015000", "095306.017000", "095306.020000", "095306.022000", "095306.024000", "095306.027000", "095345.980000", "095345.983000", "095345.985000", "095345.988000", "095345.990000", "095345.992000", "095345.995000", "095345.997000", "095346.001000", "095346.003000", "095346.005000", "095346.008000", "095346.010000", "095346.012000", "095346.019000", "095346.022000", "095346.024000", "095346.027000", "095346.029000", "095346.031000", "095425.980000", "095425.983000", "095425.985000", "095425.988000", "095425.990000", "095425.992000", "095425.995000", "095425.997000", "095425.999000", "095426.002000", "095426.004000", "095426.007000", "095426.009000", "095426.011000", "095426.015000", "095426.017000", "095426.020000", "095426.022000", "095426.024000", "095426.027000", "095505.980000", "095505.983000", "095505.985000", "095505.988000", "095505.990000", "095505.992000", "095505.995000", "095505.997000", "095506.000000", "095506.002000", "095506.004000", "095506.006000", "095506.009000", "095506.011000", "095506.015000", "095506.017000", "095506.020000", "095506.022000", "095506.025000", "095506.027000", "095545.981000", "095545.984000", "095545.986000", "095546.002000", "095546.004000", "095546.007000", "095546.009000", "095546.011000", "095546.015000", "095546.017000", "095546.020000", "095546.022000", "095546.025000", "095546.027000", "095546.029000", "095546.032000", "095546.034000", "095546.037000", "095546.039000", "095546.041000", "095610.161000", "095610.165000", "095610.168000", "095610.171000", "095610.174000", "095610.176000", "095610.179000", "095610.181000", "095610.184000", "095610.186000", "095610.188000", "095610.191000", "095610.193000"],
      "InstanceNumber": [1, 2, 3, 4, 5, 6, 7, 8, 9, 10, 11, 12, 13, 14, 15, 16, 17, 18, 19, 20, 21, 22, 23, 24, 25, 26, 27, 28, 29, 30, 31, 32, 33, 34, 35, 36, 37, 38, 39, 40, 41, 42, 43, 44, 45, 46, 47, 48, 49, 50, 51, 52, 53, 54, 55, 56, 57, 58, 59, 60, 61, 62, 63, 64, 65, 66, 67, 68, 69, 70, 71, 72, 73, 74, 75, 76, 77, 78, 79, 80, 81, 82, 83, 84, 85, 86, 87, 88, 89, 90, 91, 92, 93, 94, 95, 96, 97, 98, 99, 100, 101, 102, 103, 104, 105, 106, 107, 108, 109, 110, 111, 112, 113, 114, 115, 116, 117, 118, 119, 120, 121, 122, 123, 124, 125, 126, 127, 128, 129, 130, 131, 132, 133, 134, 135, 136, 137, 138, 139, 140, 141, 142, 143, 144, 145, 146, 147, 148, 149, 150, 151, 152, 153, 154, 155, 156, 157, 158, 159, 160, 161, 162, 163, 164, 165, 166, 167, 168, 169, 170, 171, 172, 173, 174, 175, 176, 177, 178, 179, 180, 181, 182, 183, 184, 185, 186, 187, 188, 189, 190, 191, 192, 193, 194, 195, 196, 197, 198, 199, 200],
      "LargestImagePixelValue": [2144, 2144, 2142, 2147, 2142, 2144, 2149, 2145, 2151, 2146, 2146, 2144, 2149, 2147, 2140, 2143, 2138, 2140, 2143, 2138, 2147, 2139, 2141, 2139, 2140, 2141, 2140, 2143, 2141, 2146, 2144, 2145, 2147, 2145, 2141, 2141, 2145, 2142, 2142, 2142, 2139, 2139, 2145, 2145, 2143, 2139, 2138, 2139, 2139, 2145, 2143, 2141, 2139, 2140, 2143, 2143, 2143, 2139, 2138, 2143, 2134, 2132, 2137, 2144, 2141, 2138, 2136, 2134, 2139, 2136, 2134, 2138, 2133, 2137, 2137, 2137, 2137, 2130, 2133, 2133, 2136, 2133, 2135, 2140, 2136, 2137, 2142, 2142, 2140, 2137, 2141, 2141, 2140, 2142, 2142, 2141, 2144, 2147, 2143, 2139, 2139, 2145, 2138, 2139, 2136, 2138, 2136, 2138, 2136, 2133, 2132, 2139, 2137, 2141, 2142, 2138, 2137, 2140, 2141, 2137, 2137, 2135, 2143, 2131, 2133, 2137, 2142, 2136, 2141, 2140, 2136, 2138, 2132, 2135, 2136, 2140, 2138, 2142, 2140, 2139, 2139, 2149, 2147, 2148, 2145, 2147, 2141, 2140, 2140, 2139, 2136, 2141, 2142, 2141, 2141, 2147, 2144, 2135, 2142, 2144, 2142, 2146, 2138, 2141, 2144, 2142, 2144, 2143, 2143, 2143, 2140, 2140, 2142, 2141, 2141, 2145, 2140, 2139, 2139, 2139, 2136, 2140, 2137, 2137, 2136, 2135, 2135, 2138, 2141, 2138, 2136, 2139, 2137, 2132, 2136, 2141, 2139, 2136, 2138, 2138],
      "WindowCenter": [959.0, 960.0, 960.0, 959.0, 960.0, 959.0, 959.0, 959.0, 959.0, 960.0, 959.0, 961.0, 959.0, 960.0, 959.0, 960.0, 959.0, 959.0, 960.0, 960.0, 961.0, 959.0, 960.0, 960.0, 959.0, 960.0, 960.0, 959.0, 959.0, 960.0, 959.0, 959.0, 959.0, 959.0, 959.0, 959.0, 959.0, 959.0, 960.0, 961.0, 960.0, 959.0, 959.0, 959.0, 959.0, 961.0, 961.0, 962.0, 959.0, 959.0, 959.0, 959.0, 959.0, 959.0, 959.0, 960.0, 959.0, 959.0, 959.0, 959.0, 959.0, 959.0, 958.0, 960.0, 959.0, 959.0, 959.0, 959.0, 959.0, 960.0, 959.0, 959.0, 959.0, 959.0, 959.0, 959.0, 959.0, 961.0, 959.0, 960.0, 959.0, 960.0, 959.0, 959.0, 959.0, 959.0, 959.0, 959.0, 959.0, 960.0, 959.0, 960.0, 959.0, 960.0, 960.0, 959.0, 961.0, 961.0, 959.0, 959.0, 959.0, 960.0, 961.0, 960.0, 959.0, 959.0, 959.0, 959.0, 959.0, 959.0, 958.0, 960.0, 959.0, 959.0, 959.0, 959.0, 959.0, 959.0, 959.0, 961.0, 960.0, 959.0, 960.0, 959.0, 960.0, 960.0, 959.0, 959.0, 959.0, 960.0, 959.0, 959.0, 960.0, 960.0, 959.0, 959.0, 959.0, 959.0, 959.0, 960.0, 959.0, 959.0, 960.0, 961.0, 960.0, 959.0, 959.0, 959.0, 959.0, 959.0, 959.0, 959.0, 961.0, 959.0, 959.0, 959.0, 960.0, 959.0, 960.0, 959.0, 959.0, 959.0, 960.0, 961.0, 959.0, 959.0, 959.0, 959.0, 959.0, 959.0, 959.0, 959.0, 959.0, 959.0, 959.0, 959.0, 959.0, 959.0, 959.0, 959.0, 959.0, 959.0, 961.0, 959.0, 960.0, 959.0, 959.0, 959.0, 961.0, 959.0, 959.0, 959.0, 959.0, 959.0, 959.0, 959.0, 959.0, 959.0, 959.0, 959.0],
      "WindowWidth": [2237.0, 2239.0, 2237.0, 2238.0, 2239.0, 2238.0, 2237.0, 2237.0, 2238.0, 2237.0, 2237.0, 2239.0, 2237.0, 2237.0, 2238.0, 2239.0, 2237.0, 2237.0, 2239.0, 2237.0, 2239.0, 2238.0, 2239.0, 2238.0, 2238.0, 2238.0, 2237.0, 2237.0, 2237.0, 2238.0, 2238.0, 2237.0, 2238.0, 2238.0, 2238.0, 2238.0, 2238.0, 2238.0, 2239.0, 2239.0, 2237.0, 2238.0, 2238.0, 2237.0, 2237.0, 2239.0, 2239.0, 2240.0, 2238.0, 2238.0, 2237.0, 2237.0, 2237.0, 2237.0, 2238.0, 2238.0, 2238.0, 2237.0, 2237.0, 2238.0, 2238.0, 2237.0, 2237.0, 2238.0, 2237.0, 2238.0, 2238.0, 2237.0, 2238.0, 2238.0, 2238.0, 2237.0, 2238.0, 2238.0, 2237.0, 2237.0, 2238.0, 2239.0, 2237.0, 2238.0, 2237.0, 2238.0, 2238.0, 2238.0, 2237.0, 2237.0, 2238.0, 2237.0, 2237.0, 2238.0, 2238.0, 2238.0, 2237.0, 2239.0, 2238.0, 2238.0, 2239.0, 2239.0, 2238.0, 2238.0, 2238.0, 2238.0, 2239.0, 2239.0, 2237.0, 2237.0, 2238.0, 2238.0, 2237.0, 2237.0, 2237.0, 2238.0, 2237.0, 2238.0, 2238.0, 2237.0, 2238.0, 2238.0, 2237.0, 2239.0, 2239.0, 2238.0, 2238.0, 2238.0, 2238.0, 2238.0, 2238.0, 2238.0, 2237.0, 2238.0, 2238.0, 2237.0, 2238.0, 2238.0, 2237.0, 2237.0, 2237.0, 2238.0, 2238.0, 2238.0, 2238.0, 2238.0, 2238.0, 2239.0, 2239.0, 2237.0, 2237.0, 2238.0, 2237.0, 2237.0, 2238.0, 2238.0, 2239.0, 2237.0, 2238.0, 2237.0, 2238.0, 2238.0, 2239.0, 2237.0, 2237.0, 2238.0, 2238.0, 2239.0, 2238.0, 2237.0, 2237.0, 2238.0, 2237.0, 2237.0, 2237.0, 2238.0, 2238.0, 2237.0, 2238.0, 2238.0, 2237.0, 2238.0, 2238.0, 2238.0, 2237.0, 2238.0, 2239.0, 2237.0, 2238.0, 2238.0, 2237.0, 2238.0, 2239.0, 2237.0, 2237.0, 2237.0, 2237.0, 2237.0, 2238.0, 2238.0, 2237.0, 2237.0, 2238.0, 2238.0]
    },
    "slices": {}
  }
}