{
  "AcquisitionMatrixPE": 80,
  "AcquisitionNumber": 1,
  "AcquisitionTime": "09:42:39.732500",
  "BandwidthPerPixelPhaseEncode": 48.077,
  "BaseResolution": 80,
  "BodyPartExamined": "BRAIN",
  "CoilCombinationMethod": "Sum of Squares",
  "ConsistencyInfo": "N4_VE11E_LATEST_20181129",
  "ConversionSoftware": "dcm2niix",
  "ConversionSoftwareVersion": "v1.0.20220720",
  "DerivedVendorReportedEchoSpacing": 0.000519999,
  "DeviceSerialNumber": "66112",
  "DwellTime": 2.7e-06,
  "EchoTime": 0.035,
  "EchoTrainLength": 39,
  "EffectiveEchoSpacing": 0.00026,
  "FlipAngle": 90,
  "HeudiconvVersion": "0.13.1",
  "ImageOrientationPatientDICOM": [0.997518, 0.0703081, 0.00388252, -0.0681789, 0.950582, 0.302894],
  "ImageOrientationText": "Tra>Cor(17.6)>Sag(-1.0)",
  "ImageType": [
    "ORIGINAL",
    "PRIMARY",
    "M",
    "ND",
    "NORM",
    "MOSAIC"
],
  "ImagingFrequency": 123.252,
  "InPlanePhaseEncodingDirectionDICOM": "COL",
  "InstitutionAddress": "Maynard 3,Hanover,NH,US,03755",
  "InstitutionName": "Dartmouth College - PBS",
  "InstitutionalDepartmentName": "Department",
  "MRAcquisitionType": "2D",
  "MagneticFieldStrength": 3,
  "Manufacturer": "Siemens",
  "ManufacturersModelName": "Prisma",
  "MatrixCoilMode": "GRAPPA",
  "Modality": "MR",
  "NonlinearGradientCorrection": false,
  "ParallelReductionFactorInPlane": 2,
  "PartialFourier": 1,
  "PatientPosition": "HFS",
  "PercentPhaseFOV": 100,
  "PercentSampling": 100,
  "PhaseEncodingDirection": "j-",
  "PhaseEncodingSteps": 79,
  "PhaseResolution": 1,
  "PixelBandwidth": 2315,
  "ProcedureStepDescription": "dbic^QA",
  "ProtocolName": "func-bold_task-rest_acq-p2",
  "PulseSequenceDetails": "%SiemensSeq%\\ep2d_bold",
  "ReceiveCoilActiveElements": "HEA;HEP",
  "ReceiveCoilName": "Head_32",
  "ReconMatrixPE": 80,
  "RefLinesPE": 24,
  "RepetitionTime": 2,
  "SAR": 0.0556374,
  "ScanOptions": "FS",
  "ScanningSequence": "EP",
  "SequenceName": "*epfid2d1_80",
  "SequenceVariant": "SK",
  "SeriesDescription": "func-bold_task-rest_acq-p2",
  "SeriesNumber": 5,
  "ShimSetting": [4142, -7707, -7520, 263, -77, -96, -12, 63],
  "SliceThickness": 3.5,
  "SliceTiming": [0.9875, 0, 1.055, 0.065, 1.12, 0.13, 1.1875, 0.1975, 1.2525, 0.2625, 1.3175, 0.3275, 1.385, 0.395, 1.45, 0.46, 1.5175, 0.5275, 1.5825, 0.5925, 1.6475, 0.6575, 1.715, 0.725, 1.78, 0.79, 1.8475, 0.8575, 1.9125, 0.9225],
  "SoftwareVersions": "syngo MR E11",
  "SpacingBetweenSlices": 3.99,
  "StationName": "AWP66112",
  "TaskName": "rest",
  "TotalReadoutTime": 0.02054,
  "TxRefAmp": 231.168,
  "dcmmeta_affine": [
    [-2.992553234100342, -0.20453666150569916, -0.07024487853050232, 129.09547424316406],
    [-0.21092434227466583, 2.851747512817383, 1.2066023349761963, -116.68405151367188],
    [0.011647558771073818, -0.9086812138557434, 3.8025355339050293, -11.288630485534668],
    [0.0, 0.0, 0.0, 1.0]
],
  "dcmmeta_reorient_transform": [
    [0.0, -1.0, 0.0, 79.0],
    [1.0, 0.0, 0.0, 0.0],
    [0.0, 0.0, 1.0, 0.0],
    [0.0, 0.0, 0.0, 1.0]
],
  "dcmmeta_shape": [80, 80, 30, 200],
  "dcmmeta_slice_dim": 2,
  "dcmmeta_version": 0.6,
  "global": {
    "const": {
      "AccessionNumber": "qa",
      "AcquisitionMatrix": [80, 0, 0, 80],
      "AngioFlag": "N",
      "BitsAllocated": 16,
      "BitsStored": 12,
      "BodyPartExamined": "BRAIN",
      "Columns": 480,
      "EchoNumbers": 1,
      "EchoTime": 35.0,
      "EchoTrainLength": 39,
      "FlipAngle": 90.0,
      "HighBit": 11,
      "ImageOrientationPatient": [0.99751776687415, 0.07030811341647, 0.00388251957217, -0.0681788865857, 0.95058246615284, 0.30289373461122],
      "ImagePositionPatient": [-670.54041367141, -721.13834138963, -267.14019833065],
      "ImageType": [
        "ORIGINAL",
        "PRIMARY",
        "M",
        "ND",
        "NORM",
        "MOSAIC"
],
      "ImagedNucleus": "1H",
      "ImagingFrequency": 123.252349,
      "InPlanePhaseEncodingDirection": "COL",
      "MRAcquisitionType": "2D",
      "MagneticFieldStrength": 3.0,
      "Manufacturer": "SIEMENS",
      "ManufacturerModelName": "Prisma",
      "Modality": "MR",
      "NumberOfAverages": 1.0,
      "NumberOfPhaseEncodingSteps": 79,
      "PercentPhaseFieldOfView": 100.0,
      "PercentSampling": 100.0,
      "PerformedProcedureStepStartTime": "093150.059000",
      "PhotometricInterpretation": "MONOCHROME2",
      "PixelBandwidth": 2315.0,
      "PixelRepresentation": 0,
      "PixelSpacing": [3.0, 3.0],
      "ProtocolName": "func-bold_task-rest_acq-p2",
      "RepetitionTime": 2000.0,
      "Rows": 480,
      "SAR": 0.0556374104956,
      "SamplesPerPixel": 1,
      "ScanOptions": "FS",
      "ScanningSequence": "EP",
      "SequenceName": "*epfid2d1_80",
      "SequenceVariant": "SK",
      "SeriesDescription": "func-bold_task-rest_acq-p2",
      "SeriesNumber": 5,
      "SeriesTime": "094325.888000",
      "SliceLocation": -48.317032067269,
      "SliceThickness": 3.5,
      "SmallestImagePixelValue": 0,
      "SoftwareVersions": "syngo MR E11",
      "SpacingBetweenSlices": 3.9900000486643,
      "SpecificCharacterSet": "ISO_IR 100",
      "StudyID": "3",
      "StudyTime": "093150.009000",
      "TransmitCoilName": "Body",
      "VariableFlipAngleFlag": "N",
      "WindowCenterWidthExplanation": "Algo1"
    },
    "slices": {}
  },
  "time": {
    "samples": {
      "AcquisitionNumber": [1, 2, 3, 4, 5, 6, 7, 8, 9, 10, 11, 12, 13, 14, 15, 16, 17, 18, 19, 20, 21, 22, 23, 24, 25, 26, 27, 28, 29, 30, 31, 32, 33, 34, 35, 36, 37, 38, 39, 40, 41, 42, 43, 44, 45, 46, 47, 48, 49, 50, 51, 52, 53, 54, 55, 56, 57, 58, 59, 60, 61, 62, 63, 64, 65, 66, 67, 68, 69, 70, 71, 72, 73, 74, 75, 76, 77, 78, 79, 80, 81, 82, 83, 84, 85, 86, 87, 88, 89, 90, 91, 92, 93, 94, 95, 96, 97, 98, 99, 100, 101, 102, 103, 104, 105, 106, 107, 108, 109, 110, 111, 112, 113, 114, 115, 116, 117, 118, 119, 120, 121, 122, 123, 124, 125, 126, 127, 128, 129, 130, 131, 132, 133, 134, 135, 136, 137, 138, 139, 140, 141, 142, 143, 144, 145, 146, 147, 148, 149, 150, 151, 152, 153, 154, 155, 156, 157, 158, 159, 160, 161, 162, 163, 164, 165, 166, 167, 168, 169, 170, 171, 172, 173, 174, 175, 176, 177, 178, 179, 180, 181, 182, 183, 184, 185, 186, 187, 188, 189, 190, 191, 192, 193, 194, 195, 196, 197, 198, 199, 200],
      "AcquisitionTime": ["094239.732500", "094241.732500", "094243.732500", "094245.732500", "094247.732500", "094249.732500", "094251.732500", "094253.732500", "094255.732500", "094257.732500", "094259.732500", "094301.732500", "094303.732500", "094305.732500", "094307.732500", "094309.732500", "094311.732500", "094313.732500", "094315.732500", "094317.732500", "094319.732500", "094321.732500", "094323.732500", "094325.732500", "094327.732500", "094329.732500", "094331.732500", "094333.732500", "094335.732500", "094337.732500", "094339.732500", "094341.732500", "094343.732500", "094345.732500", "094347.732500", "094349.732500", "094351.732500", "094353.732500", "094355.732500", "094357.732500", "094359.732500", "094401.732500", "094403.732500", "094405.732500", "094407.732500", "094409.732500", "094411.732500", "094413.732500", "094415.732500", "094417.732500", "094419.732500", "094421.732500", "094423.732500", "094425.732500", "094427.732500", "094429.732500", "094431.732500", "094433.732500", "094435.732500", "094437.732500", "094439.732500", "094441.732500", "094443.732500", "094445.732500", "094447.732500", "094449.732500", "094451.732500", "094453.732500", "094455.732500", "094457.732500", "094459.732500", "094501.732500", "094503.732500", "094505.732500", "094507.732500", "094509.732500", "094511.732500", "094513.732500", "094515.732500", "094517.732500", "094519.732500", "094521.732500", "094523.732500", "094525.732500", "094527.732500", "094529.732500", "094531.732500", "094533.732500", "094535.732500", "094537.732500", "094539.732500", "094541.732500", "094543.732500", "094545.732500", "094547.732500", "094549.732500", "094551.732500", "094553.732500", "094555.732500", "094557.732500", "094559.732500", "094601.732500", "094603.732500", "094605.732500", "094607.732500", "094609.732500", "094611.732500", "094613.732500", "094615.732500", "094617.732500", "094619.732500", "094621.732500", "094623.732500", "094625.732500", "094627.732500", "094629.732500", "094631.732500", "094633.732500", "094635.732500", "094637.732500", "094639.732500", "094641.732500", "094643.732500", "094645.732500", "094647.732500", "094649.732500", "094651.732500", "094653.732500", "094655.732500", "094657.732500", "094659.732500", "094701.732500", "094703.732500", "094705.732500", "094707.732500", "094709.732500", "094711.732500", "094713.732500", "094715.732500", "094717.732500", "094719.732500", "094721.732500", "094723.732500", "094725.732500", "094727.732500", "094729.732500", "094731.732500", "094733.732500", "094735.732500", "094737.732500", "094739.732500", "094741.732500", "094743.732500", "094745.732500", "094747.732500", "094749.732500", "094751.732500", "094753.732500", "094755.732500", "094757.732500", "094759.732500", "094801.732500", "094803.732500", "094805.732500", "094807.732500", "094809.732500", "094811.732500", "094813.732500", "094815.732500", "094817.732500", "094819.732500", "094821.732500", "094823.732500", "094825.732500", "094827.732500", "094829.732500", "094831.732500", "094833.732500", "094835.732500", "094837.732500", "094839.732500", "094841.732500", "094843.732500", "094845.732500", "094847.732500", "094849.732500", "094851.732500", "094853.732500", "094855.732500", "094857.732500", "094859.732500", "094901.732500", "094903.732500", "094905.732500", "094907.732500", "094909.732500", "094911.732500", "094913.732500", "094915.732500", "094917.732500"],
      "ContentTime": ["094325.891000", "094325.895000", "094325.897000", "094325.899000", "094325.902000", "094325.904000", "094325.907000", "094325.909000", "094325.911000", "094325.914000", "094325.916000", "094325.918000", "094325.921000", "094325.923000", "094325.925000", "094325.928000", "094325.954000", "094325.956000", "094325.959000", "094325.977000", "094325.979000", "094325.982000", "094325.984000", "094405.887000", "094405.890000", "094405.892000", "094405.895000", "094405.897000", "094405.899000", "094405.902000", "094405.904000", "094405.906000", "094405.909000", "094405.911000", "094405.914000", "094405.916000", "094405.918000", "094405.921000", "094405.923000", "094405.925000", "094405.949000", "094405.951000", "094405.953000", "094445.886000", "094445.889000", "094445.891000", "094445.894000", "094445.896000", "094445.899000", "094445.901000", "094445.903000", "094445.905000", "094445.908000", "094445.910000", "094445.913000", "094445.915000", "094445.917000", "094445.920000", "094445.922000", "094445.924000", "094445.927000", "094445.929000", "094445.932000", "094525.886000", "094525.889000", "094525.891000", "094525.894000", "094525.896000", "094525.898000", "094525.901000", "094525.903000", "094525.905000", "094525.908000", "094525.910000", "094525.912000", "094525.914000", "094525.917000", "094525.919000", "094525.921000", "094525.924000", "094525.926000", "094525.928000", "094525.931000", "094605.886000", "094605.889000", "094605.892000", "094605.895000", "094605.897000", "094605.900000", "094605.902000", "094605.904000", "094605.907000", "094605.909000", "094605.912000", "094605.914000", "094605.916000", "094605.919000", "094605.921000", "094605.923000", "094605.926000", "094605.928000", "094605.930000", "094605.933000", "094645.887000", "094645.890000", "094645.892000", "094645.895000", "094645.897000", "094645.900000", "094645.902000", "094645.904000", "094645.907000", "094645.909000", "094645.911000", "094645.914000", "094645.916000", "094645.918000", "094645.921000", "094645.923000", "094645.926000", "094645.928000", "094645.930000", "094645.933000", "094725.886000", "094725.889000", "094725.892000", "094725.894000", "094725.896000", "094725.899000", "094725.901000", "094725.903000", "094725.906000", "094725.908000", "094725.911000", "094725.913000", "094725.915000", "094725.917000", "094725.920000", "094725.922000", "094725.924000", "094725.927000", "094725.929000", "094725.931000", "094805.886000", "094805.889000", "094805.891000", "094805.894000", "094805.896000", "094805.898000", "094805.901000", "094805.903000", "094805.905000", "094805.908000", "094805.910000", "094805.913000", "094805.915000", "094805.918000", "094805.920000", "094805.922000", "094805.925000", "094805.927000", "094805.930000", "094805.932000", "094845.887000", "094845.890000", "094845.893000", "094845.895000", "094845.897000", "094845.900000", "094845.902000", "094845.904000", "094845.907000", "094845.909000", "094845.912000", "094845.914000", "094845.916000", "094845.919000", "094845.921000", "094845.923000", "094845.926000", "094845.928000", "094845.930000", "094845.933000", "094919.328000", "094919.335000", "094919.338000", "094919.340000", "094919.348000", "094919.351000", "094919.354000", "094919.356000", "094919.358000", "094919.361000", "094919.364000", "094919.366000", "094919.369000", "094919.373000", "094919.376000", "094919.378000", "094919.381000"],
      "InstanceCreationTime": ["094325.891000", "094325.895000", "094325.897000", "094325.899000", "094325.902000", "094325.904000", "094325.907000", "094325.909000", "094325.911000", "094325.914000", "094325.916000", "094325.918000", "094325.921000", "094325.923000", "094325.925000", "094325.928000", "094325.954000", "094325.956000", "094325.959000", "094325.977000", "094325.979000", "094325.982000", "094325.984000", "094405.887000", "094405.890000", "094405.892000", "094405.895000", "094405.897000", "094405.899000", "094405.902000", "094405.904000", "094405.906000", "094405.909000", "094405.911000", "094405.914000", "094405.916000", "094405.918000", "094405.921000", "094405.923000", "094405.925000", "094405.949000", "094405.951000", "094405.953000", "094445.886000", "094445.889000", "094445.891000", "094445.894000", "094445.896000", "094445.899000", "094445.901000", "094445.903000", "094445.905000", "094445.908000", "094445.910000", "094445.913000", "094445.915000", "094445.917000", "094445.920000", "094445.922000", "094445.924000", "094445.927000", "094445.929000", "094445.932000", "094525.886000", "094525.889000", "094525.891000", "094525.894000", "094525.896000", "094525.898000", "094525.901000", "094525.903000", "094525.905000", "094525.908000", "094525.910000", "094525.912000", "094525.914000", "094525.917000", "094525.919000", "094525.921000", "094525.924000", "094525.926000", "094525.928000", "094525.931000", "094605.886000", "094605.889000", "094605.892000", "094605.895000", "094605.897000", "094605.900000", "094605.902000", "094605.904000", "094605.907000", "094605.909000", "094605.912000", "094605.914000", "094605.916000", "094605.919000", "094605.921000", "094605.923000", "094605.926000", "094605.928000", "094605.930000", "094605.933000", "094645.887000", "094645.890000", "094645.892000", "094645.895000", "094645.897000", "094645.900000", "094645.902000", "094645.904000", "094645.907000", "094645.909000", "094645.911000", "094645.914000", "094645.916000", "094645.918000", "094645.921000", "094645.923000", "094645.926000", "094645.928000", "094645.930000", "094645.933000", "094725.886000", "094725.889000", "094725.892000", "094725.894000", "094725.896000", "094725.899000", "094725.901000", "094725.903000", "094725.906000", "094725.908000", "094725.911000", "094725.913000", "094725.915000", "094725.917000", "094725.920000", "094725.922000", "094725.924000", "094725.927000", "094725.929000", "094725.931000", "094805.886000", "094805.889000", "094805.891000", "094805.894000", "094805.896000", "094805.898000", "094805.901000", "094805.903000", "094805.905000", "094805.908000", "094805.910000", "094805.913000", "094805.915000", "094805.918000", "094805.920000", "094805.922000", "094805.925000", "094805.927000", "094805.930000", "094805.932000", "094845.887000", "094845.890000", "094845.893000", "094845.895000", "094845.897000", "094845.900000", "094845.902000", "094845.904000", "094845.907000", "094845.909000", "094845.912000", "094845.914000", "094845.916000", "094845.919000", "094845.921000", "094845.923000", "094845.926000", "094845.928000", "094845.930000", "094845.933000", "094919.328000", "094919.335000", "094919.338000", "094919.340000", "094919.348000", "094919.351000", "094919.354000", "094919.356000", "094919.358000", "094919.361000", "094919.364000", "094919.366000", "094919.369000", "094919.373000", "094919.376000", "094919.378000", "094919.381000"],
      "InstanceNumber": [1, 2, 3, 4, 5, 6, 7, 8, 9, 10, 11, 12, 13, 14, 15, 16, 17, 18, 19, 20, 21, 22, 23, 24, 25, 26, 27, 28, 29, 30, 31, 32, 33, 34, 35, 36, 37, 38, 39, 40, 41, 42, 43, 44, 45, 46, 47, 48, 49, 50, 51, 52, 53, 54, 55, 56, 57, 58, 59, 60, 61, 62, 63, 64, 65, 66, 67, 68, 69, 70, 71, 72, 73, 74, 75, 76, 77, 78, 79, 80, 81, 82, 83, 84, 85, 86, 87, 88, 89, 90, 91, 92, 93, 94, 95, 96, 97, 98, 99, 100, 101, 102, 103, 104, 105, 106, 107, 108, 109, 110, 111, 112, 113, 114, 115, 116, 117, 118, 119, 120, 121, 122, 123, 124, 125, 126, 127, 128, 129, 130, 131, 132, 133, 134, 135, 136, 137, 138, 139, 140, 141, 142, 143, 144, 145, 146, 147, 148, 149, 150, 151, 152, 153, 154, 155, 156, 157, 158, 159, 160, 161, 162, 163, 164, 165, 166, 167, 168, 169, 170, 171, 172, 173, 174, 175, 176, 177, 178, 179, 180, 181, 182, 183, 184, 185, 186, 187, 188, 189, 190, 191, 192, 193, 194, 195, 196, 197, 198, 199, 200],
      "LargestImagePixelValue": [2114, 2100, 2107, 2103, 2102, 2108, 2109, 2110, 2105, 2100, 2100, 2104, 2115, 2111, 2108, 2107, 2104, 2107, 2100, 2103, 2106, 2099, 2100, 2099, 2103, 2109, 2101, 2099, 2103, 2100, 2096, 2101, 2103, 2103, 2102, 2102, 2100, 2096, 2102, 2099, 2102, 2102, 2103, 2114, 2103, 2102, 2106, 2107, 2114, 2105, 2107, 2106, 2104, 2104, 2106, 2105, 2102, 2117, 2102, 2107, 2100, 2104, 2098, 2100, 2100, 2103, 2099, 2100, 2103, 2110, 2106, 2110, 2100, 2106, 2104, 2101, 2109, 2113, 2103, 2114, 2112, 2113, 2107, 2106, 2103, 2104, 2110, 2113, 2104, 2118, 2101, 2112, 2108, 2112, 2111, 2109, 2110, 2116, 2109, 2113, 2111, 2106, 2112, 2111, 2110, 2110, 2117, 2122, 2120, 2122, 2124, 2113, 2115, 2113, 2111, 2116, 2109, 2113, 2101, 2112, 2101, 2106, 2110, 2105, 2105, 2108, 2108, 2110, 2112, 2112, 2118, 2110, 2100, 2112, 2114, 2103, 2104, 2101, 2106, 2114, 2111, 2105, 2117, 2109, 2120, 2114, 2115, 2117, 2115, 2119, 2108, 2110, 2098, 2106, 2097, 2096, 2097, 2103, 2098, 2108, 2117, 2116, 2112, 2112, 2116, 2120, 2117, 2117, 2108, 2112, 2110, 2115, 2113, 2109, 2107, 2112, 2115, 2123, 2114, 2117, 2112, 2106, 2108, 2115, 2115, 2117, 2109, 2114, 2122, 2108, 2110, 2117, 2107, 2108, 2113, 2110, 2108, 2113, 2111, 2109],
      "WindowCenter": [1023.0, 1022.0, 1023.0, 1023.0, 1022.0, 1023.0, 1022.0, 1022.0, 1022.0, 1023.0, 1023.0, 1022.0, 1022.0, 1022.0, 1022.0, 1023.0, 1023.0, 1022.0, 1023.0, 1022.0, 1022.0, 1022.0, 1022.0, 1022.0, 1022.0, 1022.0, 1022.0, 1022.0, 1022.0, 1022.0, 1022.0, 1023.0, 1022.0, 1022.0, 1022.0, 1022.0, 1023.0, 1022.0, 1022.0, 1022.0, 1022.0, 1022.0, 1022.0, 1022.0, 1022.0, 1023.0, 1022.0, 1022.0, 1022.0, 1022.0, 1022.0, 1022.0, 1022.0, 1022.0, 1022.0, 1023.0, 1022.0, 1022.0, 1022.0, 1022.0, 1022.0, 1022.0, 1023.0, 1022.0, 1022.0, 1022.0, 1022.0, 1022.0, 1022.0, 1022.0, 1022.0, 1022.0, 1022.0, 1022.0, 1022.0, 1022.0, 1022.0, 1022.0, 1022.0, 1022.0, 1022.0, 1022.0, 1022.0, 1022.0, 1022.0, 1022.0, 1022.0, 1022.0, 1022.0, 1022.0, 1022.0, 1022.0, 1022.0, 1022.0, 1022.0, 1022.0, 1022.0, 1022.0, 1022.0, 1022.0, 1022.0, 1022.0, 1022.0, 1022.0, 1022.0, 1022.0, 1022.0, 1022.0, 1022.0, 1022.0, 1022.0, 1022.0, 1022.0, 1022.0, 1022.0, 1022.0, 1022.0, 1022.0, 1022.0, 1023.0, 1022.0, 1022.0, 1022.0, 1022.0, 1022.0, 1022.0, 1022.0, 1022.0, 1022.0, 1022.0, 1022.0, 1022.0, 1022.0, 1022.0, 1022.0, 1022.0, 1022.0, 1022.0, 1022.0, 1022.0, 1022.0, 1022.0, 1022.0, 1022.0, 1022.0, 1022.0, 1022.0, 1022.0, 1022.0, 1022.0, 1022.0, 1022.0, 1022.0, 1022.0, 1022.0, 1022.0, 1022.0, 1022.0, 1022.0, 1022.0, 1022.0, 1022.0, 1022.0, 1022.0, 1022.0, 1022.0, 1022.0, 1022.0, 1022.0, 1022.0, 1022.0, 1022.0, 1022.0, 1022.0, 1022.0, 1022.0, 1022.0, 1022.0, 1022.0, 1022.0, 1022.0, 1022.0, 1022.0, 1022.0, 1022.0, 1022.0, 1022.0, 1022.0, 1022.0, 1022.0, 1023.0, 1023.0, 1022.0, 1022.0, 1022.0, 1022.0, 1022.0, 1022.0, 1022.0, 1022.0],
      "WindowWidth": [2262.0, 2262.0, 2262.0, 2262.0, 2262.0, 2262.0, 2262.0, 2262.0, 2262.0, 2262.0, 2261.0, 2262.0, 2262.0, 2261.0, 2262.0, 2262.0, 2262.0, 2262.0, 2262.0, 2262.0, 2261.0, 2262.0, 2261.0, 2262.0, 2261.0, 2262.0, 2262.0, 2262.0, 2262.0, 2262.0, 2262.0, 2262.0, 2262.0, 2262.0, 2261.0, 2261.0, 2262.0, 2262.0, 2261.0, 2261.0, 2261.0, 2262.0, 2261.0, 2261.0, 2261.0, 2262.0, 2261.0, 2261.0, 2261.0, 2261.0, 2261.0, 2261.0, 2261.0, 2261.0, 2261.0, 2262.0, 2261.0, 2262.0, 2261.0, 2261.0, 2261.0, 2261.0, 2262.0, 2261.0, 2261.0, 2261.0, 2261.0, 2261.0, 2261.0, 2261.0, 2261.0, 2261.0, 2261.0, 2261.0, 2261.0, 2261.0, 2261.0, 2261.0, 2261.0, 2261.0, 2261.0, 2261.0, 2261.0, 2261.0, 2261.0, 2261.0, 2261.0, 2261.0, 2261.0, 2261.0, 2261.0, 2261.0, 2261.0, 2261.0, 2261.0, 2261.0, 2261.0, 2261.0, 2261.0, 2261.0, 2261.0, 2261.0, 2261.0, 2261.0, 2261.0, 2261.0, 2261.0, 2261.0, 2261.0, 2261.0, 2261.0, 2261.0, 2261.0, 2261.0, 2261.0, 2261.0, 2261.0, 2261.0, 2261.0, 2262.0, 2261.0, 2261.0, 2261.0, 2261.0, 2261.0, 2261.0, 2261.0, 2261.0, 2261.0, 2261.0, 2261.0, 2261.0, 2261.0, 2261.0, 2261.0, 2261.0, 2261.0, 2261.0, 2261.0, 2261.0, 2261.0, 2261.0, 2261.0, 2261.0, 2261.0, 2261.0, 2261.0, 2261.0, 2261.0, 2261.0, 2261.0, 2261.0, 2261.0, 2261.0, 2261.0, 2261.0, 2261.0, 2261.0, 2261.0, 2261.0, 2261.0, 2261.0, 2261.0, 2261.0, 2261.0, 2261.0, 2261.0, 2261.0, 2261.0, 2261.0, 2261.0, 2261.0, 2261.0, 2261.0, 2261.0, 2261.0, 2261.0, 2261.0, 2261.0, 2261.0, 2261.0, 2261.0, 2261.0, 2261.0, 2261.0, 2261.0, 2261.0, 2261.0, 2261.0, 2261.0, 2262.0, 2261.0, 2261.0, 2261.0, 2261.0, 2261.0, 2261.0, 2261.0, 2261.0, 2261.0]
    },
    "slices": {}
  }
}