{
  "AcquisitionMatrixPE": 80,
  "AcquisitionNumber": 1,
  "AcquisitionTime": "09:56:17.452500",
  "BandwidthPerPixelPhaseEncode": 25,
  "BaseResolution": 80,
  "BodyPartExamined": "BRAIN",
  "CoilCombinationMethod": "Sum of Squares",
  "ConsistencyInfo": "N4_VE11E_LATEST_20181129",
  "ConversionSoftware": "dcm2niix",
  "ConversionSoftwareVersion": "v1.0.20220720",
  "DerivedVendorReportedEchoSpacing": 0.0005,
  "DeviceSerialNumber": "66112",
  "DwellTime": 2.7e-06,
  "EchoTime": 0.03,
  "EchoTrainLength": 80,
  "EffectiveEchoSpacing": 0.0005,
  "FlipAngle": 77,
  "HeudiconvVersion": "0.13.1",
  "ImageOrientationPatientDICOM": [0.997518, 0.0703081, 0.00388252, -0.0681789, 0.950582, 0.302894],
  "ImageOrientationText": "Tra>Cor(17.6)>Sag(-1.0)",
  "ImageType": [
    "ORIGINAL",
    "PRIMARY",
    "M",
    "ND",
    "NORM",
    "MOSAIC"
],
  "ImagingFrequency": 123.252,
  "InPlanePhaseEncodingDirectionDICOM": "COL",
  "InstitutionAddress": "Maynard 3,Hanover,NH,US,03755",
  "InstitutionName": "Dartmouth College - PBS",
  "InstitutionalDepartmentName": "Department",
  "MRAcquisitionType": "2D",
  "MagneticFieldStrength": 3,
  "Manufacturer": "Siemens",
  "ManufacturersModelName": "Prisma",
  "MatrixCoilMode": "SENSE",
  "Modality": "MR",
  "NonlinearGradientCorrection": false,
  "PartialFourier": 1,
  "PatientPosition": "HFS",
  "PercentPhaseFOV": 100,
  "PercentSampling": 100,
  "PhaseEncodingDirection": "j-",
  "PhaseEncodingSteps": 80,
  "PhaseResolution": 1,
  "PixelBandwidth": 2315,
  "ProcedureStepDescription": "dbic^QA",
  "ProtocolName": "func-bold_fa-77",
  "PulseSequenceDetails": "%SiemensSeq%\\ep2d_bold",
  "ReceiveCoilActiveElements": "HEA;HEP",
  "ReceiveCoilName": "Head_32",
  "ReconMatrixPE": 80,
  "RepetitionTime": 2,
  "SAR": 0.0437227,
  "ScanOptions": "FS",
  "ScanningSequence": "EP",
  "SequenceName": "*epfid2d1_80",
  "SequenceVariant": "SK",
  "SeriesDescription": "func-bold_fa-77",
  "SeriesNumber": 8,
  "ShimSetting": [4142, -7707, -7520, 262, -77, -94, -9, 62],
  "SliceThickness": 3.5,
  "SliceTiming": [0.99, 0, 1.055, 0.065, 1.12, 0.1325, 1.1875, 0.1975, 1.2525, 0.2625, 1.32, 0.33, 1.385, 0.395, 1.45, 0.4625, 1.5175, 0.5275, 1.5825, 0.5925, 1.65, 0.66, 1.715, 0.725, 1.78, 0.79, 1.8475, 0.8575, 1.9125, 0.9225],
  "SoftwareVersions": "syngo MR E11",
  "SpacingBetweenSlices": 3.99,
  "StationName": "AWP66112",
  "TotalReadoutTime": 0.0395,
  "TxRefAmp": 231.168,
  "dcmmeta_affine": [
    [-2.992553234100342, -0.20453666150569916, -0.07024487107992172, 128.87574768066406],
    [-0.21092434227466583, 2.851747512817383, 1.2066022157669067, -113.47703552246094],
    [0.011647558771073818, -0.9086812138557434, 3.8025355339050293, -9.618643760681152],
    [0.0, 0.0, 0.0, 1.0]
],
  "dcmmeta_reorient_transform": [
    [0.0, -1.0, 0.0, 79.0],
    [1.0, 0.0, 0.0, 0.0],
    [0.0, 0.0, 1.0, 0.0],
    [0.0, 0.0, 0.0, 1.0]
],
  "dcmmeta_shape": [80, 80, 30, 200],
  "dcmmeta_slice_dim": 2,
  "dcmmeta_version": 0.6,
  "global": {
    "const": {
      "AccessionNumber": "qa",
      "AcquisitionMatrix": [80, 0, 0, 80],
      "AngioFlag": "N",
      "BitsAllocated": 16,
      "BitsStored": 12,
      "BodyPartExamined": "BRAIN",
      "Columns": 480,
      "EchoNumbers": 1,
      "EchoTime": 30.0,
      "EchoTrainLength": 80,
      "FlipAngle": 77.0,
      "HighBit": 11,
      "ImageOrientationPatient": [0.99751776687415, 0.07030811341647, 0.00388251957217, -0.0681788865857, 0.95058246615284, 0.30289373461122],
      "ImagePositionPatient": [-670.32068603603, -724.34535356615, -265.47021160579],
      "ImageType": [
        "ORIGINAL",
        "PRIMARY",
        "M",
        "ND",
        "NORM",
        "MOSAIC"
],
      "ImagedNucleus": "1H",
      "ImagingFrequency": 123.252349,
      "InPlanePhaseEncodingDirection": "COL",
      "MRAcquisitionType": "2D",
      "MagneticFieldStrength": 3.0,
      "Manufacturer": "SIEMENS",
      "ManufacturerModelName": "Prisma",
      "Modality": "MR",
      "NumberOfAverages": 1.0,
      "NumberOfPhaseEncodingSteps": 80,
      "PercentPhaseFieldOfView": 100.0,
      "PercentSampling": 100.0,
      "PerformedProcedureStepStartTime": "093150.059000",
      "PhotometricInterpretation": "MONOCHROME2",
      "PixelBandwidth": 2315.0,
      "PixelRepresentation": 0,
      "PixelSpacing": [3.0, 3.0],
      "ProtocolName": "func-bold_fa-77",
      "RepetitionTime": 2000.0,
      "Rows": 480,
      "SAR": 0.04372265006492,
      "SamplesPerPixel": 1,
      "ScanOptions": "FS",
      "ScanningSequence": "EP",
      "SequenceName": "*epfid2d1_80",
      "SequenceVariant": "SK",
      "SeriesDescription": "func-bold_fa-77",
      "SeriesNumber": 8,
      "SeriesTime": "095705.802000",
      "SliceLocation": -45.751817319619,
      "SliceThickness": 3.5,
      "SmallestImagePixelValue": 0,
      "SoftwareVersions": "syngo MR E11",
      "SpacingBetweenSlices": 3.9899999431927,
      "SpecificCharacterSet": "ISO_IR 100",
      "StudyID": "3",
      "StudyTime": "093150.009000",
      "TransmitCoilName": "Body",
      "VariableFlipAngleFlag": "N",
      "WindowCenterWidthExplanation": "Algo1"
    },
    "slices": {}
  },
  "time": {
    "samples": {
      "AcquisitionNumber": [1, 2, 3, 4, 5, 6, 7, 8, 9, 10, 11, 12, 13, 14, 15, 16, 17, 18, 19, 20, 21, 22, 23, 24, 25, 26, 27, 28, 29, 30, 31, 32, 33, 34, 35, 36, 37, 38, 39, 40, 41, 42, 43, 44, 45, 46, 47, 48, 49, 50, 51, 52, 53, 54, 55, 56, 57, 58, 59, 60, 61, 62, 63, 64, 65, 66, 67, 68, 69, 70, 71, 72, 73, 74, 75, 76, 77, 78, 79, 80, 81, 82, 83, 84, 85, 86, 87, 88, 89, 90, 91, 92, 93, 94, 95, 96, 97, 98, 99, 100, 101, 102, 103, 104, 105, 106, 107, 108, 109, 110, 111, 112, 113, 114, 115, 116, 117, 118, 119, 120, 121, 122, 123, 124, 125, 126, 127, 128, 129, 130, 131, 132, 133, 134, 135, 136, 137, 138, 139, 140, 141, 142, 143, 144, 145, 146, 147, 148, 149, 150, 151, 152, 153, 154, 155, 156, 157, 158, 159, 160, 161, 162, 163, 164, 165, 166, 167, 168, 169, 170, 171, 172, 173, 174, 175, 176, 177, 178, 179, 180, 181, 182, 183, 184, 185, 186, 187, 188, 189, 190, 191, 192, 193, 194, 195, 196, 197, 198, 199, 200],
      "AcquisitionTime": ["095617.452500", "095619.452500", "095621.452500", "095623.452500", "095625.452500", "095627.452500", "095629.452500", "095631.452500", "095633.452500", "095635.452500", "095637.452500", "095639.452500", "095641.452500", "095643.452500", "095645.452500", "095647.452500", "095649.452500", "095651.452500", "095653.452500", "095655.452500", "095657.452500", "095659.452500", "095701.452500", "095703.452500", "095705.452500", "095707.452500", "095709.452500", "095711.452500", "095713.452500", "095715.452500", "095717.452500", "095719.452500", "095721.452500", "095723.452500", "095725.452500", "095727.452500", "095729.452500", "095731.452500", "095733.452500", "095735.452500", "095737.452500", "095739.452500", "095741.452500", "095743.452500", "095745.452500", "095747.452500", "095749.452500", "095751.452500", "095753.452500", "095755.452500", "095757.452500", "095759.452500", "095801.452500", "095803.452500", "095805.452500", "095807.452500", "095809.452500", "095811.452500", "095813.452500", "095815.452500", "095817.452500", "095819.452500", "095821.452500", "095823.452500", "095825.452500", "095827.452500", "095829.452500", "095831.452500", "095833.452500", "095835.452500", "095837.452500", "095839.452500", "095841.452500", "095843.452500", "095845.452500", "095847.452500", "095849.452500", "095851.452500", "095853.452500", "095855.452500", "095857.452500", "095859.452500", "095901.452500", "095903.452500", "095905.452500", "095907.452500", "095909.452500", "095911.452500", "095913.452500", "095915.452500", "095917.452500", "095919.452500", "095921.452500", "095923.452500", "095925.452500", "095927.452500", "095929.452500", "095931.452500", "095933.452500", "095935.452500", "095937.452500", "095939.452500", "095941.452500", "095943.452500", "095945.452500", "095947.452500", "095949.452500", "095951.452500", "095953.452500", "095955.452500", "095957.452500", "095959.452500", "100001.452500", "100003.452500", "100005.452500", "100007.452500", "100009.452500", "100011.452500", "100013.452500", "100015.452500", "100017.452500", "100019.452500", "100021.452500", "100023.452500", "100025.452500", "100027.452500", "100029.452500", "100031.452500", "100033.452500", "100035.452500", "100037.452500", "100039.452500", "100041.452500", "100043.452500", "100045.452500", "100047.452500", "100049.452500", "100051.452500", "100053.452500", "100055.452500", "100057.452500", "100059.452500", "100101.452500", "100103.452500", "100105.452500", "100107.452500", "100109.452500", "100111.452500", "100113.452500", "100115.452500", "100117.452500", "100119.452500", "100121.452500", "100123.452500", "100125.452500", "100127.452500", "100129.452500", "100131.452500", "100133.452500", "100135.452500", "100137.452500", "100139.452500", "100141.452500", "100143.452500", "100145.452500", "100147.452500", "100149.452500", "100151.452500", "100153.452500", "100155.452500", "100157.452500", "100159.452500", "100201.452500", "100203.452500", "100205.452500", "100207.452500", "100209.452500", "100211.452500", "100213.452500", "100215.452500", "100217.452500", "100219.452500", "100221.452500", "100223.452500", "100225.452500", "100227.452500", "100229.452500", "100231.452500", "100233.452500", "100235.452500", "100237.452500", "100239.452500", "100241.452500", "100243.452500", "100245.452500", "100247.452500", "100249.452500", "100251.452500", "100253.452500", "100255.452500"],
      "ContentTime": ["095705.805000", "095705.852000", "095705.854000", "095705.856000", "095705.859000", "095705.869000", "095705.871000", "095705.874000", "095705.876000", "095705.878000", "095705.881000", "095705.883000", "095705.886000", "095705.888000", "095705.890000", "095705.892000", "095705.895000", "095705.897000", "095705.900000", "095705.902000", "095705.904000", "095705.907000", "095705.909000", "095705.911000", "095745.800000", "095745.873000", "095745.875000", "095745.877000", "095745.880000", "095745.882000", "095745.885000", "095745.887000", "095745.889000", "095745.891000", "095745.894000", "095745.896000", "095745.898000", "095745.901000", "095745.903000", "095745.906000", "095745.908000", "095745.910000", "095745.913000", "095745.915000", "095825.800000", "095825.803000", "095825.805000", "095825.808000", "095825.810000", "095825.812000", "095825.815000", "095825.817000", "095825.819000", "095825.822000", "095825.824000", "095825.826000", "095825.829000", "095825.831000", "095825.833000", "095825.856000", "095825.859000", "095825.861000", "095825.863000", "095825.866000", "095905.800000", "095905.803000", "095905.805000", "095905.807000", "095905.810000", "095905.812000", "095905.814000", "095905.817000", "095905.819000", "095905.821000", "095905.823000", "095905.826000", "095905.828000", "095905.830000", "095905.833000", "095905.835000", "095905.837000", "095905.840000", "095905.842000", "095905.844000", "095945.800000", "095945.803000", "095945.805000", "095945.808000", "095945.810000", "095945.812000", "095945.815000", "095945.817000", "095945.819000", "095945.821000", "095945.824000", "095945.826000", "095945.828000", "095945.831000", "095945.833000", "095945.835000", "095945.838000", "095945.840000", "095945.842000", "095945.844000", "100025.801000", "100025.933000", "100025.935000", "100025.938000", "100025.940000", "100025.942000", "100025.945000", "100025.947000", "100025.949000", "100025.952000", "100025.954000", "100025.956000", "100025.958000", "100025.961000", "100025.963000", "100025.965000", "100025.968000", "100025.970000", "100025.972000", "100025.975000", "100105.800000", "100105.803000", "100105.805000", "100105.808000", "100105.810000", "100105.812000", "100105.815000", "100105.817000", "100105.819000", "100105.822000", "100105.824000", "100105.826000", "100105.829000", "100105.831000", "100105.833000", "100105.836000", "100105.838000", "100105.840000", "100105.843000", "100105.845000", "100145.800000", "100145.803000", "100145.806000", "100145.808000", "100145.810000", "100145.812000", "100145.815000", "100145.817000", "100145.820000", "100145.822000", "100145.824000", "100145.827000", "100145.829000", "100145.831000", "100145.834000", "100145.836000", "100145.839000", "100145.841000", "100145.843000", "100145.846000", "100225.800000", "100225.803000", "100225.805000", "100225.808000", "100225.810000", "100225.812000", "100225.815000", "100225.817000", "100225.820000", "100225.822000", "100225.824000", "100225.827000", "100225.829000", "100225.831000", "100225.834000", "100225.836000", "100225.838000", "100225.840000", "100225.843000", "100225.845000", "100257.120000", "100257.122000", "100257.125000", "100257.127000", "100257.130000", "100257.132000", "100257.134000", "100257.137000", "100257.139000", "100257.141000", "100257.144000", "100257.146000", "100257.148000", "100257.151000", "100257.160000", "100257.163000"],
      "InstanceCreationTime": ["095705.805000", "095705.852000", "095705.854000", "095705.856000", "095705.859000", "095705.869000", "095705.871000", "095705.874000", "095705.876000", "095705.878000", "095705.881000", "095705.883000", "095705.886000", "095705.888000", "095705.890000", "095705.892000", "095705.895000", "095705.897000", "095705.900000", "095705.902000", "095705.904000", "095705.907000", "095705.909000", "095705.911000", "095745.800000", "095745.873000", "095745.875000", "095745.877000", "095745.880000", "095745.882000", "095745.885000", "095745.887000", "095745.889000", "095745.891000", "095745.894000", "095745.896000", "095745.898000", "095745.901000", "095745.903000", "095745.906000", "095745.908000", "095745.910000", "095745.913000", "095745.915000", "095825.800000", "095825.803000", "095825.805000", "095825.808000", "095825.810000", "095825.812000", "095825.815000", "095825.817000", "095825.819000", "095825.822000", "095825.824000", "095825.826000", "095825.829000", "095825.831000", "095825.833000", "095825.856000", "095825.859000", "095825.861000", "095825.863000", "095825.866000", "095905.800000", "095905.803000", "095905.805000", "095905.807000", "095905.810000", "095905.812000", "095905.814000", "095905.817000", "095905.819000", "095905.821000", "095905.823000", "095905.826000", "095905.828000", "095905.830000", "095905.833000", "095905.835000", "095905.837000", "095905.840000", "095905.842000", "095905.844000", "095945.800000", "095945.803000", "095945.805000", "095945.808000", "095945.810000", "095945.812000", "095945.815000", "095945.817000", "095945.819000", "095945.821000", "095945.824000", "095945.826000", "095945.828000", "095945.831000", "095945.833000", "095945.835000", "095945.838000", "095945.840000", "095945.842000", "095945.844000", "100025.801000", "100025.933000", "100025.935000", "100025.938000", "100025.940000", "100025.942000", "100025.945000", "100025.947000", "100025.949000", "100025.952000", "100025.954000", "100025.956000", "100025.958000", "100025.961000", "100025.963000", "100025.965000", "100025.968000", "100025.970000", "100025.972000", "100025.975000", "100105.800000", "100105.803000", "100105.805000", "100105.808000", "100105.810000", "100105.812000", "100105.815000", "100105.817000", "100105.819000", "100105.822000", "100105.824000", "100105.826000", "100105.829000", "100105.831000", "100105.833000", "100105.836000", "100105.838000", "100105.840000", "100105.843000", "100105.845000", "100145.800000", "100145.803000", "100145.806000", "100145.808000", "100145.810000", "100145.812000", "100145.815000", "100145.817000", "100145.820000", "100145.822000", "100145.824000", "100145.827000", "100145.829000", "100145.831000", "100145.834000", "100145.836000", "100145.839000", "100145.841000", "100145.843000", "100145.846000", "100225.800000", "100225.803000", "100225.805000", "100225.808000", "100225.810000", "100225.812000", "100225.815000", "100225.817000", "100225.820000", "100225.822000", "100225.824000", "100225.827000", "100225.829000", "100225.831000", "100225.834000", "100225.836000", "100225.838000", "100225.840000", "100225.843000", "100225.845000", "100257.120000", "100257.122000", "100257.125000", "100257.127000", "100257.130000", "100257.132000", "100257.134000", "100257.137000", "100257.139000", "100257.141000", "100257.144000", "100257.146000", "100257.148000", "100257.151000", "100257.160000", "100257.163000"],
      "InstanceNumber": [1, 2, 3, 4, 5, 6, 7, 8, 9, 10, 11, 12, 13, 14, 15, 16, 17, 18, 19, 20, 21, 22, 23, 24, 25, 26, 27, 28, 29, 30, 31, 32, 33, 34, 35, 36, 37, 38, 39, 40, 41, 42, 43, 44, 45, 46, 47, 48, 49, 50, 51, 52, 53, 54, 55, 56, 57, 58, 59, 60, 61, 62, 63, 64, 65, 66, 67, 68, 69, 70, 71, 72, 73, 74, 75, 76, 77, 78, 79, 80, 81, 82, 83, 84, 85, 86, 87, 88, 89, 90, 91, 92, 93, 94, 95, 96, 97, 98, 99, 100, 101, 102, 103, 104, 105, 106, 107, 108, 109, 110, 111, 112, 113, 114, 115, 116, 117, 118, 119, 120, 121, 122, 123, 124, 125, 126, 127, 128, 129, 130, 131, 132, 133, 134, 135, 136, 137, 138, 139, 140, 141, 142, 143, 144, 145, 146, 147, 148, 149, 150, 151, 152, 153, 154, 155, 156, 157, 158, 159, 160, 161, 162, 163, 164, 165, 166, 167, 168, 169, 170, 171, 172, 173, 174, 175, 176, 177, 178, 179, 180, 181, 182, 183, 184, 185, 186, 187, 188, 189, 190, 191, 192, 193, 194, 195, 196, 197, 198, 199, 200],
      "LargestImagePixelValue": [2110, 2114, 2110, 2114, 2109, 2105, 2107, 2112, 2115, 2113, 2111, 2114, 2101, 2100, 2106, 2105, 2101, 2098, 2102, 2103, 2111, 2108, 2099, 2118, 2116, 2108, 2105, 2101, 2107, 2110, 2102, 2101, 2103, 2108, 2111, 2109, 2102, 2108, 2102, 2098, 2107, 2103, 2100, 2100, 2096, 2101, 2107, 2101, 2099, 2110, 2106, 2102, 2106, 2106, 2102, 2101, 2111, 2112, 2112, 2109, 2107, 2105, 2115, 2114, 2112, 2118, 2118, 2109, 2103, 2109, 2115, 2115, 2116, 2108, 2111, 2104, 2104, 2108, 2108, 2105, 2102, 2108, 2115, 2115, 2109, 2116, 2116, 2114, 2107, 2113, 2107, 2101, 2097, 2115, 2106, 2107, 2114, 2110, 2100, 2109, 2110, 2108, 2104, 2112, 2109, 2109, 2111, 2114, 2120, 2124, 2120, 2119, 2113, 2104, 2111, 2119, 2117, 2109, 2107, 2114, 2119, 2110, 2111, 2111, 2112, 2111, 2117, 2124, 2111, 2105, 2106, 2105, 2107, 2103, 2094, 2097, 2097, 2107, 2112, 2112, 2108, 2113, 2115, 2115, 2111, 2106, 2110, 2110, 2101, 2112, 2120, 2114, 2106, 2109, 2111, 2116, 2113, 2109, 2115, 2119, 2124, 2115, 2109, 2107, 2120, 2121, 2109, 2110, 2120, 2118, 2111, 2111, 2115, 2113, 2115, 2108, 2116, 2125, 2118, 2111, 2108, 2117, 2121, 2116, 2111, 2108, 2111, 2111, 2108, 2105, 2110, 2113, 2112, 2112, 2110, 2113, 2112, 2113, 2120, 2116],
      "WindowCenter": [1010.0, 1011.0, 1011.0, 1009.0, 1010.0, 1011.0, 1011.0, 1011.0, 1010.0, 1011.0, 1009.0, 1010.0, 1009.0, 1010.0, 1012.0, 1011.0, 1011.0, 1010.0, 1010.0, 1011.0, 1011.0, 1009.0, 1011.0, 1010.0, 1010.0, 1010.0, 1011.0, 1011.0, 1011.0, 1011.0, 1010.0, 1010.0, 1011.0, 1011.0, 1010.0, 1010.0, 1010.0, 1009.0, 1011.0, 1011.0, 1011.0, 1011.0, 1011.0, 1010.0, 1010.0, 1011.0, 1011.0, 1011.0, 1011.0, 1010.0, 1011.0, 1010.0, 1010.0, 1011.0, 1011.0, 1011.0, 1010.0, 1011.0, 1011.0, 1011.0, 1011.0, 1011.0, 1011.0, 1011.0, 1011.0, 1010.0, 1010.0, 1010.0, 1010.0, 1011.0, 1011.0, 1010.0, 1011.0, 1010.0, 1010.0, 1011.0, 1011.0, 1011.0, 1010.0, 1010.0, 1010.0, 1009.0, 1010.0, 1010.0, 1010.0, 1010.0, 1011.0, 1008.0, 1009.0, 1010.0, 1009.0, 1010.0, 1010.0, 1011.0, 1009.0, 1010.0, 1010.0, 1009.0, 1009.0, 1011.0, 1011.0, 1010.0, 1010.0, 1010.0, 1009.0, 1011.0, 1011.0, 1010.0, 1009.0, 1009.0, 1010.0, 1011.0, 1009.0, 1011.0, 1011.0, 1009.0, 1010.0, 1010.0, 1010.0, 1008.0, 1010.0, 1010.0, 1011.0, 1010.0, 1010.0, 1011.0, 1010.0, 1011.0, 1011.0, 1011.0, 1010.0, 1011.0, 1008.0, 1011.0, 1009.0, 1010.0, 1009.0, 1009.0, 1008.0, 1010.0, 1009.0, 1011.0, 1010.0, 1011.0, 1010.0, 1011.0, 1010.0, 1011.0, 1010.0, 1008.0, 1010.0, 1011.0, 1009.0, 1009.0, 1011.0, 1010.0, 1010.0, 1009.0, 1011.0, 1010.0, 1007.0, 1011.0, 1009.0, 1008.0, 1009.0, 1011.0, 1011.0, 1010.0, 1011.0, 1010.0, 1008.0, 1008.0, 1011.0, 1010.0, 1010.0, 1009.0, 1010.0, 1010.0, 1010.0, 1010.0, 1010.0, 1009.0, 1010.0, 1010.0, 1011.0, 1010.0, 1011.0, 1009.0, 1009.0, 1009.0, 1011.0, 1009.0, 1007.0, 1010.0, 1011.0, 1011.0, 1010.0, 1009.0, 1009.0, 1009.0],
      "WindowWidth": [2239.0, 2240.0, 2239.0, 2239.0, 2239.0, 2240.0, 2239.0, 2241.0, 2240.0, 2241.0, 2239.0, 2240.0, 2238.0, 2239.0, 2240.0, 2241.0, 2240.0, 2239.0, 2239.0, 2240.0, 2241.0, 2239.0, 2240.0, 2239.0, 2239.0, 2240.0, 2241.0, 2240.0, 2241.0, 2240.0, 2239.0, 2239.0, 2241.0, 2241.0, 2239.0, 2239.0, 2239.0, 2239.0, 2240.0, 2241.0, 2240.0, 2241.0, 2241.0, 2239.0, 2239.0, 2241.0, 2241.0, 2240.0, 2240.0, 2239.0, 2240.0, 2239.0, 2239.0, 2240.0, 2241.0, 2241.0, 2239.0, 2240.0, 2241.0, 2241.0, 2241.0, 2241.0, 2241.0, 2241.0, 2241.0, 2240.0, 2239.0, 2239.0, 2240.0, 2241.0, 2241.0, 2240.0, 2241.0, 2240.0, 2240.0, 2241.0, 2241.0, 2241.0, 2240.0, 2239.0, 2240.0, 2239.0, 2240.0, 2239.0, 2240.0, 2240.0, 2241.0, 2238.0, 2239.0, 2240.0, 2239.0, 2240.0, 2240.0, 2241.0, 2239.0, 2240.0, 2240.0, 2239.0, 2239.0, 2241.0, 2241.0, 2240.0, 2240.0, 2240.0, 2239.0, 2241.0, 2240.0, 2240.0, 2238.0, 2239.0, 2240.0, 2241.0, 2239.0, 2241.0, 2241.0, 2239.0, 2240.0, 2240.0, 2240.0, 2238.0, 2240.0, 2240.0, 2241.0, 2240.0, 2240.0, 2241.0, 2240.0, 2240.0, 2240.0, 2240.0, 2240.0, 2241.0, 2238.0, 2240.0, 2239.0, 2240.0, 2239.0, 2239.0, 2238.0, 2240.0, 2239.0, 2241.0, 2240.0, 2241.0, 2240.0, 2241.0, 2240.0, 2240.0, 2240.0, 2238.0, 2240.0, 2241.0, 2239.0, 2239.0, 2240.0, 2240.0, 2240.0, 2239.0, 2241.0, 2240.0, 2238.0, 2240.0, 2239.0, 2238.0, 2239.0, 2240.0, 2240.0, 2240.0, 2241.0, 2240.0, 2238.0, 2238.0, 2240.0, 2240.0, 2240.0, 2239.0, 2240.0, 2240.0, 2240.0, 2240.0, 2240.0, 2239.0, 2240.0, 2240.0, 2240.0, 2239.0, 2240.0, 2239.0, 2239.0, 2239.0, 2240.0, 2239.0, 2237.0, 2239.0, 2240.0, 2239.0, 2239.0, 2238.0, 2238.0, 2238.0]
    },
    "slices": {}
  }
}