{
  "AcquisitionMatrixPE": 122,
  "AcquisitionNumber": 1,
  "AcquisitionTime": "10:32:48.202500",
  "BandwidthPerPixelPhaseEncode": 28.76,
  "BaseResolution": 122,
  "BodyPartExamined": "BRAIN",
  "CoilCombinationMethod": "Adaptive Combine",
  "ConsistencyInfo": "N4_VE11C_LATEST_20160120",
  "ConversionSoftware": "dcm2niix",
  "ConversionSoftwareVersion": "v1.0.20220720",
  "DerivedVendorReportedEchoSpacing": 0.000570008,
  "DeviceSerialNumber": "66112",
  "DiffusionScheme": "Monopolar",
  "DwellTime": 2e-06,
  "EchoTime": 0.075,
  "EchoTrainLength": 61,
  "EffectiveEchoSpacing": 0.000285004,
  "FlipAngle": 90,
  "HeudiconvVersion": "0.13.1",
  "ImageOrientationPatientDICOM": [0.993324, -0.115282, 0.00420938, 0.108787, 0.948246, 0.29832],
  "ImageOrientationText": "Tra>Cor(17.2)>Sag(2.2)",
  "ImageType": [
    "ORIGINAL",
    "PRIMARY",
    "DIFFUSION",
    "NONE",
    "ND",
    "NORM"
],
  "ImagingFrequency": 123.252,
  "InPlanePhaseEncodingDirectionDICOM": "COL",
  "InstitutionAddress": "Maynard 3,Hanover,NH,US,03755",
  "InstitutionName": "Dartmouth College - PBS",
  "InstitutionalDepartmentName": "Department",
  "MRAcquisitionType": "2D",
  "MagneticFieldStrength": 3,
  "Manufacturer": "Siemens",
  "ManufacturersModelName": "Prisma",
  "MatrixCoilMode": "GRAPPA",
  "Modality": "MR",
  "NonlinearGradientCorrection": false,
  "ParallelReductionFactorInPlane": 2,
  "PartialFourier": 1,
  "PatientPosition": "HFS",
  "PercentPhaseFOV": 100,
  "PercentSampling": 100,
  "PhaseEncodingDirection": "j-",
  "PhaseEncodingSteps": 122,
  "PhaseResolution": 1,
  "PixelBandwidth": 2050,
  "ProcedureStepDescription": "dbic^QA",
  "ProtocolName": "dwi_acq-DTI-30-p2",
  "PulseSequenceDetails": "%SiemensSeq%\\ep2d_diff",
  "ReceiveCoilActiveElements": "HEA;HEP",
  "ReceiveCoilName": "Head_32",
  "ReconMatrixPE": 122,
  "RefLinesPE": 38,
  "RepetitionTime": 7.7,
  "SAR": 0.101203,
  "ScanOptions": "FS",
  "ScanningSequence": "EP",
  "SequenceName": "*ep_b0",
  "SequenceVariant": "SK\\SP",
  "SeriesDescription": "dwi_acq-DTI-30-p2",
  "SeriesNumber": 8,
  "ShimSetting": [4137, -7695, -7518, 331, -78, -230, -62, 32],
  "SliceThickness": 2,
  "SliceTiming": [3.84375, 0, 3.95312, 0.10938, 4.0625, 0.22656, 4.17188, 0.32812, 4.28125, 0.4375, 4.39062, 0.54688, 4.5, 0.66406, 4.60938, 0.77344, 4.71875, 0.88281, 4.82812, 0.99219, 4.9375, 1.10156, 5.04688, 1.21094, 5.15625, 1.32031, 5.26562, 1.42969, 5.375, 1.53906, 5.48438, 1.64844, 5.60156, 1.75781, 5.71094, 1.86719, 5.82031, 1.97656, 5.92969, 2.08594, 6.03906, 2.19531, 6.14844, 2.30469, 6.25781, 2.41406, 6.36719, 2.52344, 6.47656, 2.63281, 6.58594, 2.74219, 6.69531, 2.85938, 6.80469, 2.96875, 6.91406, 3.07812, 7.02344, 3.17969, 7.13281, 3.29688, 7.24219, 3.40625, 7.35156, 3.51562, 7.46094, 3.625, 7.57031, 3.73438],
  "SoftwareVersions": "syngo MR E11",
  "SpacingBetweenSlices": 2,
  "SpoilingState": true,
  "StationName": "AWP66112",
  "TotalReadoutTime": 0.0344855,
  "TxRefAmp": 221.913,
  "dcmmeta_affine": [
    [-1.9540797472000122, 0.2140064239501953, 0.07676506042480469, 105.65493774414062],
    [0.22678503394126892, 1.8654019832611084, 0.5917415618896484, -150.5651397705078],
    [0.008280754089355469, -0.5868597030639648, 1.9089126586914062, -29.934444427490234],
    [0.0, 0.0, 0.0, 1.0]
],
  "dcmmeta_reorient_transform": [
    [0.0, -1.0, 0.0, 121.0],
    [1.0, 0.0, 0.0, 0.0],
    [0.0, 0.0, -1.0, 69.0],
    [0.0, 0.0, 0.0, 1.0]
],
  "dcmmeta_shape": [122, 122, 70, 31],
  "dcmmeta_slice_dim": 2,
  "dcmmeta_version": 0.6,
  "global": {
    "const": {
      "AccessionNumber": "qa",
      "AcquisitionMatrix": [122, 0, 0, 122],
      "AngioFlag": "N",
      "BitsAllocated": 16,
      "BitsStored": 12,
      "BodyPartExamined": "BRAIN",
      "Columns": 122,
      "EchoNumbers": 1,
      "EchoTime": 75.0,
      "EchoTrainLength": 61,
      "FlipAngle": 90.0,
      "HighBit": 11,
      "ImageOrientationPatient": [0.99332384054899, -0.1152823875991, 0.00420938314436, 0.10878659343768, 0.94824598693587, 0.29832034015173],
      "ImageType": [
        "ORIGINAL",
        "PRIMARY",
        "DIFFUSION",
        "NONE",
        "ND",
        "NORM"
],
      "ImagedNucleus": "1H",
      "ImagingFrequency": 123.252462,
      "InPlanePhaseEncodingDirection": "COL",
      "MRAcquisitionType": "2D",
      "MagneticFieldStrength": 3.0,
      "Manufacturer": "SIEMENS",
      "ManufacturerModelName": "Prisma",
      "Modality": "MR",
      "NumberOfAverages": 1.0,
      "NumberOfPhaseEncodingSteps": 122,
      "PercentPhaseFieldOfView": 100.0,
      "PercentSampling": 100.0,
      "PerformedProcedureStepStartTime": "101510.171000",
      "PhotometricInterpretation": "MONOCHROME2",
      "PixelBandwidth": 2050.0,
      "PixelRepresentation": 0,
      "PixelSpacing": [1.9672131538391, 1.9672131538391],
      "ProtocolName": "dwi_acq-DTI-30-p2",
      "RepetitionTime": 7700.0,
      "Rows": 122,
      "SAR": 0.10120309225656,
      "SamplesPerPixel": 1,
      "ScanOptions": "FS",
      "ScanningSequence": "EP",
      "SequenceVariant": [
        "SK",
        "SP"
],
      "SeriesDescription": "dwi_acq-DTI-30-p2",
      "SeriesNumber": 8,
      "SeriesTime": "103248.932000",
      "SliceThickness": 2.0,
      "SmallestImagePixelValue": 0,
      "SoftwareVersions": "syngo MR E11",
      "SpacingBetweenSlices": 2.0,
      "SpecificCharacterSet": "ISO_IR 100",
      "StudyID": "89",
      "StudyTime": "101510.039000",
      "TransmitCoilName": "Body",
      "VariableFlipAngleFlag": "N",
      "WindowCenterWidthExplanation": "Algo1",
      "dBdt": 0.0},
    "slices": {
      "AcquisitionTime": ["103248.202500", "103244.362500", "103248.312500", "103244.472500", "103248.422500", "103244.582500", "103248.530000", "103244.690000", "103248.640000", "103244.800000", "103248.750000", "103244.910000", "103248.860000", "103245.020000", "103248.970000", "103245.130000", "103249.080000", "103245.240000", "103249.190000", "103245.350000", "103249.300000", "103245.460000", "103249.407500", "103245.570000", "103249.517500", "103245.677500", "103249.627500", "103245.787500", "103249.737500", "103245.897500", "103249.847500", "103246.007500", "103249.957500", "103246.117500", "103250.067500", "103246.227500", "103250.177500", "103246.337500", "103250.287500", "103246.447500", "103250.395000", "103246.555000", "103250.505000", "103246.665000", "103250.615000", "103246.775000", "103250.725000", "103246.885000", "103250.835000", "103246.995000", "103250.945000", "103247.105000", "103251.055000", "103247.215000", "103251.165000", "103247.325000", "103251.275000", "103247.435000", "103251.382500", "103247.542500", "103251.492500", "103247.652500", "103251.602500", "103247.762500", "103251.712500", "103247.872500", "103251.822500", "103247.982500", "103251.932500", "103248.092500", "103255.902500", "103252.062500", "103256.012500", "103252.172500", "103256.122500", "103252.282500", "103256.230000", "103252.390000", "103256.340000", "103252.500000", "103256.450000", "103252.610000", "103256.560000", "103252.720000", "103256.670000", "103252.830000", "103256.780000", "103252.940000", "103256.890000", "103253.050000", "103257.000000", "103253.160000", "103257.107500", "103253.270000", "103257.217500", "103253.377500", "103257.327500", "103253.487500", "103257.437500", "103253.597500", "103257.547500", "103253.707500", "103257.657500", "103253.817500", "103257.767500", "103253.927500", "103257.877500", "103254.037500", "103257.987500", "103254.147500", "103258.095000", "103254.255000", "103258.205000", "103254.365000", "103258.315000", "103254.475000", "103258.425000", "103254.585000", "103258.535000", "103254.695000", "103258.645000", "103254.805000", "103258.755000", "103254.915000", "103258.865000", "103255.025000", "103258.975000", "103255.135000", "103259.082500", "103255.242500", "103259.192500", "103255.352500", "103259.302500", "103255.462500", "103259.412500", "103255.572500", "103259.522500", "103255.682500", "103259.632500", "103255.792500", "103303.602500", "103259.762500", "103303.712500", "103259.872500", "103303.822500", "103259.982500", "103303.930000", "103300.090000", "103304.040000", "103300.200000", "103304.150000", "103300.310000", "103304.260000", "103300.420000", "103304.370000", "103300.530000", "103304.480000", "103300.640000", "103304.590000", "103300.750000", "103304.700000", "103300.860000", "103304.807500", "103300.970000", "103304.917500", "103301.077500", "103305.027500", "103301.187500", "103305.137500", "103301.297500", "103305.247500", "103301.407500", "103305.357500", "103301.517500", "103305.467500", "103301.627500", "103305.577500", "103301.737500", "103305.687500", "103301.847500", "103305.795000", "103301.955000", "103305.905000", "103302.065000", "103306.015000", "103302.175000", "103306.125000", "103302.285000", "103306.235000", "103302.395000", "103306.345000", "103302.505000", "103306.455000", "103302.615000", "103306.565000", "103302.725000", "103306.675000", "103302.835000", "103306.782500", "103302.942500", "103306.892500", "103303.052500", "103307.002500", "103303.162500", "103307.112500", "103303.272500", "103307.222500", "103303.382500", "103307.332500", "103303.492500", "103311.302500", "103307.462500", "103311.412500", "103307.572500", "103311.522500", "103307.682500", "103311.630000", "103307.790000", "103311.740000", "103307.900000", "103311.850000", "103308.010000", "103311.960000", "103308.120000", "103312.070000", "103308.230000", "103312.180000", "103308.340000", "103312.290000", "103308.450000", "103312.400000", "103308.560000", "103312.507500", "103308.670000", "103312.617500", "103308.777500", "103312.727500", "103308.887500", "103312.837500", "103308.997500", "103312.947500", "103309.107500", "103313.057500", "103309.217500", "103313.167500", "103309.327500", "103313.277500", "103309.437500", "103313.387500", "103309.547500", "103313.495000", "103309.655000", "103313.605000", "103309.765000", "103313.715000", "103309.875000", "103313.825000", "103309.985000", "103313.935000", "103310.095000", "103314.045000", "103310.205000", "103314.155000", "103310.315000", "103314.265000", "103310.425000", "103314.375000", "103310.535000", "103314.482500", "103310.642500", "103314.592500", "103310.752500", "103314.702500", "103310.862500", "103314.812500", "103310.972500", "103314.922500", "103311.082500", "103315.032500", "103311.192500", "103319.002500", "103315.162500", "103319.112500", "103315.272500", "103319.222500", "103315.382500", "103319.330000", "103315.490000", "103319.440000", "103315.600000", "103319.550000", "103315.710000", "103319.660000", "103315.820000", "103319.770000", "103315.930000", "103319.880000", "103316.040000", "103319.990000", "103316.150000", "103320.100000", "103316.260000", "103320.207500", "103316.370000", "103320.317500", "103316.477500", "103320.427500", "103316.587500", "103320.537500", "103316.697500", "103320.647500", "103316.807500", "103320.757500", "103316.917500", "103320.867500", "103317.027500", "103320.977500", "103317.137500", "103321.087500", "103317.247500", "103321.195000", "103317.355000", "103321.305000", "103317.465000", "103321.415000", "103317.575000", "103321.525000", "103317.685000", "103321.635000", "103317.795000", "103321.745000", "103317.905000", "103321.855000", "103318.015000", "103321.965000", "103318.125000", "103322.075000", "103318.235000", "103322.182500", "103318.342500", "103322.292500", "103318.452500", "103322.402500", "103318.562500", "103322.512500", "103318.672500", "103322.622500", "103318.782500", "103322.732500", "103318.892500", "103326.702500", "103322.862500", "103326.812500", "103322.972500", "103326.922500", "103323.082500", "103327.030000", "103323.190000", "103327.140000", "103323.300000", "103327.250000", "103323.410000", "103327.360000", "103323.520000", "103327.470000", "103323.630000", "103327.580000", "103323.740000", "103327.690000", "103323.850000", "103327.800000", "103323.960000", "103327.907500", "103324.070000", "103328.017500", "103324.177500", "103328.127500", "103324.287500", "103328.237500", "103324.397500", "103328.347500", "103324.507500", "103328.457500", "103324.617500", "103328.567500", "103324.727500", "103328.677500", "103324.837500", "103328.787500", "103324.947500", "103328.895000", "103325.055000", "103329.005000", "103325.165000", "103329.115000", "103325.275000", "103329.225000", "103325.385000", "103329.335000", "103325.495000", "103329.445000", "103325.605000", "103329.555000", "103325.715000", "103329.665000", "103325.825000", "103329.775000", "103325.935000", "103329.882500", "103326.042500", "103329.992500", "103326.152500", "103330.102500", "103326.262500", "103330.212500", "103326.372500", "103330.322500", "103326.482500", "103330.432500", "103326.592500", "103334.402500", "103330.562500", "103334.512500", "103330.672500", "103334.622500", "103330.782500", "103334.730000", "103330.890000", "103334.840000", "103331.000000", "103334.950000", "103331.110000", "103335.060000", "103331.220000", "103335.170000", "103331.330000", "103335.280000", "103331.440000", "103335.390000", "103331.550000", "103335.500000", "103331.660000", "103335.607500", "103331.770000", "103335.717500", "103331.877500", "103335.827500", "103331.987500", "103335.937500", "103332.097500", "103336.047500", "103332.207500", "103336.157500", "103332.317500", "103336.267500", "103332.427500", "103336.377500", "103332.537500", "103336.487500", "103332.647500", "103336.595000", "103332.755000", "103336.705000", "103332.865000", "103336.815000", "103332.975000", "103336.925000", "103333.085000", "103337.035000", "103333.195000", "103337.145000", "103333.305000", "103337.255000", "103333.415000", "103337.365000", "103333.525000", "103337.475000", "103333.635000", "103337.582500", "103333.742500", "103337.692500", "103333.852500", "103337.802500", "103333.962500", "103337.912500", "103334.072500", "103338.022500", "103334.182500", "103338.132500", "103334.292500", "103342.102500", "103338.262500", "103342.212500", "103338.372500", "103342.322500", "103338.482500", "103342.430000", "103338.590000", "103342.540000", "103338.700000", "103342.650000", "103338.810000", "103342.760000", "103338.920000", "103342.870000", "103339.030000", "103342.980000", "103339.140000", "103343.090000", "103339.250000", "103343.200000", "103339.360000", "103343.307500", "103339.470000", "103343.417500", "103339.577500", "103343.527500", "103339.687500", "103343.637500", "103339.797500", "103343.747500", "103339.907500", "103343.857500", "103340.017500", "103343.967500", "103340.127500", "103344.077500", "103340.237500", "103344.187500", "103340.347500", "103344.295000", "103340.455000", "103344.405000", "103340.565000", "103344.515000", "103340.675000", "103344.625000", "103340.785000", "103344.735000", "103340.895000", "103344.845000", "103341.005000", "103344.955000", "103341.115000", "103345.065000", "103341.225000", "103345.175000", "103341.335000", "103345.282500", "103341.442500", "103345.392500", "103341.552500", "103345.502500", "103341.662500", "103345.612500", "103341.772500", "103345.722500", "103341.882500", "103345.832500", "103341.992500", "103349.802500", "103345.962500", "103349.912500", "103346.072500", "103350.022500", "103346.182500", "103350.130000", "103346.290000", "103350.240000", "103346.400000", "103350.350000", "103346.510000", "103350.460000", "103346.620000", "103350.570000", "103346.730000", "103350.680000", "103346.840000", "103350.790000", "103346.950000", "103350.900000", "103347.060000", "103351.007500", "103347.170000", "103351.117500", "103347.277500", "103351.227500", "103347.387500", "103351.337500", "103347.497500", "103351.447500", "103347.607500", "103351.557500", "103347.717500", "103351.667500", "103347.827500", "103351.777500", "103347.937500", "103351.887500", "103348.047500", "103351.995000", "103348.155000", "103352.105000", "103348.265000", "103352.215000", "103348.375000", "103352.325000", "103348.485000", "103352.435000", "103348.595000", "103352.545000", "103348.705000", "103352.655000", "103348.815000", "103352.765000", "103348.925000", "103352.875000", "103349.035000", "103352.982500", "103349.142500", "103353.092500", "103349.252500", "103353.202500", "103349.362500", "103353.312500", "103349.472500", "103353.422500", "103349.582500", "103353.532500", "103349.692500", "103357.502500", "103353.662500", "103357.612500", "103353.772500", "103357.722500", "103353.882500", "103357.830000", "103353.990000", "103357.940000", "103354.100000", "103358.050000", "103354.210000", "103358.160000", "103354.320000", "103358.270000", "103354.430000", "103358.380000", "103354.540000", "103358.490000", "103354.650000", "103358.600000", "103354.760000", "103358.707500", "103354.870000", "103358.817500", "103354.977500", "103358.927500", "103355.087500", "103359.037500", "103355.197500", "103359.147500", "103355.307500", "103359.257500", "103355.417500", "103359.367500", "103355.527500", "103359.477500", "103355.637500", "103359.587500", "103355.747500", "103359.695000", "103355.855000", "103359.805000", "103355.965000", "103359.915000", "103356.075000", "103400.025000", "103356.185000", "103400.135000", "103356.295000", "103400.245000", "103356.405000", "103400.355000", "103356.515000", "103400.465000", "103356.625000", "103400.575000", "103356.735000", "103400.682500", "103356.842500", "103400.792500", "103356.952500", "103400.902500", "103357.062500", "103401.012500", "103357.172500", "103401.122500", "103357.282500", "103401.232500", "103357.392500", "103405.202500", "103401.362500", "103405.312500", "103401.472500", "103405.422500", "103401.582500", "103405.530000", "103401.690000", "103405.640000", "103401.800000", "103405.750000", "103401.910000", "103405.860000", "103402.020000", "103405.970000", "103402.130000", "103406.080000", "103402.240000", "103406.190000", "103402.350000", "103406.300000", "103402.460000", "103406.407500", "103402.570000", "103406.517500", "103402.677500", "103406.627500", "103402.787500", "103406.737500", "103402.897500", "103406.847500", "103403.007500", "103406.957500", "103403.117500", "103407.067500", "103403.227500", "103407.177500", "103403.337500", "103407.287500", "103403.447500", "103407.395000", "103403.555000", "103407.505000", "103403.665000", "103407.615000", "103403.775000", "103407.725000", "103403.885000", "103407.835000", "103403.995000", "103407.945000", "103404.105000", "103408.055000", "103404.215000", "103408.165000", "103404.325000", "103408.275000", "103404.435000", "103408.382500", "103404.542500", "103408.492500", "103404.652500", "103408.602500", "103404.762500", "103408.712500", "103404.872500", "103408.822500", "103404.982500", "103408.932500", "103405.092500", "103412.902500", "103409.062500", "103413.012500", "103409.172500", "103413.122500", "103409.282500", "103413.230000", "103409.390000", "103413.340000", "103409.500000", "103413.450000", "103409.610000", "103413.560000", "103409.720000", "103413.670000", "103409.830000", "103413.780000", "103409.940000", "103413.890000", "103410.050000", "103414.000000", "103410.160000", "103414.107500", "103410.270000", "103414.217500", "103410.377500", "103414.327500", "103410.487500", "103414.437500", "103410.597500", "103414.547500", "103410.707500", "103414.657500", "103410.817500", "103414.767500", "103410.927500", "103414.877500", "103411.037500", "103414.987500", "103411.147500", "103415.095000", "103411.255000", "103415.205000", "103411.365000", "103415.315000", "103411.475000", "103415.425000", "103411.585000", "103415.535000", "103411.695000", "103415.645000", "103411.805000", "103415.755000", "103411.915000", "103415.865000", "103412.025000", "103415.975000", "103412.135000", "103416.082500", "103412.242500", "103416.192500", "103412.352500", "103416.302500", "103412.462500", "103416.412500", "103412.572500", "103416.522500", "103412.682500", "103416.632500", "103412.792500", "103420.602500", "103416.762500", "103420.712500", "103416.872500", "103420.822500", "103416.982500", "103420.930000", "103417.090000", "103421.040000", "103417.200000", "103421.150000", "103417.310000", "103421.260000", "103417.420000", "103421.370000", "103417.530000", "103421.480000", "103417.640000", "103421.590000", "103417.750000", "103421.700000", "103417.860000", "103421.807500", "103417.970000", "103421.917500", "103418.077500", "103422.027500", "103418.187500", "103422.137500", "103418.297500", "103422.247500", "103418.407500", "103422.357500", "103418.517500", "103422.467500", "103418.627500", "103422.577500", "103418.737500", "103422.687500", "103418.847500", "103422.795000", "103418.955000", "103422.905000", "103419.065000", "103423.015000", "103419.175000", "103423.125000", "103419.285000", "103423.235000", "103419.395000", "103423.345000", "103419.505000", "103423.455000", "103419.615000", "103423.565000", "103419.725000", "103423.675000", "103419.835000", "103423.782500", "103419.942500", "103423.892500", "103420.052500", "103424.002500", "103420.162500", "103424.112500", "103420.272500", "103424.222500", "103420.382500", "103424.332500", "103420.492500", "103428.302500", "103424.462500", "103428.412500", "103424.572500", "103428.522500", "103424.682500", "103428.630000", "103424.790000", "103428.740000", "103424.900000", "103428.850000", "103425.010000", "103428.960000", "103425.120000", "103429.070000", "103425.230000", "103429.180000", "103425.340000", "103429.290000", "103425.450000", "103429.400000", "103425.560000", "103429.507500", "103425.670000", "103429.617500", "103425.777500", "103429.727500", "103425.887500", "103429.837500", "103425.997500", "103429.947500", "103426.107500", "103430.057500", "103426.217500", "103430.167500", "103426.327500", "103430.277500", "103426.437500", "103430.387500", "103426.547500", "103430.495000", "103426.655000", "103430.605000", "103426.765000", "103430.715000", "103426.875000", "103430.825000", "103426.985000", "103430.935000", "103427.095000", "103431.045000", "103427.205000", "103431.155000", "103427.315000", "103431.265000", "103427.425000", "103431.375000", "103427.535000", "103431.482500", "103427.642500", "103431.592500", "103427.752500", "103431.702500", "103427.862500", "103431.812500", "103427.972500", "103431.922500", "103428.082500", "103432.032500", "103428.192500", "103436.002500", "103432.162500", "103436.112500", "103432.272500", "103436.222500", "103432.382500", "103436.330000", "103432.490000", "103436.440000", "103432.600000", "103436.550000", "103432.710000", "103436.660000", "103432.820000", "103436.770000", "103432.930000", "103436.880000", "103433.040000", "103436.990000", "103433.150000", "103437.100000", "103433.260000", "103437.207500", "103433.370000", "103437.317500", "103433.477500", "103437.427500", "103433.587500", "103437.537500", "103433.697500", "103437.647500", "103433.807500", "103437.757500", "103433.917500", "103437.867500", "103434.027500", "103437.977500", "103434.137500", "103438.087500", "103434.247500", "103438.195000", "103434.355000", "103438.305000", "103434.465000", "103438.415000", "103434.575000", "103438.525000", "103434.685000", "103438.635000", "103434.795000", "103438.745000", "103434.905000", "103438.855000", "103435.015000", "103438.965000", "103435.125000", "103439.075000", "103435.235000", "103439.182500", "103435.342500", "103439.292500", "103435.452500", "103439.402500", "103435.562500", "103439.512500", "103435.672500", "103439.622500", "103435.782500", "103439.732500", "103435.892500", "103443.702500", "103439.862500", "103443.812500", "103439.972500", "103443.922500", "103440.082500", "103444.030000", "103440.190000", "103444.140000", "103440.300000", "103444.250000", "103440.410000", "103444.360000", "103440.520000", "103444.470000", "103440.630000", "103444.580000", "103440.740000", "103444.690000", "103440.850000", "103444.800000", "103440.960000", "103444.907500", "103441.070000", "103445.017500", "103441.177500", "103445.127500", "103441.287500", "103445.237500", "103441.397500", "103445.347500", "103441.507500", "103445.457500", "103441.617500", "103445.567500", "103441.727500", "103445.677500", "103441.837500", "103445.787500", "103441.947500", "103445.895000", "103442.055000", "103446.005000", "103442.165000", "103446.115000", "103442.275000", "103446.225000", "103442.385000", "103446.335000", "103442.495000", "103446.445000", "103442.605000", "103446.555000", "103442.715000", "103446.665000", "103442.825000", "103446.775000", "103442.935000", "103446.882500", "103443.042500", "103446.992500", "103443.152500", "103447.102500", "103443.262500", "103447.212500", "103443.372500", "103447.322500", "103443.482500", "103447.432500", "103443.592500", "103451.402500", "103447.562500", "103451.512500", "103447.672500", "103451.622500", "103447.782500", "103451.730000", "103447.890000", "103451.840000", "103448.000000", "103451.950000", "103448.110000", "103452.060000", "103448.220000", "103452.170000", "103448.330000", "103452.280000", "103448.440000", "103452.390000", "103448.550000", "103452.500000", "103448.660000", "103452.607500", "103448.770000", "103452.717500", "103448.877500", "103452.827500", "103448.987500", "103452.937500", "103449.097500", "103453.047500", "103449.207500", "103453.157500", "103449.317500", "103453.267500", "103449.427500", "103453.377500", "103449.537500", "103453.487500", "103449.647500", "103453.595000", "103449.755000", "103453.705000", "103449.865000", "103453.815000", "103449.975000", "103453.925000", "103450.085000", "103454.035000", "103450.195000", "103454.145000", "103450.305000", "103454.255000", "103450.415000", "103454.365000", "103450.525000", "103454.475000", "103450.635000", "103454.582500", "103450.742500", "103454.692500", "103450.852500", "103454.802500", "103450.962500", "103454.912500", "103451.072500", "103455.022500", "103451.182500", "103455.132500", "103451.292500", "103459.102500", "103455.262500", "103459.212500", "103455.372500", "103459.322500", "103455.482500", "103459.430000", "103455.590000", "103459.540000", "103455.700000", "103459.650000", "103455.810000", "103459.760000", "103455.920000", "103459.870000", "103456.030000", "103459.980000", "103456.140000", "103500.090000", "103456.250000", "103500.200000", "103456.360000", "103500.307500", "103456.470000", "103500.417500", "103456.577500", "103500.527500", "103456.687500", "103500.637500", "103456.797500", "103500.747500", "103456.907500", "103500.857500", "103457.017500", "103500.967500", "103457.127500", "103501.077500", "103457.237500", "103501.187500", "103457.347500", "103501.295000", "103457.455000", "103501.405000", "103457.565000", "103501.515000", "103457.675000", "103501.625000", "103457.785000", "103501.735000", "103457.895000", "103501.845000", "103458.005000", "103501.955000", "103458.115000", "103502.065000", "103458.225000", "103502.175000", "103458.335000", "103502.282500", "103458.442500", "103502.392500", "103458.552500", "103502.502500", "103458.662500", "103502.612500", "103458.772500", "103502.722500", "103458.882500", "103502.832500", "103458.992500", "103506.802500", "103502.962500", "103506.912500", "103503.072500", "103507.022500", "103503.182500", "103507.130000", "103503.290000", "103507.240000", "103503.400000", "103507.350000", "103503.510000", "103507.460000", "103503.620000", "103507.570000", "103503.730000", "103507.680000", "103503.840000", "103507.790000", "103503.950000", "103507.900000", "103504.060000", "103508.007500", "103504.170000", "103508.117500", "103504.277500", "103508.227500", "103504.387500", "103508.337500", "103504.497500", "103508.447500", "103504.607500", "103508.557500", "103504.717500", "103508.667500", "103504.827500", "103508.777500", "103504.937500", "103508.887500", "103505.047500", "103508.995000", "103505.155000", "103509.105000", "103505.265000", "103509.215000", "103505.375000", "103509.325000", "103505.485000", "103509.435000", "103505.595000", "103509.545000", "103505.705000", "103509.655000", "103505.815000", "103509.765000", "103505.925000", "103509.875000", "103506.035000", "103509.982500", "103506.142500", "103510.092500", "103506.252500", "103510.202500", "103506.362500", "103510.312500", "103506.472500", "103510.422500", "103506.582500", "103510.532500", "103506.692500", "103514.502500", "103510.662500", "103514.612500", "103510.772500", "103514.722500", "103510.882500", "103514.830000", "103510.990000", "103514.940000", "103511.100000", "103515.050000", "103511.210000", "103515.160000", "103511.320000", "103515.270000", "103511.430000", "103515.380000", "103511.540000", "103515.490000", "103511.650000", "103515.600000", "103511.760000", "103515.707500", "103511.870000", "103515.817500", "103511.977500", "103515.927500", "103512.087500", "103516.037500", "103512.197500", "103516.147500", "103512.307500", "103516.257500", "103512.417500", "103516.367500", "103512.527500", "103516.477500", "103512.637500", "103516.587500", "103512.747500", "103516.695000", "103512.855000", "103516.805000", "103512.965000", "103516.915000", "103513.075000", "103517.025000", "103513.185000", "103517.135000", "103513.295000", "103517.245000", "103513.405000", "103517.355000", "103513.515000", "103517.465000", "103513.625000", "103517.575000", "103513.735000", "103517.682500", "103513.842500", "103517.792500", "103513.952500", "103517.902500", "103514.062500", "103518.012500", "103514.172500", "103518.122500", "103514.282500", "103518.232500", "103514.392500", "103522.202500", "103518.362500", "103522.312500", "103518.472500", "103522.422500", "103518.582500", "103522.530000", "103518.690000", "103522.640000", "103518.800000", "103522.750000", "103518.910000", "103522.860000", "103519.020000", "103522.970000", "103519.130000", "103523.080000", "103519.240000", "103523.190000", "103519.350000", "103523.300000", "103519.460000", "103523.407500", "103519.570000", "103523.517500", "103519.677500", "103523.627500", "103519.787500", "103523.737500", "103519.897500", "103523.847500", "103520.007500", "103523.957500", "103520.117500", "103524.06750