{
  "AcquisitionMatrixPE": 80,
  "AcquisitionNumber": 1,
  "AcquisitionTime": "12:11:46.482500",
  "BandwidthPerPixelPhaseEncode": 48.077,
  "BaseResolution": 80,
  "BodyPartExamined": "BRAIN",
  "CoilCombinationMethod": "Sum of Squares",
  "ConsistencyInfo": "N4_VE11E_LATEST_20181129",
  "ConversionSoftware": "dcm2niix",
  "ConversionSoftwareVersion": "v1.0.20220720",
  "DerivedVendorReportedEchoSpacing": 0.000519999,
  "DeviceSerialNumber": "66112",
  "DwellTime": 2.7e-06,
  "EchoTime": 0.035,
  "EchoTrainLength": 39,
  "EffectiveEchoSpacing": 0.00026,
  "FlipAngle": 90,
  "HeudiconvVersion": "0.13.1",
  "ImageOrientationPatientDICOM": [0.999958, 0.00907827, 0.00142285, -0.00907555, 0.951424, 0.307749],
  "ImageOrientationText": "Tra>Cor(17.9)>Sag(-0.1)",
  "ImageType": [
    "ORIGINAL",
    "PRIMARY",
    "M",
    "ND",
    "NORM",
    "MOSAIC"
],
  "ImagingFrequency": 123.259,
  "InPlanePhaseEncodingDirectionDICOM": "COL",
  "InstitutionAddress": "Maynard 3,Hanover,NH,US,03755",
  "InstitutionName": "Dartmouth College - PBS",
  "InstitutionalDepartmentName": "Department",
  "MRAcquisitionType": "2D",
  "MagneticFieldStrength": 3,
  "Manufacturer": "Siemens",
  "ManufacturersModelName": "Prisma",
  "MatrixCoilMode": "GRAPPA",
  "Modality": "MR",
  "NonlinearGradientCorrection": false,
  "ParallelReductionFactorInPlane": 2,
  "PartialFourier": 1,
  "PatientPosition": "HFS",
  "PercentPhaseFOV": 100,
  "PercentSampling": 100,
  "PhaseEncodingDirection": "j-",
  "PhaseEncodingSteps": 79,
  "PhaseResolution": 1,
  "PixelBandwidth": 2315,
  "ProcedureStepDescription": "dbic^QA",
  "ProtocolName": "func-bold_task-rest_acq-p2",
  "PulseSequenceDetails": "%SiemensSeq%\\ep2d_bold",
  "ReceiveCoilActiveElements": "FL;HE1-4;NE1,2",
  "ReceiveCoilName": "FlexLarge_4",
  "ReconMatrixPE": 80,
  "RefLinesPE": 24,
  "RepetitionTime": 2,
  "SAR": 0.040118,
  "ScanOptions": "FS",
  "ScanningSequence": "EP",
  "SequenceName": "*epfid2d1_80",
  "SequenceVariant": "SK",
  "SeriesDescription": "func-bold_task-rest_acq-p2",
  "SeriesNumber": 12,
  "ShimSetting": [4223, -7730, -7479, -94, -157, -118, -25, 77],
  "SliceThickness": 3.5,
  "SliceTiming": [0.99, 0, 1.055, 0.065, 1.12, 0.1325, 1.1875, 0.1975, 1.2525, 0.2625, 1.32, 0.33, 1.385, 0.395, 1.45, 0.46, 1.5175, 0.5275, 1.5825, 0.5925, 1.65, 0.66, 1.715, 0.725, 1.78, 0.79, 1.8475, 0.8575, 1.9125, 0.9225],
  "SoftwareVersions": "syngo MR E11",
  "SpacingBetweenSlices": 3.99,
  "StationName": "AWP66112",
  "TaskName": "rest",
  "TotalReadoutTime": 0.02054,
  "TxRefAmp": 251.143,
  "dcmmeta_affine": [
    [-2.999873399734497, -0.027226660400629044, -0.005746005102992058, 123.80622863769531],
    [-0.027234824374318123, 2.8542728424072266, 1.2279186248779297, -133.84129333496094],
    [0.004268535412847996, -0.9232472777366638, 3.796351194381714, -37.21220016479492],
    [0.0, 0.0, 0.0, 1.0]
],
  "dcmmeta_reorient_transform": [
    [0.0, -1.0, 0.0, 79.0],
    [1.0, 0.0, 0.0, 0.0],
    [0.0, 0.0, 1.0, 0.0],
    [0.0, 0.0, 0.0, 1.0]
],
  "dcmmeta_shape": [80, 80, 30, 200],
  "dcmmeta_slice_dim": 2,
  "dcmmeta_version": 0.6,
  "global": {
    "const": {
      "AccessionNumber": "qa64",
      "AcquisitionMatrix": [80, 0, 0, 80],
      "AngioFlag": "N",
      "BitsAllocated": 16,
      "BitsStored": 12,
      "BodyPartExamined": "BRAIN",
      "Columns": 480,
      "EchoNumbers": 1,
      "EchoTime": 35.0,
      "EchoTrainLength": 39,
      "FlipAngle": 90.0,
      "HighBit": 11,
      "ImageOrientationPatient": [0.99995777932913, 0.00907827467045, 0.00142284509468, -0.0090755532508, 0.95142426204456, 0.30774909898511],
      "ImagePositionPatient": [-716.18465918203, -667.94778415271, -295.65190306997],
      "ImageType": [
        "ORIGINAL",
        "PRIMARY",
        "M",
        "ND",
        "NORM",
        "MOSAIC"
],
      "ImagedNucleus": "1H",
      "ImagingFrequency": 123.259255,
      "InPlanePhaseEncodingDirection": "COL",
      "MRAcquisitionType": "2D",
      "MagneticFieldStrength": 3.0,
      "Manufacturer": "SIEMENS",
      "ManufacturerModelName": "Prisma",
      "Modality": "MR",
      "NumberOfAverages": 1.0,
      "NumberOfPhaseEncodingSteps": 79,
      "PercentPhaseFieldOfView": 100.0,
      "PercentSampling": 100.0,
      "PerformedProcedureStepStartTime": "104710.966000",
      "PhotometricInterpretation": "MONOCHROME2",
      "PixelBandwidth": 2315.0,
      "PixelRepresentation": 0,
      "PixelSpacing": [3.0, 3.0],
      "ProtocolName": "func-bold_task-rest_acq-p2",
      "RepetitionTime": 2000.0,
      "Rows": 480,
      "SAR": 0.04011802455187,
      "SamplesPerPixel": 1,
      "ScanOptions": "FS",
      "ScanningSequence": "EP",
      "SequenceName": "*epfid2d1_80",
      "SequenceVariant": "SK",
      "SeriesDescription": "func-bold_task-rest_acq-p2",
      "SeriesNumber": 12,
      "SeriesTime": "121233.710000",
      "SliceLocation": -76.773979777849,
      "SliceThickness": 3.5,
      "SmallestImagePixelValue": 0,
      "SoftwareVersions": "syngo MR E11",
      "SpacingBetweenSlices": 3.9899999624588,
      "SpecificCharacterSet": "ISO_IR 100",
      "StudyID": "16",
      "StudyTime": "104710.913000",
      "TransmitCoilName": "Body",
      "VariableFlipAngleFlag": "N",
      "WindowCenterWidthExplanation": "Algo1"
    },
    "slices": {}
  },
  "time": {
    "samples": {
      "AcquisitionNumber": [1, 2, 3, 4, 5, 6, 7, 8, 9, 10, 11, 12, 13, 14, 15, 16, 17, 18, 19, 20, 21, 22, 23, 24, 25, 26, 27, 28, 29, 30, 31, 32, 33, 34, 35, 36, 37, 38, 39, 40, 41, 42, 43, 44, 45, 46, 47, 48, 49, 50, 51, 52, 53, 54, 55, 56, 57, 58, 59, 60, 61, 62, 63, 64, 65, 66, 67, 68, 69, 70, 71, 72, 73, 74, 75, 76, 77, 78, 79, 80, 81, 82, 83, 84, 85, 86, 87, 88, 89, 90, 91, 92, 93, 94, 95, 96, 97, 98, 99, 100, 101, 102, 103, 104, 105, 106, 107, 108, 109, 110, 111, 112, 113, 114, 115, 116, 117, 118, 119, 120, 121, 122, 123, 124, 125, 126, 127, 128, 129, 130, 131, 132, 133, 134, 135, 136, 137, 138, 139, 140, 141, 142, 143, 144, 145, 146, 147, 148, 149, 150, 151, 152, 153, 154, 155, 156, 157, 158, 159, 160, 161, 162, 163, 164, 165, 166, 167, 168, 169, 170, 171, 172, 173, 174, 175, 176, 177, 178, 179, 180, 181, 182, 183, 184, 185, 186, 187, 188, 189, 190, 191, 192, 193, 194, 195, 196, 197, 198, 199, 200],
      "AcquisitionTime": ["121146.482500", "121148.482500", "121150.482500", "121152.482500", "121154.482500", "121156.482500", "121158.482500", "121200.482500", "121202.482500", "121204.482500", "121206.482500", "121208.482500", "121210.482500", "121212.482500", "121214.482500", "121216.482500", "121218.482500", "121220.482500", "121222.482500", "121224.482500", "121226.482500", "121228.482500", "121230.482500", "121232.482500", "121234.482500", "121236.482500", "121238.482500", "121240.482500", "121242.482500", "121244.482500", "121246.482500", "121248.482500", "121250.482500", "121252.482500", "121254.482500", "121256.482500", "121258.482500", "121300.482500", "121302.482500", "121304.482500", "121306.482500", "121308.482500", "121310.482500", "121312.482500", "121314.482500", "121316.482500", "121318.482500", "121320.482500", "121322.482500", "121324.482500", "121326.482500", "121328.482500", "121330.482500", "121332.482500", "121334.482500", "121336.482500", "121338.482500", "121340.482500", "121342.482500", "121344.482500", "121346.482500", "121348.482500", "121350.482500", "121352.482500", "121354.482500", "121356.482500", "121358.482500", "121400.482500", "121402.482500", "121404.482500", "121406.482500", "121408.482500", "121410.482500", "121412.482500", "121414.482500", "121416.482500", "121418.482500", "121420.482500", "121422.482500", "121424.482500", "121426.482500", "121428.482500", "121430.482500", "121432.482500", "121434.482500", "121436.482500", "121438.482500", "121440.482500", "121442.482500", "121444.482500", "121446.482500", "121448.482500", "121450.482500", "121452.482500", "121454.482500", "121456.482500", "121458.482500", "121500.482500", "121502.482500", "121504.482500", "121506.482500", "121508.482500", "121510.482500", "121512.482500", "121514.482500", "121516.482500", "121518.482500", "121520.482500", "121522.482500", "121524.482500", "121526.482500", "121528.482500", "121530.482500", "121532.482500", "121534.482500", "121536.482500", "121538.482500", "121540.482500", "121542.482500", "121544.482500", "121546.482500", "121548.482500", "121550.482500", "121552.482500", "121554.482500", "121556.482500", "121558.482500", "121600.482500", "121602.482500", "121604.482500", "121606.482500", "121608.482500", "121610.482500", "121612.482500", "121614.482500", "121616.482500", "121618.482500", "121620.482500", "121622.482500", "121624.482500", "121626.482500", "121628.482500", "121630.482500", "121632.482500", "121634.482500", "121636.482500", "121638.482500", "121640.482500", "121642.482500", "121644.482500", "121646.482500", "121648.482500", "121650.482500", "121652.482500", "121654.482500", "121656.482500", "121658.482500", "121700.482500", "121702.482500", "121704.482500", "121706.482500", "121708.482500", "121710.482500", "121712.482500", "121714.482500", "121716.482500", "121718.482500", "121720.482500", "121722.482500", "121724.482500", "121726.482500", "121728.482500", "121730.482500", "121732.482500", "121734.482500", "121736.482500", "121738.482500", "121740.482500", "121742.482500", "121744.482500", "121746.482500", "121748.482500", "121750.482500", "121752.482500", "121754.482500", "121756.482500", "121758.482500", "121800.482500", "121802.482500", "121804.482500", "121806.482500", "121808.482500", "121810.482500", "121812.482500", "121814.482500", "121816.482500", "121818.482500", "121820.482500", "121822.482500", "121824.482500"],
      "ContentTime": ["121233.713000", "121233.716000", "121233.718000", "121233.721000", "121233.723000", "121233.725000", "121233.728000", "121233.730000", "121233.732000", "121233.735000", "121233.745000", "121233.747000", "121233.750000", "121233.752000", "121233.754000", "121233.756000", "121233.759000", "121233.761000", "121233.763000", "121233.766000", "121233.768000", "121233.770000", "121233.773000", "121313.709000", "121313.712000", "121313.714000", "121313.716000", "121313.719000", "121313.721000", "121313.723000", "121313.726000", "121313.728000", "121313.730000", "121313.733000", "121313.735000", "121313.737000", "121313.740000", "121313.742000", "121313.744000", "121313.746000", "121313.749000", "121313.751000", "121313.753000", "121353.708000", "121353.719000", "121353.721000", "121353.724000", "121353.726000", "121353.728000", "121353.731000", "121353.733000", "121353.735000", "121353.738000", "121353.740000", "121353.742000", "121353.745000", "121353.747000", "121353.749000", "121353.751000", "121353.754000", "121353.756000", "121353.758000", "121353.761000", "121433.708000", "121433.711000", "121433.713000", "121433.716000", "121433.718000", "121433.720000", "121433.723000", "121433.725000", "121433.733000", "121433.736000", "121433.738000", "121433.740000", "121433.743000", "121433.745000", "121433.747000", "121433.750000", "121433.752000", "121433.754000", "121433.757000", "121433.759000", "121513.709000", "121513.712000", "121513.714000", "121513.716000", "121513.719000", "121513.721000", "121513.723000", "121513.735000", "121513.737000", "121513.740000", "121513.742000", "121513.744000", "121513.746000", "121513.749000", "121513.751000", "121513.753000", "121513.756000", "121513.758000", "121513.760000", "121513.763000", "121553.708000", "121553.711000", "121553.713000", "121553.715000", "121553.718000", "121553.720000", "121553.722000", "121553.730000", "121553.733000", "121553.735000", "121553.737000", "121553.740000", "121553.742000", "121553.744000", "121553.747000", "121553.749000", "121553.752000", "121553.754000", "121553.756000", "121553.759000", "121633.708000", "121633.711000", "121633.713000", "121633.715000", "121633.718000", "121633.720000", "121633.722000", "121633.725000", "121633.746000", "121633.749000", "121633.751000", "121633.753000", "121633.756000", "121633.758000", "121633.760000", "121633.763000", "121633.765000", "121633.767000", "121633.770000", "121633.772000", "121713.708000", "121713.711000", "121713.713000", "121713.721000", "121713.724000", "121713.726000", "121713.728000", "121713.731000", "121713.733000", "121713.735000", "121713.738000", "121713.740000", "121713.742000", "121713.745000", "121713.747000", "121713.749000", "121713.752000", "121713.754000", "121713.756000", "121713.759000", "121753.708000", "121753.711000", "121753.713000", "121753.716000", "121753.718000", "121753.720000", "121753.723000", "121753.725000", "121753.727000", "121753.730000", "121753.732000", "121753.734000", "121753.737000", "121753.739000", "121753.741000", "121753.744000", "121753.746000", "121753.748000", "121753.750000", "121753.753000", "121826.095000", "121826.103000", "121826.105000", "121826.108000", "121826.110000", "121826.113000", "121826.115000", "121826.118000", "121826.120000", "121826.123000", "121826.125000", "121826.128000", "121826.130000", "121826.132000", "121826.135000", "121826.137000", "121826.139000"],
      "InstanceCreationTime": ["121233.713000", "121233.716000", "121233.718000", "121233.721000", "121233.723000", "121233.725000", "121233.728000", "121233.730000", "121233.732000", "121233.735000", "121233.745000", "121233.747000", "121233.750000", "121233.752000", "121233.754000", "121233.756000", "121233.759000", "121233.761000", "121233.763000", "121233.766000", "121233.768000", "121233.770000", "121233.773000", "121313.709000", "121313.712000", "121313.714000", "121313.716000", "121313.719000", "121313.721000", "121313.723000", "121313.726000", "121313.728000", "121313.730000", "121313.733000", "121313.735000", "121313.737000", "121313.740000", "121313.742000", "121313.744000", "121313.746000", "121313.749000", "121313.751000", "121313.753000", "121353.708000", "121353.719000", "121353.721000", "121353.724000", "121353.726000", "121353.728000", "121353.731000", "121353.733000", "121353.735000", "121353.738000", "121353.740000", "121353.742000", "121353.745000", "121353.747000", "121353.749000", "121353.751000", "121353.754000", "121353.756000", "121353.758000", "121353.761000", "121433.708000", "121433.711000", "121433.713000", "121433.716000", "121433.718000", "121433.720000", "121433.723000", "121433.725000", "121433.733000", "121433.736000", "121433.738000", "121433.740000", "121433.743000", "121433.745000", "121433.747000", "121433.750000", "121433.752000", "121433.754000", "121433.757000", "121433.759000", "121513.709000", "121513.712000", "121513.714000", "121513.716000", "121513.719000", "121513.721000", "121513.723000", "121513.735000", "121513.737000", "121513.740000", "121513.742000", "121513.744000", "121513.746000", "121513.749000", "121513.751000", "121513.753000", "121513.756000", "121513.758000", "121513.760000", "121513.763000", "121553.708000", "121553.711000", "121553.713000", "121553.715000", "121553.718000", "121553.720000", "121553.722000", "121553.730000", "121553.733000", "121553.735000", "121553.737000", "121553.740000", "121553.742000", "121553.744000", "121553.747000", "121553.749000", "121553.752000", "121553.754000", "121553.756000", "121553.759000", "121633.708000", "121633.711000", "121633.713000", "121633.715000", "121633.718000", "121633.720000", "121633.722000", "121633.725000", "121633.746000", "121633.749000", "121633.751000", "121633.753000", "121633.756000", "121633.758000", "121633.760000", "121633.763000", "121633.765000", "121633.767000", "121633.770000", "121633.772000", "121713.708000", "121713.711000", "121713.713000", "121713.721000", "121713.724000", "121713.726000", "121713.728000", "121713.731000", "121713.733000", "121713.735000", "121713.738000", "121713.740000", "121713.742000", "121713.745000", "121713.747000", "121713.749000", "121713.752000", "121713.754000", "121713.756000", "121713.759000", "121753.708000", "121753.711000", "121753.713000", "121753.716000", "121753.718000", "121753.720000", "121753.723000", "121753.725000", "121753.727000", "121753.730000", "121753.732000", "121753.734000", "121753.737000", "121753.739000", "121753.741000", "121753.744000", "121753.746000", "121753.748000", "121753.750000", "121753.753000", "121826.095000", "121826.103000", "121826.105000", "121826.108000", "121826.110000", "121826.113000", "121826.115000", "121826.118000", "121826.120000", "121826.123000", "121826.125000", "121826.128000", "121826.130000", "121826.132000", "121826.135000", "121826.137000", "121826.139000"],
      "InstanceNumber": [1, 2, 3, 4, 5, 6, 7, 8, 9, 10, 11, 12, 13, 14, 15, 16, 17, 18, 19, 20, 21, 22, 23, 24, 25, 26, 27, 28, 29, 30, 31, 32, 33, 34, 35, 36, 37, 38, 39, 40, 41, 42, 43, 44, 45, 46, 47, 48, 49, 50, 51, 52, 53, 54, 55, 56, 57, 58, 59, 60, 61, 62, 63, 64, 65, 66, 67, 68, 69, 70, 71, 72, 73, 74, 75, 76, 77, 78, 79, 80, 81, 82, 83, 84, 85, 86, 87, 88, 89, 90, 91, 92, 93, 94, 95, 96, 97, 98, 99, 100, 101, 102, 103, 104, 105, 106, 107, 108, 109, 110, 111, 112, 113, 114, 115, 116, 117, 118, 119, 120, 121, 122, 123, 124, 125, 126, 127, 128, 129, 130, 131, 132, 133, 134, 135, 136, 137, 138, 139, 140, 141, 142, 143, 144, 145, 146, 147, 148, 149, 150, 151, 152, 153, 154, 155, 156, 157, 158, 159, 160, 161, 162, 163, 164, 165, 166, 167, 168, 169, 170, 171, 172, 173, 174, 175, 176, 177, 178, 179, 180, 181, 182, 183, 184, 185, 186, 187, 188, 189, 190, 191, 192, 193, 194, 195, 196, 197, 198, 199, 200],
      "LargestImagePixelValue": [3673, 3673, 3681, 3671, 3686, 3671, 3672, 3687, 3679, 3682, 3687, 3672, 3674, 3675, 3677, 3686, 3692, 3672, 3671, 3679, 3683, 3679, 3679, 3676, 3690, 3677, 3674, 3666, 3673, 3705, 3687, 3668, 3654, 3660, 3671, 3681, 3671, 3662, 3659, 3664, 3667, 3680, 3674, 3677, 3674, 3676, 3679, 3667, 3666, 3657, 3662, 3662, 3662, 3668, 3670, 3677, 3665, 3662, 3657, 3660, 3659, 3673, 3671, 3672, 3668, 3676, 3672, 3661, 3660, 3661, 3666, 3660, 3666, 3663, 3665, 3661, 3657, 3655, 3664, 3659, 3657, 3648, 3661, 3660, 3657, 3657, 3659, 3664, 3667, 3653, 3666, 3672, 3662, 3659, 3671, 3666, 3671, 3667, 3667, 3666, 3664, 3672, 3662, 3662, 3671, 3659, 3665, 3660, 3662, 3667, 3664, 3668, 3660, 3656, 3663, 3657, 3647, 3653, 3654, 3653, 3654, 3648, 3653, 3646, 3658, 3650, 3642, 3663, 3649, 3650, 3653, 3666, 3666, 3670, 3666, 3670, 3684, 3670, 3666, 3672, 3659, 3668, 3663, 3661, 3660, 3662, 3667, 3658, 3659, 3658, 3665, 3672, 3669, 3670, 3666, 3664, 3661, 3670, 3659, 3671, 3676, 3674, 3667, 3675, 3669, 3660, 3659, 3664, 3677, 3676, 3671, 3654, 3663, 3659, 3666, 3674, 3675, 3663, 3665, 3661, 3657, 3658, 3669, 3671, 3666, 3664, 3656, 3660, 3674, 3684, 3681, 3664, 3663, 3668, 3675, 3670, 3670, 3662, 3671, 3656],
      "WindowCenter": [1529.0, 1527.0, 1526.0, 1526.0, 1526.0, 1526.0, 1527.0, 1530.0, 1528.0, 1526.0, 1530.0, 1527.0, 1528.0, 1527.0, 1527.0, 1528.0, 1529.0, 1530.0, 1529.0, 1527.0, 1529.0, 1528.0, 1527.0, 1528.0, 1530.0, 1529.0, 1529.0, 1526.0, 1527.0, 1528.0, 1522.0, 1521.0, 1521.0, 1521.0, 1521.0, 1521.0, 1521.0, 1521.0, 1522.0, 1521.0, 1521.0, 1521.0, 1521.0, 1521.0, 1521.0, 1521.0, 1521.0, 1521.0, 1521.0, 1521.0, 1521.0, 1521.0, 1521.0, 1521.0, 1521.0, 1521.0, 1522.0, 1521.0, 1521.0, 1522.0, 1521.0, 1521.0, 1521.0, 1521.0, 1522.0, 1521.0, 1521.0, 1521.0, 1521.0, 1522.0, 1522.0, 1522.0, 1521.0, 1522.0, 1522.0, 1521.0, 1521.0, 1521.0, 1521.0, 1521.0, 1522.0, 1521.0, 1521.0, 1521.0, 1521.0, 1521.0, 1520.0, 1521.0, 1521.0, 1522.0, 1521.0, 1521.0, 1521.0, 1522.0, 1521.0, 1521.0, 1521.0, 1521.0, 1521.0, 1521.0, 1520.0, 1521.0, 1521.0, 1521.0, 1521.0, 1521.0, 1521.0, 1521.0, 1520.0, 1521.0, 1521.0, 1520.0, 1520.0, 1520.0, 1520.0, 1520.0, 1520.0, 1520.0, 1520.0, 1520.0, 1520.0, 1520.0, 1520.0, 1520.0, 1520.0, 1520.0, 1520.0, 1519.0, 1520.0, 1520.0, 1519.0, 1520.0, 1520.0, 1519.0, 1520.0, 1520.0, 1519.0, 1520.0, 1520.0, 1520.0, 1520.0, 1520.0, 1520.0, 1520.0, 1519.0, 1520.0, 1520.0, 1519.0, 1520.0, 1520.0, 1520.0, 1520.0, 1519.0, 1519.0, 1520.0, 1520.0, 1519.0, 1519.0, 1520.0, 1520.0, 1518.0, 1519.0, 1519.0, 1519.0, 1519.0, 1520.0, 1520.0, 1519.0, 1519.0, 1519.0, 1519.0, 1519.0, 1519.0, 1519.0, 1520.0, 1520.0, 1520.0, 1519.0, 1520.0, 1520.0, 1519.0, 1520.0, 1520.0, 1520.0, 1519.0, 1520.0, 1520.0, 1520.0, 1520.0, 1520.0, 1519.0, 1519.0, 1520.0, 1520.0, 1520.0, 1520.0, 1519.0, 1520.0, 1519.0, 1520.0],
      "WindowWidth": [3351.0, 3350.0, 3349.0, 3349.0, 3350.0, 3354.0, 3355.0, 3357.0, 3354.0, 3355.0, 3355.0, 3353.0, 3355.0, 3355.0, 3354.0, 3354.0, 3356.0, 3356.0, 3354.0, 3353.0, 3353.0, 3352.0, 3351.0, 3352.0, 3353.0, 3353.0, 3354.0, 3350.0, 3351.0, 3352.0, 3348.0, 3348.0, 3349.0, 3348.0, 3349.0, 3349.0, 3348.0, 3349.0, 3349.0, 3349.0, 3349.0, 3349.0, 3349.0, 3349.0, 3349.0, 3349.0, 3349.0, 3349.0, 3349.0, 3349.0, 3349.0, 3349.0, 3349.0, 3349.0, 3349.0, 3349.0, 3349.0, 3349.0, 3349.0, 3349.0, 3349.0, 3349.0, 3349.0, 3349.0, 3349.0, 3349.0, 3349.0, 3349.0, 3349.0, 3349.0, 3349.0, 3349.0, 3349.0, 3349.0, 3349.0, 3349.0, 3349.0, 3349.0, 3349.0, 3349.0, 3349.0, 3349.0, 3349.0, 3349.0, 3349.0, 3349.0, 3350.0, 3349.0, 3349.0, 3349.0, 3349.0, 3349.0, 3349.0, 3349.0, 3349.0, 3349.0, 3349.0, 3349.0, 3349.0, 3349.0, 3349.0, 3349.0, 3349.0, 3349.0, 3349.0, 3348.0, 3349.0, 3349.0, 3348.0, 3348.0, 3349.0, 3348.0, 3348.0, 3348.0, 3348.0, 3348.0, 3348.0, 3348.0, 3348.0, 3348.0, 3348.0, 3348.0, 3348.0, 3348.0, 3348.0, 3348.0, 3348.0, 3348.0, 3348.0, 3348.0, 3348.0, 3348.0, 3348.0, 3348.0, 3347.0, 3347.0, 3348.0, 3348.0, 3348.0, 3348.0, 3348.0, 3347.0, 3348.0, 3348.0, 3348.0, 3348.0, 3348.0, 3348.0, 3348.0, 3348.0, 3348.0, 3348.0, 3348.0, 3348.0, 3348.0, 3348.0, 3347.0, 3347.0, 3348.0, 3348.0, 3348.0, 3348.0, 3347.0, 3347.0, 3348.0, 3348.0, 3348.0, 3348.0, 3348.0, 3347.0, 3347.0, 3347.0, 3347.0, 3347.0, 3347.0, 3347.0, 3348.0, 3347.0, 3347.0, 3348.0, 3347.0, 3347.0, 3347.0, 3348.0, 3348.0, 3347.0, 3348.0, 3348.0, 3348.0, 3347.0, 3348.0, 3347.0, 3347.0, 3347.0, 3347.0, 3347.0, 3347.0, 3347.0, 3347.0, 3347.0]
    },
    "slices": {}
  }
}