{
  "AcquisitionMatrixPE": 80,
  "AcquisitionNumber": 1,
  "AcquisitionTime": "12:31:39.467500",
  "BandwidthPerPixelPhaseEncode": 48.077,
  "BaseResolution": 80,
  "BodyPartExamined": "BRAIN",
  "CoilCombinationMethod": "Sum of Squares",
  "ConsistencyInfo": "N4_VE11E_LATEST_20181129",
  "ConversionSoftware": "dcm2niix",
  "ConversionSoftwareVersion": "v1.0.20220720",
  "DerivedVendorReportedEchoSpacing": 0.000519999,
  "DeviceSerialNumber": "66112",
  "DwellTime": 2.7e-06,
  "EchoTime": 0.035,
  "EchoTrainLength": 39,
  "EffectiveEchoSpacing": 0.00026,
  "FlipAngle": 90,
  "HeudiconvVersion": "0.13.1",
  "ImageOrientationPatientDICOM": [1, -0.000174488, -3.261e-12, 0.000174488, 1, 2.2083e-11],
  "ImageOrientationText": "Tra",
  "ImageType": [
    "ORIGINAL",
    "PRIMARY",
    "M",
    "ND",
    "MOSAIC"
],
  "ImagingFrequency": 123.259,
  "InPlanePhaseEncodingDirectionDICOM": "COL",
  "InstitutionAddress": "Maynard 3,Hanover,NH,US,03755",
  "InstitutionName": "Dartmouth College - PBS",
  "InstitutionalDepartmentName": "Department",
  "MRAcquisitionType": "2D",
  "MagneticFieldStrength": 3,
  "Manufacturer": "Siemens",
  "ManufacturersModelName": "Prisma",
  "MatrixCoilMode": "GRAPPA",
  "Modality": "MR",
  "NonlinearGradientCorrection": false,
  "ParallelReductionFactorInPlane": 2,
  "PartialFourier": 1,
  "PatientPosition": "HFS",
  "PercentPhaseFOV": 100,
  "PercentSampling": 100,
  "PhaseEncodingDirection": "j-",
  "PhaseEncodingSteps": 79,
  "PhaseResolution": 1,
  "PixelBandwidth": 2315,
  "ProcedureStepDescription": "dbic^QA",
  "ProtocolName": "func-bold_task-rest_acq-p2",
  "PulseSequenceDetails": "%SiemensSeq%\\ep2d_bold",
  "ReceiveCoilActiveElements": "BO1-3;HE1-4;NE1,2",
  "ReceiveCoilName": "Body_18",
  "ReconMatrixPE": 80,
  "RefLinesPE": 24,
  "RepetitionTime": 2,
  "SAR": 0.0538557,
  "ScanOptions": "FS",
  "ScanningSequence": "EP",
  "SequenceName": "*epfid2d1_80",
  "SequenceVariant": "SK",
  "SeriesDescription": "func-bold_task-rest_acq-p2",
  "SeriesNumber": 16,
  "ShimSetting": [4218, -7746, -7449, -39, -158, -66, -28, 63],
  "SliceThickness": 3.5,
  "SliceTiming": [0.99, 0, 1.055, 0.065, 1.12, 0.1325, 1.1875, 0.1975, 1.2525, 0.2625, 1.32, 0.33, 1.385, 0.395, 1.45, 0.46, 1.5175, 0.5275, 1.5825, 0.5925, 1.65, 0.66, 1.715, 0.725, 1.78, 0.79, 1.8475, 0.8575, 1.9125, 0.9225],
  "SoftwareVersions": "syngo MR E11",
  "SpacingBetweenSlices": 3.99,
  "StationName": "AWP66112",
  "TaskName": "rest",
  "TotalReadoutTime": 0.02054,
  "TxRefAmp": 250.638,
  "dcmmeta_affine": [
    [-3.0, 0.0005234638811089098, -1.2996015721911114e-11, 121.89958190917969],
    [0.0005234638811089098, 3.0, 8.811344015535738e-11, -129.18832397460938],
    [-9.782999930985081e-12, -6.624899934193351e-11, 3.990000009536743, -36.081787109375],
    [0.0, 0.0, 0.0, 1.0]
],
  "dcmmeta_reorient_transform": [
    [0.0, -1.0, 0.0, 79.0],
    [1.0, 0.0, 0.0, 0.0],
    [0.0, 0.0, 1.0, 0.0],
    [0.0, 0.0, 0.0, 1.0]
],
  "dcmmeta_shape": [80, 80, 30, 190],
  "dcmmeta_slice_dim": 2,
  "dcmmeta_version": 0.6,
  "global": {
    "const": {
      "AccessionNumber": "qa64",
      "AcquisitionMatrix": [80, 0, 0, 80],
      "AngioFlag": "N",
      "BitsAllocated": 16,
      "BitsStored": 12,
      "BodyPartExamined": "BRAIN",
      "Columns": 480,
      "EchoNumbers": 1,
      "EchoTime": 35.0,
      "EchoTrainLength": 39,
      "FlipAngle": 90.0,
      "HighBit": 11,
      "ImageOrientationPatient": [0.99999998477698, -0.0001744879545, -3.261e-12, 0.00017448795449, 0.99999998477698, 2.2083e-11],
      "ImagePositionPatient": [-722.04562044295, -707.70697356455, -36.081787122927],
      "ImageType": [
        "ORIGINAL",
        "PRIMARY",
        "M",
        "ND",
        "MOSAIC"
],
      "ImagedNucleus": "1H",
      "ImagingFrequency": 123.259235,
      "InPlanePhaseEncodingDirection": "COL",
      "LargestImagePixelValue": 4095,
      "MRAcquisitionType": "2D",
      "MagneticFieldStrength": 3.0,
      "Manufacturer": "SIEMENS",
      "ManufacturerModelName": "Prisma",
      "Modality": "MR",
      "NumberOfAverages": 1.0,
      "NumberOfPhaseEncodingSteps": 79,
      "PercentPhaseFieldOfView": 100.0,
      "PercentSampling": 100.0,
      "PerformedProcedureStepStartTime": "104710.966000",
      "PhotometricInterpretation": "MONOCHROME2",
      "PixelBandwidth": 2315.0,
      "PixelRepresentation": 0,
      "PixelSpacing": [3.0, 3.0],
      "ProtocolName": "func-bold_task-rest_acq-p2",
      "RepetitionTime": 2000.0,
      "Rows": 480,
      "SAR": 0.05385566314625,
      "SamplesPerPixel": 1,
      "ScanOptions": "FS",
      "ScanningSequence": "EP",
      "SequenceName": "*epfid2d1_80",
      "SequenceVariant": "SK",
      "SeriesDescription": "func-bold_task-rest_acq-p2",
      "SeriesNumber": 16,
      "SeriesTime": "123233.625000",
      "SliceLocation": -36.08178710965,
      "SliceThickness": 3.5,
      "SmallestImagePixelValue": 0,
      "SoftwareVersions": "syngo MR E11",
      "SpacingBetweenSlices": 3.9899999684301,
      "SpecificCharacterSet": "ISO_IR 100",
      "StudyID": "16",
      "StudyTime": "104710.913000",
      "TransmitCoilName": "Body",
      "VariableFlipAngleFlag": "N",
      "WindowCenterWidthExplanation": "Algo1"
    },
    "slices": {}
  },
  "time": {
    "samples": {
      "AcquisitionNumber": [1, 2, 3, 4, 5, 6, 7, 8, 9, 10, 11, 12, 13, 14, 15, 16, 17, 18, 19, 20, 21, 22, 23, 24, 25, 26, 27, 28, 29, 30, 31, 32, 33, 34, 35, 36, 37, 38, 39, 40, 41, 42, 43, 44, 45, 46, 47, 48, 49, 50, 51, 52, 53, 54, 55, 56, 57, 58, 59, 60, 61, 62, 63, 64, 65, 66, 67, 68, 69, 70, 71, 72, 73, 74, 75, 76, 77, 78, 79, 80, 81, 82, 83, 84, 85, 86, 87, 88, 89, 90, 91, 92, 93, 94, 95, 96, 97, 98, 99, 100, 101, 102, 103, 104, 105, 106, 107, 108, 109, 110, 111, 112, 113, 114, 115, 116, 117, 118, 119, 120, 121, 122, 123, 124, 125, 126, 127, 128, 129, 130, 131, 132, 133, 134, 135, 136, 137, 138, 139, 140, 141, 142, 143, 144, 145, 146, 147, 148, 149, 150, 151, 152, 153, 154, 155, 156, 157, 158, 159, 160, 161, 162, 163, 164, 165, 166, 167, 168, 169, 170, 171, 172, 173, 174, 175, 176, 177, 178, 179, 180, 181, 182, 183, 184, 185, 186, 187, 188, 189, 190],
      "AcquisitionTime": ["123139.467500", "123141.467500", "123143.467500", "123145.467500", "123147.467500", "123149.467500", "123151.467500", "123153.467500", "123155.467500", "123157.467500", "123159.467500", "123201.467500", "123203.467500", "123205.467500", "123207.467500", "123209.467500", "123211.467500", "123213.467500", "123215.467500", "123217.467500", "123219.467500", "123221.467500", "123223.467500", "123225.467500", "123227.467500", "123229.467500", "123231.467500", "123233.467500", "123235.467500", "123237.467500", "123239.467500", "123241.467500", "123243.467500", "123245.467500", "123247.467500", "123249.467500", "123251.467500", "123253.467500", "123255.467500", "123257.467500", "123259.467500", "123301.467500", "123303.467500", "123305.467500", "123307.467500", "123309.467500", "123311.467500", "123313.467500", "123315.467500", "123317.467500", "123319.467500", "123321.467500", "123323.467500", "123325.467500", "123327.467500", "123329.467500", "123331.467500", "123333.467500", "123335.467500", "123337.467500", "123339.467500", "123341.467500", "123343.467500", "123345.467500", "123347.467500", "123349.467500", "123351.467500", "123353.467500", "123355.467500", "123357.467500", "123359.467500", "123401.467500", "123403.467500", "123405.467500", "123407.467500", "123409.467500", "123411.467500", "123413.467500", "123415.467500", "123417.467500", "123419.467500", "123421.467500", "123423.467500", "123425.467500", "123427.467500", "123429.467500", "123431.467500", "123433.467500", "123435.467500", "123437.467500", "123439.467500", "123441.467500", "123443.467500", "123445.467500", "123447.467500", "123449.467500", "123451.467500", "123453.467500", "123455.467500", "123457.467500", "123459.467500", "123501.467500", "123503.467500", "123505.467500", "123507.467500", "123509.467500", "123511.467500", "123513.467500", "123515.467500", "123517.467500", "123519.467500", "123521.467500", "123523.467500", "123525.467500", "123527.467500", "123529.467500", "123531.467500", "123533.467500", "123535.467500", "123537.467500", "123539.467500", "123541.467500", "123543.467500", "123545.467500", "123547.467500", "123549.467500", "123551.467500", "123553.467500", "123555.467500", "123557.467500", "123559.467500", "123601.467500", "123603.467500", "123605.467500", "123607.467500", "123609.467500", "123611.467500", "123613.467500", "123615.467500", "123617.467500", "123619.467500", "123621.467500", "123623.467500", "123625.467500", "123627.467500", "123629.467500", "123631.467500", "123633.467500", "123635.467500", "123637.467500", "123639.467500", "123641.467500", "123643.467500", "123645.467500", "123647.467500", "123649.467500", "123651.467500", "123653.467500", "123655.467500", "123657.467500", "123659.467500", "123701.467500", "123703.467500", "123705.467500", "123707.467500", "123709.467500", "123711.467500", "123713.467500", "123715.467500", "123717.467500", "123719.467500", "123721.467500", "123723.467500", "123725.467500", "123727.467500", "123729.467500", "123731.467500", "123733.467500", "123735.467500", "123737.467500", "123739.467500", "123741.467500", "123743.467500", "123745.467500", "123747.467500", "123749.467500", "123751.467500", "123753.467500", "123755.467500", "123757.467500"],
      "ContentTime": ["123233.628000", "123233.632000", "123233.634000", "123233.636000", "123233.638000", "123233.641000", "123233.643000", "123233.645000", "123233.648000", "123233.650000", "123233.652000", "123233.655000", "123233.657000", "123233.659000", "123233.661000", "123233.664000", "123233.666000", "123233.668000", "123233.671000", "123233.681000", "123233.684000", "123233.686000", "123233.688000", "123233.691000", "123233.693000", "123233.695000", "123233.698000", "123313.623000", "123313.626000", "123313.628000", "123313.630000", "123313.633000", "123313.635000", "123313.644000", "123313.646000", "123313.648000", "123313.651000", "123313.653000", "123313.655000", "123313.658000", "123313.660000", "123313.662000", "123313.665000", "123313.667000", "123313.669000", "123313.672000", "123313.674000", "123353.625000", "123353.627000", "123353.629000", "123353.632000", "123353.634000", "123353.636000", "123353.639000", "123353.641000", "123353.643000", "123353.646000", "123353.648000", "123353.650000", "123353.652000", "123353.655000", "123353.657000", "123353.660000", "123353.662000", "123353.664000", "123353.667000", "123353.669000", "123433.623000", "123433.626000", "123433.628000", "123433.630000", "123433.633000", "123433.635000", "123433.637000", "123433.640000", "123433.642000", "123433.644000", "123433.647000", "123433.649000", "123433.651000", "123433.654000", "123433.656000", "123433.658000", "123433.660000", "123433.663000", "123433.665000", "123433.668000", "123513.623000", "123513.626000", "123513.628000", "123513.631000", "123513.633000", "123513.642000", "123513.645000", "123513.647000", "123513.650000", "123513.652000", "123513.654000", "123513.656000", "123513.659000", "123513.661000", "123513.663000", "123513.666000", "123513.668000", "123513.670000", "123513.673000", "123513.675000", "123553.623000", "123553.626000", "123553.628000", "123553.630000", "123553.633000", "123553.635000", "123553.637000", "123553.640000", "123553.642000", "123553.644000", "123553.647000", "123553.649000", "123553.651000", "123553.654000", "123553.656000", "123553.658000", "123553.661000", "123553.663000", "123553.665000", "123553.668000", "123633.623000", "123633.626000", "123633.628000", "123633.637000", "123633.640000", "123633.642000", "123633.644000", "123633.647000", "123633.649000", "123633.651000", "123633.654000", "123633.656000", "123633.658000", "123633.661000", "123633.663000", "123633.665000", "123633.668000", "123633.670000", "123633.672000", "123633.675000", "123713.623000", "123713.626000", "123713.628000", "123713.631000", "123713.633000", "123713.635000", "123713.637000", "123713.640000", "123713.642000", "123713.644000", "123713.647000", "123713.649000", "123713.652000", "123713.654000", "123713.656000", "123713.659000", "123713.661000", "123713.663000", "123713.665000", "123713.668000", "123753.623000", "123753.626000", "123753.628000", "123753.630000", "123753.633000", "123753.635000", "123753.638000", "123753.640000", "123753.642000", "123753.644000", "123753.647000", "123753.649000", "123753.651000", "123753.653000", "123753.656000", "123753.658000", "123753.660000", "123753.663000", "123753.665000", "123753.667000", "123801.098000", "123801.101000", "123801.103000"],
      "InstanceCreationTime": ["123233.628000", "123233.632000", "123233.634000", "123233.636000", "123233.638000", "123233.641000", "123233.643000", "123233.645000", "123233.648000", "123233.650000", "123233.652000", "123233.655000", "123233.657000", "123233.659000", "123233.661000", "123233.664000", "123233.666000", "123233.668000", "123233.671000", "123233.681000", "123233.684000", "123233.686000", "123233.688000", "123233.691000", "123233.693000", "123233.695000", "123233.698000", "123313.623000", "123313.626000", "123313.628000", "123313.630000", "123313.633000", "123313.635000", "123313.644000", "123313.646000", "123313.648000", "123313.651000", "123313.653000", "123313.655000", "123313.658000", "123313.660000", "123313.662000", "123313.665000", "123313.667000", "123313.669000", "123313.672000", "123313.674000", "123353.625000", "123353.627000", "123353.629000", "123353.632000", "123353.634000", "123353.636000", "123353.639000", "123353.641000", "123353.643000", "123353.646000", "123353.648000", "123353.650000", "123353.652000", "123353.655000", "123353.657000", "123353.660000", "123353.662000", "123353.664000", "123353.667000", "123353.669000", "123433.623000", "123433.626000", "123433.628000", "123433.630000", "123433.633000", "123433.635000", "123433.637000", "123433.640000", "123433.642000", "123433.644000", "123433.647000", "123433.649000", "123433.651000", "123433.654000", "123433.656000", "123433.658000", "123433.660000", "123433.663000", "123433.665000", "123433.668000", "123513.623000", "123513.626000", "123513.628000", "123513.631000", "123513.633000", "123513.642000", "123513.645000", "123513.647000", "123513.650000", "123513.652000", "123513.654000", "123513.656000", "123513.659000", "123513.661000", "123513.663000", "123513.666000", "123513.668000", "123513.670000", "123513.673000", "123513.675000", "123553.623000", "123553.626000", "123553.628000", "123553.630000", "123553.633000", "123553.635000", "123553.637000", "123553.640000", "123553.642000", "123553.644000", "123553.647000", "123553.649000", "123553.651000", "123553.654000", "123553.656000", "123553.658000", "123553.661000", "123553.663000", "123553.665000", "123553.668000", "123633.623000", "123633.626000", "123633.628000", "123633.637000", "123633.640000", "123633.642000", "123633.644000", "123633.647000", "123633.649000", "123633.651000", "123633.654000", "123633.656000", "123633.658000", "123633.661000", "123633.663000", "123633.665000", "123633.668000", "123633.670000", "123633.672000", "123633.675000", "123713.623000", "123713.626000", "123713.628000", "123713.631000", "123713.633000", "123713.635000", "123713.637000", "123713.640000", "123713.642000", "123713.644000", "123713.647000", "123713.649000", "123713.652000", "123713.654000", "123713.656000", "123713.659000", "123713.661000", "123713.663000", "123713.665000", "123713.668000", "123753.623000", "123753.626000", "123753.628000", "123753.630000", "123753.633000", "123753.635000", "123753.638000", "123753.640000", "123753.642000", "123753.644000", "123753.647000", "123753.649000", "123753.651000", "123753.653000", "123753.656000", "123753.658000", "123753.660000", "123753.663000", "123753.665000", "123753.667000", "123801.098000", "123801.101000", "123801.103000"],
      "InstanceNumber": [1, 2, 3, 4, 5, 6, 7, 8, 9, 10, 11, 12, 13, 14, 15, 16, 17, 18, 19, 20, 21, 22, 23, 24, 25, 26, 27, 28, 29, 30, 31, 32, 33, 34, 35, 36, 37, 38, 39, 40, 41, 42, 43, 44, 45, 46, 47, 48, 49, 50, 51, 52, 53, 54, 55, 56, 57, 58, 59, 60, 61, 62, 63, 64, 65, 66, 67, 68, 69, 70, 71, 72, 73, 74, 75, 76, 77, 78, 79, 80, 81, 82, 83, 84, 85, 86, 87, 88, 89, 90, 91, 92, 93, 94, 95, 96, 97, 98, 99, 100, 101, 102, 103, 104, 105, 106, 107, 108, 109, 110, 111, 112, 113, 114, 115, 116, 117, 118, 119, 120, 121, 122, 123, 124, 125, 126, 127, 128, 129, 130, 131, 132, 133, 134, 135, 136, 137, 138, 139, 140, 141, 142, 143, 144, 145, 146, 147, 148, 149, 150, 151, 152, 153, 154, 155, 156, 157, 158, 159, 160, 161, 162, 163, 164, 165, 166, 167, 168, 169, 170, 171, 172, 173, 174, 175, 176, 177, 178, 179, 180, 181, 182, 183, 184, 185, 186, 187, 188, 189, 190],
      "WindowCenter": [1141.0, 1141.0, 1141.0, 1141.0, 1141.0, 1141.0, 1141.0, 1141.0, 1142.0, 1141.0, 1141.0, 1140.0, 1141.0, 1141.0, 1140.0, 1141.0, 1141.0, 1142.0, 1142.0, 1142.0, 1142.0, 1142.0, 1142.0, 1141.0, 1141.0, 1142.0, 1142.0, 1143.0, 1142.0, 1142.0, 1142.0, 1142.0, 1142.0, 1142.0, 1142.0, 1141.0, 1142.0, 1142.0, 1142.0, 1142.0, 1142.0, 1143.0, 1142.0, 1142.0, 1142.0, 1142.0, 1142.0, 1142.0, 1141.0, 1142.0, 1142.0, 1141.0, 1141.0, 1142.0, 1141.0, 1141.0, 1142.0, 1142.0, 1142.0, 1141.0, 1141.0, 1142.0, 1143.0, 1142.0, 1142.0, 1142.0, 1141.0, 1141.0, 1141.0, 1142.0, 1143.0, 1142.0, 1142.0, 1141.0, 1142.0, 1142.0, 1142.0, 1142.0, 1142.0, 1142.0, 1140.0, 1141.0, 1141.0, 1141.0, 1142.0, 1142.0, 1142.0, 1141.0, 1141.0, 1141.0, 1141.0, 1141.0, 1141.0, 1141.0, 1141.0, 1142.0, 1141.0, 1141.0, 1141.0, 1142.0, 1141.0, 1141.0, 1141.0, 1140.0, 1142.0, 1142.0, 1141.0, 1141.0, 1141.0, 1141.0, 1141.0, 1140.0, 1140.0, 1141.0, 1142.0, 1141.0, 1141.0, 1142.0, 1141.0, 1141.0, 1141.0, 1141.0, 1141.0, 1141.0, 1141.0, 1141.0, 1141.0, 1141.0, 1142.0, 1141.0, 1142.0, 1141.0, 1142.0, 1142.0, 1141.0, 1141.0, 1142.0, 1142.0, 1142.0, 1141.0, 1141.0, 1140.0, 1141.0, 1141.0, 1142.0, 1142.0, 1141.0, 1141.0, 1141.0, 1141.0, 1142.0, 1142.0, 1141.0, 1141.0, 1141.0, 1142.0, 1142.0, 1142.0, 1141.0, 1140.0, 1141.0, 1141.0, 1141.0, 1141.0, 1140.0, 1142.0, 1142.0, 1142.0, 1141.0, 1142.0, 1141.0, 1141.0, 1141.0, 1142.0, 1142.0, 1141.0, 1141.0, 1142.0, 1141.0, 1142.0, 1141.0, 1141.0, 1142.0, 1141.0, 1142.0, 1141.0, 1141.0, 1141.0, 1141.0, 1141.0],
      "WindowWidth": [3163.0, 3161.0, 3162.0, 3161.0, 3161.0, 3161.0, 3161.0, 3161.0, 3161.0, 3161.0, 3161.0, 3162.0, 3162.0, 3162.0, 3162.0, 3162.0, 3162.0, 3162.0, 3162.0, 3162.0, 3162.0, 3162.0, 3162.0, 3162.0, 3162.0, 3162.0, 3162.0, 3162.0, 3162.0, 3162.0, 3162.0, 3162.0, 3162.0, 3162.0, 3162.0, 3162.0, 3162.0, 3162.0, 3162.0, 3162.0, 3162.0, 3162.0, 3162.0, 3162.0, 3162.0, 3162.0, 3162.0, 3162.0, 3162.0, 3162.0, 3162.0, 3162.0, 3162.0, 3162.0, 3162.0, 3162.0, 3162.0, 3162.0, 3162.0, 3162.0, 3162.0, 3162.0, 3161.0, 3162.0, 3162.0, 3161.0, 3161.0, 3162.0, 3162.0, 3161.0, 3161.0, 3161.0, 3161.0, 3161.0, 3161.0, 3161.0, 3161.0, 3160.0, 3160.0, 3160.0, 3161.0, 3161.0, 3161.0, 3161.0, 3160.0, 3160.0, 3160.0, 3160.0, 3160.0, 3160.0, 3160.0, 3160.0, 3160.0, 3160.0, 3160.0, 3159.0, 3160.0, 3160.0, 3159.0, 3159.0, 3160.0, 3160.0, 3160.0, 3160.0, 3159.0, 3159.0, 3159.0, 3160.0, 3159.0, 3159.0, 3159.0, 3160.0, 3160.0, 3159.0, 3159.0, 3159.0, 3160.0, 3159.0, 3160.0, 3159.0, 3160.0, 3160.0, 3159.0, 3160.0, 3159.0, 3160.0, 3160.0, 3159.0, 3159.0, 3160.0, 3159.0, 3160.0, 3160.0, 3160.0, 3160.0, 3160.0, 3159.0, 3159.0, 3159.0, 3160.0, 3159.0, 3160.0, 3160.0, 3160.0, 3160.0, 3160.0, 3160.0, 3160.0, 3160.0, 3160.0, 3159.0, 3159.0, 3160.0, 3160.0, 3160.0, 3160.0, 3159.0, 3159.0, 3160.0, 3160.0, 3160.0, 3159.0, 3159.0, 3160.0, 3160.0, 3159.0, 3159.0, 3159.0, 3160.0, 3159.0, 3160.0, 3160.0, 3160.0, 3159.0, 3159.0, 3160.0, 3160.0, 3159.0, 3160.0, 3160.0, 3160.0, 3160.0, 3160.0, 3160.0, 3159.0, 3160.0, 3160.0, 3160.0, 3160.0, 3160.0]
    },
    "slices": {}
  }
}