{
  "AcquisitionMatrixPE": 80,
  "AcquisitionNumber": 1,
  "AcquisitionTime": "14:40:5.452500",
  "BandwidthPerPixelPhaseEncode": 48.077,
  "BaseResolution": 80,
  "BodyPartExamined": "BRAIN",
  "CoilCombinationMethod": "Sum of Squares",
  "ConsistencyInfo": "N4_VE11E_LATEST_20181129",
  "ConversionSoftware": "dcm2niix",
  "ConversionSoftwareVersion": "v1.0.20220720",
  "DerivedVendorReportedEchoSpacing": 0.000519999,
  "DeviceSerialNumber": "66112",
  "DwellTime": 2.7e-06,
  "EchoTime": 0.035,
  "EchoTrainLength": 39,
  "EffectiveEchoSpacing": 0.00026,
  "FlipAngle": 90,
  "HeudiconvVersion": "0.13.1",
  "ImageOrientationPatientDICOM": [0.99459, -0.103866, 0.00126439, 0.0985721, 0.947596, 0.303885],
  "ImageOrientationText": "Tra>Cor(17.6)>Sag(1.9)",
  "ImageType": [
    "ORIGINAL",
    "PRIMARY",
    "M",
    "ND",
    "NORM",
    "MOSAIC"
],
  "ImagingFrequency": 123.259,
  "InPlanePhaseEncodingDirectionDICOM": "COL",
  "InstitutionAddress": "Maynard 3,Hanover,NH,US,03755",
  "InstitutionName": "Dartmouth College - PBS",
  "InstitutionalDepartmentName": "Department",
  "MRAcquisitionType": "2D",
  "MagneticFieldStrength": 3,
  "Manufacturer": "Siemens",
  "ManufacturersModelName": "Prisma",
  "MatrixCoilMode": "GRAPPA",
  "Modality": "MR",
  "NonlinearGradientCorrection": false,
  "ParallelReductionFactorInPlane": 2,
  "PartialFourier": 1,
  "PatientPosition": "HFS",
  "PercentPhaseFOV": 100,
  "PercentSampling": 100,
  "PhaseEncodingDirection": "j-",
  "PhaseEncodingSteps": 79,
  "PhaseResolution": 1,
  "PixelBandwidth": 2315,
  "ProcedureStepDescription": "dbic^QA",
  "ProtocolName": "func-bold_task-rest_acq-p2",
  "PulseSequenceDetails": "%SiemensSeq%\\ep2d_bold",
  "ReceiveCoilActiveElements": "HC1-7;NC1,2",
  "ReceiveCoilName": "HeadNeck_64",
  "ReconMatrixPE": 80,
  "RefLinesPE": 24,
  "RepetitionTime": 2,
  "SAR": 0.0356959,
  "ScanOptions": "FS",
  "ScanningSequence": "EP",
  "SequenceName": "*epfid2d1_80",
  "SequenceVariant": "SK",
  "SeriesDescription": "func-bold_task-rest_acq-p2",
  "SeriesNumber": 5,
  "ShimSetting": [4214, -7729, -7482, -80, -132, -117, -62, 111],
  "SliceThickness": 3.5,
  "SliceTiming": [0.99, 0, 1.055, 0.065, 1.1225, 0.1325, 1.1875, 0.1975, 1.2525, 0.265, 1.32, 0.33, 1.385, 0.395, 1.4525, 0.4625, 1.5175, 0.5275, 1.5825, 0.595, 1.65, 0.66, 1.715, 0.725, 1.7825, 0.7925, 1.8475, 0.8575, 1.9125, 0.925],
  "SoftwareVersions": "syngo MR E11",
  "SpacingBetweenSlices": 3.99,
  "StationName": "AWP66112",
  "TaskName": "rest",
  "TotalReadoutTime": 0.02054,
  "TxRefAmp": 220.713,
  "dcmmeta_affine": [
    [-2.983771562576294, 0.295716255903244, 0.1307181417942047, 108.45936584472656],
    [0.3115983307361603, 2.842787265777588, 1.2054431438446045, -142.99620056152344],
    [0.0037931674160063267, -0.9116536974906921, 3.801304817199707, -22.814851760864258],
    [0.0, 0.0, 0.0, 1.0]
],
  "dcmmeta_reorient_transform": [
    [0.0, -1.0, 0.0, 79.0],
    [1.0, 0.0, 0.0, 0.0],
    [0.0, 0.0, 1.0, 0.0],
    [0.0, 0.0, 0.0, 1.0]
],
  "dcmmeta_shape": [80, 80, 30, 200],
  "dcmmeta_slice_dim": 2,
  "dcmmeta_version": 0.6,
  "global": {
    "const": {
      "AccessionNumber": "qa64",
      "AcquisitionMatrix": [80, 0, 0, 80],
      "AngioFlag": "N",
      "BitsAllocated": 16,
      "BitsStored": 12,
      "BodyPartExamined": "BRAIN",
      "Columns": 480,
      "EchoNumbers": 1,
      "EchoTime": 35.0,
      "EchoTrainLength": 39,
      "FlipAngle": 90.0,
      "HighBit": 11,
      "ImageOrientationPatient": [0.9945904845129, -0.1038661130327, 0.00126438913096, 0.0985720864346, 0.9475957526759, 0.30388457230751],
      "ImagePositionPatient": [-787.71849105651, -587.82177013907, -277.9248730853],
      "ImageType": [
        "ORIGINAL",
        "PRIMARY",
        "M",
        "ND",
        "NORM",
        "MOSAIC"
],
      "ImagedNucleus": "1H",
      "ImagingFrequency": 123.259256,
      "InPlanePhaseEncodingDirection": "COL",
      "LargestImagePixelValue": 4095,
      "MRAcquisitionType": "2D",
      "MagneticFieldStrength": 3.0,
      "Manufacturer": "SIEMENS",
      "ManufacturerModelName": "Prisma",
      "Modality": "MR",
      "NumberOfAverages": 1.0,
      "NumberOfPhaseEncodingSteps": 79,
      "PercentPhaseFieldOfView": 100.0,
      "PercentSampling": 100.0,
      "PerformedProcedureStepStartTime": "143835.289000",
      "PhotometricInterpretation": "MONOCHROME2",
      "PixelBandwidth": 2315.0,
      "PixelRepresentation": 0,
      "PixelSpacing": [3.0, 3.0],
      "ProtocolName": "func-bold_task-rest_acq-p2",
      "RepetitionTime": 2000.0,
      "Rows": 480,
      "SAR": 0.03569591631288,
      "SamplesPerPixel": 1,
      "ScanOptions": "FS",
      "ScanningSequence": "EP",
      "SequenceName": "*epfid2d1_80",
      "SequenceVariant": "SK",
      "SeriesDescription": "func-bold_task-rest_acq-p2",
      "SeriesNumber": 5,
      "SeriesTime": "144053.710000",
      "SliceLocation": -61.384060313187,
      "SliceThickness": 3.5,
      "SmallestImagePixelValue": 0,
      "SoftwareVersions": "syngo MR E11",
      "SpacingBetweenSlices": 3.9899999361038,
      "SpecificCharacterSet": "ISO_IR 100",
      "StudyID": "17",
      "StudyTime": "143835.205000",
      "TransmitCoilName": "Body",
      "VariableFlipAngleFlag": "N",
      "WindowCenterWidthExplanation": "Algo1"
    },
    "slices": {}
  },
  "time": {
    "samples": {
      "AcquisitionNumber": [1, 2, 3, 4, 5, 6, 7, 8, 9, 10, 11, 12, 13, 14, 15, 16, 17, 18, 19, 20, 21, 22, 23, 24, 25, 26, 27, 28, 29, 30, 31, 32, 33, 34, 35, 36, 37, 38, 39, 40, 41, 42, 43, 44, 45, 46, 47, 48, 49, 50, 51, 52, 53, 54, 55, 56, 57, 58, 59, 60, 61, 62, 63, 64, 65, 66, 67, 68, 69, 70, 71, 72, 73, 74, 75, 76, 77, 78, 79, 80, 81, 82, 83, 84, 85, 86, 87, 88, 89, 90, 91, 92, 93, 94, 95, 96, 97, 98, 99, 100, 101, 102, 103, 104, 105, 106, 107, 108, 109, 110, 111, 112, 113, 114, 115, 116, 117, 118, 119, 120, 121, 122, 123, 124, 125, 126, 127, 128, 129, 130, 131, 132, 133, 134, 135, 136, 137, 138, 139, 140, 141, 142, 143, 144, 145, 146, 147, 148, 149, 150, 151, 152, 153, 154, 155, 156, 157, 158, 159, 160, 161, 162, 163, 164, 165, 166, 167, 168, 169, 170, 171, 172, 173, 174, 175, 176, 177, 178, 179, 180, 181, 182, 183, 184, 185, 186, 187, 188, 189, 190, 191, 192, 193, 194, 195, 196, 197, 198, 199, 200],
      "AcquisitionTime": ["144005.452500", "144007.452500", "144009.452500", "144011.452500", "144013.452500", "144015.452500", "144017.452500", "144019.452500", "144021.452500", "144023.452500", "144025.452500", "144027.452500", "144029.452500", "144031.452500", "144033.452500", "144035.452500", "144037.452500", "144039.452500", "144041.452500", "144043.452500", "144045.452500", "144047.452500", "144049.452500", "144051.452500", "144053.452500", "144055.452500", "144057.452500", "144059.452500", "144101.452500", "144103.452500", "144105.452500", "144107.452500", "144109.452500", "144111.452500", "144113.452500", "144115.452500", "144117.452500", "144119.452500", "144121.452500", "144123.452500", "144125.452500", "144127.452500", "144129.452500", "144131.452500", "144133.452500", "144135.452500", "144137.452500", "144139.452500", "144141.452500", "144143.452500", "144145.452500", "144147.452500", "144149.452500", "144151.452500", "144153.452500", "144155.452500", "144157.452500", "144159.452500", "144201.452500", "144203.452500", "144205.452500", "144207.452500", "144209.452500", "144211.452500", "144213.452500", "144215.452500", "144217.452500", "144219.452500", "144221.452500", "144223.452500", "144225.452500", "144227.452500", "144229.452500", "144231.452500", "144233.452500", "144235.452500", "144237.452500", "144239.452500", "144241.452500", "144243.452500", "144245.452500", "144247.452500", "144249.452500", "144251.452500", "144253.452500", "144255.452500", "144257.452500", "144259.452500", "144301.452500", "144303.452500", "144305.452500", "144307.452500", "144309.452500", "144311.452500", "144313.452500", "144315.452500", "144317.452500", "144319.452500", "144321.452500", "144323.452500", "144325.452500", "144327.452500", "144329.452500", "144331.452500", "144333.452500", "144335.452500", "144337.452500", "144339.452500", "144341.452500", "144343.452500", "144345.452500", "144347.452500", "144349.452500", "144351.452500", "144353.452500", "144355.452500", "144357.452500", "144359.452500", "144401.452500", "144403.452500", "144405.452500", "144407.452500", "144409.452500", "144411.452500", "144413.452500", "144415.452500", "144417.452500", "144419.452500", "144421.452500", "144423.452500", "144425.452500", "144427.452500", "144429.452500", "144431.452500", "144433.452500", "144435.452500", "144437.452500", "144439.452500", "144441.452500", "144443.452500", "144445.452500", "144447.452500", "144449.452500", "144451.452500", "144453.452500", "144455.452500", "144457.452500", "144459.452500", "144501.452500", "144503.452500", "144505.452500", "144507.452500", "144509.452500", "144511.452500", "144513.452500", "144515.452500", "144517.452500", "144519.452500", "144521.452500", "144523.452500", "144525.452500", "144527.452500", "144529.452500", "144531.452500", "144533.452500", "144535.452500", "144537.452500", "144539.452500", "144541.452500", "144543.452500", "144545.452500", "144547.452500", "144549.452500", "144551.452500", "144553.452500", "144555.452500", "144557.452500", "144559.452500", "144601.452500", "144603.452500", "144605.452500", "144607.452500", "144609.452500", "144611.452500", "144613.452500", "144615.452500", "144617.452500", "144619.452500", "144621.452500", "144623.452500", "144625.452500", "144627.452500", "144629.452500", "144631.452500", "144633.452500", "144635.452500", "144637.452500", "144639.452500", "144641.452500", "144643.452500"],
      "ContentTime": ["144053.713000", "144053.716000", "144053.718000", "144053.721000", "144053.730000", "144053.732000", "144053.735000", "144053.737000", "144053.739000", "144053.742000", "144053.744000", "144053.747000", "144053.749000", "144053.751000", "144053.754000", "144053.763000", "144053.766000", "144053.768000", "144053.770000", "144053.773000", "144053.775000", "144053.778000", "144053.780000", "144053.782000", "144133.708000", "144133.711000", "144133.713000", "144133.715000", "144133.718000", "144133.720000", "144133.723000", "144133.725000", "144133.727000", "144133.730000", "144133.732000", "144133.734000", "144133.736000", "144133.739000", "144133.741000", "144133.744000", "144133.746000", "144133.748000", "144133.751000", "144133.753000", "144213.708000", "144213.711000", "144213.713000", "144213.716000", "144213.718000", "144213.720000", "144213.723000", "144213.725000", "144213.738000", "144213.740000", "144213.742000", "144213.745000", "144213.747000", "144213.749000", "144213.752000", "144213.754000", "144213.756000", "144213.759000", "144213.761000", "144213.763000", "144253.708000", "144253.711000", "144253.713000", "144253.716000", "144253.718000", "144253.721000", "144253.723000", "144253.725000", "144253.728000", "144253.730000", "144253.732000", "144253.735000", "144253.737000", "144253.740000", "144253.742000", "144253.744000", "144253.747000", "144253.749000", "144253.751000", "144253.754000", "144333.709000", "144333.712000", "144333.714000", "144333.716000", "144333.719000", "144333.721000", "144333.724000", "144333.726000", "144333.728000", "144333.731000", "144333.733000", "144333.735000", "144333.738000", "144333.740000", "144333.742000", "144333.745000", "144333.747000", "144333.749000", "144333.752000", "144333.754000", "144413.708000", "144413.711000", "144413.713000", "144413.716000", "144413.718000", "144413.720000", "144413.723000", "144413.725000", "144413.727000", "144413.730000", "144413.732000", "144413.735000", "144413.737000", "144413.739000", "144413.742000", "144413.744000", "144413.746000", "144413.749000", "144413.751000", "144413.753000", "144453.708000", "144453.711000", "144453.713000", "144453.716000", "144453.718000", "144453.720000", "144453.723000", "144453.725000", "144453.727000", "144453.730000", "144453.732000", "144453.735000", "144453.737000", "144453.740000", "144453.742000", "144453.744000", "144453.747000", "144453.749000", "144453.751000", "144453.754000", "144533.708000", "144533.711000", "144533.713000", "144533.715000", "144533.718000", "144533.720000", "144533.723000", "144533.725000", "144533.727000", "144533.730000", "144533.732000", "144533.735000", "144533.737000", "144533.740000", "144533.742000", "144533.744000", "144533.747000", "144533.749000", "144533.751000", "144533.754000", "144613.708000", "144613.718000", "144613.720000", "144613.722000", "144613.725000", "144613.727000", "144613.730000", "144613.732000", "144613.734000", "144613.737000", "144613.739000", "144613.741000", "144613.744000", "144613.746000", "144613.749000", "144613.751000", "144613.753000", "144613.756000", "144613.758000", "144613.760000", "144644.533000", "144644.544000", "144644.549000", "144644.552000", "144644.555000", "144644.558000", "144644.562000", "144644.565000", "144644.569000", "144644.578000", "144644.581000", "144644.583000", "144644.587000", "144644.590000", "144644.593000", "144644.596000"],
      "InstanceCreationTime": ["144053.713000", "144053.716000", "144053.718000", "144053.721000", "144053.730000", "144053.732000", "144053.735000", "144053.737000", "144053.739000", "144053.742000", "144053.744000", "144053.747000", "144053.749000", "144053.751000", "144053.754000", "144053.763000", "144053.766000", "144053.768000", "144053.770000", "144053.773000", "144053.775000", "144053.778000", "144053.780000", "144053.782000", "144133.708000", "144133.711000", "144133.713000", "144133.715000", "144133.718000", "144133.720000", "144133.723000", "144133.725000", "144133.727000", "144133.730000", "144133.732000", "144133.734000", "144133.736000", "144133.739000", "144133.741000", "144133.744000", "144133.746000", "144133.748000", "144133.751000", "144133.753000", "144213.708000", "144213.711000", "144213.713000", "144213.716000", "144213.718000", "144213.720000", "144213.723000", "144213.725000", "144213.738000", "144213.740000", "144213.742000", "144213.745000", "144213.747000", "144213.749000", "144213.752000", "144213.754000", "144213.756000", "144213.759000", "144213.761000", "144213.763000", "144253.708000", "144253.711000", "144253.713000", "144253.716000", "144253.718000", "144253.721000", "144253.723000", "144253.725000", "144253.728000", "144253.730000", "144253.732000", "144253.735000", "144253.737000", "144253.740000", "144253.742000", "144253.744000", "144253.747000", "144253.749000", "144253.751000", "144253.754000", "144333.709000", "144333.712000", "144333.714000", "144333.716000", "144333.719000", "144333.721000", "144333.724000", "144333.726000", "144333.728000", "144333.731000", "144333.733000", "144333.735000", "144333.738000", "144333.740000", "144333.742000", "144333.745000", "144333.747000", "144333.749000", "144333.752000", "144333.754000", "144413.708000", "144413.711000", "144413.713000", "144413.716000", "144413.718000", "144413.720000", "144413.723000", "144413.725000", "144413.727000", "144413.730000", "144413.732000", "144413.735000", "144413.737000", "144413.739000", "144413.742000", "144413.744000", "144413.746000", "144413.749000", "144413.751000", "144413.753000", "144453.708000", "144453.711000", "144453.713000", "144453.716000", "144453.718000", "144453.720000", "144453.723000", "144453.725000", "144453.727000", "144453.730000", "144453.732000", "144453.735000", "144453.737000", "144453.740000", "144453.742000", "144453.744000", "144453.747000", "144453.749000", "144453.751000", "144453.754000", "144533.708000", "144533.711000", "144533.713000", "144533.715000", "144533.718000", "144533.720000", "144533.723000", "144533.725000", "144533.727000", "144533.730000", "144533.732000", "144533.735000", "144533.737000", "144533.740000", "144533.742000", "144533.744000", "144533.747000", "144533.749000", "144533.751000", "144533.754000", "144613.708000", "144613.718000", "144613.720000", "144613.722000", "144613.725000", "144613.727000", "144613.730000", "144613.732000", "144613.734000", "144613.737000", "144613.739000", "144613.741000", "144613.744000", "144613.746000", "144613.749000", "144613.751000", "144613.753000", "144613.756000", "144613.758000", "144613.760000", "144644.533000", "144644.544000", "144644.549000", "144644.552000", "144644.555000", "144644.558000", "144644.562000", "144644.565000", "144644.569000", "144644.578000", "144644.581000", "144644.583000", "144644.587000", "144644.590000", "144644.593000", "144644.596000"],
      "InstanceNumber": [1, 2, 3, 4, 5, 6, 7, 8, 9, 10, 11, 12, 13, 14, 15, 16, 17, 18, 19, 20, 21, 22, 23, 24, 25, 26, 27, 28, 29, 30, 31, 32, 33, 34, 35, 36, 37, 38, 39, 40, 41, 42, 43, 44, 45, 46, 47, 48, 49, 50, 51, 52, 53, 54, 55, 56, 57, 58, 59, 60, 61, 62, 63, 64, 65, 66, 67, 68, 69, 70, 71, 72, 73, 74, 75, 76, 77, 78, 79, 80, 81, 82, 83, 84, 85, 86, 87, 88, 89, 90, 91, 92, 93, 94, 95, 96, 97, 98, 99, 100, 101, 102, 103, 104, 105, 106, 107, 108, 109, 110, 111, 112, 113, 114, 115, 116, 117, 118, 119, 120, 121, 122, 123, 124, 125, 126, 127, 128, 129, 130, 131, 132, 133, 134, 135, 136, 137, 138, 139, 140, 141, 142, 143, 144, 145, 146, 147, 148, 149, 150, 151, 152, 153, 154, 155, 156, 157, 158, 159, 160, 161, 162, 163, 164, 165, 166, 167, 168, 169, 170, 171, 172, 173, 174, 175, 176, 177, 178, 179, 180, 181, 182, 183, 184, 185, 186, 187, 188, 189, 190, 191, 192, 193, 194, 195, 196, 197, 198, 199, 200],
      "WindowCenter": [1662.0, 1661.0, 1661.0, 1660.0, 1661.0, 1660.0, 1660.0, 1661.0, 1659.0, 1659.0, 1659.0, 1658.0, 1657.0, 1658.0, 1657.0, 1657.0, 1657.0, 1656.0, 1656.0, 1656.0, 1655.0, 1654.0, 1655.0, 1655.0, 1654.0, 1654.0, 1653.0, 1654.0, 1654.0, 1653.0, 1653.0, 1652.0, 1652.0, 1652.0, 1652.0, 1651.0, 1652.0, 1650.0, 1651.0, 1651.0, 1649.0, 1649.0, 1650.0, 1649.0, 1649.0, 1649.0, 1649.0, 1648.0, 1648.0, 1648.0, 1647.0, 1648.0, 1647.0, 1647.0, 1647.0, 1647.0, 1647.0, 1646.0, 1646.0, 1646.0, 1646.0, 1645.0, 1646.0, 1646.0, 1646.0, 1645.0, 1645.0, 1644.0, 1643.0, 1644.0, 1644.0, 1644.0, 1643.0, 1644.0, 1644.0, 1643.0, 1643.0, 1642.0, 1643.0, 1642.0, 1642.0, 1642.0, 1642.0, 1641.0, 1641.0, 1642.0, 1641.0, 1641.0, 1641.0, 1642.0, 1641.0, 1642.0, 1640.0, 1640.0, 1640.0, 1640.0, 1639.0, 1639.0, 1639.0, 1639.0, 1639.0, 1639.0, 1639.0, 1638.0, 1638.0, 1639.0, 1638.0, 1637.0, 1637.0, 1638.0, 1636.0, 1637.0, 1638.0, 1636.0, 1637.0, 1637.0, 1637.0, 1636.0, 1637.0, 1637.0, 1636.0, 1636.0, 1636.0, 1636.0, 1636.0, 1635.0, 1636.0, 1636.0, 1635.0, 1634.0, 1635.0, 1635.0, 1634.0, 1634.0, 1634.0, 1635.0, 1634.0, 1634.0, 1634.0, 1635.0, 1633.0, 1634.0, 1634.0, 1632.0, 1634.0, 1633.0, 1633.0, 1634.0, 1633.0, 1632.0, 1632.0, 1633.0, 1633.0, 1633.0, 1633.0, 1633.0, 1632.0, 1632.0, 1632.0, 1631.0, 1632.0, 1632.0, 1631.0, 1632.0, 1632.0, 1631.0, 1632.0, 1631.0, 1631.0, 1630.0, 1631.0, 1631.0, 1631.0, 1630.0, 1630.0, 1630.0, 1631.0, 1630.0, 1631.0, 1630.0, 1630.0, 1630.0, 1630.0, 1630.0, 1629.0, 1629.0, 1629.0, 1630.0, 1630.0, 1628.0, 1629.0, 1629.0, 1629.0, 1629.0, 1628.0, 1629.0, 1628.0, 1629.0, 1629.0, 1628.0],
      "WindowWidth": [3526.0, 3525.0, 3525.0, 3525.0, 3524.0, 3524.0, 3524.0, 3523.0, 3523.0, 3523.0, 3523.0, 3522.0, 3522.0, 3522.0, 3522.0, 3521.0, 3521.0, 3521.0, 3521.0, 3520.0, 3520.0, 3520.0, 3519.0, 3519.0, 3519.0, 3519.0, 3519.0, 3518.0, 3518.0, 3518.0, 3518.0, 3518.0, 3517.0, 3517.0, 3517.0, 3517.0, 3516.0, 3516.0, 3516.0, 3516.0, 3516.0, 3516.0, 3515.0, 3515.0, 3515.0, 3515.0, 3514.0, 3514.0, 3514.0, 3514.0, 3514.0, 3513.0, 3513.0, 3513.0, 3513.0, 3513.0, 3512.0, 3512.0, 3512.0, 3512.0, 3512.0, 3512.0, 3511.0, 3511.0, 3511.0, 3511.0, 3511.0, 3511.0, 3511.0, 3510.0, 3510.0, 3510.0, 3510.0, 3510.0, 3510.0, 3510.0, 3509.0, 3509.0, 3509.0, 3509.0, 3509.0, 3509.0, 3509.0, 3508.0, 3508.0, 3508.0, 3508.0, 3508.0, 3508.0, 3507.0, 3508.0, 3507.0, 3507.0, 3507.0, 3507.0, 3506.0, 3507.0, 3507.0, 3506.0, 3506.0, 3506.0, 3506.0, 3506.0, 3505.0, 3505.0, 3505.0, 3505.0, 3505.0, 3505.0, 3505.0, 3505.0, 3505.0, 3504.0, 3504.0, 3504.0, 3504.0, 3503.0, 3504.0, 3503.0, 3503.0, 3504.0, 3503.0, 3503.0, 3503.0, 3503.0, 3503.0, 3503.0, 3502.0, 3502.0, 3503.0, 3502.0, 3502.0, 3502.0, 3502.0, 3502.0, 3502.0, 3502.0, 3502.0, 3501.0, 3501.0, 3501.0, 3501.0, 3501.0, 3501.0, 3500.0, 3501.0, 3501.0, 3500.0, 3501.0, 3500.0, 3500.0, 3500.0, 3500.0, 3500.0, 3500.0, 3500.0, 3500.0, 3499.0, 3499.0, 3500.0, 3499.0, 3499.0, 3500.0, 3499.0, 3499.0, 3499.0, 3499.0, 3498.0, 3499.0, 3499.0, 3498.0, 3498.0, 3498.0, 3498.0, 3498.0, 3498.0, 3498.0, 3498.0, 3498.0, 3498.0, 3498.0, 3498.0, 3498.0, 3498.0, 3497.0, 3497.0, 3497.0, 3497.0, 3496.0, 3497.0, 3497.0, 3497.0, 3497.0, 3497.0, 3497.0, 3497.0, 3497.0, 3496.0, 3496.0, 3496.0]
    },
    "slices": {}
  }
}