{
  "AcquisitionMatrixPE": 80,
  "AcquisitionNumber": 1,
  "AcquisitionTime": "12:23:5.440000",
  "BandwidthPerPixelPhaseEncode": 48.077,
  "BaseResolution": 80,
  "BodyPartExamined": "BRAIN",
  "CoilCombinationMethod": "Sum of Squares",
  "ConsistencyInfo": "N4_VE11E_LATEST_20181129",
  "ConversionSoftware": "dcm2niix",
  "ConversionSoftwareVersion": "v1.0.20220720",
  "DerivedVendorReportedEchoSpacing": 0.000519999,
  "DeviceSerialNumber": "66112",
  "DwellTime": 2.7e-06,
  "EchoTime": 0.035,
  "EchoTrainLength": 39,
  "EffectiveEchoSpacing": 0.00026,
  "FlipAngle": 90,
  "HeudiconvVersion": "0.13.1",
  "ImageOrientationPatientDICOM": [0.999958, 0.00907827, 0.00142285, -0.00907555, 0.951424, 0.307749],
  "ImageOrientationText": "Tra>Cor(17.9)>Sag(-0.1)",
  "ImageType": [
    "ORIGINAL",
    "PRIMARY",
    "M",
    "ND",
    "NORM",
    "MOSAIC"
],
  "ImagingFrequency": 123.259,
  "InPlanePhaseEncodingDirectionDICOM": "COL",
  "InstitutionAddress": "Maynard 3,Hanover,NH,US,03755",
  "InstitutionName": "Dartmouth College - PBS",
  "InstitutionalDepartmentName": "Department",
  "MRAcquisitionType": "2D",
  "MagneticFieldStrength": 3,
  "Manufacturer": "Siemens",
  "ManufacturersModelName": "Prisma",
  "MatrixCoilMode": "GRAPPA",
  "Modality": "MR",
  "NonlinearGradientCorrection": false,
  "ParallelReductionFactorInPlane": 2,
  "PartialFourier": 1,
  "PatientPosition": "HFS",
  "PercentPhaseFOV": 100,
  "PercentSampling": 100,
  "PhaseEncodingDirection": "j-",
  "PhaseEncodingSteps": 79,
  "PhaseResolution": 1,
  "PixelBandwidth": 2315,
  "ProcedureStepDescription": "dbic^QA",
  "ProtocolName": "func-bold_task-rest_acq-p2",
  "PulseSequenceDetails": "%SiemensSeq%\\ep2d_bold",
  "ReceiveCoilActiveElements": "FL;HE1-4;NE1,2",
  "ReceiveCoilName": "FlexLarge_4",
  "ReconMatrixPE": 80,
  "RefLinesPE": 24,
  "RepetitionTime": 2,
  "SAR": 0.043054,
  "ScanOptions": "FS",
  "ScanningSequence": "EP",
  "SequenceName": "*epfid2d1_80",
  "SequenceVariant": "SK",
  "SeriesDescription": "func-bold_task-rest_acq-p2",
  "SeriesNumber": 14,
  "ShimSetting": [4224, -7723, -7484, -105, -163, -174, -43, 78],
  "SliceThickness": 3.5,
  "SliceTiming": [0.99, 0, 1.0575, 0.0675, 1.1225, 0.1325, 1.19, 0.2, 1.255, 0.265, 1.32, 0.33, 1.3875, 0.3975, 1.4525, 0.4625, 1.52, 0.53, 1.585, 0.595, 1.65, 0.66, 1.7175, 0.7275, 1.7825, 0.7925, 1.8475, 0.86, 1.915, 0.925],
  "SoftwareVersions": "syngo MR E11",
  "SpacingBetweenSlices": 3.99,
  "StationName": "AWP66112",
  "TaskName": "rest",
  "TotalReadoutTime": 0.02054,
  "TxRefAmp": 254.277,
  "dcmmeta_affine": [
    [-2.999873399734497, -0.027226660400629044, -0.005746005102992058, 123.80622863769531],
    [-0.027234824374318123, 2.8542728424072266, 1.2279186248779297, -133.84129333496094],
    [0.004268535412847996, -0.9232472777366638, 3.796351194381714, -37.21220016479492],
    [0.0, 0.0, 0.0, 1.0]
],
  "dcmmeta_reorient_transform": [
    [0.0, -1.0, 0.0, 79.0],
    [1.0, 0.0, 0.0, 0.0],
    [0.0, 0.0, 1.0, 0.0],
    [0.0, 0.0, 0.0, 1.0]
],
  "dcmmeta_shape": [80, 80, 30, 173],
  "dcmmeta_slice_dim": 2,
  "dcmmeta_version": 0.6,
  "global": {
    "const": {
      "AccessionNumber": "qa64",
      "AcquisitionMatrix": [80, 0, 0, 80],
      "AngioFlag": "N",
      "BitsAllocated": 16,
      "BitsStored": 12,
      "BodyPartExamined": "BRAIN",
      "Columns": 480,
      "EchoNumbers": 1,
      "EchoTime": 35.0,
      "EchoTrainLength": 39,
      "FlipAngle": 90.0,
      "HighBit": 11,
      "ImageOrientationPatient": [0.99995777932913, 0.00907827467045, 0.00142284509468, -0.0090755532508, 0.95142426204456, 0.30774909898511],
      "ImagePositionPatient": [-716.18465918203, -667.94778415271, -295.65190306997],
      "ImageType": [
        "ORIGINAL",
        "PRIMARY",
        "M",
        "ND",
        "NORM",
        "MOSAIC"
],
      "ImagedNucleus": "1H",
      "ImagingFrequency": 123.259253,
      "InPlanePhaseEncodingDirection": "COL",
      "MRAcquisitionType": "2D",
      "MagneticFieldStrength": 3.0,
      "Manufacturer": "SIEMENS",
      "ManufacturerModelName": "Prisma",
      "Modality": "MR",
      "NumberOfAverages": 1.0,
      "NumberOfPhaseEncodingSteps": 79,
      "PercentPhaseFieldOfView": 100.0,
      "PercentSampling": 100.0,
      "PerformedProcedureStepStartTime": "104710.966000",
      "PhotometricInterpretation": "MONOCHROME2",
      "PixelBandwidth": 2315.0,
      "PixelRepresentation": 0,
      "PixelSpacing": [3.0, 3.0],
      "ProtocolName": "func-bold_task-rest_acq-p2",
      "RepetitionTime": 2000.0,
      "Rows": 480,
      "SAR": 0.04305395768557,
      "SamplesPerPixel": 1,
      "ScanOptions": "FS",
      "ScanningSequence": "EP",
      "SequenceName": "*epfid2d1_80",
      "SequenceVariant": "SK",
      "SeriesDescription": "func-bold_task-rest_acq-p2",
      "SeriesNumber": 14,
      "SeriesTime": "122353.795000",
      "SliceLocation": -76.773979777849,
      "SliceThickness": 3.5,
      "SmallestImagePixelValue": 0,
      "SoftwareVersions": "syngo MR E11",
      "SpacingBetweenSlices": 3.9899999624588,
      "SpecificCharacterSet": "ISO_IR 100",
      "StudyID": "16",
      "StudyTime": "104710.913000",
      "TransmitCoilName": "Body",
      "VariableFlipAngleFlag": "N",
      "WindowCenterWidthExplanation": "Algo1"
    },
    "slices": {}
  },
  "time": {
    "samples": {
      "AcquisitionNumber": [1, 2, 3, 4, 5, 6, 7, 8, 9, 10, 11, 12, 13, 14, 15, 16, 17, 18, 19, 20, 21, 22, 23, 24, 25, 26, 27, 28, 29, 30, 31, 32, 33, 34, 35, 36, 37, 38, 39, 40, 41, 42, 43, 44, 45, 46, 47, 48, 49, 50, 51, 52, 53, 54, 55, 56, 57, 58, 59, 60, 61, 62, 63, 64, 65, 66, 67, 68, 69, 70, 71, 72, 73, 74, 75, 76, 77, 78, 79, 80, 81, 82, 83, 84, 85, 86, 87, 88, 89, 90, 91, 92, 93, 94, 95, 96, 97, 98, 99, 100, 101, 102, 103, 104, 105, 106, 107, 108, 109, 110, 111, 112, 113, 114, 115, 116, 117, 118, 119, 120, 121, 122, 123, 124, 125, 126, 127, 128, 129, 130, 131, 132, 133, 134, 135, 136, 137, 138, 139, 140, 141, 142, 143, 144, 145, 146, 147, 148, 149, 150, 151, 152, 153, 154, 155, 156, 157, 158, 159, 160, 161, 162, 163, 164, 165, 166, 167, 168, 169, 170, 171, 172, 173],
      "AcquisitionTime": ["122305.440000", "122307.440000", "122309.440000", "122311.440000", "122313.440000", "122315.440000", "122317.440000", "122319.440000", "122321.440000", "122323.440000", "122325.440000", "122327.440000", "122329.440000", "122331.440000", "122333.440000", "122335.440000", "122337.440000", "122339.440000", "122341.440000", "122343.440000", "122345.440000", "122347.440000", "122349.440000", "122351.440000", "122353.440000", "122355.440000", "122357.440000", "122359.440000", "122401.440000", "122403.440000", "122405.440000", "122407.440000", "122409.440000", "122411.440000", "122413.440000", "122415.440000", "122417.440000", "122419.440000", "122421.440000", "122423.440000", "122425.440000", "122427.440000", "122429.440000", "122431.440000", "122433.440000", "122435.440000", "122437.440000", "122439.440000", "122441.440000", "122443.440000", "122445.440000", "122447.440000", "122449.440000", "122451.440000", "122453.440000", "122455.440000", "122457.440000", "122459.440000", "122501.440000", "122503.440000", "122505.440000", "122507.440000", "122509.440000", "122511.440000", "122513.440000", "122515.440000", "122517.440000", "122519.440000", "122521.440000", "122523.440000", "122525.440000", "122527.440000", "122529.440000", "122531.440000", "122533.440000", "122535.440000", "122537.440000", "122539.440000", "122541.440000", "122543.440000", "122545.440000", "122547.440000", "122549.440000", "122551.440000", "122553.440000", "122555.440000", "122557.440000", "122559.440000", "122601.440000", "122603.440000", "122605.440000", "122607.440000", "122609.440000", "122611.440000", "122613.440000", "122615.440000", "122617.440000", "122619.440000", "122621.440000", "122623.440000", "122625.440000", "122627.440000", "122629.440000", "122631.440000", "122633.440000", "122635.440000", "122637.440000", "122639.440000", "122641.440000", "122643.440000", "122645.440000", "122647.440000", "122649.440000", "122651.440000", "122653.440000", "122655.440000", "122657.440000", "122659.440000", "122701.440000", "122703.440000", "122705.440000", "122707.440000", "122709.440000", "122711.440000", "122713.440000", "122715.440000", "122717.440000", "122719.440000", "122721.440000", "122723.440000", "122725.440000", "122727.440000", "122729.440000", "122731.440000", "122733.440000", "122735.440000", "122737.440000", "122739.440000", "122741.440000", "122743.440000", "122745.440000", "122747.440000", "122749.440000", "122751.440000", "122753.440000", "122755.440000", "122757.440000", "122759.440000", "122801.440000", "122803.440000", "122805.440000", "122807.440000", "122809.440000", "122811.440000", "122813.440000", "122815.440000", "122817.440000", "122819.440000", "122821.440000", "122823.440000", "122825.440000", "122827.440000", "122829.440000", "122831.440000", "122833.440000", "122835.440000", "122837.440000", "122839.440000", "122841.440000", "122843.440000", "122845.440000", "122847.440000", "122849.440000"],
      "ContentTime": ["122353.798000", "122353.802000", "122353.804000", "122353.806000", "122353.808000", "122353.811000", "122353.813000", "122353.822000", "122353.829000", "122353.831000", "122353.834000", "122353.836000", "122353.838000", "122353.840000", "122353.843000", "122353.845000", "122353.847000", "122353.850000", "122353.852000", "122353.854000", "122353.857000", "122353.859000", "122353.861000", "122353.864000", "122433.794000", "122433.797000", "122433.799000", "122433.802000", "122433.804000", "122433.807000", "122433.809000", "122433.811000", "122433.814000", "122433.816000", "122433.818000", "122433.820000", "122433.823000", "122433.825000", "122433.827000", "122433.830000", "122433.832000", "122433.834000", "122433.837000", "122433.839000", "122513.793000", "122513.796000", "122513.798000", "122513.800000", "122513.803000", "122513.805000", "122513.807000", "122513.810000", "122513.812000", "122513.814000", "122513.816000", "122513.819000", "122513.821000", "122513.823000", "122513.825000", "122513.828000", "122513.830000", "122513.832000", "122513.835000", "122513.837000", "122553.793000", "122553.796000", "122553.798000", "122553.800000", "122553.803000", "122553.805000", "122553.808000", "122553.810000", "122553.819000", "122553.822000", "122553.824000", "122553.826000", "122553.829000", "122553.831000", "122553.833000", "122553.836000", "122553.838000", "122553.841000", "122553.843000", "122553.845000", "122633.793000", "122633.796000", "122633.798000", "122633.801000", "122633.803000", "122633.806000", "122633.808000", "122633.810000", "122633.813000", "122633.815000", "122633.817000", "122633.820000", "122633.822000", "122633.825000", "122633.827000", "122633.829000", "122633.832000", "122633.834000", "122633.836000", "122633.839000", "122713.793000", "122713.796000", "122713.798000", "122713.801000", "122713.803000", "122713.806000", "122713.808000", "122713.810000", "122713.813000", "122713.815000", "122713.817000", "122713.820000", "122713.822000", "122713.824000", "122713.827000", "122713.829000", "122713.832000", "122713.834000", "122713.836000", "122713.839000", "122753.793000", "122753.796000", "122753.799000", "122753.801000", "122753.803000", "122753.806000", "122753.808000", "122753.811000", "122753.813000", "122753.816000", "122753.818000", "122753.829000", "122753.831000", "122753.834000", "122753.836000", "122753.838000", "122753.841000", "122753.843000", "122753.846000", "122753.848000", "122833.794000", "122833.796000", "122833.799000", "122833.801000", "122833.804000", "122833.806000", "122833.808000", "122833.811000", "122833.813000", "122833.815000", "122833.818000", "122833.820000", "122833.823000", "122833.825000", "122833.827000", "122833.830000", "122833.832000", "122833.835000", "122833.837000", "122833.839000", "122852.851000", "122852.854000", "122852.856000", "122852.859000", "122852.861000", "122852.864000", "122852.866000", "122852.869000", "122852.871000"],
      "InstanceCreationTime": ["122353.798000", "122353.802000", "122353.804000", "122353.806000", "122353.808000", "122353.811000", "122353.813000", "122353.822000", "122353.829000", "122353.831000", "122353.834000", "122353.836000", "122353.838000", "122353.840000", "122353.843000", "122353.845000", "122353.847000", "122353.850000", "122353.852000", "122353.854000", "122353.857000", "122353.859000", "122353.861000", "122353.864000", "122433.794000", "122433.797000", "122433.799000", "122433.802000", "122433.804000", "122433.807000", "122433.809000", "122433.811000", "122433.814000", "122433.816000", "122433.818000", "122433.820000", "122433.823000", "122433.825000", "122433.827000", "122433.830000", "122433.832000", "122433.834000", "122433.837000", "122433.839000", "122513.793000", "122513.796000", "122513.798000", "122513.800000", "122513.803000", "122513.805000", "122513.807000", "122513.810000", "122513.812000", "122513.814000", "122513.816000", "122513.819000", "122513.821000", "122513.823000", "122513.825000", "122513.828000", "122513.830000", "122513.832000", "122513.835000", "122513.837000", "122553.793000", "122553.796000", "122553.798000", "122553.800000", "122553.803000", "122553.805000", "122553.808000", "122553.810000", "122553.819000", "122553.822000", "122553.824000", "122553.826000", "122553.829000", "122553.831000", "122553.833000", "122553.836000", "122553.838000", "122553.841000", "122553.843000", "122553.845000", "122633.793000", "122633.796000", "122633.798000", "122633.801000", "122633.803000", "122633.806000", "122633.808000", "122633.810000", "122633.813000", "122633.815000", "122633.817000", "122633.820000", "122633.822000", "122633.825000", "122633.827000", "122633.829000", "122633.832000", "122633.834000", "122633.836000", "122633.839000", "122713.793000", "122713.796000", "122713.798000", "122713.801000", "122713.803000", "122713.806000", "122713.808000", "122713.810000", "122713.813000", "122713.815000", "122713.817000", "122713.820000", "122713.822000", "122713.824000", "122713.827000", "122713.829000", "122713.832000", "122713.834000", "122713.836000", "122713.839000", "122753.793000", "122753.796000", "122753.799000", "122753.801000", "122753.803000", "122753.806000", "122753.808000", "122753.811000", "122753.813000", "122753.816000", "122753.818000", "122753.829000", "122753.831000", "122753.834000", "122753.836000", "122753.838000", "122753.841000", "122753.843000", "122753.846000", "122753.848000", "122833.794000", "122833.796000", "122833.799000", "122833.801000", "122833.804000", "122833.806000", "122833.808000", "122833.811000", "122833.813000", "122833.815000", "122833.818000", "122833.820000", "122833.823000", "122833.825000", "122833.827000", "122833.830000", "122833.832000", "122833.835000", "122833.837000", "122833.839000", "122852.851000", "122852.854000", "122852.856000", "122852.859000", "122852.861000", "122852.864000", "122852.866000", "122852.869000", "122852.871000"],
      "InstanceNumber": [1, 2, 3, 4, 5, 6, 7, 8, 9, 10, 11, 12, 13, 14, 15, 16, 17, 18, 19, 20, 21, 22, 23, 24, 25, 26, 27, 28, 29, 30, 31, 32, 33, 34, 35, 36, 37, 38, 39, 40, 41, 42, 43, 44, 45, 46, 47, 48, 49, 50, 51, 52, 53, 54, 55, 56, 57, 58, 59, 60, 61, 62, 63, 64, 65, 66, 67, 68, 69, 70, 71, 72, 73, 74, 75, 76, 77, 78, 79, 80, 81, 82, 83, 84, 85, 86, 87, 88, 89, 90, 91, 92, 93, 94, 95, 96, 97, 98, 99, 100, 101, 102, 103, 104, 105, 106, 107, 108, 109, 110, 111, 112, 113, 114, 115, 116, 117, 118, 119, 120, 121, 122, 123, 124, 125, 126, 127, 128, 129, 130, 131, 132, 133, 134, 135, 136, 137, 138, 139, 140, 141, 142, 143, 144, 145, 146, 147, 148, 149, 150, 151, 152, 153, 154, 155, 156, 157, 158, 159, 160, 161, 162, 163, 164, 165, 166, 167, 168, 169, 170, 171, 172, 173],
      "LargestImagePixelValue": [3671, 3659, 3662, 3662, 3665, 3662, 3662, 3663, 3658, 3673, 3665, 3668, 3665, 3663, 3664, 3661, 3663, 3661, 3663, 3661, 3665, 3660, 3654, 3660, 3657, 3656, 3655, 3665, 3664, 3655, 3665, 3660, 3659, 3665, 3666, 3661, 3666, 3660, 3661, 3663, 3663, 3662, 3663, 3667, 3664, 3661, 3656, 3659, 3663, 3665, 3656, 3658, 3666, 3665, 3655, 3664, 3665, 3658, 3659, 3656, 3662, 3666, 3668, 3656, 3667, 3657, 3661, 3657, 3658, 3658, 3655, 3659, 3657, 3657, 3664, 3661, 3669, 3658, 3658, 3662, 3660, 3667, 3660, 3657, 3666, 3660, 3658, 3654, 3663, 3663, 3659, 3653, 3659, 3668, 3656, 3658, 3656, 3663, 3654, 3658, 3652, 3654, 3658, 3659, 3660, 3664, 3655, 3661, 3654, 3657, 3667, 3657, 3656, 3656, 3661, 3655, 3662, 3660, 3652, 3655, 3663, 3662, 3657, 3660, 3657, 3667, 3653, 3656, 3663, 3662, 3658, 3655, 3656, 3656, 3664, 3653, 3665, 3659, 3663, 3660, 3651, 3659, 3658, 3655, 3655, 3659, 3659, 3663, 3661, 3660, 3666, 3668, 3653, 3668, 3660, 3655, 3656, 3659, 3658, 3655, 3663, 3670, 3662, 3659, 3664, 3655, 3661, 3660, 3654, 3659, 3660, 3652, 3661],
      "WindowCenter": [1520.0, 1519.0, 1519.0, 1520.0, 1520.0, 1519.0, 1519.0, 1519.0, 1519.0, 1519.0, 1519.0, 1519.0, 1520.0, 1519.0, 1520.0, 1520.0, 1520.0, 1519.0, 1519.0, 1519.0, 1520.0, 1520.0, 1520.0, 1519.0, 1519.0, 1520.0, 1520.0, 1520.0, 1520.0, 1519.0, 1520.0, 1520.0, 1520.0, 1520.0, 1520.0, 1520.0, 1519.0, 1521.0, 1520.0, 1521.0, 1520.0, 1521.0, 1520.0, 1519.0, 1520.0, 1520.0, 1519.0, 1520.0, 1520.0, 1521.0, 1520.0, 1519.0, 1521.0, 1520.0, 1520.0, 1520.0, 1520.0, 1520.0, 1520.0, 1520.0, 1520.0, 1519.0, 1519.0, 1519.0, 1520.0, 1520.0, 1520.0, 1520.0, 1520.0, 1520.0, 1520.0, 1520.0, 1520.0, 1520.0, 1520.0, 1520.0, 1520.0, 1520.0, 1520.0, 1520.0, 1520.0, 1520.0, 1520.0, 1519.0, 1520.0, 1519.0, 1519.0, 1520.0, 1520.0, 1520.0, 1520.0, 1519.0, 1520.0, 1519.0, 1519.0, 1519.0, 1519.0, 1519.0, 1519.0, 1519.0, 1519.0, 1519.0, 1519.0, 1519.0, 1519.0, 1519.0, 1519.0, 1519.0, 1519.0, 1518.0, 1518.0, 1518.0, 1519.0, 1519.0, 1519.0, 1519.0, 1519.0, 1519.0, 1519.0, 1519.0, 1519.0, 1519.0, 1519.0, 1519.0, 1519.0, 1519.0, 1519.0, 1519.0, 1518.0, 1519.0, 1519.0, 1519.0, 1519.0, 1519.0, 1519.0, 1519.0, 1518.0, 1519.0, 1519.0, 1519.0, 1519.0, 1519.0, 1519.0, 1519.0, 1519.0, 1519.0, 1519.0, 1519.0, 1519.0, 1519.0, 1519.0, 1518.0, 1519.0, 1519.0, 1518.0, 1519.0, 1518.0, 1518.0, 1518.0, 1519.0, 1519.0, 1518.0, 1519.0, 1518.0, 1519.0, 1518.0, 1519.0, 1519.0, 1518.0, 1519.0, 1519.0, 1519.0, 1519.0],
      "WindowWidth": [3343.0, 3341.0, 3342.0, 3341.0, 3341.0, 3342.0, 3342.0, 3342.0, 3342.0, 3342.0, 3342.0, 3342.0, 3342.0, 3342.0, 3342.0, 3342.0, 3342.0, 3343.0, 3343.0, 3343.0, 3343.0, 3343.0, 3343.0, 3343.0, 3343.0, 3343.0, 3343.0, 3343.0, 3343.0, 3343.0, 3343.0, 3343.0, 3343.0, 3343.0, 3343.0, 3344.0, 3344.0, 3344.0, 3344.0, 3344.0, 3343.0, 3344.0, 3344.0, 3344.0, 3344.0, 3344.0, 3344.0, 3344.0, 3344.0, 3344.0, 3344.0, 3344.0, 3344.0, 3344.0, 3344.0, 3344.0, 3344.0, 3344.0, 3344.0, 3344.0, 3344.0, 3344.0, 3344.0, 3344.0, 3343.0, 3343.0, 3343.0, 3344.0, 3343.0, 3343.0, 3343.0, 3343.0, 3343.0, 3343.0, 3343.0, 3343.0, 3343.0, 3343.0, 3343.0, 3343.0, 3343.0, 3343.0, 3343.0, 3343.0, 3343.0, 3343.0, 3343.0, 3343.0, 3343.0, 3343.0, 3343.0, 3343.0, 3343.0, 3343.0, 3343.0, 3343.0, 3343.0, 3343.0, 3343.0, 3343.0, 3343.0, 3343.0, 3342.0, 3343.0, 3342.0, 3342.0, 3342.0, 3342.0, 3342.0, 3342.0, 3342.0, 3342.0, 3342.0, 3342.0, 3342.0, 3342.0, 3342.0, 3342.0, 3342.0, 3342.0, 3342.0, 3342.0, 3342.0, 3342.0, 3342.0, 3342.0, 3342.0, 3342.0, 3342.0, 3342.0, 3342.0, 3342.0, 3342.0, 3342.0, 3342.0, 3342.0, 3342.0, 3342.0, 3342.0, 3342.0, 3342.0, 3342.0, 3341.0, 3342.0, 3342.0, 3341.0, 3342.0, 3342.0, 3342.0, 3342.0, 3342.0, 3342.0, 3342.0, 3342.0, 3342.0, 3342.0, 3342.0, 3342.0, 3343.0, 3342.0, 3342.0, 3342.0, 3342.0, 3342.0, 3342.0, 3342.0, 3342.0, 3342.0, 3342.0, 3342.0, 3342.0, 3342.0, 3342.0]
    },
    "slices": {}
  }
}