{
  "AcquisitionMatrixPE": 80,
  "AcquisitionNumber": 1,
  "AcquisitionTime": "14:46:56.455000",
  "BandwidthPerPixelPhaseEncode": 25,
  "BaseResolution": 80,
  "BodyPartExamined": "BRAIN",
  "CoilCombinationMethod": "Sum of Squares",
  "ConsistencyInfo": "N4_VE11E_LATEST_20181129",
  "ConversionSoftware": "dcm2niix",
  "ConversionSoftwareVersion": "v1.0.20220720",
  "DerivedVendorReportedEchoSpacing": 0.0005,
  "DeviceSerialNumber": "66112",
  "DwellTime": 2.7e-06,
  "EchoTime": 0.03,
  "EchoTrainLength": 80,
  "EffectiveEchoSpacing": 0.0005,
  "FlipAngle": 77,
  "HeudiconvVersion": "0.13.1",
  "ImageOrientationPatientDICOM": [0.99459, -0.103866, 0.00126439, 0.0985721, 0.947596, 0.303885],
  "ImageOrientationText": "Tra>Cor(17.6)>Sag(1.9)",
  "ImageType": [
    "ORIGINAL",
    "PRIMARY",
    "M",
    "ND",
    "NORM",
    "MOSAIC"
],
  "ImagingFrequency": 123.259,
  "InPlanePhaseEncodingDirectionDICOM": "COL",
  "InstitutionAddress": "Maynard 3,Hanover,NH,US,03755",
  "InstitutionName": "Dartmouth College - PBS",
  "InstitutionalDepartmentName": "Department",
  "MRAcquisitionType": "2D",
  "MagneticFieldStrength": 3,
  "Manufacturer": "Siemens",
  "ManufacturersModelName": "Prisma",
  "MatrixCoilMode": "SENSE",
  "Modality": "MR",
  "NonlinearGradientCorrection": false,
  "PartialFourier": 1,
  "PatientPosition": "HFS",
  "PercentPhaseFOV": 100,
  "PercentSampling": 100,
  "PhaseEncodingDirection": "j-",
  "PhaseEncodingSteps": 80,
  "PhaseResolution": 1,
  "PixelBandwidth": 2315,
  "ProcedureStepDescription": "dbic^QA",
  "ProtocolName": "func-bold_fa-77",
  "PulseSequenceDetails": "%SiemensSeq%\\ep2d_bold",
  "ReceiveCoilActiveElements": "HC1-7;NC1,2",
  "ReceiveCoilName": "HeadNeck_64",
  "ReconMatrixPE": 80,
  "RepetitionTime": 2,
  "SAR": 0.0280516,
  "ScanOptions": "FS",
  "ScanningSequence": "EP",
  "SequenceName": "*epfid2d1_80",
  "SequenceVariant": "SK",
  "SeriesDescription": "func-bold_fa-77",
  "SeriesNumber": 7,
  "ShimSetting": [4214, -7729, -7482, -78, -129, -118, -61, 110],
  "SliceThickness": 3.5,
  "SliceTiming": [0.99, 0, 1.055, 0.065, 1.12, 0.13, 1.1875, 0.1975, 1.2525, 0.2625, 1.32, 0.33, 1.385, 0.395, 1.45, 0.46, 1.5175, 0.5275, 1.5825, 0.5925, 1.65, 0.66, 1.715, 0.725, 1.78, 0.79, 1.8475, 0.8575, 1.9125, 0.9225],
  "SoftwareVersions": "syngo MR E11",
  "SpacingBetweenSlices": 3.99,
  "StationName": "AWP66112",
  "TotalReadoutTime": 0.0395,
  "TxRefAmp": 220.713,
  "dcmmeta_affine": [
    [-2.983771562576294, 0.295716255903244, 0.1307181417942047, 106.78102111816406],
    [0.3115983307361603, 2.842787265777588, 1.2054431438446045, -140.58999633789062],
    [0.0037931674160063267, -0.9116536974906921, 3.801305055618286, -22.178255081176758],
    [0.0, 0.0, 0.0, 1.0]
],
  "dcmmeta_reorient_transform": [
    [0.0, -1.0, 0.0, 79.0],
    [1.0, 0.0, 0.0, 0.0],
    [0.0, 0.0, 1.0, 0.0],
    [0.0, 0.0, 0.0, 1.0]
],
  "dcmmeta_shape": [80, 80, 30, 200],
  "dcmmeta_slice_dim": 2,
  "dcmmeta_version": 0.6,
  "global": {
    "const": {
      "AccessionNumber": "qa64",
      "AcquisitionMatrix": [80, 0, 0, 80],
      "AngioFlag": "N",
      "BitsAllocated": 16,
      "BitsStored": 12,
      "BodyPartExamined": "BRAIN",
      "Columns": 480,
      "EchoNumbers": 1,
      "EchoTime": 30.0,
      "EchoTrainLength": 80,
      "FlipAngle": 77.0,
      "HighBit": 11,
      "ImageOrientationPatient": [0.9945904845129, -0.1038661130327, 0.00126438913096, 0.0985720864346, 0.9475957526759, 0.30388457230751],
      "ImagePositionPatient": [-786.04014925057, -590.22798580679, -277.28827640562],
      "ImageType": [
        "ORIGINAL",
        "PRIMARY",
        "M",
        "ND",
        "NORM",
        "MOSAIC"
],
      "ImagedNucleus": "1H",
      "ImagingFrequency": 123.259256,
      "InPlanePhaseEncodingDirection": "COL",
      "LargestImagePixelValue": 4095,
      "MRAcquisitionType": "2D",
      "MagneticFieldStrength": 3.0,
      "Manufacturer": "SIEMENS",
      "ManufacturerModelName": "Prisma",
      "Modality": "MR",
      "NumberOfAverages": 1.0,
      "NumberOfPhaseEncodingSteps": 80,
      "PercentPhaseFieldOfView": 100.0,
      "PercentSampling": 100.0,
      "PerformedProcedureStepStartTime": "143835.289000",
      "PhotometricInterpretation": "MONOCHROME2",
      "PixelBandwidth": 2315.0,
      "PixelRepresentation": 0,
      "PixelSpacing": [3.0, 3.0],
      "ProtocolName": "func-bold_fa-77",
      "RepetitionTime": 2000.0,
      "Rows": 480,
      "SAR": 0.0280516301419,
      "SamplesPerPixel": 1,
      "ScanOptions": "FS",
      "ScanningSequence": "EP",
      "SequenceName": "*epfid2d1_80",
      "SequenceVariant": "SK",
      "SeriesDescription": "func-bold_fa-77",
      "SeriesNumber": 7,
      "SeriesTime": "144753.796000",
      "SliceLocation": -60.105598022547,
      "SliceThickness": 3.5,
      "SmallestImagePixelValue": 0,
      "SoftwareVersions": "syngo MR E11",
      "SpacingBetweenSlices": 3.9900000613569,
      "SpecificCharacterSet": "ISO_IR 100",
      "StudyID": "17",
      "StudyTime": "143835.205000",
      "TransmitCoilName": "Body",
      "VariableFlipAngleFlag": "N",
      "WindowCenterWidthExplanation": "Algo1"
    },
    "slices": {}
  },
  "time": {
    "samples": {
      "AcquisitionNumber": [1, 2, 3, 4, 5, 6, 7, 8, 9, 10, 11, 12, 13, 14, 15, 16, 17, 18, 19, 20, 21, 22, 23, 24, 25, 26, 27, 28, 29, 30, 31, 32, 33, 34, 35, 36, 37, 38, 39, 40, 41, 42, 43, 44, 45, 46, 47, 48, 49, 50, 51, 52, 53, 54, 55, 56, 57, 58, 59, 60, 61, 62, 63, 64, 65, 66, 67, 68, 69, 70, 71, 72, 73, 74, 75, 76, 77, 78, 79, 80, 81, 82, 83, 84, 85, 86, 87, 88, 89, 90, 91, 92, 93, 94, 95, 96, 97, 98, 99, 100, 101, 102, 103, 104, 105, 106, 107, 108, 109, 110, 111, 112, 113, 114, 115, 116, 117, 118, 119, 120, 121, 122, 123, 124, 125, 126, 127, 128, 129, 130, 131, 132, 133, 134, 135, 136, 137, 138, 139, 140, 141, 142, 143, 144, 145, 146, 147, 148, 149, 150, 151, 152, 153, 154, 155, 156, 157, 158, 159, 160, 161, 162, 163, 164, 165, 166, 167, 168, 169, 170, 171, 172, 173, 174, 175, 176, 177, 178, 179, 180, 181, 182, 183, 184, 185, 186, 187, 188, 189, 190, 191, 192, 193, 194, 195, 196, 197, 198, 199, 200],
      "AcquisitionTime": ["144656.455000", "144658.455000", "144700.455000", "144702.455000", "144704.455000", "144706.455000", "144708.455000", "144710.455000", "144712.455000", "144714.455000", "144716.455000", "144718.455000", "144720.455000", "144722.455000", "144724.455000", "144726.455000", "144728.455000", "144730.455000", "144732.455000", "144734.455000", "144736.455000", "144738.455000", "144740.455000", "144742.455000", "144744.455000", "144746.455000", "144748.455000", "144750.455000", "144752.455000", "144754.455000", "144756.455000", "144758.455000", "144800.455000", "144802.455000", "144804.455000", "144806.455000", "144808.455000", "144810.455000", "144812.455000", "144814.455000", "144816.455000", "144818.455000", "144820.455000", "144822.455000", "144824.455000", "144826.455000", "144828.455000", "144830.455000", "144832.455000", "144834.455000", "144836.455000", "144838.455000", "144840.455000", "144842.455000", "144844.455000", "144846.455000", "144848.455000", "144850.455000", "144852.455000", "144854.455000", "144856.455000", "144858.455000", "144900.455000", "144902.455000", "144904.455000", "144906.455000", "144908.455000", "144910.455000", "144912.455000", "144914.455000", "144916.455000", "144918.455000", "144920.455000", "144922.455000", "144924.455000", "144926.455000", "144928.455000", "144930.455000", "144932.455000", "144934.455000", "144936.455000", "144938.455000", "144940.455000", "144942.455000", "144944.455000", "144946.455000", "144948.455000", "144950.455000", "144952.455000", "144954.455000", "144956.455000", "144958.455000", "145000.455000", "145002.455000", "145004.455000", "145006.455000", "145008.455000", "145010.455000", "145012.455000", "145014.455000", "145016.455000", "145018.455000", "145020.455000", "145022.455000", "145024.455000", "145026.455000", "145028.455000", "145030.455000", "145032.455000", "145034.455000", "145036.455000", "145038.455000", "145040.455000", "145042.455000", "145044.455000", "145046.455000", "145048.455000", "145050.455000", "145052.455000", "145054.455000", "145056.455000", "145058.455000", "145100.455000", "145102.455000", "145104.455000", "145106.455000", "145108.455000", "145110.455000", "145112.455000", "145114.455000", "145116.455000", "145118.455000", "145120.455000", "145122.455000", "145124.455000", "145126.455000", "145128.455000", "145130.455000", "145132.455000", "145134.455000", "145136.455000", "145138.455000", "145140.455000", "145142.455000", "145144.455000", "145146.455000", "145148.455000", "145150.455000", "145152.455000", "145154.455000", "145156.455000", "145158.455000", "145200.455000", "145202.455000", "145204.455000", "145206.455000", "145208.455000", "145210.455000", "145212.455000", "145214.455000", "145216.455000", "145218.455000", "145220.455000", "145222.455000", "145224.455000", "145226.455000", "145228.455000", "145230.455000", "145232.455000", "145234.455000", "145236.455000", "145238.455000", "145240.455000", "145242.455000", "145244.455000", "145246.455000", "145248.455000", "145250.455000", "145252.455000", "145254.455000", "145256.455000", "145258.455000", "145300.455000", "145302.455000", "145304.455000", "145306.455000", "145308.455000", "145310.455000", "145312.455000", "145314.455000", "145316.455000", "145318.455000", "145320.455000", "145322.455000", "145324.455000", "145326.455000", "145328.455000", "145330.455000", "145332.455000", "145334.455000"],
      "ContentTime": ["144753.799000", "144753.802000", "144753.804000", "144753.807000", "144753.809000", "144753.812000", "144753.814000", "144753.816000", "144753.819000", "144753.821000", "144753.823000", "144753.826000", "144753.828000", "144753.830000", "144753.833000", "144753.835000", "144753.837000", "144753.840000", "144753.842000", "144753.844000", "144753.847000", "144753.855000", "144753.858000", "144753.860000", "144753.862000", "144753.865000", "144753.869000", "144753.871000", "144833.793000", "144833.796000", "144833.798000", "144833.801000", "144833.808000", "144833.810000", "144833.813000", "144833.815000", "144833.818000", "144833.820000", "144833.822000", "144833.825000", "144833.827000", "144833.829000", "144833.832000", "144833.834000", "144833.836000", "144833.839000", "144833.841000", "144833.843000", "144853.793000", "144853.796000", "144853.804000", "144853.806000", "144853.808000", "144853.811000", "144853.813000", "144853.816000", "144853.818000", "144853.820000", "144933.793000", "144933.796000", "144933.799000", "144933.801000", "144933.803000", "144933.806000", "144933.808000", "144933.810000", "144933.813000", "144933.815000", "144933.817000", "144933.820000", "144933.822000", "144933.825000", "144933.827000", "144933.829000", "144933.832000", "144933.834000", "144933.836000", "144933.839000", "145013.794000", "145013.797000", "145013.800000", "145013.802000", "145013.804000", "145013.806000", "145013.809000", "145013.811000", "145013.814000", "145013.816000", "145013.818000", "145013.821000", "145013.823000", "145013.825000", "145013.828000", "145013.830000", "145013.832000", "145013.835000", "145013.837000", "145013.840000", "145053.793000", "145053.796000", "145053.798000", "145053.801000", "145053.803000", "145053.805000", "145053.808000", "145053.810000", "145053.812000", "145053.815000", "145053.817000", "145053.819000", "145053.822000", "145053.824000", "145053.826000", "145053.829000", "145053.831000", "145053.834000", "145053.836000", "145053.838000", "145133.793000", "145133.796000", "145133.798000", "145133.801000", "145133.803000", "145133.805000", "145133.808000", "145133.810000", "145133.812000", "145133.815000", "145133.817000", "145133.819000", "145133.822000", "145133.824000", "145133.827000", "145133.829000", "145133.831000", "145133.833000", "145133.836000", "145133.838000", "145213.793000", "145213.796000", "145213.798000", "145213.801000", "145213.803000", "145213.805000", "145213.808000", "145213.810000", "145213.813000", "145213.815000", "145213.817000", "145213.820000", "145213.822000", "145213.824000", "145213.827000", "145213.829000", "145213.831000", "145213.834000", "145213.836000", "145213.839000", "145253.794000", "145253.797000", "145253.799000", "145253.802000", "145253.804000", "145253.806000", "145253.809000", "145253.811000", "145253.814000", "145253.816000", "145253.819000", "145253.821000", "145253.823000", "145253.826000", "145253.828000", "145253.830000", "145253.833000", "145253.835000", "145253.837000", "145253.840000", "145333.794000", "145333.796000", "145333.799000", "145333.801000", "145333.803000", "145333.806000", "145333.808000", "145333.811000", "145333.813000", "145333.815000", "145333.818000", "145333.820000", "145333.822000", "145333.825000", "145333.827000", "145333.829000", "145333.832000", "145333.834000", "145333.836000", "145333.839000", "145335.909000", "145335.912000"],
      "InstanceCreationTime": ["144753.799000", "144753.802000", "144753.804000", "144753.807000", "144753.809000", "144753.812000", "144753.814000", "144753.816000", "144753.819000", "144753.821000", "144753.823000", "144753.826000", "144753.828000", "144753.830000", "144753.833000", "144753.835000", "144753.837000", "144753.840000", "144753.842000", "144753.844000", "144753.847000", "144753.855000", "144753.858000", "144753.860000", "144753.862000", "144753.865000", "144753.869000", "144753.871000", "144833.793000", "144833.796000", "144833.798000", "144833.801000", "144833.808000", "144833.810000", "144833.813000", "144833.815000", "144833.818000", "144833.820000", "144833.822000", "144833.825000", "144833.827000", "144833.829000", "144833.832000", "144833.834000", "144833.836000", "144833.839000", "144833.841000", "144833.843000", "144853.793000", "144853.796000", "144853.804000", "144853.806000", "144853.808000", "144853.811000", "144853.813000", "144853.816000", "144853.818000", "144853.820000", "144933.793000", "144933.796000", "144933.799000", "144933.801000", "144933.803000", "144933.806000", "144933.808000", "144933.810000", "144933.813000", "144933.815000", "144933.817000", "144933.820000", "144933.822000", "144933.825000", "144933.827000", "144933.829000", "144933.832000", "144933.834000", "144933.836000", "144933.839000", "145013.794000", "145013.797000", "145013.800000", "145013.802000", "145013.804000", "145013.806000", "145013.809000", "145013.811000", "145013.814000", "145013.816000", "145013.818000", "145013.821000", "145013.823000", "145013.825000", "145013.828000", "145013.830000", "145013.832000", "145013.835000", "145013.837000", "145013.840000", "145053.793000", "145053.796000", "145053.798000", "145053.801000", "145053.803000", "145053.805000", "145053.808000", "145053.810000", "145053.812000", "145053.815000", "145053.817000", "145053.819000", "145053.822000", "145053.824000", "145053.826000", "145053.829000", "145053.831000", "145053.834000", "145053.836000", "145053.838000", "145133.793000", "145133.796000", "145133.798000", "145133.801000", "145133.803000", "145133.805000", "145133.808000", "145133.810000", "145133.812000", "145133.815000", "145133.817000", "145133.819000", "145133.822000", "145133.824000", "145133.827000", "145133.829000", "145133.831000", "145133.833000", "145133.836000", "145133.838000", "145213.793000", "145213.796000", "145213.798000", "145213.801000", "145213.803000", "145213.805000", "145213.808000", "145213.810000", "145213.813000", "145213.815000", "145213.817000", "145213.820000", "145213.822000", "145213.824000", "145213.827000", "145213.829000", "145213.831000", "145213.834000", "145213.836000", "145213.839000", "145253.794000", "145253.797000", "145253.799000", "145253.802000", "145253.804000", "145253.806000", "145253.809000", "145253.811000", "145253.814000", "145253.816000", "145253.819000", "145253.821000", "145253.823000", "145253.826000", "145253.828000", "145253.830000", "145253.833000", "145253.835000", "145253.837000", "145253.840000", "145333.794000", "145333.796000", "145333.799000", "145333.801000", "145333.803000", "145333.806000", "145333.808000", "145333.811000", "145333.813000", "145333.815000", "145333.818000", "145333.820000", "145333.822000", "145333.825000", "145333.827000", "145333.829000", "145333.832000", "145333.834000", "145333.836000", "145333.839000", "145335.909000", "145335.912000"],
      "InstanceNumber": [1, 2, 3, 4, 5, 6, 7, 8, 9, 10, 11, 12, 13, 14, 15, 16, 17, 18, 19, 20, 21, 22, 23, 24, 25, 26, 27, 28, 29, 30, 31, 32, 33, 34, 35, 36, 37, 38, 39, 40, 41, 42, 43, 44, 45, 46, 47, 48, 49, 50, 51, 52, 53, 54, 55, 56, 57, 58, 59, 60, 61, 62, 63, 64, 65, 66, 67, 68, 69, 70, 71, 72, 73, 74, 75, 76, 77, 78, 79, 80, 81, 82, 83, 84, 85, 86, 87, 88, 89, 90, 91, 92, 93, 94, 95, 96, 97, 98, 99, 100, 101, 102, 103, 104, 105, 106, 107, 108, 109, 110, 111, 112, 113, 114, 115, 116, 117, 118, 119, 120, 121, 122, 123, 124, 125, 126, 127, 128, 129, 130, 131, 132, 133, 134, 135, 136, 137, 138, 139, 140, 141, 142, 143, 144, 145, 146, 147, 148, 149, 150, 151, 152, 153, 154, 155, 156, 157, 158, 159, 160, 161, 162, 163, 164, 165, 166, 167, 168, 169, 170, 171, 172, 173, 174, 175, 176, 177, 178, 179, 180, 181, 182, 183, 184, 185, 186, 187, 188, 189, 190, 191, 192, 193, 194, 195, 196, 197, 198, 199, 200],
      "WindowCenter": [1516.0, 1516.0, 1516.0, 1516.0, 1516.0, 1516.0, 1515.0, 1515.0, 1515.0, 1515.0, 1515.0, 1515.0, 1515.0, 1515.0, 1514.0, 1515.0, 1515.0, 1514.0, 1514.0, 1515.0, 1514.0, 1515.0, 1514.0, 1515.0, 1514.0, 1514.0, 1514.0, 1515.0, 1515.0, 1514.0, 1514.0, 1514.0, 1514.0, 1514.0, 1514.0, 1514.0, 1513.0, 1513.0, 1514.0, 1513.0, 1513.0, 1513.0, 1514.0, 1513.0, 1513.0, 1513.0, 1513.0, 1513.0, 1513.0, 1513.0, 1513.0, 1513.0, 1513.0, 1512.0, 1513.0, 1512.0, 1512.0, 1512.0, 1512.0, 1512.0, 1513.0, 1512.0, 1512.0, 1512.0, 1513.0, 1512.0, 1512.0, 1512.0, 1512.0, 1512.0, 1513.0, 1512.0, 1512.0, 1511.0, 1511.0, 1511.0, 1511.0, 1512.0, 1512.0, 1511.0, 1511.0, 1511.0, 1511.0, 1511.0, 1511.0, 1511.0, 1511.0, 1511.0, 1511.0, 1510.0, 1510.0, 1511.0, 1511.0, 1510.0, 1510.0, 1511.0, 1511.0, 1510.0, 1511.0, 1511.0, 1511.0, 1510.0, 1510.0, 1511.0, 1510.0, 1510.0, 1510.0, 1510.0, 1510.0, 1509.0, 1510.0, 1509.0, 1509.0, 1510.0, 1509.0, 1510.0, 1509.0, 1510.0, 1509.0, 1509.0, 1509.0, 1509.0, 1509.0, 1508.0, 1509.0, 1509.0, 1508.0, 1509.0, 1508.0, 1509.0, 1509.0, 1508.0, 1509.0, 1509.0, 1508.0, 1509.0, 1509.0, 1509.0, 1508.0, 1509.0, 1509.0, 1509.0, 1508.0, 1508.0, 1508.0, 1508.0, 1508.0, 1508.0, 1508.0, 1508.0, 1507.0, 1509.0, 1508.0, 1507.0, 1507.0, 1508.0, 1508.0, 1507.0, 1508.0, 1508.0, 1508.0, 1507.0, 1508.0, 1508.0, 1508.0, 1507.0, 1508.0, 1507.0, 1507.0, 1507.0, 1507.0, 1507.0, 1508.0, 1508.0, 1507.0, 1507.0, 1507.0, 1507.0, 1507.0, 1507.0, 1507.0, 1507.0, 1507.0, 1507.0, 1507.0, 1507.0, 1506.0, 1507.0, 1507.0, 1506.0, 1506.0, 1506.0, 1506.0, 1506.0, 1506.0, 1506.0, 1507.0, 1506.0, 1506.0, 1506.0],
      "WindowWidth": [3458.0, 3458.0, 3458.0, 3458.0, 3458.0, 3458.0, 3458.0, 3458.0, 3458.0, 3458.0, 3458.0, 3458.0, 3458.0, 3458.0, 3457.0, 3458.0, 3458.0, 3457.0, 3457.0, 3458.0, 3457.0, 3457.0, 3457.0, 3457.0, 3457.0, 3457.0, 3457.0, 3457.0, 3457.0, 3457.0, 3457.0, 3457.0, 3457.0, 3457.0, 3457.0, 3457.0, 3457.0, 3457.0, 3457.0, 3457.0, 3457.0, 3457.0, 3456.0, 3456.0, 3456.0, 3456.0, 3456.0, 3456.0, 3456.0, 3456.0, 3456.0, 3456.0, 3456.0, 3456.0, 3455.0, 3456.0, 3456.0, 3456.0, 3456.0, 3456.0, 3455.0, 3456.0, 3455.0, 3455.0, 3455.0, 3455.0, 3455.0, 3455.0, 3455.0, 3455.0, 3455.0, 3455.0, 3455.0, 3455.0, 3455.0, 3455.0, 3455.0, 3454.0, 3454.0, 3454.0, 3454.0, 3454.0, 3454.0, 3454.0, 3454.0, 3454.0, 3454.0, 3454.0, 3454.0, 3454.0, 3454.0, 3454.0, 3454.0, 3454.0, 3454.0, 3453.0, 3454.0, 3454.0, 3453.0, 3453.0, 3454.0, 3453.0, 3453.0, 3453.0, 3453.0, 3453.0, 3453.0, 3453.0, 3453.0, 3454.0, 3453.0, 3453.0, 3453.0, 3453.0, 3453.0, 3453.0, 3452.0, 3453.0, 3452.0, 3452.0, 3452.0, 3452.0, 3452.0, 3452.0, 3452.0, 3452.0, 3453.0, 3452.0, 3453.0, 3452.0, 3452.0, 3452.0, 3452.0, 3452.0, 3452.0, 3452.0, 3452.0, 3452.0, 3452.0, 3452.0, 3452.0, 3452.0, 3452.0, 3452.0, 3452.0, 3452.0, 3452.0, 3451.0, 3452.0, 3451.0, 3451.0, 3451.0, 3451.0, 3451.0, 3451.0, 3451.0, 3451.0, 3451.0, 3451.0, 3451.0, 3451.0, 3451.0, 3451.0, 3451.0, 3451.0, 3451.0, 3451.0, 3451.0, 3451.0, 3451.0, 3451.0, 3451.0, 3450.0, 3450.0, 3451.0, 3450.0, 3450.0, 3450.0, 3450.0, 3450.0, 3450.0, 3450.0, 3450.0, 3450.0, 3450.0, 3450.0, 3450.0, 3450.0, 3450.0, 3450.0, 3450.0, 3450.0, 3450.0, 3450.0, 3450.0, 3450.0, 3449.0, 3450.0, 3450.0, 3450.0]
    },
    "slices": {}
  }
}