{
  "AcquisitionMatrixPE": 80,
  "AcquisitionNumber": 1,
  "AcquisitionTime": "08:41:11.210000",
  "BandwidthPerPixelPhaseEncode": 48.077,
  "BaseResolution": 80,
  "BodyPartExamined": "BRAIN",
  "CoilCombinationMethod": "Sum of Squares",
  "ConsistencyInfo": "N4_VE11C_LATEST_20160120",
  "ConversionSoftware": "dcm2niix",
  "ConversionSoftwareVersion": "v1.0.20220720",
  "DerivedVendorReportedEchoSpacing": 0.000519999,
  "DeviceSerialNumber": "66112",
  "DwellTime": 2.7e-06,
  "EchoTime": 0.035,
  "EchoTrainLength": 39,
  "EffectiveEchoSpacing": 0.00026,
  "FlipAngle": 90,
  "HeudiconvVersion": "0.13.1",
  "ImageOrientationPatientDICOM": [0.986837, 0.161515, 0.00805617, -0.1563, 0.93982, 0.303824],
  "ImageOrientationText": "Tra>Cor(17.5)>Sag(-2.4)",
  "ImageType": [
    "ORIGINAL",
    "PRIMARY",
    "M",
    "ND",
    "NORM",
    "MOSAIC"
],
  "ImagingFrequency": 123.253,
  "InPlanePhaseEncodingDirectionDICOM": "COL",
  "InstitutionAddress": "Maynard 3,Hanover,NH,US,03755",
  "InstitutionName": "Dartmouth College - PBS",
  "InstitutionalDepartmentName": "Department",
  "MRAcquisitionType": "2D",
  "MagneticFieldStrength": 3,
  "Manufacturer": "Siemens",
  "ManufacturersModelName": "Prisma",
  "MatrixCoilMode": "GRAPPA",
  "Modality": "MR",
  "NonlinearGradientCorrection": false,
  "ParallelReductionFactorInPlane": 2,
  "PartialFourier": 1,
  "PatientPosition": "HFS",
  "PercentPhaseFOV": 100,
  "PercentSampling": 100,
  "PhaseEncodingDirection": "j-",
  "PhaseEncodingSteps": 79,
  "PhaseResolution": 1,
  "PixelBandwidth": 2315,
  "ProcedureStepDescription": "dbic^QA",
  "ProtocolName": "BOLD_p2",
  "PulseSequenceDetails": "%SiemensSeq%\\ep2d_bold",
  "ReceiveCoilActiveElements": "HEA;HEP",
  "ReceiveCoilName": "Head_32",
  "ReconMatrixPE": 80,
  "RefLinesPE": 24,
  "RepetitionTime": 2,
  "SAR": 0.0556561,
  "ScanOptions": "FS",
  "ScanningSequence": "EP",
  "SequenceName": "*epfid2d1_80",
  "SequenceVariant": "SK",
  "SeriesDescription": "BOLD_p2",
  "SeriesNumber": 7,
  "ShimSetting": [4150, -7689, -7510, 251, -59, -85, -31, 74],
  "SliceThickness": 3.5,
  "SliceTiming": [0.99, 0, 1.0575, 0.0675, 1.1225, 0.1325, 1.1875, 0.2, 1.255, 0.265, 1.32, 0.33, 1.3875, 0.3975, 1.4525, 0.4625, 1.5175, 0.53, 1.585, 0.595, 1.65, 0.66, 1.7175, 0.7275, 1.7825, 0.7925, 1.8475, 0.86, 1.915, 0.925],
  "SoftwareVersions": "syngo MR E11",
  "SpacingBetweenSlices": 3.99,
  "StationName": "AWP66112",
  "TaskName": "rest",
  "TotalReadoutTime": 0.02054,
  "TxRefAmp": 233.583,
  "dcmmeta_affine": [
    [-2.960512161254883, -0.4688990116119385, -0.1655879020690918, 140.3113250732422],
    [-0.4845440685749054, 2.8194594383239746, 1.2013262510299683, -109.1370849609375],
    [0.024168504402041435, -0.9114726185798645, 3.8012492656707764, -12.65243911743164],
    [0.0, 0.0, 0.0, 1.0]
],
  "dcmmeta_reorient_transform": [
    [0.0, -1.0, 0.0, 79.0],
    [1.0, 0.0, 0.0, 0.0],
    [0.0, 0.0, 1.0, 0.0],
    [0.0, 0.0, 0.0, 1.0]
],
  "dcmmeta_shape": [80, 80, 30, 157],
  "dcmmeta_slice_dim": 2,
  "dcmmeta_version": 0.6,
  "global": {
    "const": {
      "AccessionNumber": "qa",
      "AcquisitionMatrix": [80, 0, 0, 80],
      "AngioFlag": "N",
      "BitsAllocated": 16,
      "BitsStored": 12,
      "BodyPartExamined": "BRAIN",
      "Columns": 480,
      "EchoNumbers": 1,
      "EchoTime": 35.0,
      "EchoTrainLength": 39,
      "FlipAngle": 90.0,
      "HighBit": 11,
      "ImageOrientationPatient": [0.98683742430942, 0.16151469324901, 0.00805616825972, -0.1562996724682, 0.93981980340262, 0.30382420824975],
      "ImagePositionPatient": [-601.59095253537, -774.40090678778, -271.78700249551],
      "ImageType": [
        "ORIGINAL",
        "PRIMARY",
        "M",
        "ND",
        "NORM",
        "MOSAIC"
],
      "ImagedNucleus": "1H",
      "ImagingFrequency": 123.252559,
      "InPlanePhaseEncodingDirection": "COL",
      "MRAcquisitionType": "2D",
      "MagneticFieldStrength": 3.0,
      "Manufacturer": "SIEMENS",
      "ManufacturerModelName": "Prisma",
      "Modality": "MR",
      "NumberOfAverages": 1.0,
      "NumberOfPhaseEncodingSteps": 79,
      "PercentPhaseFieldOfView": 100.0,
      "PercentSampling": 100.0,
      "PerformedProcedureStepStartTime": "083458.699000",
      "PhotometricInterpretation": "MONOCHROME2",
      "PixelBandwidth": 2315.0,
      "PixelRepresentation": 0,
      "PixelSpacing": [3.0, 3.0],
      "ProtocolName": "BOLD_p2",
      "RepetitionTime": 2000.0,
      "Rows": 480,
      "SAR": 0.05565606435113,
      "SamplesPerPixel": 1,
      "ScanOptions": "FS",
      "ScanningSequence": "EP",
      "SequenceName": "*epfid2d1_80",
      "SequenceVariant": "SK",
      "SeriesDescription": "BOLD_p2",
      "SeriesNumber": 7,
      "SeriesTime": "084210.836000",
      "SliceLocation": -50.736385596387,
      "SliceThickness": 3.5,
      "SmallestImagePixelValue": 0,
      "SoftwareVersions": "syngo MR E11",
      "SpacingBetweenSlices": 3.9900000362743,
      "SpecificCharacterSet": "ISO_IR 100",
      "StudyID": "1",
      "StudyTime": "083458.560000",
      "TransmitCoilName": "Body",
      "VariableFlipAngleFlag": "N",
      "WindowCenterWidthExplanation": "Algo1",
      "dBdt": 0.0},
    "slices": {}
  },
  "time": {
    "samples": {
      "AcquisitionNumber": [1, 2, 3, 4, 5, 6, 7, 8, 9, 10, 11, 12, 13, 14, 15, 16, 17, 18, 19, 20, 21, 22, 23, 24, 25, 26, 27, 28, 29, 30, 31, 32, 33, 34, 35, 36, 37, 38, 39, 40, 41, 42, 43, 44, 45, 46, 47, 48, 49, 50, 51, 52, 53, 54, 55, 56, 57, 58, 59, 60, 61, 62, 63, 64, 65, 66, 67, 68, 69, 70, 71, 72, 73, 74, 75, 76, 77, 78, 79, 80, 81, 82, 83, 84, 85, 86, 87, 88, 89, 90, 91, 92, 93, 94, 95, 96, 97, 98, 99, 100, 101, 102, 103, 104, 105, 106, 107, 108, 109, 110, 111, 112, 113, 114, 115, 116, 117, 118, 119, 120, 121, 122, 123, 124, 125, 126, 127, 128, 129, 130, 131, 132, 133, 134, 135, 136, 137, 138, 139, 140, 141, 142, 143, 144, 145, 146, 147, 148, 149, 150, 151, 152, 153, 154, 155, 156, 157],
      "AcquisitionTime": ["084111.210000", "084113.210000", "084115.210000", "084117.210000", "084119.210000", "084121.210000", "084123.210000", "084125.210000", "084127.210000", "084129.210000", "084131.210000", "084133.210000", "084135.210000", "084137.210000", "084139.210000", "084141.210000", "084143.210000", "084145.210000", "084147.210000", "084149.210000", "084151.210000", "084153.210000", "084155.210000", "084157.210000", "084159.210000", "084201.210000", "084203.210000", "084205.210000", "084207.210000", "084209.210000", "084211.210000", "084213.210000", "084215.210000", "084217.210000", "084219.210000", "084221.210000", "084223.210000", "084225.210000", "084227.210000", "084229.210000", "084231.210000", "084233.210000", "084235.210000", "084237.210000", "084239.210000", "084241.210000", "084243.210000", "084245.210000", "084247.210000", "084249.210000", "084251.210000", "084253.210000", "084255.210000", "084257.210000", "084259.210000", "084301.210000", "084303.210000", "084305.210000", "084307.210000", "084309.210000", "084311.210000", "084313.210000", "084315.210000", "084317.210000", "084319.210000", "084321.210000", "084323.210000", "084325.210000", "084327.210000", "084329.210000", "084331.210000", "084333.210000", "084335.210000", "084337.210000", "084339.210000", "084341.210000", "084343.210000", "084345.210000", "084347.210000", "084349.210000", "084351.210000", "084353.210000", "084355.210000", "084357.210000", "084359.210000", "084401.210000", "084403.210000", "084405.210000", "084407.210000", "084409.210000", "084411.210000", "084413.210000", "084415.210000", "084417.210000", "084419.210000", "084421.210000", "084423.210000", "084425.210000", "084427.210000", "084429.210000", "084431.210000", "084433.210000", "084435.210000", "084437.210000", "084439.210000", "084441.210000", "084443.210000", "084445.210000", "084447.210000", "084449.210000", "084451.210000", "084453.210000", "084455.210000", "084457.210000", "084459.210000", "084501.210000", "084503.210000", "084505.210000", "084507.210000", "084509.210000", "084511.210000", "084513.210000", "084515.210000", "084517.210000", "084519.210000", "084521.210000", "084523.210000", "084525.210000", "084527.210000", "084529.210000", "084531.210000", "084533.210000", "084535.210000", "084537.210000", "084539.210000", "084541.210000", "084543.210000", "084545.210000", "084547.210000", "084549.210000", "084551.210000", "084553.210000", "084555.210000", "084557.210000", "084559.210000", "084601.210000", "084603.210000", "084605.210000", "084607.210000", "084609.210000", "084611.210000", "084613.210000", "084615.210000", "084617.210000", "084619.210000", "084621.210000", "084623.210000"],
      "ContentTime": ["084210.839000", "084210.843000", "084210.845000", "084210.848000", "084210.851000", "084210.853000", "084210.860000", "084210.863000", "084210.866000", "084210.868000", "084210.871000", "084210.873000", "084210.876000", "084210.879000", "084210.881000", "084210.884000", "084210.886000", "084210.889000", "084210.891000", "084210.894000", "084210.897000", "084210.899000", "084210.902000", "084210.915000", "084210.917000", "084210.920000", "084210.923000", "084210.925000", "084210.928000", "084250.835000", "084250.837000", "084250.840000", "084250.842000", "084250.845000", "084250.848000", "084250.850000", "084250.861000", "084250.864000", "084250.867000", "084250.869000", "084250.872000", "084250.874000", "084250.877000", "084250.879000", "084250.888000", "084250.890000", "084250.893000", "084250.895000", "084250.898000", "084330.835000", "084330.846000", "084330.848000", "084330.851000", "084330.853000", "084330.856000", "084330.859000", "084330.861000", "084330.864000", "084330.866000", "084330.869000", "084330.872000", "084330.874000", "084330.877000", "084330.879000", "084330.882000", "084330.884000", "084330.887000", "084330.889000", "084330.892000", "084410.833000", "084410.836000", "084410.839000", "084410.841000", "084410.844000", "084410.846000", "084410.849000", "084410.851000", "084410.860000", "084410.863000", "084410.873000", "084410.875000", "084410.878000", "084410.880000", "084410.883000", "084410.885000", "084410.897000", "084410.900000", "084410.903000", "084410.905000", "084450.834000", "084450.837000", "084450.840000", "084450.842000", "084450.845000", "084450.847000", "084450.850000", "084450.852000", "084450.855000", "084450.857000", "084450.860000", "084450.862000", "084450.865000", "084450.868000", "084450.870000", "084450.873000", "084450.875000", "084450.878000", "084450.880000", "084450.883000", "084530.834000", "084530.837000", "084530.840000", "084530.842000", "084530.845000", "084530.848000", "084530.850000", "084530.853000", "084530.856000", "084530.858000", "084530.861000", "084530.863000", "084530.866000", "084530.868000", "084530.871000", "084530.873000", "084530.876000", "084530.879000", "084530.881000", "084530.884000", "084610.834000", "084610.837000", "084610.840000", "084610.842000", "084610.845000", "084610.847000", "084610.850000", "084610.852000", "084610.855000", "084610.858000", "084610.860000", "084610.863000", "084610.865000", "084610.868000", "084610.870000", "084610.873000", "084610.875000", "084610.878000", "084610.880000", "084610.883000", "084624.989000", "084624.992000", "084624.994000", "084624.997000", "084625.001000", "084625.003000", "084625.006000", "084625.008000"],
      "InstanceCreationTime": ["084210.839000", "084210.843000", "084210.845000", "084210.848000", "084210.851000", "084210.853000", "084210.860000", "084210.863000", "084210.866000", "084210.868000", "084210.871000", "084210.873000", "084210.876000", "084210.879000", "084210.881000", "084210.884000", "084210.886000", "084210.889000", "084210.891000", "084210.894000", "084210.897000", "084210.899000", "084210.902000", "084210.915000", "084210.917000", "084210.920000", "084210.923000", "084210.925000", "084210.928000", "084250.835000", "084250.837000", "084250.840000", "084250.842000", "084250.845000", "084250.848000", "084250.850000", "084250.861000", "084250.864000", "084250.867000", "084250.869000", "084250.872000", "084250.874000", "084250.877000", "084250.879000", "084250.888000", "084250.890000", "084250.893000", "084250.895000", "084250.898000", "084330.835000", "084330.846000", "084330.848000", "084330.851000", "084330.853000", "084330.856000", "084330.859000", "084330.861000", "084330.864000", "084330.866000", "084330.869000", "084330.872000", "084330.874000", "084330.877000", "084330.879000", "084330.882000", "084330.884000", "084330.887000", "084330.889000", "084330.892000", "084410.833000", "084410.836000", "084410.839000", "084410.841000", "084410.844000", "084410.846000", "084410.849000", "084410.851000", "084410.860000", "084410.863000", "084410.873000", "084410.875000", "084410.878000", "084410.880000", "084410.883000", "084410.885000", "084410.897000", "084410.900000", "084410.903000", "084410.905000", "084450.834000", "084450.837000", "084450.840000", "084450.842000", "084450.845000", "084450.847000", "084450.850000", "084450.852000", "084450.855000", "084450.857000", "084450.860000", "084450.862000", "084450.865000", "084450.868000", "084450.870000", "084450.873000", "084450.875000", "084450.878000", "084450.880000", "084450.883000", "084530.834000", "084530.837000", "084530.840000", "084530.842000", "084530.845000", "084530.848000", "084530.850000", "084530.853000", "084530.856000", "084530.858000", "084530.861000", "084530.863000", "084530.866000", "084530.868000", "084530.871000", "084530.873000", "084530.876000", "084530.879000", "084530.881000", "084530.884000", "084610.834000", "084610.837000", "084610.840000", "084610.842000", "084610.845000", "084610.847000", "084610.850000", "084610.852000", "084610.855000", "084610.858000", "084610.860000", "084610.863000", "084610.865000", "084610.868000", "084610.870000", "084610.873000", "084610.875000", "084610.878000", "084610.880000", "084610.883000", "084624.989000", "084624.992000", "084624.994000", "084624.997000", "084625.001000", "084625.003000", "084625.006000", "084625.008000"],
      "InstanceNumber": [1, 2, 3, 4, 5, 6, 7, 8, 9, 10, 11, 12, 13, 14, 15, 16, 17, 18, 19, 20, 21, 22, 23, 24, 25, 26, 27, 28, 29, 30, 31, 32, 33, 34, 35, 36, 37, 38, 39, 40, 41, 42, 43, 44, 45, 46, 47, 48, 49, 50, 51, 52, 53, 54, 55, 56, 57, 58, 59, 60, 61, 62, 63, 64, 65, 66, 67, 68, 69, 70, 71, 72, 73, 74, 75, 76, 77, 78, 79, 80, 81, 82, 83, 84, 85, 86, 87, 88, 89, 90, 91, 92, 93, 94, 95, 96, 97, 98, 99, 100, 101, 102, 103, 104, 105, 106, 107, 108, 109, 110, 111, 112, 113, 114, 115, 116, 117, 118, 119, 120, 121, 122, 123, 124, 125, 126, 127, 128, 129, 130, 131, 132, 133, 134, 135, 136, 137, 138, 139, 140, 141, 142, 143, 144, 145, 146, 147, 148, 149, 150, 151, 152, 153, 154, 155, 156, 157],
      "LargestImagePixelValue": [2104, 2113, 2103, 2106, 2105, 2101, 2106, 2104, 2110, 2102, 2110, 2107, 2104, 2107, 2111, 2101, 2105, 2105, 2104, 2110, 2108, 2111, 2104, 2107, 2110, 2108, 2106, 2105, 2106, 2109, 2107, 2109, 2108, 2105, 2106, 2106, 2106, 2108, 2101, 2102, 2105, 2107, 2105, 2107, 2106, 2104, 2105, 2104, 2103, 2105, 2103, 2107, 2107, 2111, 2106, 2107, 2103, 2107, 2107, 2117, 2108, 2104, 2107, 2108, 2100, 2106, 2106, 2105, 2103, 2105, 2103, 2109, 2112, 2102, 2103, 2106, 2103, 2109, 2103, 2099, 2106, 2102, 2105, 2107, 2102, 2109, 2107, 2107, 2101, 2113, 2106, 2105, 2104, 2104, 2105, 2099, 2108, 2105, 2103, 2105, 2103, 2105, 2106, 2101, 2107, 2109, 2104, 2113, 2105, 2103, 2103, 2102, 2101, 2100, 2100, 2109, 2104, 2102, 2102, 2101, 2110, 2104, 2106, 2105, 2098, 2106, 2101, 2103, 2104, 2102, 2107, 2103, 2102, 2100, 2106, 2099, 2104, 2099, 2103, 2106, 2097, 2103, 2099, 2100, 2111, 2100, 2101, 2101, 2106, 2103, 2098, 2109, 2098, 2100, 2105, 2111, 2103],
      "WindowCenter": [1006.0, 1006.0, 1006.0, 1006.0, 1006.0, 1006.0, 1006.0, 1006.0, 1006.0, 1007.0, 1006.0, 1006.0, 1006.0, 1006.0, 1006.0, 1006.0, 1006.0, 1006.0, 1006.0, 1006.0, 1006.0, 1006.0, 1006.0, 1006.0, 1005.0, 1006.0, 1005.0, 1006.0, 1005.0, 1005.0, 1005.0, 1005.0, 1005.0, 1005.0, 1005.0, 1005.0, 1005.0, 1005.0, 1006.0, 1005.0, 1006.0, 1005.0, 1005.0, 1005.0, 1006.0, 1005.0, 1005.0, 1005.0, 1006.0, 1005.0, 1005.0, 1006.0, 1006.0, 1005.0, 1005.0, 1005.0, 1006.0, 1005.0, 1005.0, 1005.0, 1005.0, 1005.0, 1006.0, 1005.0, 1005.0, 1005.0, 1005.0, 1006.0, 1005.0, 1005.0, 1005.0, 1005.0, 1005.0, 1006.0, 1005.0, 1005.0, 1005.0, 1005.0, 1005.0, 1005.0, 1005.0, 1005.0, 1005.0, 1005.0, 1005.0, 1005.0, 1005.0, 1005.0, 1005.0, 1005.0, 1005.0, 1005.0, 1005.0, 1005.0, 1005.0, 1005.0, 1005.0, 1005.0, 1005.0, 1007.0, 1005.0, 1005.0, 1005.0, 1005.0, 1005.0, 1006.0, 1005.0, 1006.0, 1005.0, 1005.0, 1005.0, 1005.0, 1005.0, 1005.0, 1005.0, 1005.0, 1005.0, 1005.0, 1005.0, 1005.0, 1005.0, 1006.0, 1005.0, 1005.0, 1005.0, 1005.0, 1005.0, 1005.0, 1005.0, 1005.0, 1005.0, 1005.0, 1005.0, 1006.0, 1006.0, 1005.0, 1005.0, 1005.0, 1005.0, 1007.0, 1005.0, 1005.0, 1005.0, 1005.0, 1005.0, 1005.0, 1005.0, 1005.0, 1005.0, 1005.0, 1005.0, 1005.0, 1005.0, 1005.0, 1005.0, 1005.0, 1005.0],
      "WindowWidth": [2212.0, 2211.0, 2212.0, 2211.0, 2211.0, 2211.0, 2212.0, 2211.0, 2211.0, 2213.0, 2211.0, 2211.0, 2211.0, 2211.0, 2211.0, 2211.0, 2211.0, 2211.0, 2211.0, 2211.0, 2211.0, 2211.0, 2211.0, 2212.0, 2211.0, 2211.0, 2211.0, 2211.0, 2211.0, 2211.0, 2211.0, 2211.0, 2211.0, 2211.0, 2211.0, 2211.0, 2211.0, 2211.0, 2212.0, 2211.0, 2212.0, 2211.0, 2211.0, 2211.0, 2212.0, 2211.0, 2211.0, 2211.0, 2212.0, 2211.0, 2211.0, 2212.0, 2212.0, 2211.0, 2210.0, 2211.0, 2212.0, 2211.0, 2211.0, 2210.0, 2211.0, 2211.0, 2212.0, 2211.0, 2211.0, 2211.0, 2211.0, 2212.0, 2210.0, 2211.0, 2210.0, 2210.0, 2211.0, 2211.0, 2210.0, 2211.0, 2210.0, 2210.0, 2210.0, 2211.0, 2210.0, 2211.0, 2210.0, 2211.0, 2210.0, 2210.0, 2211.0, 2211.0, 2210.0, 2211.0, 2210.0, 2211.0, 2210.0, 2210.0, 2211.0, 2210.0, 2210.0, 2210.0, 2210.0, 2212.0, 2210.0, 2210.0, 2210.0, 2210.0, 2210.0, 2211.0, 2210.0, 2211.0, 2211.0, 2211.0, 2210.0, 2210.0, 2210.0, 2210.0, 2210.0, 2210.0, 2210.0, 2210.0, 2210.0, 2210.0, 2210.0, 2211.0, 2210.0, 2210.0, 2210.0, 2210.0, 2210.0, 2210.0, 2210.0, 2210.0, 2210.0, 2210.0, 2210.0, 2211.0, 2211.0, 2210.0, 2210.0, 2210.0, 2210.0, 2211.0, 2210.0, 2210.0, 2210.0, 2210.0, 2210.0, 2210.0, 2210.0, 2210.0, 2210.0, 2210.0, 2210.0, 2210.0, 2210.0, 2210.0, 2210.0, 2210.0, 2210.0]
    },
    "slices": {}
  }
}