{
  "AcquisitionMatrixPE": 122,
  "AcquisitionNumber": 1,
  "AcquisitionTime": "11:29:7.197500",
  "BandwidthPerPixelPhaseEncode": 28.76,
  "BaseResolution": 122,
  "BodyPartExamined": "BRAIN",
  "CoilCombinationMethod": "Adaptive Combine",
  "ConsistencyInfo": "N4_VE11C_LATEST_20160120",
  "ConversionSoftware": "dcm2niix",
  "ConversionSoftwareVersion": "v1.0.20220720",
  "DerivedVendorReportedEchoSpacing": 0.000570008,
  "DeviceSerialNumber": "66112",
  "DiffusionScheme": "Monopolar",
  "DwellTime": 2e-06,
  "EchoTime": 0.075,
  "EchoTrainLength": 61,
  "EffectiveEchoSpacing": 0.000285004,
  "FlipAngle": 90,
  "HeudiconvVersion": "0.13.1",
  "ImageOrientationPatientDICOM": [0.999959, 0.00801619, 0.0041715, -0.00890104, 0.953398, 0.301584],
  "ImageOrientationText": "Tra>Cor(17.6)>Sag(0.1)",
  "ImageType": [
    "ORIGINAL",
    "PRIMARY",
    "DIFFUSION",
    "NONE",
    "ND",
    "NORM"
],
  "ImagingFrequency": 123.252,
  "InPlanePhaseEncodingDirectionDICOM": "COL",
  "InstitutionAddress": "Maynard 3,Hanover,NH,US,03755",
  "InstitutionName": "Dartmouth College - PBS",
  "InstitutionalDepartmentName": "Department",
  "MRAcquisitionType": "2D",
  "MagneticFieldStrength": 3,
  "Manufacturer": "Siemens",
  "ManufacturersModelName": "Prisma",
  "MatrixCoilMode": "GRAPPA",
  "Modality": "MR",
  "NonlinearGradientCorrection": false,
  "ParallelReductionFactorInPlane": 2,
  "PartialFourier": 1,
  "PatientPosition": "HFS",
  "PercentPhaseFOV": 100,
  "PercentSampling": 100,
  "PhaseEncodingDirection": "j-",
  "PhaseEncodingSteps": 122,
  "PhaseResolution": 1,
  "PixelBandwidth": 2050,
  "ProcedureStepDescription": "dbic^QA",
  "ProtocolName": "dwi_acq-DTI-30-p2",
  "PulseSequenceDetails": "%SiemensSeq%\\ep2d_diff",
  "ReceiveCoilActiveElements": "HEA;HEP",
  "ReceiveCoilName": "Head_32",
  "ReconMatrixPE": 122,
  "RefLinesPE": 38,
  "RepetitionTime": 7.7,
  "SAR": 0.101873,
  "ScanOptions": "FS",
  "ScanningSequence": "EP",
  "SequenceName": "*ep_b0",
  "SequenceVariant": "SK\\SP",
  "SeriesDescription": "dwi_acq-DTI-30-p2",
  "SeriesNumber": 8,
  "ShimSetting": [4146, -7683, -7510, 275, -25, -80, -37, 54],
  "SliceThickness": 2,
  "SliceTiming": [3.83594, 0, 3.94531, 0.10938, 4.05469, 0.21875, 4.17188, 0.32812, 4.28125, 0.4375, 4.38281, 0.54688, 4.49219, 0.65625, 4.60938, 0.76562, 4.71875, 0.875, 4.82812, 0.98438, 4.9375, 1.09375, 5.04688, 1.20312, 5.15625, 1.3125, 5.26562, 1.42188, 5.375, 1.53125, 5.48438, 1.64062, 5.59375, 1.75, 5.70312, 1.85938, 5.8125, 1.97656, 5.92188, 2.08594, 6.03125, 2.19531, 6.14062, 2.30469, 6.25, 2.41406, 6.35938, 2.52344, 6.46875, 2.63281, 6.57812, 2.74219, 6.6875, 2.85156, 6.79688, 2.96094, 6.91406, 3.07031, 7.02344, 3.17969, 7.13281, 3.28906, 7.23438, 3.39844, 7.35156, 3.50781, 7.46094, 3.61719, 7.57031, 3.72656],
  "SoftwareVersions": "syngo MR E11",
  "SpacingBetweenSlices": 2,
  "SpoilingState": true,
  "StationName": "AWP66112",
  "TotalReadoutTime": 0.0344855,
  "TxRefAmp": 231.487,
  "dcmmeta_affine": [
    [-1.967132806777954, -0.017510246485471725, 0.0031190812587738037, 120.76459503173828],
    [-0.015769556164741516, 1.8755371570587158, 0.6032180786132812, -119.9197769165039],
    [0.008206226862967014, -0.5932803153991699, 1.9068603515625, -25.54998016357422],
    [0.0, 0.0, 0.0, 1.0]
],
  "dcmmeta_reorient_transform": [
    [0.0, -1.0, 0.0, 121.0],
    [1.0, 0.0, 0.0, 0.0],
    [0.0, 0.0, -1.0, 69.0],
    [0.0, 0.0, 0.0, 1.0]
],
  "dcmmeta_shape": [122, 122, 70, 31],
  "dcmmeta_slice_dim": 2,
  "dcmmeta_version": 0.6,
  "global": {
    "const": {
      "AccessionNumber": "qa",
      "AcquisitionMatrix": [122, 0, 0, 122],
      "AngioFlag": "N",
      "BitsAllocated": 16,
      "BitsStored": 12,
      "BodyPartExamined": "BRAIN",
      "Columns": 122,
      "EchoNumbers": 1,
      "EchoTime": 75.0,
      "EchoTrainLength": 61,
      "FlipAngle": 90.0,
      "HighBit": 11,
      "ImageOrientationPatient": [0.9999591688053, 0.00801619133892, 0.00417149836866, -0.0089010421171, 0.95339801535126, 0.30158414377005],
      "ImageType": [
        "ORIGINAL",
        "PRIMARY",
        "DIFFUSION",
        "NONE",
        "ND",
        "NORM"
],
      "ImagedNucleus": "1H",
      "ImagingFrequency": 123.252454,
      "InPlanePhaseEncodingDirection": "COL",
      "MRAcquisitionType": "2D",
      "MagneticFieldStrength": 3.0,
      "Manufacturer": "SIEMENS",
      "ManufacturerModelName": "Prisma",
      "Modality": "MR",
      "NumberOfAverages": 1.0,
      "NumberOfPhaseEncodingSteps": 122,
      "PercentPhaseFieldOfView": 100.0,
      "PercentSampling": 100.0,
      "PerformedProcedureStepStartTime": "110504.873000",
      "PhotometricInterpretation": "MONOCHROME2",
      "PixelBandwidth": 2050.0,
      "PixelRepresentation": 0,
      "PixelSpacing": [1.9672131538391, 1.9672131538391],
      "ProtocolName": "dwi_acq-DTI-30-p2",
      "RepetitionTime": 7700.0,
      "Rows": 122,
      "SAR": 0.10187276820334,
      "SamplesPerPixel": 1,
      "ScanOptions": "FS",
      "ScanningSequence": "EP",
      "SequenceVariant": [
        "SK",
        "SP"
],
      "SeriesDescription": "dwi_acq-DTI-30-p2",
      "SeriesNumber": 8,
      "SeriesTime": "112919.084000",
      "SliceThickness": 2.0,
      "SmallestImagePixelValue": 0,
      "SoftwareVersions": "syngo MR E11",
      "SpacingBetweenSlices": 2.0,
      "SpecificCharacterSet": "ISO_IR 100",
      "StudyID": "11",
      "StudyTime": "110504.775000",
      "TransmitCoilName": "Body",
      "VariableFlipAngleFlag": "N",
      "WindowCenterWidthExplanation": "Algo1",
      "dBdt": 0.0},
    "slices": {
      "AcquisitionTime": ["112907.197500", "112903.357500", "112907.307500", "112903.467500", "112907.417500", "112903.577500", "112907.527500", "112903.687500", "112907.637500", "112903.797500", "112907.745000", "112903.907500", "112907.855000", "112904.015000", "112907.965000", "112904.125000", "112908.075000", "112904.235000", "112908.185000", "112904.345000", "112908.295000", "112904.455000", "112908.405000", "112904.565000", "112908.515000", "112904.675000", "112908.625000", "112904.785000", "112908.732500", "112904.892500", "112908.842500", "112905.002500", "112908.952500", "112905.112500", "112909.062500", "112905.222500", "112909.172500", "112905.332500", "112909.282500", "112905.442500", "112909.392500", "112905.552500", "112909.502500", "112905.662500", "112909.612500", "112905.772500", "112909.720000", "112905.880000", "112909.830000", "112905.990000", "112909.940000", "112906.100000", "112910.050000", "112906.210000", "112910.160000", "112906.320000", "112910.270000", "112906.430000", "112910.380000", "112906.540000", "112910.490000", "112906.650000", "112910.597500", "112906.760000", "112910.707500", "112906.867500", "112910.817500", "112906.977500", "112910.927500", "112907.087500", "112914.897500", "112911.057500", "112915.007500", "112911.167500", "112915.117500", "112911.277500", "112915.227500", "112911.387500", "112915.337500", "112911.497500", "112915.445000", "112911.607500", "112915.555000", "112911.715000", "112915.665000", "112911.825000", "112915.775000", "112911.935000", "112915.885000", "112912.045000", "112915.995000", "112912.155000", "112916.105000", "112912.265000", "112916.215000", "112912.375000", "112916.325000", "112912.485000", "112916.432500", "112912.592500", "112916.542500", "112912.702500", "112916.652500", "112912.812500", "112916.762500", "112912.922500", "112916.872500", "112913.032500", "112916.982500", "112913.142500", "112917.092500", "112913.252500", "112917.202500", "112913.362500", "112917.312500", "112913.472500", "112917.420000", "112913.580000", "112917.530000", "112913.690000", "112917.640000", "112913.800000", "112917.750000", "112913.910000", "112917.860000", "112914.020000", "112917.970000", "112914.130000", "112918.080000", "112914.240000", "112918.190000", "112914.350000", "112918.297500", "112914.460000", "112918.407500", "112914.567500", "112918.517500", "112914.677500", "112918.627500", "112914.787500", "112922.597500", "112918.757500", "112922.707500", "112918.867500", "112922.817500", "112918.977500", "112922.927500", "112919.087500", "112923.037500", "112919.197500", "112923.145000", "112919.307500", "112923.255000", "112919.415000", "112923.365000", "112919.525000", "112923.475000", "112919.635000", "112923.585000", "112919.745000", "112923.695000", "112919.855000", "112923.805000", "112919.965000", "112923.915000", "112920.075000", "112924.025000", "112920.185000", "112924.132500", "112920.292500", "112924.242500", "112920.402500", "112924.352500", "112920.512500", "112924.462500", "112920.622500", "112924.572500", "112920.732500", "112924.682500", "112920.842500", "112924.792500", "112920.952500", "112924.902500", "112921.062500", "112925.012500", "112921.172500", "112925.120000", "112921.280000", "112925.230000", "112921.390000", "112925.340000", "112921.500000", "112925.450000", "112921.610000", "112925.560000", "112921.720000", "112925.670000", "112921.830000", "112925.780000", "112921.940000", "112925.890000", "112922.050000", "112925.997500", "112922.160000", "112926.107500", "112922.267500", "112926.217500", "112922.377500", "112926.327500", "112922.487500", "112930.297500", "112926.457500", "112930.407500", "112926.567500", "112930.517500", "112926.677500", "112930.627500", "112926.787500", "112930.737500", "112926.897500", "112930.845000", "112927.007500", "112930.955000", "112927.115000", "112931.065000", "112927.225000", "112931.175000", "112927.335000", "112931.285000", "112927.445000", "112931.395000", "112927.555000", "112931.505000", "112927.665000", "112931.615000", "112927.775000", "112931.725000", "112927.885000", "112931.832500", "112927.992500", "112931.942500", "112928.102500", "112932.052500", "112928.212500", "112932.162500", "112928.322500", "112932.272500", "112928.432500", "112932.382500", "112928.542500", "112932.492500", "112928.652500", "112932.602500", "112928.762500", "112932.712500", "112928.872500", "112932.820000", "112928.980000", "112932.930000", "112929.090000", "112933.040000", "112929.200000", "112933.150000", "112929.310000", "112933.260000", "112929.420000", "112933.370000", "112929.530000", "112933.480000", "112929.640000", "112933.590000", "112929.750000", "112933.697500", "112929.860000", "112933.807500", "112929.967500", "112933.917500", "112930.077500", "112934.027500", "112930.187500", "112937.997500", "112934.157500", "112938.107500", "112934.267500", "112938.217500", "112934.377500", "112938.327500", "112934.487500", "112938.437500", "112934.597500", "112938.545000", "112934.707500", "112938.655000", "112934.815000", "112938.765000", "112934.925000", "112938.875000", "112935.035000", "112938.985000", "112935.145000", "112939.095000", "112935.255000", "112939.205000", "112935.365000", "112939.315000", "112935.475000", "112939.425000", "112935.585000", "112939.532500", "112935.692500", "112939.642500", "112935.802500", "112939.752500", "112935.912500", "112939.862500", "112936.022500", "112939.972500", "112936.132500", "112940.082500", "112936.242500", "112940.192500", "112936.352500", "112940.302500", "112936.462500", "112940.412500", "112936.572500", "112940.520000", "112936.680000", "112940.630000", "112936.790000", "112940.740000", "112936.900000", "112940.850000", "112937.010000", "112940.960000", "112937.120000", "112941.070000", "112937.230000", "112941.180000", "112937.340000", "112941.290000", "112937.450000", "112941.397500", "112937.560000", "112941.507500", "112937.667500", "112941.617500", "112937.777500", "112941.727500", "112937.887500", "112945.697500", "112941.857500", "112945.807500", "112941.967500", "112945.917500", "112942.077500", "112946.027500", "112942.187500", "112946.137500", "112942.297500", "112946.245000", "112942.407500", "112946.355000", "112942.515000", "112946.465000", "112942.625000", "112946.575000", "112942.735000", "112946.685000", "112942.845000", "112946.795000", "112942.955000", "112946.905000", "112943.065000", "112947.015000", "112943.175000", "112947.125000", "112943.285000", "112947.232500", "112943.392500", "112947.342500", "112943.502500", "112947.452500", "112943.612500", "112947.562500", "112943.722500", "112947.672500", "112943.832500", "112947.782500", "112943.942500", "112947.892500", "112944.052500", "112948.002500", "112944.162500", "112948.112500", "112944.272500", "112948.220000", "112944.380000", "112948.330000", "112944.490000", "112948.440000", "112944.600000", "112948.550000", "112944.710000", "112948.660000", "112944.820000", "112948.770000", "112944.930000", "112948.880000", "112945.040000", "112948.990000", "112945.150000", "112949.097500", "112945.260000", "112949.207500", "112945.367500", "112949.317500", "112945.477500", "112949.427500", "112945.587500", "112953.397500", "112949.557500", "112953.507500", "112949.667500", "112953.617500", "112949.777500", "112953.727500", "112949.887500", "112953.837500", "112949.997500", "112953.945000", "112950.107500", "112954.055000", "112950.215000", "112954.165000", "112950.325000", "112954.275000", "112950.435000", "112954.385000", "112950.545000", "112954.495000", "112950.655000", "112954.605000", "112950.765000", "112954.715000", "112950.875000", "112954.825000", "112950.985000", "112954.932500", "112951.092500", "112955.042500", "112951.202500", "112955.152500", "112951.312500", "112955.262500", "112951.422500", "112955.372500", "112951.532500", "112955.482500", "112951.642500", "112955.592500", "112951.752500", "112955.702500", "112951.862500", "112955.812500", "112951.972500", "112955.920000", "112952.080000", "112956.030000", "112952.190000", "112956.140000", "112952.300000", "112956.250000", "112952.410000", "112956.360000", "112952.520000", "112956.470000", "112952.630000", "112956.580000", "112952.740000", "112956.690000", "112952.850000", "112956.797500", "112952.960000", "112956.907500", "112953.067500", "112957.017500", "112953.177500", "112957.127500", "112953.287500", "113001.097500", "112957.257500", "113001.207500", "112957.367500", "113001.317500", "112957.477500", "113001.427500", "112957.587500", "113001.537500", "112957.697500", "113001.645000", "112957.807500", "113001.755000", "112957.915000", "113001.865000", "112958.025000", "113001.975000", "112958.135000", "113002.085000", "112958.245000", "113002.195000", "112958.355000", "113002.305000", "112958.465000", "113002.415000", "112958.575000", "113002.525000", "112958.685000", "113002.632500", "112958.792500", "113002.742500", "112958.902500", "113002.852500", "112959.012500", "113002.962500", "112959.122500", "113003.072500", "112959.232500", "113003.182500", "112959.342500", "113003.292500", "112959.452500", "113003.402500", "112959.562500", "113003.512500", "112959.672500", "113003.620000", "112959.780000", "113003.730000", "112959.890000", "113003.840000", "113000.000000", "113003.950000", "113000.110000", "113004.060000", "113000.220000", "113004.170000", "113000.330000", "113004.280000", "113000.440000", "113004.390000", "113000.550000", "113004.497500", "113000.660000", "113004.607500", "113000.767500", "113004.717500", "113000.877500", "113004.827500", "113000.987500", "113008.797500", "113004.957500", "113008.907500", "113005.067500", "113009.017500", "113005.177500", "113009.127500", "113005.287500", "113009.237500", "113005.397500", "113009.345000", "113005.507500", "113009.455000", "113005.615000", "113009.565000", "113005.725000", "113009.675000", "113005.835000", "113009.785000", "113005.945000", "113009.895000", "113006.055000", "113010.005000", "113006.165000", "113010.115000", "113006.275000", "113010.225000", "113006.385000", "113010.332500", "113006.492500", "113010.442500", "113006.602500", "113010.552500", "113006.712500", "113010.662500", "113006.822500", "113010.772500", "113006.932500", "113010.882500", "113007.042500", "113010.992500", "113007.152500", "113011.102500", "113007.262500", "113011.212500", "113007.372500", "113011.320000", "113007.480000", "113011.430000", "113007.590000", "113011.540000", "113007.700000", "113011.650000", "113007.810000", "113011.760000", "113007.920000", "113011.870000", "113008.030000", "113011.980000", "113008.140000", "113012.090000", "113008.250000", "113012.197500", "113008.360000", "113012.307500", "113008.467500", "113012.417500", "113008.577500", "113012.527500", "113008.687500", "113016.497500", "113012.657500", "113016.607500", "113012.767500", "113016.717500", "113012.877500", "113016.827500", "113012.987500", "113016.937500", "113013.097500", "113017.045000", "113013.207500", "113017.155000", "113013.315000", "113017.265000", "113013.425000", "113017.375000", "113013.535000", "113017.485000", "113013.645000", "113017.595000", "113013.755000", "113017.705000", "113013.865000", "113017.815000", "113013.975000", "113017.925000", "113014.085000", "113018.032500", "113014.192500", "113018.142500", "113014.302500", "113018.252500", "113014.412500", "113018.362500", "113014.522500", "113018.472500", "113014.632500", "113018.582500", "113014.742500", "113018.692500", "113014.852500", "113018.802500", "113014.962500", "113018.912500", "113015.072500", "113019.020000", "113015.180000", "113019.130000", "113015.290000", "113019.240000", "113015.400000", "113019.350000", "113015.510000", "113019.460000", "113015.620000", "113019.570000", "113015.730000", "113019.680000", "113015.840000", "113019.790000", "113015.950000", "113019.897500", "113016.060000", "113020.007500", "113016.167500", "113020.117500", "113016.277500", "113020.227500", "113016.387500", "113024.197500", "113020.357500", "113024.307500", "113020.467500", "113024.417500", "113020.577500", "113024.527500", "113020.687500", "113024.637500", "113020.797500", "113024.745000", "113020.907500", "113024.855000", "113021.015000", "113024.965000", "113021.125000", "113025.075000", "113021.235000", "113025.185000", "113021.345000", "113025.295000", "113021.455000", "113025.405000", "113021.565000", "113025.515000", "113021.675000", "113025.625000", "113021.785000", "113025.732500", "113021.892500", "113025.842500", "113022.002500", "113025.952500", "113022.112500", "113026.062500", "113022.222500", "113026.172500", "113022.332500", "113026.282500", "113022.442500", "113026.392500", "113022.552500", "113026.502500", "113022.662500", "113026.612500", "113022.772500", "113026.720000", "113022.880000", "113026.830000", "113022.990000", "113026.940000", "113023.100000", "113027.050000", "113023.210000", "113027.160000", "113023.320000", "113027.270000", "113023.430000", "113027.380000", "113023.540000", "113027.490000", "113023.650000", "113027.597500", "113023.760000", "113027.707500", "113023.867500", "113027.817500", "113023.977500", "113027.927500", "113024.087500", "113031.897500", "113028.057500", "113032.007500", "113028.167500", "113032.117500", "113028.277500", "113032.227500", "113028.387500", "113032.337500", "113028.497500", "113032.445000", "113028.607500", "113032.555000", "113028.715000", "113032.665000", "113028.825000", "113032.775000", "113028.935000", "113032.885000", "113029.045000", "113032.995000", "113029.155000", "113033.105000", "113029.265000", "113033.215000", "113029.375000", "113033.325000", "113029.485000", "113033.432500", "113029.592500", "113033.542500", "113029.702500", "113033.652500", "113029.812500", "113033.762500", "113029.922500", "113033.872500", "113030.032500", "113033.982500", "113030.142500", "113034.092500", "113030.252500", "113034.202500", "113030.362500", "113034.312500", "113030.472500", "113034.420000", "113030.580000", "113034.530000", "113030.690000", "113034.640000", "113030.800000", "113034.750000", "113030.910000", "113034.860000", "113031.020000", "113034.970000", "113031.130000", "113035.080000", "113031.240000", "113035.190000", "113031.350000", "113035.297500", "113031.460000", "113035.407500", "113031.567500", "113035.517500", "113031.677500", "113035.627500", "113031.787500", "113039.597500", "113035.757500", "113039.707500", "113035.867500", "113039.817500", "113035.977500", "113039.927500", "113036.087500", "113040.037500", "113036.197500", "113040.145000", "113036.307500", "113040.255000", "113036.415000", "113040.365000", "113036.525000", "113040.475000", "113036.635000", "113040.585000", "113036.745000", "113040.695000", "113036.855000", "113040.805000", "113036.965000", "113040.915000", "113037.075000", "113041.025000", "113037.185000", "113041.132500", "113037.292500", "113041.242500", "113037.402500", "113041.352500", "113037.512500", "113041.462500", "113037.622500", "113041.572500", "113037.732500", "113041.682500", "113037.842500", "113041.792500", "113037.952500", "113041.902500", "113038.062500", "113042.012500", "113038.172500", "113042.120000", "113038.280000", "113042.230000", "113038.390000", "113042.340000", "113038.500000", "113042.450000", "113038.610000", "113042.560000", "113038.720000", "113042.670000", "113038.830000", "113042.780000", "113038.940000", "113042.890000", "113039.050000", "113042.997500", "113039.160000", "113043.107500", "113039.267500", "113043.217500", "113039.377500", "113043.327500", "113039.487500", "113047.297500", "113043.457500", "113047.407500", "113043.567500", "113047.517500", "113043.677500", "113047.627500", "113043.787500", "113047.737500", "113043.897500", "113047.845000", "113044.007500", "113047.955000", "113044.115000", "113048.065000", "113044.225000", "113048.175000", "113044.335000", "113048.285000", "113044.445000", "113048.395000", "113044.555000", "113048.505000", "113044.665000", "113048.615000", "113044.775000", "113048.725000", "113044.885000", "113048.832500", "113044.992500", "113048.942500", "113045.102500", "113049.052500", "113045.212500", "113049.162500", "113045.322500", "113049.272500", "113045.432500", "113049.382500", "113045.542500", "113049.492500", "113045.652500", "113049.602500", "113045.762500", "113049.712500", "113045.872500", "113049.820000", "113045.980000", "113049.930000", "113046.090000", "113050.040000", "113046.200000", "113050.150000", "113046.310000", "113050.260000", "113046.420000", "113050.370000", "113046.530000", "113050.480000", "113046.640000", "113050.590000", "113046.750000", "113050.697500", "113046.860000", "113050.807500", "113046.967500", "113050.917500", "113047.077500", "113051.027500", "113047.187500", "113054.997500", "113051.157500", "113055.107500", "113051.267500", "113055.217500", "113051.377500", "113055.327500", "113051.487500", "113055.437500", "113051.597500", "113055.545000", "113051.707500", "113055.655000", "113051.815000", "113055.765000", "113051.925000", "113055.875000", "113052.035000", "113055.985000", "113052.145000", "113056.095000", "113052.255000", "113056.205000", "113052.365000", "113056.315000", "113052.475000", "113056.425000", "113052.585000", "113056.532500", "113052.692500", "113056.642500", "113052.802500", "113056.752500", "113052.912500", "113056.862500", "113053.022500", "113056.972500", "113053.132500", "113057.082500", "113053.242500", "113057.192500", "113053.352500", "113057.302500", "113053.462500", "113057.412500", "113053.572500", "113057.520000", "113053.680000", "113057.630000", "113053.790000", "113057.740000", "113053.900000", "113057.850000", "113054.010000", "113057.960000", "113054.120000", "113058.070000", "113054.230000", "113058.180000", "113054.340000", "113058.290000", "113054.450000", "113058.397500", "113054.560000", "113058.507500", "113054.667500", "113058.617500", "113054.777500", "113058.727500", "113054.887500", "113102.697500", "113058.857500", "113102.807500", "113058.967500", "113102.917500", "113059.077500", "113103.027500", "113059.187500", "113103.137500", "113059.297500", "113103.245000", "113059.407500", "113103.355000", "113059.515000", "113103.465000", "113059.625000", "113103.575000", "113059.735000", "113103.685000", "113059.845000", "113103.795000", "113059.955000", "113103.905000", "113100.065000", "113104.015000", "113100.175000", "113104.125000", "113100.285000", "113104.232500", "113100.392500", "113104.342500", "113100.502500", "113104.452500", "113100.612500", "113104.562500", "113100.722500", "113104.672500", "113100.832500", "113104.782500", "113100.942500", "113104.892500", "113101.052500", "113105.002500", "113101.162500", "113105.112500", "113101.272500", "113105.220000", "113101.380000", "113105.330000", "113101.490000", "113105.440000", "113101.600000", "113105.550000", "113101.710000", "113105.660000", "113101.820000", "113105.770000", "113101.930000", "113105.880000", "113102.040000", "113105.990000", "113102.150000", "113106.097500", "113102.260000", "113106.207500", "113102.367500", "113106.317500", "113102.477500", "113106.427500", "113102.587500", "113110.397500", "113106.557500", "113110.507500", "113106.667500", "113110.617500", "113106.777500", "113110.727500", "113106.887500", "113110.837500", "113106.997500", "113110.945000", "113107.107500", "113111.055000", "113107.215000", "113111.165000", "113107.325000", "113111.275000", "113107.435000", "113111.385000", "113107.545000", "113111.495000", "113107.655000", "113111.605000", "113107.765000", "113111.715000", "113107.875000", "113111.825000", "113107.985000", "113111.932500", "113108.092500", "113112.042500", "113108.202500", "113112.152500", "113108.312500", "113112.262500", "113108.422500", "113112.372500", "113108.532500", "113112.482500", "113108.642500", "113112.592500", "113108.752500", "113112.702500", "113108.862500", "113112.812500", "113108.972500", "113112.920000", "113109.080000", "113113.030000", "113109.190000", "113113.140000", "113109.300000", "113113.250000", "113109.410000", "113113.360000", "113109.520000", "113113.470000", "113109.630000", "113113.580000", "113109.740000", "113113.690000", "113109.850000", "113113.797500", "113109.960000", "113113.907500", "113110.067500", "113114.017500", "113110.177500", "113114.127500", "113110.287500", "113118.097500", "113114.257500", "113118.207500", "113114.367500", "113118.317500", "113114.477500", "113118.427500", "113114.587500", "113118.537500", "113114.697500", "113118.645000", "113114.807500", "113118.755000", "113114.915000", "113118.865000", "113115.025000", "113118.975000", "113115.135000", "113119.085000", "113115.245000", "113119.195000", "113115.355000", "113119.305000", "113115.465000", "113119.415000", "113115.575000", "113119.525000", "113115.685000", "113119.632500", "113115.792500", "113119.742500", "113115.902500", "113119.852500", "113116.012500", "113119.962500", "113116.122500", "113120.072500", "113116.232500", "113120.182500", "113116.342500", "113120.292500", "113116.452500", "113120.402500", "113116.562500", "113120.512500", "113116.672500", "113120.620000", "113116.780000", "113120.730000", "113116.890000", "113120.840000", "113117.000000", "113120.950000", "113117.110000", "113121.060000", "113117.220000", "113121.170000", "113117.330000", "113121.280000", "113117.440000", "113121.390000", "113117.550000", "113121.497500", "113117.660000", "113121.607500", "113117.767500", "113121.717500", "113117.877500", "113121.827500", "113117.987500", "113125.797500", "113121.957500", "113125.907500", "113122.067500", "113126.017500", "113122.177500", "113126.127500", "113122.287500", "113126.237500", "113122.397500", "113126.345000", "113122.507500", "113126.455000", "113122.615000", "113126.565000", "113122.725000", "113126.675000", "113122.835000", "113126.785000", "113122.945000", "113126.895000", "113123.055000", "113127.005000", "113123.165000", "113127.115000", "113123.275000", "113127.225000", "113123.385000", "113127.332500", "113123.492500", "113127.442500", "113123.602500", "113127.552500", "113123.712500", "113127.662500", "113123.822500", "113127.772500", "113123.932500", "113127.882500", "113124.042500", "113127.992500", "113124.152500", "113128.102500", "113124.262500", "113128.212500", "113124.372500", "113128.320000", "113124.480000", "113128.430000", "113124.590000", "113128.540000", "113124.700000", "113128.650000", "113124.810000", "113128.760000", "113124.920000", "113128.870000", "113125.030000", "113128.980000", "113125.140000", "113129.090000", "113125.250000", "113129.197500", "113125.360000", "113129.307500", "113125.467500", "113129.417500", "113125.577500", "113129.527500", "113125.687500", "113133.497500", "113129.657500", "113133.607500", "113129.767500", "113133.717500", "113129.877500", "113133.827500", "113129.987500", "113133.937500", "113130.097500", "113134.045000", "113130.207500", "113134.155000", "113130.315000", "113134.265000", "113130.425000", "113134.375000", "113130.535000", "113134.485000", "113130.645000", "113134.595000", "113130.755000", "113134.705000", "113130.865000", "113134.815000", "113130.975000", "113134.925000", "113131.085000", "113135.032500", "113131.192500", "113135.142500", "113131.302500", "113135.252500", "113131.412500", "113135.362500", "113131.522500", "113135.472500", "113131.632500", "113135.582500", "113131.742500", "113135.692500", "113131.852500", "113135.802500", "113131.962500", "113135.912500", "113132.072500", "113136.020000", "113132.180000", "113136.130000", "113132.290000", "113136.240000", "113132.400000", "113136.350000", "113132.510000", "113136.460000", "113132.620000", "113136.570000", "113132.730000", "113136.680000", "113132.840000", "113136.790000", "113132.950000", "113136.897500", "113133.060000", "113137.007500", "113133.167500", "113137.117500", "113133.277500", "113137.227500", "113133.387500", "113141.197500", "113137.357500", "113141.307500", "113137.467500", "113141.417500", "113137.577500", "113141.527500", "113137.687500", "113141.637500", "113137.797500", "113141.745000", "113137.907500", "113141.855000", "113138.015000", "113141.965000", "113138.125000", "113142.075000", "113138.235000", "113142.185000", "113138.345000", "113142.295000", "113138.455000", "113142.405000", "113138.565000", "113142.515000", "113138.675000", "113142.625000", "113138.785000", "113142.732500", "113138.892500", "113142.842500", "113139.002500", "113142.952500", "113139.112500", "113143.062500