{
  "AcquisitionMatrixPE": 80,
  "AcquisitionNumber": 1,
  "AcquisitionTime": "09:48:19.147500",
  "BandwidthPerPixelPhaseEncode": 44.643,
  "BaseResolution": 80,
  "BodyPartExamined": "BRAIN",
  "CoilCombinationMethod": "Sum of Squares",
  "ConsistencyInfo": "N4_VE11C_LATEST_20160120",
  "ConversionSoftware": "dcm2niix",
  "ConversionSoftwareVersion": "v1.0.20220720",
  "DerivedVendorReportedEchoSpacing": 0.000559998,
  "DeviceSerialNumber": "66112",
  "DwellTime": 2.7e-06,
  "EchoTime": 0.035,
  "EchoTrainLength": 39,
  "EffectiveEchoSpacing": 0.000279999,
  "FlipAngle": 90,
  "HeudiconvVersion": "0.13.1",
  "ImageOrientationPatientDICOM": [0.981964, -0.188019, -0.019899, 0.186254, 0.943873, 0.272786],
  "ImageOrientationText": "Tra>Cor(15.8)>Sag(1.9)",
  "ImageType": [
    "ORIGINAL",
    "PRIMARY",
    "M",
    "ND",
    "NORM",
    "MOSAIC"
],
  "ImagingFrequency": 123.252,
  "InPlanePhaseEncodingDirectionDICOM": "COL",
  "InstitutionAddress": "Maynard 3,Hanover,NH,US,03755",
  "InstitutionName": "Dartmouth College - PBS",
  "InstitutionalDepartmentName": "Department",
  "MRAcquisitionType": "2D",
  "MagneticFieldStrength": 3,
  "Manufacturer": "Siemens",
  "ManufacturersModelName": "Prisma",
  "Modality": "MR",
  "MultibandAccelerationFactor": 4,
  "NonlinearGradientCorrection": false,
  "ParallelReductionFactorInPlane": 2,
  "PartialFourier": 1,
  "PatientPosition": "HFS",
  "PercentPhaseFOV": 100,
  "PercentSampling": 100,
  "PhaseEncodingDirection": "j-",
  "PhaseEncodingSteps": 79,
  "PhaseResolution": 1,
  "PixelBandwidth": 2315,
  "ProcedureStepDescription": "dbic^QA",
  "ProtocolName": "func-bold_task-rest_acq-p2-s4-3.5mm",
  "PulseSequenceDetails": "%SiemensSeq%\\ep2d_bold",
  "ReceiveCoilActiveElements": "HEA;HEP",
  "ReceiveCoilName": "Head_32",
  "ReconMatrixPE": 80,
  "RefLinesPE": 24,
  "RepetitionTime": 2,
  "SAR": 0.0208908,
  "ScanOptions": "FS",
  "ScanningSequence": "EP",
  "SequenceName": "*epfid2d1_80",
  "SequenceVariant": "SK",
  "SeriesDescription": "func-bold_task-rest_acq-p2-s4-3.5mm",
  "SeriesNumber": 7,
  "ShimSetting": [4152, -7696, -7522, 282, -67, -164, -105, 136],
  "SliceThickness": 3.5,
  "SliceTiming": [1.485, 0, 0.99, 0.2475, 1.2375, 0.7425, 1.7325, 0.495, 1.485, 0, 0.99, 0.2475, 1.2375, 0.7425, 1.7325, 0.495, 1.485, 0, 0.99, 0.2475, 1.2375, 0.7425, 1.7325, 0.495, 1.485, 0, 0.99, 0.2475, 1.2375, 0.7425, 1.7325, 0.495],
  "SoftwareVersions": "syngo MR E11",
  "SpacingBetweenSlices": 3.99,
  "StationName": "AWP66112",
  "TaskName": "rest",
  "TotalReadoutTime": 0.0221199,
  "TxRefAmp": 236.93,
  "dcmmeta_affine": [
    [-2.9458911418914795, 0.5587623119354248, 0.12970313429832458, 89.83876037597656],
    [0.5640584826469421, 2.831620216369629, 1.0835742950439453, -140.7560577392578],
    [-0.059696853160858154, -0.8183588981628418, 3.8378567695617676, -38.74909210205078],
    [0.0, 0.0, 0.0, 1.0]
],
  "dcmmeta_reorient_transform": [
    [0.0, -1.0, 0.0, 79.0],
    [1.0, 0.0, 0.0, 0.0],
    [0.0, 0.0, 1.0, 0.0],
    [0.0, 0.0, 0.0, 1.0]
],
  "dcmmeta_shape": [80, 80, 32, 200],
  "dcmmeta_slice_dim": 2,
  "dcmmeta_version": 0.6,
  "global": {
    "const": {
      "AccessionNumber": "qa",
      "AcquisitionMatrix": [80, 0, 0, 80],
      "AngioFlag": "N",
      "BitsAllocated": 16,
      "BitsStored": 12,
      "BodyPartExamined": "BRAIN",
      "Columns": 480,
      "EchoNumbers": 1,
      "EchoTime": 35.0,
      "EchoTrainLength": 39,
      "FlipAngle": 90.0,
      "HighBit": 11,
      "ImageOrientationPatient": [0.98196369711179, -0.1880194917849, -0.019898951316, 0.18625409838477, 0.94387342469375, 0.27278630645942],
      "ImagePositionPatient": [-834.91166024593, -536.4543107593, -255.13185896007],
      "ImageType": [
        "ORIGINAL",
        "PRIMARY",
        "M",
        "ND",
        "NORM",
        "MOSAIC"
],
      "ImagedNucleus": "1H",
      "ImagingFrequency": 123.252467,
      "InPlanePhaseEncodingDirection": "COL",
      "MRAcquisitionType": "2D",
      "MagneticFieldStrength": 3.0,
      "Manufacturer": "SIEMENS",
      "ManufacturerModelName": "Prisma",
      "Modality": "MR",
      "NumberOfAverages": 1.0,
      "NumberOfPhaseEncodingSteps": 79,
      "PercentPhaseFieldOfView": 100.0,
      "PercentSampling": 100.0,
      "PerformedProcedureStepStartTime": "093028.258000",
      "PhotometricInterpretation": "MONOCHROME2",
      "PixelBandwidth": 2315.0,
      "PixelRepresentation": 0,
      "PixelSpacing": [3.0, 3.0],
      "ProtocolName": "func-bold_task-rest_acq-p2-s4-3.5mm",
      "RepetitionTime": 2000.0,
      "Rows": 480,
      "SAR": 0.0208907697667,
      "SamplesPerPixel": 1,
      "ScanOptions": "FS",
      "ScanningSequence": "EP",
      "SequenceName": "*epfid2d1_80",
      "SequenceVariant": "SK",
      "SeriesDescription": "func-bold_task-rest_acq-p2-s4-3.5mm",
      "SeriesNumber": 7,
      "SeriesTime": "094857.953000",
      "SliceLocation": -72.576624297436,
      "SliceThickness": 3.5,
      "SmallestImagePixelValue": 0,
      "SoftwareVersions": "syngo MR E11",
      "SpacingBetweenSlices": 3.9900000051671,
      "SpecificCharacterSet": "ISO_IR 100",
      "StudyID": "52",
      "StudyTime": "093028.191000",
      "TransmitCoilName": "Body",
      "VariableFlipAngleFlag": "N",
      "WindowCenter": 914.0,
      "WindowCenterWidthExplanation": "Algo1",
      "dBdt": 0.0},
    "slices": {}
  },
  "time": {
    "samples": {
      "AcquisitionNumber": [1, 2, 3, 4, 5, 6, 7, 8, 9, 10, 11, 12, 13, 14, 15, 16, 17, 18, 19, 20, 21, 22, 23, 24, 25, 26, 27, 28, 29, 30, 31, 32, 33, 34, 35, 36, 37, 38, 39, 40, 41, 42, 43, 44, 45, 46, 47, 48, 49, 50, 51, 52, 53, 54, 55, 56, 57, 58, 59, 60, 61, 62, 63, 64, 65, 66, 67, 68, 69, 70, 71, 72, 73, 74, 75, 76, 77, 78, 79, 80, 81, 82, 83, 84, 85, 86, 87, 88, 89, 90, 91, 92, 93, 94, 95, 96, 97, 98, 99, 100, 101, 102, 103, 104, 105, 106, 107, 108, 109, 110, 111, 112, 113, 114, 115, 116, 117, 118, 119, 120, 121, 122, 123, 124, 125, 126, 127, 128, 129, 130, 131, 132, 133, 134, 135, 136, 137, 138, 139, 140, 141, 142, 143, 144, 145, 146, 147, 148, 149, 150, 151, 152, 153, 154, 155, 156, 157, 158, 159, 160, 161, 162, 163, 164, 165, 166, 167, 168, 169, 170, 171, 172, 173, 174, 175, 176, 177, 178, 179, 180, 181, 182, 183, 184, 185, 186, 187, 188, 189, 190, 191, 192, 193, 194, 195, 196, 197, 198, 199, 200],
      "AcquisitionTime": ["094819.147500", "094821.147500", "094823.147500", "094825.147500", "094827.147500", "094829.147500", "094831.147500", "094833.147500", "094835.147500", "094837.147500", "094839.147500", "094841.147500", "094843.147500", "094845.147500", "094847.147500", "094849.147500", "094851.147500", "094853.147500", "094855.147500", "094857.147500", "094859.147500", "094901.147500", "094903.147500", "094905.147500", "094907.147500", "094909.147500", "094911.147500", "094913.147500", "094915.147500", "094917.147500", "094919.147500", "094921.147500", "094923.147500", "094925.147500", "094927.147500", "094929.147500", "094931.147500", "094933.147500", "094935.147500", "094937.147500", "094939.147500", "094941.147500", "094943.147500", "094945.147500", "094947.147500", "094949.147500", "094951.147500", "094953.147500", "094955.147500", "094957.147500", "094959.147500", "095001.147500", "095003.147500", "095005.147500", "095007.147500", "095009.147500", "095011.147500", "095013.147500", "095015.147500", "095017.147500", "095019.147500", "095021.147500", "095023.147500", "095025.147500", "095027.147500", "095029.147500", "095031.147500", "095033.147500", "095035.147500", "095037.147500", "095039.147500", "095041.147500", "095043.147500", "095045.147500", "095047.147500", "095049.147500", "095051.147500", "095053.147500", "095055.147500", "095057.147500", "095059.147500", "095101.147500", "095103.147500", "095105.147500", "095107.147500", "095109.147500", "095111.147500", "095113.147500", "095115.147500", "095117.147500", "095119.147500", "095121.147500", "095123.147500", "095125.147500", "095127.147500", "095129.147500", "095131.147500", "095133.147500", "095135.147500", "095137.147500", "095139.147500", "095141.147500", "095143.147500", "095145.147500", "095147.147500", "095149.147500", "095151.147500", "095153.147500", "095155.147500", "095157.147500", "095159.147500", "095201.147500", "095203.147500", "095205.147500", "095207.147500", "095209.147500", "095211.147500", "095213.147500", "095215.147500", "095217.147500", "095219.147500", "095221.147500", "095223.147500", "095225.147500", "095227.147500", "095229.147500", "095231.147500", "095233.147500", "095235.147500", "095237.147500", "095239.147500", "095241.147500", "095243.147500", "095245.147500", "095247.147500", "095249.147500", "095251.147500", "095253.147500", "095255.147500", "095257.147500", "095259.147500", "095301.147500", "095303.147500", "095305.147500", "095307.147500", "095309.147500", "095311.147500", "095313.147500", "095315.147500", "095317.147500", "095319.147500", "095321.147500", "095323.147500", "095325.147500", "095327.147500", "095329.147500", "095331.147500", "095333.147500", "095335.147500", "095337.147500", "095339.147500", "095341.147500", "095343.147500", "095345.147500", "095347.147500", "095349.147500", "095351.147500", "095353.147500", "095355.147500", "095357.147500", "095359.147500", "095401.147500", "095403.147500", "095405.147500", "095407.147500", "095409.147500", "095411.147500", "095413.147500", "095415.147500", "095417.147500", "095419.147500", "095421.147500", "095423.147500", "095425.147500", "095427.147500", "095429.147500", "095431.147500", "095433.147500", "095435.147500", "095437.147500", "095439.147500", "095441.147500", "095443.147500", "095445.147500", "095447.147500", "095449.147500", "095451.147500", "095453.147500", "095455.147500", "095457.147500"],
      "ContentTime": ["094857.963000", "094857.967000", "094857.969000", "094857.972000", "094857.974000", "094857.983000", "094857.985000", "094857.988000", "094857.990000", "094857.993000", "094857.995000", "094858.005000", "094858.011000", "094858.013000", "094858.016000", "094858.019000", "094858.021000", "094858.024000", "094858.026000", "094858.036000", "094937.959000", "094937.962000", "094937.965000", "094937.967000", "094937.970000", "094937.973000", "094937.975000", "094937.978000", "094937.982000", "094937.984000", "094937.987000", "094937.990000", "094937.992000", "094937.995000", "094937.997000", "094938.001000", "094938.004000", "094938.006000", "094938.009000", "094938.012000", "095017.951000", "095017.954000", "095017.957000", "095017.959000", "095017.962000", "095017.965000", "095017.967000", "095017.970000", "095017.972000", "095017.975000", "095017.979000", "095017.982000", "095017.992000", "095017.994000", "095017.997000", "095018.000000", "095018.003000", "095018.006000", "095018.008000", "095018.011000", "095057.952000", "095057.955000", "095057.958000", "095057.960000", "095057.963000", "095057.966000", "095057.969000", "095057.971000", "095057.974000", "095057.976000", "095057.981000", "095057.984000", "095057.987000", "095057.989000", "095057.992000", "095057.995000", "095057.997000", "095058.001000", "095058.004000", "095058.006000", "095137.952000", "095137.954000", "095137.957000", "095137.960000", "095137.962000", "095137.965000", "095137.968000", "095137.970000", "095137.973000", "095137.975000", "095137.979000", "095137.982000", "095137.984000", "095137.987000", "095137.989000", "095137.992000", "095137.994000", "095137.997000", "095138.000000", "095138.003000", "095217.951000", "095217.954000", "095217.957000", "095217.959000", "095217.962000", "095217.965000", "095217.967000", "095217.970000", "095217.973000", "095217.975000", "095217.979000", "095217.981000", "095217.984000", "095217.987000", "095217.989000", "095217.992000", "095217.994000", "095217.997000", "095218.001000", "095218.003000", "095257.952000", "095257.955000", "095257.958000", "095257.968000", "095257.971000", "095257.973000", "095257.977000", "095257.980000", "095257.982000", "095257.985000", "095257.988000", "095257.990000", "095257.993000", "095257.995000", "095257.998000", "095258.001000", "095258.003000", "095258.006000", "095258.009000", "095258.011000", "095337.951000", "095337.954000", "095337.957000", "095337.960000", "095337.962000", "095337.965000", "095337.968000", "095337.970000", "095337.973000", "095337.976000", "095337.979000", "095337.982000", "095337.984000", "095337.987000", "095337.989000", "095337.992000", "095337.995000", "095337.997000", "095338.001000", "095338.003000", "095417.951000", "095417.954000", "095417.957000", "095417.960000", "095417.962000", "095417.965000", "095417.968000", "095417.978000", "095417.981000", "095417.983000", "095417.986000", "095417.989000", "095417.991000", "095417.994000", "095417.997000", "095418.000000", "095418.003000", "095418.005000", "095418.008000", "095418.011000", "095457.951000", "095457.954000", "095457.957000", "095457.960000", "095457.962000", "095457.965000", "095457.968000", "095457.971000", "095457.973000", "095457.976000", "095457.979000", "095457.981000", "095457.984000", "095457.986000", "095457.989000", "095457.994000", "095457.997000", "095458.000000", "095458.003000", "095458.007000"],
      "InstanceCreationTime": ["094857.963000", "094857.967000", "094857.969000", "094857.972000", "094857.974000", "094857.983000", "094857.985000", "094857.988000", "094857.990000", "094857.993000", "094857.995000", "094858.005000", "094858.011000", "094858.013000", "094858.016000", "094858.019000", "094858.021000", "094858.024000", "094858.026000", "094858.036000", "094937.959000", "094937.962000", "094937.965000", "094937.967000", "094937.970000", "094937.973000", "094937.975000", "094937.978000", "094937.982000", "094937.984000", "094937.987000", "094937.990000", "094937.992000", "094937.995000", "094937.997000", "094938.001000", "094938.004000", "094938.006000", "094938.009000", "094938.012000", "095017.951000", "095017.954000", "095017.957000", "095017.959000", "095017.962000", "095017.965000", "095017.967000", "095017.970000", "095017.972000", "095017.975000", "095017.979000", "095017.982000", "095017.992000", "095017.994000", "095017.997000", "095018.000000", "095018.003000", "095018.006000", "095018.008000", "095018.011000", "095057.952000", "095057.955000", "095057.958000", "095057.960000", "095057.963000", "095057.966000", "095057.969000", "095057.971000", "095057.974000", "095057.976000", "095057.981000", "095057.984000", "095057.987000", "095057.989000", "095057.992000", "095057.995000", "095057.997000", "095058.001000", "095058.004000", "095058.006000", "095137.952000", "095137.954000", "095137.957000", "095137.960000", "095137.962000", "095137.965000", "095137.968000", "095137.970000", "095137.973000", "095137.975000", "095137.979000", "095137.982000", "095137.984000", "095137.987000", "095137.989000", "095137.992000", "095137.994000", "095137.997000", "095138.000000", "095138.003000", "095217.951000", "095217.954000", "095217.957000", "095217.959000", "095217.962000", "095217.965000", "095217.967000", "095217.970000", "095217.973000", "095217.975000", "095217.979000", "095217.981000", "095217.984000", "095217.987000", "095217.989000", "095217.992000", "095217.994000", "095217.997000", "095218.001000", "095218.003000", "095257.952000", "095257.955000", "095257.958000", "095257.968000", "095257.971000", "095257.973000", "095257.977000", "095257.980000", "095257.982000", "095257.985000", "095257.988000", "095257.990000", "095257.993000", "095257.995000", "095257.998000", "095258.001000", "095258.003000", "095258.006000", "095258.009000", "095258.011000", "095337.951000", "095337.954000", "095337.957000", "095337.960000", "095337.962000", "095337.965000", "095337.968000", "095337.970000", "095337.973000", "095337.976000", "095337.979000", "095337.982000", "095337.984000", "095337.987000", "095337.989000", "095337.992000", "095337.995000", "095337.997000", "095338.001000", "095338.003000", "095417.951000", "095417.954000", "095417.957000", "095417.960000", "095417.962000", "095417.965000", "095417.968000", "095417.978000", "095417.981000", "095417.983000", "095417.986000", "095417.989000", "095417.991000", "095417.994000", "095417.997000", "095418.000000", "095418.003000", "095418.005000", "095418.008000", "095418.011000", "095457.951000", "095457.954000", "095457.957000", "095457.960000", "095457.962000", "095457.965000", "095457.968000", "095457.971000", "095457.973000", "095457.976000", "095457.979000", "095457.981000", "095457.984000", "095457.986000", "095457.989000", "095457.994000", "095457.997000", "095458.000000", "095458.003000", "095458.007000"],
      "InstanceNumber": [1, 2, 3, 4, 5, 6, 7, 8, 9, 10, 11, 12, 13, 14, 15, 16, 17, 18, 19, 20, 21, 22, 23, 24, 25, 26, 27, 28, 29, 30, 31, 32, 33, 34, 35, 36, 37, 38, 39, 40, 41, 42, 43, 44, 45, 46, 47, 48, 49, 50, 51, 52, 53, 54, 55, 56, 57, 58, 59, 60, 61, 62, 63, 64, 65, 66, 67, 68, 69, 70, 71, 72, 73, 74, 75, 76, 77, 78, 79, 80, 81, 82, 83, 84, 85, 86, 87, 88, 89, 90, 91, 92, 93, 94, 95, 96, 97, 98, 99, 100, 101, 102, 103, 104, 105, 106, 107, 108, 109, 110, 111, 112, 113, 114, 115, 116, 117, 118, 119, 120, 121, 122, 123, 124, 125, 126, 127, 128, 129, 130, 131, 132, 133, 134, 135, 136, 137, 138, 139, 140, 141, 142, 143, 144, 145, 146, 147, 148, 149, 150, 151, 152, 153, 154, 155, 156, 157, 158, 159, 160, 161, 162, 163, 164, 165, 166, 167, 168, 169, 170, 171, 172, 173, 174, 175, 176, 177, 178, 179, 180, 181, 182, 183, 184, 185, 186, 187, 188, 189, 190, 191, 192, 193, 194, 195, 196, 197, 198, 199, 200],
      "LargestImagePixelValue": [2223, 2219, 2219, 2219, 2217, 2222, 2222, 2215, 2222, 2222, 2219, 2226, 2220, 2225, 2219, 2221, 2216, 2219, 2217, 2222, 2227, 2220, 2215, 2220, 2222, 2218, 2217, 2220, 2221, 2222, 2226, 2223, 2217, 2218, 2216, 2217, 2217, 2218, 2222, 2217, 2216, 2216, 2213, 2219, 2215, 2215, 2217, 2215, 2221, 2218, 2217, 2215, 2219, 2216, 2222, 2213, 2218, 2223, 2217, 2220, 2225, 2221, 2218, 2214, 2216, 2221, 2221, 2218, 2219, 2223, 2219, 2219, 2215, 2218, 2218, 2218, 2218, 2222, 2224, 2216, 2213, 2219, 2218, 2217, 2218, 2215, 2212, 2215, 2226, 2215, 2213, 2208, 2220, 2218, 2216, 2218, 2220, 2218, 2216, 2221, 2216, 2218, 2215, 2218, 2214, 2216, 2218, 2218, 2221, 2214, 2214, 2216, 2217, 2216, 2217, 2214, 2219, 2222, 2225, 2214, 2216, 2213, 2214, 2216, 2212, 2214, 2222, 2220, 2219, 2217, 2225, 2218, 2218, 2219, 2216, 2218, 2215, 2218, 2217, 2217, 2216, 2215, 2218, 2214, 2219, 2212, 2210, 2211, 2215, 2217, 2216, 2215, 2216, 2216, 2212, 2215, 2217, 2215, 2211, 2218, 2214, 2219, 2219, 2214, 2219, 2214, 2210, 2213, 2215, 2212, 2211, 2214, 2215, 2214, 2219, 2217, 2220, 2223, 2218, 2216, 2218, 2215, 2216, 2215, 2218, 2213, 2217, 2216, 2214, 2220, 2213, 2213, 2214, 2219, 2213, 2209, 2216, 2215, 2216, 2210],
      "WindowWidth": [2067.0, 2066.0, 2066.0, 2066.0, 2066.0, 2066.0, 2066.0, 2066.0, 2066.0, 2067.0, 2067.0, 2066.0, 2066.0, 2066.0, 2066.0, 2066.0, 2066.0, 2067.0, 2066.0, 2066.0, 2066.0, 2067.0, 2066.0, 2066.0, 2066.0, 2066.0, 2066.0, 2066.0, 2066.0, 2067.0, 2066.0, 2067.0, 2066.0, 2067.0, 2066.0, 2066.0, 2066.0, 2066.0, 2067.0, 2066.0, 2067.0, 2066.0, 2067.0, 2067.0, 2067.0, 2067.0, 2066.0, 2067.0, 2067.0, 2066.0, 2067.0, 2067.0, 2066.0, 2066.0, 2067.0, 2067.0, 2066.0, 2067.0, 2066.0, 2067.0, 2067.0, 2066.0, 2066.0, 2066.0, 2066.0, 2066.0, 2066.0, 2066.0, 2066.0, 2066.0, 2067.0, 2066.0, 2066.0, 2066.0, 2067.0, 2066.0, 2066.0, 2066.0, 2066.0, 2066.0, 2066.0, 2066.0, 2066.0, 2066.0, 2067.0, 2066.0, 2066.0, 2066.0, 2066.0, 2066.0, 2066.0, 2066.0, 2066.0, 2066.0, 2066.0, 2066.0, 2066.0, 2066.0, 2066.0, 2066.0, 2066.0, 2066.0, 2066.0, 2066.0, 2066.0, 2066.0, 2066.0, 2066.0, 2066.0, 2066.0, 2066.0, 2066.0, 2066.0, 2066.0, 2066.0, 2066.0, 2066.0, 2066.0, 2066.0, 2066.0, 2066.0, 2067.0, 2066.0, 2066.0, 2066.0, 2066.0, 2066.0, 2066.0, 2066.0, 2066.0, 2066.0, 2066.0, 2066.0, 2066.0, 2066.0, 2066.0, 2066.0, 2066.0, 2066.0, 2066.0, 2066.0, 2066.0, 2066.0, 2066.0, 2066.0, 2066.0, 2066.0, 2066.0, 2066.0, 2066.0, 2066.0, 2066.0, 2066.0, 2066.0, 2066.0, 2066.0, 2066.0, 2066.0, 2066.0, 2066.0, 2066.0, 2066.0, 2066.0, 2066.0, 2066.0, 2066.0, 2066.0, 2066.0, 2066.0, 2066.0, 2066.0, 2066.0, 2066.0, 2066.0, 2066.0, 2066.0, 2066.0, 2066.0, 2066.0, 2066.0, 2066.0, 2066.0, 2066.0, 2066.0, 2066.0, 2066.0, 2066.0, 2066.0, 2066.0, 2066.0, 2066.0, 2066.0, 2066.0, 2066.0, 2066.0, 2066.0, 2066.0, 2066.0, 2066.0, 2066.0]
    },
    "slices": {}
  }
}