{
  "AcquisitionMatrixPE": 80,
  "AcquisitionNumber": 1,
  "AcquisitionTime": "09:41:24.805000",
  "BandwidthPerPixelPhaseEncode": 48.077,
  "BaseResolution": 80,
  "BodyPartExamined": "BRAIN",
  "CoilCombinationMethod": "Sum of Squares",
  "ConsistencyInfo": "N4_VE11C_LATEST_20160120",
  "ConversionSoftware": "dcm2niix",
  "ConversionSoftwareVersion": "v1.0.20220720",
  "DerivedVendorReportedEchoSpacing": 0.000519999,
  "DeviceSerialNumber": "66112",
  "DwellTime": 2.7e-06,
  "EchoTime": 0.035,
  "EchoTrainLength": 39,
  "EffectiveEchoSpacing": 0.00026,
  "FlipAngle": 90,
  "HeudiconvVersion": "0.13.1",
  "ImageOrientationPatientDICOM": [0.981964, -0.188019, -0.019899, 0.186254, 0.943873, 0.272786],
  "ImageOrientationText": "Tra>Cor(15.8)>Sag(1.9)",
  "ImageType": [
    "ORIGINAL",
    "PRIMARY",
    "M",
    "ND",
    "NORM",
    "MOSAIC"
],
  "ImagingFrequency": 123.252,
  "InPlanePhaseEncodingDirectionDICOM": "COL",
  "InstitutionAddress": "Maynard 3,Hanover,NH,US,03755",
  "InstitutionName": "Dartmouth College - PBS",
  "InstitutionalDepartmentName": "Department",
  "MRAcquisitionType": "2D",
  "MagneticFieldStrength": 3,
  "Manufacturer": "Siemens",
  "ManufacturersModelName": "Prisma",
  "MatrixCoilMode": "GRAPPA",
  "Modality": "MR",
  "NonlinearGradientCorrection": false,
  "ParallelReductionFactorInPlane": 2,
  "PartialFourier": 1,
  "PatientPosition": "HFS",
  "PercentPhaseFOV": 100,
  "PercentSampling": 100,
  "PhaseEncodingDirection": "j-",
  "PhaseEncodingSteps": 79,
  "PhaseResolution": 1,
  "PixelBandwidth": 2315,
  "ProcedureStepDescription": "dbic^QA",
  "ProtocolName": "func-bold_task-rest_acq-p2",
  "PulseSequenceDetails": "%SiemensSeq%\\ep2d_bold",
  "ReceiveCoilActiveElements": "HEA;HEP",
  "ReceiveCoilName": "Head_32",
  "ReconMatrixPE": 80,
  "RefLinesPE": 24,
  "RepetitionTime": 2,
  "SAR": 0.0555562,
  "ScanOptions": "FS",
  "ScanningSequence": "EP",
  "SequenceName": "*epfid2d1_80",
  "SequenceVariant": "SK",
  "SeriesDescription": "func-bold_task-rest_acq-p2",
  "SeriesNumber": 5,
  "ShimSetting": [4152, -7697, -7522, 283, -71, -157, -108, 139],
  "SliceThickness": 3.5,
  "SliceTiming": [0.99, 0, 1.0575, 0.0675, 1.1225, 0.1325, 1.1875, 0.2, 1.255, 0.265, 1.32, 0.33, 1.3875, 0.3975, 1.4525, 0.4625, 1.5175, 0.53, 1.585, 0.595, 1.65, 0.66, 1.7175, 0.7275, 1.7825, 0.7925, 1.8475, 0.86, 1.915, 0.925],
  "SoftwareVersions": "syngo MR E11",
  "SpacingBetweenSlices": 3.99,
  "StationName": "AWP66112",
  "TaskName": "rest",
  "TotalReadoutTime": 0.02054,
  "TxRefAmp": 236.93,
  "dcmmeta_affine": [
    [-2.9458911418914795, 0.5587623119354248, 0.12970313429832458, 89.96846771240234],
    [0.5640584826469421, 2.831620216369629, 1.0835742950439453, -139.67247009277344],
    [-0.059696853160858154, -0.8183588981628418, 3.8378565311431885, -34.911231994628906],
    [0.0, 0.0, 0.0, 1.0]
],
  "dcmmeta_reorient_transform": [
    [0.0, -1.0, 0.0, 79.0],
    [1.0, 0.0, 0.0, 0.0],
    [0.0, 0.0, 1.0, 0.0],
    [0.0, 0.0, 0.0, 1.0]
],
  "dcmmeta_shape": [80, 80, 30, 200],
  "dcmmeta_slice_dim": 2,
  "dcmmeta_version": 0.6,
  "global": {
    "const": {
      "AccessionNumber": "qa",
      "AcquisitionMatrix": [80, 0, 0, 80],
      "AngioFlag": "N",
      "BitsAllocated": 16,
      "BitsStored": 12,
      "BodyPartExamined": "BRAIN",
      "Columns": 480,
      "EchoNumbers": 1,
      "EchoTime": 35.0,
      "EchoTrainLength": 39,
      "FlipAngle": 90.0,
      "HighBit": 11,
      "ImageOrientationPatient": [0.98196369711179, -0.1880194917849, -0.019898951316, 0.18625409838477, 0.94387342469375, 0.27278630645942],
      "ImagePositionPatient": [-835.04136329082, -537.53788553118, -251.29399885264],
      "ImageType": [
        "ORIGINAL",
        "PRIMARY",
        "M",
        "ND",
        "NORM",
        "MOSAIC"
],
      "ImagedNucleus": "1H",
      "ImagingFrequency": 123.252469,
      "InPlanePhaseEncodingDirection": "COL",
      "MRAcquisitionType": "2D",
      "MagneticFieldStrength": 3.0,
      "Manufacturer": "SIEMENS",
      "ManufacturerModelName": "Prisma",
      "Modality": "MR",
      "NumberOfAverages": 1.0,
      "NumberOfPhaseEncodingSteps": 79,
      "PercentPhaseFieldOfView": 100.0,
      "PercentSampling": 100.0,
      "PerformedProcedureStepStartTime": "093028.258000",
      "PhotometricInterpretation": "MONOCHROME2",
      "PixelBandwidth": 2315.0,
      "PixelRepresentation": 0,
      "PixelSpacing": [3.0, 3.0],
      "ProtocolName": "func-bold_task-rest_acq-p2",
      "RepetitionTime": 2000.0,
      "Rows": 480,
      "SAR": 0.05555624973503,
      "SamplesPerPixel": 1,
      "ScanOptions": "FS",
      "ScanningSequence": "EP",
      "SequenceName": "*epfid2d1_80",
      "SequenceVariant": "SK",
      "SeriesDescription": "func-bold_task-rest_acq-p2",
      "SeriesNumber": 5,
      "SeriesTime": "094217.902000",
      "SliceLocation": -68.586620867581,
      "SliceThickness": 3.5,
      "SmallestImagePixelValue": 0,
      "SoftwareVersions": "syngo MR E11",
      "SpacingBetweenSlices": 3.9899998999726,
      "SpecificCharacterSet": "ISO_IR 100",
      "StudyID": "52",
      "StudyTime": "093028.191000",
      "TransmitCoilName": "Body",
      "VariableFlipAngleFlag": "N",
      "WindowCenterWidthExplanation": "Algo1",
      "dBdt": 0.0},
    "slices": {}
  },
  "time": {
    "samples": {
      "AcquisitionNumber": [1, 2, 3, 4, 5, 6, 7, 8, 9, 10, 11, 12, 13, 14, 15, 16, 17, 18, 19, 20, 21, 22, 23, 24, 25, 26, 27, 28, 29, 30, 31, 32, 33, 34, 35, 36, 37, 38, 39, 40, 41, 42, 43, 44, 45, 46, 47, 48, 49, 50, 51, 52, 53, 54, 55, 56, 57, 58, 59, 60, 61, 62, 63, 64, 65, 66, 67, 68, 69, 70, 71, 72, 73, 74, 75, 76, 77, 78, 79, 80, 81, 82, 83, 84, 85, 86, 87, 88, 89, 90, 91, 92, 93, 94, 95, 96, 97, 98, 99, 100, 101, 102, 103, 104, 105, 106, 107, 108, 109, 110, 111, 112, 113, 114, 115, 116, 117, 118, 119, 120, 121, 122, 123, 124, 125, 126, 127, 128, 129, 130, 131, 132, 133, 134, 135, 136, 137, 138, 139, 140, 141, 142, 143, 144, 145, 146, 147, 148, 149, 150, 151, 152, 153, 154, 155, 156, 157, 158, 159, 160, 161, 162, 163, 164, 165, 166, 167, 168, 169, 170, 171, 172, 173, 174, 175, 176, 177, 178, 179, 180, 181, 182, 183, 184, 185, 186, 187, 188, 189, 190, 191, 192, 193, 194, 195, 196, 197, 198, 199, 200],
      "AcquisitionTime": ["094124.805000", "094126.805000", "094128.805000", "094130.805000", "094132.805000", "094134.805000", "094136.805000", "094138.805000", "094140.805000", "094142.805000", "094144.805000", "094146.805000", "094148.805000", "094150.805000", "094152.805000", "094154.805000", "094156.805000", "094158.805000", "094200.805000", "094202.805000", "094204.805000", "094206.805000", "094208.805000", "094210.805000", "094212.805000", "094214.805000", "094216.805000", "094218.805000", "094220.805000", "094222.805000", "094224.805000", "094226.805000", "094228.805000", "094230.805000", "094232.805000", "094234.805000", "094236.805000", "094238.805000", "094240.805000", "094242.805000", "094244.805000", "094246.805000", "094248.805000", "094250.805000", "094252.805000", "094254.805000", "094256.805000", "094258.805000", "094300.805000", "094302.805000", "094304.805000", "094306.805000", "094308.805000", "094310.805000", "094312.805000", "094314.805000", "094316.805000", "094318.805000", "094320.805000", "094322.805000", "094324.805000", "094326.805000", "094328.805000", "094330.805000", "094332.805000", "094334.805000", "094336.805000", "094338.805000", "094340.805000", "094342.805000", "094344.805000", "094346.805000", "094348.805000", "094350.805000", "094352.805000", "094354.805000", "094356.805000", "094358.805000", "094400.805000", "094402.805000", "094404.805000", "094406.805000", "094408.805000", "094410.805000", "094412.805000", "094414.805000", "094416.805000", "094418.805000", "094420.805000", "094422.805000", "094424.805000", "094426.805000", "094428.805000", "094430.805000", "094432.805000", "094434.805000", "094436.805000", "094438.805000", "094440.805000", "094442.805000", "094444.805000", "094446.805000", "094448.805000", "094450.805000", "094452.805000", "094454.805000", "094456.805000", "094458.805000", "094500.805000", "094502.805000", "094504.805000", "094506.805000", "094508.805000", "094510.805000", "094512.805000", "094514.805000", "094516.805000", "094518.805000", "094520.805000", "094522.805000", "094524.805000", "094526.805000", "094528.805000", "094530.805000", "094532.805000", "094534.805000", "094536.805000", "094538.805000", "094540.805000", "094542.805000", "094544.805000", "094546.805000", "094548.805000", "094550.805000", "094552.805000", "094554.805000", "094556.805000", "094558.805000", "094600.805000", "094602.805000", "094604.805000", "094606.805000", "094608.805000", "094610.805000", "094612.805000", "094614.805000", "094616.805000", "094618.805000", "094620.805000", "094622.805000", "094624.805000", "094626.805000", "094628.805000", "094630.805000", "094632.805000", "094634.805000", "094636.805000", "094638.805000", "094640.805000", "094642.805000", "094644.805000", "094646.805000", "094648.805000", "094650.805000", "094652.805000", "094654.805000", "094656.805000", "094658.805000", "094700.805000", "094702.805000", "094704.805000", "094706.805000", "094708.805000", "094710.805000", "094712.805000", "094714.805000", "094716.805000", "094718.805000", "094720.805000", "094722.805000", "094724.805000", "094726.805000", "094728.805000", "094730.805000", "094732.805000", "094734.805000", "094736.805000", "094738.805000", "094740.805000", "094742.805000", "094744.805000", "094746.805000", "094748.805000", "094750.805000", "094752.805000", "094754.805000", "094756.805000", "094758.805000", "094800.805000", "094802.805000"],
      "ContentTime": ["094217.906000", "094217.917000", "094217.919000", "094217.922000", "094217.925000", "094217.927000", "094217.930000", "094217.933000", "094217.935000", "094217.938000", "094217.941000", "094217.943000", "094217.946000", "094217.948000", "094217.951000", "094217.954000", "094217.956000", "094217.959000", "094217.962000", "094217.964000", "094217.967000", "094217.969000", "094217.972000", "094217.975000", "094217.977000", "094217.980000", "094257.881000", "094257.883000", "094257.886000", "094257.889000", "094257.899000", "094257.902000", "094257.905000", "094257.907000", "094257.910000", "094257.912000", "094257.915000", "094257.918000", "094257.921000", "094257.923000", "094257.926000", "094257.928000", "094257.931000", "094257.934000", "094257.936000", "094257.939000", "094337.881000", "094337.884000", "094337.887000", "094337.889000", "094337.892000", "094337.895000", "094337.897000", "094337.900000", "094337.902000", "094337.905000", "094337.907000", "094337.910000", "094337.913000", "094337.915000", "094337.918000", "094337.920000", "094337.932000", "094337.934000", "094337.937000", "094337.939000", "094417.880000", "094417.883000", "094417.886000", "094417.888000", "094417.891000", "094417.894000", "094417.896000", "094417.899000", "094417.902000", "094417.904000", "094417.907000", "094417.910000", "094417.912000", "094417.923000", "094417.925000", "094417.928000", "094417.931000", "094417.933000", "094417.936000", "094417.939000", "094457.880000", "094457.883000", "094457.886000", "094457.888000", "094457.891000", "094457.894000", "094457.896000", "094457.899000", "094457.902000", "094457.909000", "094457.911000", "094457.914000", "094457.917000", "094457.919000", "094457.922000", "094457.924000", "094457.927000", "094457.930000", "094457.932000", "094457.935000", "094537.880000", "094537.883000", "094537.886000", "094537.888000", "094537.891000", "094537.894000", "094537.896000", "094537.899000", "094537.902000", "094537.904000", "094537.907000", "094537.909000", "094537.912000", "094537.914000", "094537.927000", "094537.929000", "094537.932000", "094537.934000", "094537.937000", "094537.939000", "094617.880000", "094617.883000", "094617.886000", "094617.888000", "094617.891000", "094617.894000", "094617.896000", "094617.899000", "094617.902000", "094617.904000", "094617.907000", "094617.909000", "094617.912000", "094617.914000", "094617.917000", "094617.920000", "094617.922000", "094617.925000", "094617.927000", "094617.930000", "094637.881000", "094637.883000", "094637.886000", "094637.888000", "094637.891000", "094637.894000", "094637.896000", "094637.899000", "094637.902000", "094637.904000", "094717.880000", "094717.883000", "094717.886000", "094717.888000", "094717.891000", "094717.894000", "094717.896000", "094717.899000", "094717.901000", "094717.904000", "094717.906000", "094717.909000", "094717.911000", "094717.914000", "094717.917000", "094717.919000", "094717.922000", "094717.924000", "094717.927000", "094717.930000", "094757.880000", "094757.883000", "094757.886000", "094757.888000", "094757.891000", "094757.894000", "094757.896000", "094757.899000", "094757.902000", "094757.904000", "094757.907000", "094757.909000", "094757.912000", "094757.914000", "094757.917000", "094757.920000", "094757.922000", "094757.925000", "094757.927000", "094757.930000", "094804.084000", "094804.087000", "094804.090000", "094804.092000"],
      "InstanceCreationTime": ["094217.906000", "094217.917000", "094217.919000", "094217.922000", "094217.925000", "094217.927000", "094217.930000", "094217.933000", "094217.935000", "094217.938000", "094217.941000", "094217.943000", "094217.946000", "094217.948000", "094217.951000", "094217.954000", "094217.956000", "094217.959000", "094217.962000", "094217.964000", "094217.967000", "094217.969000", "094217.972000", "094217.975000", "094217.977000", "094217.980000", "094257.881000", "094257.883000", "094257.886000", "094257.889000", "094257.899000", "094257.902000", "094257.905000", "094257.907000", "094257.910000", "094257.912000", "094257.915000", "094257.918000", "094257.921000", "094257.923000", "094257.926000", "094257.928000", "094257.931000", "094257.934000", "094257.936000", "094257.939000", "094337.881000", "094337.884000", "094337.887000", "094337.889000", "094337.892000", "094337.895000", "094337.897000", "094337.900000", "094337.902000", "094337.905000", "094337.907000", "094337.910000", "094337.913000", "094337.915000", "094337.918000", "094337.920000", "094337.932000", "094337.934000", "094337.937000", "094337.939000", "094417.880000", "094417.883000", "094417.886000", "094417.888000", "094417.891000", "094417.894000", "094417.896000", "094417.899000", "094417.902000", "094417.904000", "094417.907000", "094417.910000", "094417.912000", "094417.923000", "094417.925000", "094417.928000", "094417.931000", "094417.933000", "094417.936000", "094417.939000", "094457.880000", "094457.883000", "094457.886000", "094457.888000", "094457.891000", "094457.894000", "094457.896000", "094457.899000", "094457.902000", "094457.909000", "094457.911000", "094457.914000", "094457.917000", "094457.919000", "094457.922000", "094457.924000", "094457.927000", "094457.930000", "094457.932000", "094457.935000", "094537.880000", "094537.883000", "094537.886000", "094537.888000", "094537.891000", "094537.894000", "094537.896000", "094537.899000", "094537.902000", "094537.904000", "094537.907000", "094537.909000", "094537.912000", "094537.914000", "094537.927000", "094537.929000", "094537.932000", "094537.934000", "094537.937000", "094537.939000", "094617.880000", "094617.883000", "094617.886000", "094617.888000", "094617.891000", "094617.894000", "094617.896000", "094617.899000", "094617.902000", "094617.904000", "094617.907000", "094617.909000", "094617.912000", "094617.914000", "094617.917000", "094617.920000", "094617.922000", "094617.925000", "094617.927000", "094617.930000", "094637.881000", "094637.883000", "094637.886000", "094637.888000", "094637.891000", "094637.894000", "094637.896000", "094637.899000", "094637.902000", "094637.904000", "094717.880000", "094717.883000", "094717.886000", "094717.888000", "094717.891000", "094717.894000", "094717.896000", "094717.899000", "094717.901000", "094717.904000", "094717.906000", "094717.909000", "094717.911000", "094717.914000", "094717.917000", "094717.919000", "094717.922000", "094717.924000", "094717.927000", "094717.930000", "094757.880000", "094757.883000", "094757.886000", "094757.888000", "094757.891000", "094757.894000", "094757.896000", "094757.899000", "094757.902000", "094757.904000", "094757.907000", "094757.909000", "094757.912000", "094757.914000", "094757.917000", "094757.920000", "094757.922000", "094757.925000", "094757.927000", "094757.930000", "094804.084000", "094804.087000", "094804.090000", "094804.092000"],
      "InstanceNumber": [1, 2, 3, 4, 5, 6, 7, 8, 9, 10, 11, 12, 13, 14, 15, 16, 17, 18, 19, 20, 21, 22, 23, 24, 25, 26, 27, 28, 29, 30, 31, 32, 33, 34, 35, 36, 37, 38, 39, 40, 41, 42, 43, 44, 45, 46, 47, 48, 49, 50, 51, 52, 53, 54, 55, 56, 57, 58, 59, 60, 61, 62, 63, 64, 65, 66, 67, 68, 69, 70, 71, 72, 73, 74, 75, 76, 77, 78, 79, 80, 81, 82, 83, 84, 85, 86, 87, 88, 89, 90, 91, 92, 93, 94, 95, 96, 97, 98, 99, 100, 101, 102, 103, 104, 105, 106, 107, 108, 109, 110, 111, 112, 113, 114, 115, 116, 117, 118, 119, 120, 121, 122, 123, 124, 125, 126, 127, 128, 129, 130, 131, 132, 133, 134, 135, 136, 137, 138, 139, 140, 141, 142, 143, 144, 145, 146, 147, 148, 149, 150, 151, 152, 153, 154, 155, 156, 157, 158, 159, 160, 161, 162, 163, 164, 165, 166, 167, 168, 169, 170, 171, 172, 173, 174, 175, 176, 177, 178, 179, 180, 181, 182, 183, 184, 185, 186, 187, 188, 189, 190, 191, 192, 193, 194, 195, 196, 197, 198, 199, 200],
      "LargestImagePixelValue": [2241, 2240, 2239, 2233, 2228, 2242, 2246, 2239, 2233, 2242, 2237, 2238, 2242, 2233, 2237, 2245, 2233, 2240, 2240, 2240, 2233, 2237, 2233, 2241, 2238, 2227, 2244, 2238, 2246, 2237, 2237, 2243, 2235, 2238, 2243, 2237, 2238, 2235, 2234, 2241, 2241, 2233, 2234, 2242, 2236, 2238, 2237, 2235, 2251, 2246, 2237, 2239, 2236, 2240, 2243, 2240, 2233, 2239, 2236, 2241, 2237, 2232, 2248, 2233, 2241, 2239, 2241, 2238, 2242, 2239, 2236, 2239, 2234, 2231, 2235, 2244, 2240, 2243, 2234, 2236, 2250, 2235, 2229, 2233, 2237, 2244, 2240, 2235, 2237, 2240, 2241, 2236, 2238, 2237, 2235, 2240, 2234, 2236, 2235, 2235, 2238, 2234, 2241, 2234, 2241, 2242, 2243, 2239, 2235, 2242, 2233, 2239, 2239, 2230, 2236, 2238, 2239, 2228, 2239, 2242, 2234, 2237, 2239, 2235, 2236, 2232, 2238, 2238, 2235, 2234, 2238, 2241, 2241, 2229, 2230, 2236, 2228, 2229, 2240, 2240, 2241, 2239, 2234, 2241, 2237, 2239, 2238, 2235, 2235, 2236, 2232, 2237, 2236, 2239, 2232, 2240, 2240, 2241, 2240, 2242, 2235, 2233, 2238, 2238, 2231, 2246, 2250, 2235, 2238, 2236, 2238, 2237, 2238, 2237, 2238, 2232, 2242, 2240, 2238, 2236, 2235, 2241, 2236, 2240, 2232, 2238, 2232, 2241, 2238, 2238, 2240, 2243, 2234, 2236, 2238, 2234, 2240, 2242, 2238, 2240],
      "WindowCenter": [978.0, 978.0, 978.0, 979.0, 979.0, 979.0, 978.0, 978.0, 978.0, 978.0, 978.0, 978.0, 978.0, 979.0, 978.0, 978.0, 978.0, 978.0, 978.0, 978.0, 978.0, 979.0, 978.0, 978.0, 979.0, 978.0, 979.0, 978.0, 978.0, 978.0, 978.0, 979.0, 978.0, 978.0, 979.0, 979.0, 978.0, 978.0, 979.0, 978.0, 978.0, 978.0, 979.0, 978.0, 978.0, 978.0, 978.0, 978.0, 978.0, 978.0, 978.0, 978.0, 978.0, 978.0, 978.0, 978.0, 978.0, 978.0, 979.0, 978.0, 978.0, 979.0, 978.0, 979.0, 978.0, 978.0, 978.0, 978.0, 978.0, 978.0, 979.0, 979.0, 978.0, 978.0, 978.0, 979.0, 978.0, 979.0, 978.0, 978.0, 979.0, 978.0, 978.0, 979.0, 978.0, 979.0, 978.0, 978.0, 978.0, 978.0, 978.0, 978.0, 979.0, 978.0, 978.0, 978.0, 978.0, 978.0, 978.0, 979.0, 978.0, 979.0, 978.0, 979.0, 979.0, 979.0, 978.0, 978.0, 978.0, 978.0, 978.0, 978.0, 979.0, 978.0, 979.0, 978.0, 978.0, 978.0, 978.0, 978.0, 979.0, 979.0, 979.0, 978.0, 978.0, 978.0, 978.0, 978.0, 979.0, 978.0, 979.0, 978.0, 978.0, 979.0, 978.0, 978.0, 978.0, 979.0, 979.0, 978.0, 978.0, 978.0, 978.0, 978.0, 979.0, 978.0, 978.0, 979.0, 978.0, 978.0, 978.0, 978.0, 978.0, 978.0, 979.0, 978.0, 978.0, 978.0, 978.0, 979.0, 978.0, 978.0, 978.0, 979.0, 978.0, 978.0, 978.0, 978.0, 978.0, 978.0, 978.0, 978.0, 978.0, 978.0, 978.0, 978.0, 978.0, 978.0, 978.0, 978.0, 978.0, 978.0, 978.0, 978.0, 978.0, 978.0, 978.0, 978.0, 978.0, 978.0, 978.0, 978.0, 978.0, 978.0, 978.0, 978.0, 978.0, 978.0, 977.0, 978.0],
      "WindowWidth": [2130.0, 2129.0, 2129.0, 2129.0, 2129.0, 2129.0, 2129.0, 2129.0, 2128.0, 2129.0, 2129.0, 2129.0, 2129.0, 2129.0, 2128.0, 2128.0, 2129.0, 2128.0, 2129.0, 2129.0, 2128.0, 2129.0, 2129.0, 2129.0, 2129.0, 2128.0, 2129.0, 2128.0, 2128.0, 2128.0, 2129.0, 2129.0, 2129.0, 2129.0, 2129.0, 2129.0, 2128.0, 2129.0, 2130.0, 2129.0, 2129.0, 2128.0, 2129.0, 2129.0, 2129.0, 2129.0, 2129.0, 2129.0, 2129.0, 2129.0, 2129.0, 2129.0, 2129.0, 2129.0, 2129.0, 2129.0, 2128.0, 2129.0, 2129.0, 2128.0, 2128.0, 2129.0, 2128.0, 2129.0, 2128.0, 2129.0, 2129.0, 2129.0, 2128.0, 2129.0, 2129.0, 2129.0, 2128.0, 2128.0, 2129.0, 2129.0, 2129.0, 2129.0, 2128.0, 2128.0, 2129.0, 2128.0, 2128.0, 2129.0, 2128.0, 2129.0, 2128.0, 2128.0, 2129.0, 2129.0, 2128.0, 2128.0, 2129.0, 2128.0, 2128.0, 2128.0, 2128.0, 2128.0, 2128.0, 2129.0, 2128.0, 2129.0, 2128.0, 2129.0, 2129.0, 2129.0, 2128.0, 2128.0, 2128.0, 2128.0, 2128.0, 2128.0, 2129.0, 2128.0, 2129.0, 2128.0, 2128.0, 2128.0, 2129.0, 2128.0, 2129.0, 2129.0, 2129.0, 2128.0, 2128.0, 2128.0, 2128.0, 2128.0, 2129.0, 2128.0, 2129.0, 2128.0, 2128.0, 2129.0, 2128.0, 2128.0, 2128.0, 2129.0, 2128.0, 2128.0, 2128.0, 2128.0, 2128.0, 2128.0, 2129.0, 2128.0, 2128.0, 2129.0, 2128.0, 2128.0, 2128.0, 2128.0, 2128.0, 2128.0, 2129.0, 2128.0, 2128.0, 2128.0, 2128.0, 2128.0, 2128.0, 2128.0, 2128.0, 2129.0, 2128.0, 2128.0, 2128.0, 2128.0, 2128.0, 2128.0, 2128.0, 2128.0, 2128.0, 2128.0, 2128.0, 2128.0, 2128.0, 2128.0, 2128.0, 2128.0, 2128.0, 2128.0, 2128.0, 2128.0, 2128.0, 2128.0, 2128.0, 2128.0, 2128.0, 2128.0, 2128.0, 2128.0, 2128.0, 2128.0, 2128.0, 2128.0, 2128.0, 2128.0, 2128.0, 2128.0]
    },
    "slices": {}
  }
}