{
  "AcquisitionMatrixPE": 80,
  "AcquisitionNumber": 1,
  "AcquisitionTime": "09:52:41.515000",
  "BandwidthPerPixelPhaseEncode": 25,
  "BaseResolution": 80,
  "BodyPartExamined": "BRAIN",
  "CoilCombinationMethod": "Sum of Squares",
  "ConsistencyInfo": "N4_VE11C_LATEST_20160120",
  "ConversionSoftware": "dcm2niix",
  "ConversionSoftwareVersion": "v1.0.20220720",
  "DerivedVendorReportedEchoSpacing": 0.0005,
  "DeviceSerialNumber": "66112",
  "DwellTime": 2.7e-06,
  "EchoTime": 0.03,
  "EchoTrainLength": 80,
  "EffectiveEchoSpacing": 0.0005,
  "FlipAngle": 77,
  "HeudiconvVersion": "0.13.1",
  "ImageOrientationPatientDICOM": [0.983219, 0.182188, 0.00941461, -0.176555, 0.937288, 0.300532],
  "ImageOrientationText": "Tra>Cor(17.3)>Sag(-2.6)",
  "ImageType": [
    "ORIGINAL",
    "PRIMARY",
    "M",
    "ND",
    "NORM",
    "MOSAIC"
],
  "ImagingFrequency": 123.252,
  "InPlanePhaseEncodingDirectionDICOM": "COL",
  "InstitutionAddress": "Maynard 3,Hanover,NH,US,03755",
  "InstitutionName": "Dartmouth College - PBS",
  "InstitutionalDepartmentName": "Department",
  "MRAcquisitionType": "2D",
  "MagneticFieldStrength": 3,
  "Manufacturer": "Siemens",
  "ManufacturersModelName": "Prisma",
  "MatrixCoilMode": "SENSE",
  "Modality": "MR",
  "NonlinearGradientCorrection": false,
  "PartialFourier": 1,
  "PatientPosition": "HFS",
  "PercentPhaseFOV": 100,
  "PercentSampling": 100,
  "PhaseEncodingDirection": "j-",
  "PhaseEncodingSteps": 80,
  "PhaseResolution": 1,
  "PixelBandwidth": 2315,
  "ProcedureStepDescription": "dbic^QA",
  "ProtocolName": "func-bold_fa-77",
  "PulseSequenceDetails": "%SiemensSeq%\\ep2d_bold",
  "ReceiveCoilActiveElements": "HEA;HEP",
  "ReceiveCoilName": "Head_32",
  "ReconMatrixPE": 80,
  "RepetitionTime": 2,
  "SAR": 0.0436998,
  "ScanOptions": "FS",
  "ScanningSequence": "EP",
  "SequenceName": "*epfid2d1_80",
  "SequenceVariant": "SK",
  "SeriesDescription": "func-bold_fa-77",
  "SeriesNumber": 8,
  "ShimSetting": [4143, -7693, -7513, 270, -58, -93, -23, 57],
  "SliceThickness": 3.5,
  "SliceTiming": [0.99, 0, 1.055, 0.065, 1.1225, 0.1325, 1.1875, 0.1975, 1.2525, 0.2625, 1.32, 0.33, 1.385, 0.395, 1.4525, 0.4625, 1.5175, 0.5275, 1.5825, 0.5925, 1.65, 0.66, 1.715, 0.725, 1.7825, 0.7925, 1.8475, 0.8575, 1.9125, 0.9225],
  "SoftwareVersions": "syngo MR E11",
  "SpacingBetweenSlices": 3.99,
  "StationName": "AWP66112",
  "TotalReadoutTime": 0.0395,
  "TxRefAmp": 224.328,
  "dcmmeta_affine": [
    [-2.9496560096740723, -0.5296642184257507, -0.1832571178674698, 144.3379364013672],
    [-0.5465636253356934, 2.811864137649536, 1.185632348060608, -96.87187957763672],
    [0.028243834152817726, -0.9015963077545166, 3.805363655090332, -21.594701766967773],
    [0.0, 0.0, 0.0, 1.0]
],
  "dcmmeta_reorient_transform": [
    [0.0, -1.0, 0.0, 79.0],
    [1.0, 0.0, 0.0, 0.0],
    [0.0, 0.0, 1.0, 0.0],
    [0.0, 0.0, 0.0, 1.0]
],
  "dcmmeta_shape": [80, 80, 30, 200],
  "dcmmeta_slice_dim": 2,
  "dcmmeta_version": 0.6,
  "global": {
    "const": {
      "AccessionNumber": "qa",
      "AcquisitionMatrix": [80, 0, 0, 80],
      "AngioFlag": "N",
      "BitsAllocated": 16,
      "BitsStored": 12,
      "BodyPartExamined": "BRAIN",
      "Columns": 480,
      "EchoNumbers": 1,
      "EchoTime": 30.0,
      "EchoTrainLength": 80,
      "FlipAngle": 77.0,
      "HighBit": 11,
      "ImageOrientationPatient": [0.98321866467684, 0.18218787699755, 0.00941461131555, -0.1765547359397, 0.9372880430778, 0.30053211063157],
      "ImagePositionPatient": [-586.49282572979, -796.95094233096, -278.78884469694],
      "ImageType": [
        "ORIGINAL",
        "PRIMARY",
        "M",
        "ND",
        "NORM",
        "MOSAIC"
],
      "ImagedNucleus": "1H",
      "ImagingFrequency": 123.252368,
      "InPlanePhaseEncodingDirection": "COL",
      "MRAcquisitionType": "2D",
      "MagneticFieldStrength": 3.0,
      "Manufacturer": "SIEMENS",
      "ManufacturerModelName": "Prisma",
      "Modality": "MR",
      "NumberOfAverages": 1.0,
      "NumberOfPhaseEncodingSteps": 80,
      "PercentPhaseFieldOfView": 100.0,
      "PercentSampling": 100.0,
      "PerformedProcedureStepStartTime": "093403.119000",
      "PhotometricInterpretation": "MONOCHROME2",
      "PixelBandwidth": 2315.0,
      "PixelRepresentation": 0,
      "PixelSpacing": [3.0, 3.0],
      "ProtocolName": "func-bold_fa-77",
      "RepetitionTime": 2000.0,
      "Rows": 480,
      "SAR": 0.04369977551009,
      "SamplesPerPixel": 1,
      "ScanOptions": "FS",
      "ScanningSequence": "EP",
      "SequenceName": "*epfid2d1_80",
      "SequenceVariant": "SK",
      "SeriesDescription": "func-bold_fa-77",
      "SeriesNumber": 8,
      "SeriesTime": "095330.096000",
      "SliceLocation": -56.010296224629,
      "SliceThickness": 3.5,
      "SmallestImagePixelValue": 0,
      "SoftwareVersions": "syngo MR E11",
      "SpacingBetweenSlices": 3.9899999480976,
      "SpecificCharacterSet": "ISO_IR 100",
      "StudyID": "32",
      "StudyTime": "093403.063000",
      "TransmitCoilName": "Body",
      "VariableFlipAngleFlag": "N",
      "WindowCenterWidthExplanation": "Algo1",
      "dBdt": 0.0},
    "slices": {}
  },
  "time": {
    "samples": {
      "AcquisitionNumber": [1, 2, 3, 4, 5, 6, 7, 8, 9, 10, 11, 12, 13, 14, 15, 16, 17, 18, 19, 20, 21, 22, 23, 24, 25, 26, 27, 28, 29, 30, 31, 32, 33, 34, 35, 36, 37, 38, 39, 40, 41, 42, 43, 44, 45, 46, 47, 48, 49, 50, 51, 52, 53, 54, 55, 56, 57, 58, 59, 60, 61, 62, 63, 64, 65, 66, 67, 68, 69, 70, 71, 72, 73, 74, 75, 76, 77, 78, 79, 80, 81, 82, 83, 84, 85, 86, 87, 88, 89, 90, 91, 92, 93, 94, 95, 96, 97, 98, 99, 100, 101, 102, 103, 104, 105, 106, 107, 108, 109, 110, 111, 112, 113, 114, 115, 116, 117, 118, 119, 120, 121, 122, 123, 124, 125, 126, 127, 128, 129, 130, 131, 132, 133, 134, 135, 136, 137, 138, 139, 140, 141, 142, 143, 144, 145, 146, 147, 148, 149, 150, 151, 152, 153, 154, 155, 156, 157, 158, 159, 160, 161, 162, 163, 164, 165, 166, 167, 168, 169, 170, 171, 172, 173, 174, 175, 176, 177, 178, 179, 180, 181, 182, 183, 184, 185, 186, 187, 188, 189, 190, 191, 192, 193, 194, 195, 196, 197, 198, 199, 200],
      "AcquisitionTime": ["095241.515000", "095243.515000", "095245.515000", "095247.515000", "095249.515000", "095251.515000", "095253.515000", "095255.515000", "095257.515000", "095259.515000", "095301.515000", "095303.515000", "095305.515000", "095307.515000", "095309.515000", "095311.515000", "095313.515000", "095315.515000", "095317.515000", "095319.515000", "095321.515000", "095323.515000", "095325.515000", "095327.515000", "095329.515000", "095331.515000", "095333.515000", "095335.515000", "095337.515000", "095339.515000", "095341.515000", "095343.515000", "095345.515000", "095347.515000", "095349.515000", "095351.515000", "095353.515000", "095355.515000", "095357.515000", "095359.515000", "095401.515000", "095403.515000", "095405.515000", "095407.515000", "095409.515000", "095411.515000", "095413.515000", "095415.515000", "095417.515000", "095419.515000", "095421.515000", "095423.515000", "095425.515000", "095427.515000", "095429.515000", "095431.515000", "095433.515000", "095435.515000", "095437.515000", "095439.515000", "095441.515000", "095443.515000", "095445.515000", "095447.515000", "095449.515000", "095451.515000", "095453.515000", "095455.515000", "095457.515000", "095459.515000", "095501.515000", "095503.515000", "095505.515000", "095507.515000", "095509.515000", "095511.515000", "095513.515000", "095515.515000", "095517.515000", "095519.515000", "095521.515000", "095523.515000", "095525.515000", "095527.515000", "095529.515000", "095531.515000", "095533.515000", "095535.515000", "095537.515000", "095539.515000", "095541.515000", "095543.515000", "095545.515000", "095547.515000", "095549.515000", "095551.515000", "095553.515000", "095555.515000", "095557.515000", "095559.515000", "095601.515000", "095603.515000", "095605.515000", "095607.515000", "095609.515000", "095611.515000", "095613.515000", "095615.515000", "095617.515000", "095619.515000", "095621.515000", "095623.515000", "095625.515000", "095627.515000", "095629.515000", "095631.515000", "095633.515000", "095635.515000", "095637.515000", "095639.515000", "095641.515000", "095643.515000", "095645.515000", "095647.515000", "095649.515000", "095651.515000", "095653.515000", "095655.515000", "095657.515000", "095659.515000", "095701.515000", "095703.515000", "095705.515000", "095707.515000", "095709.515000", "095711.515000", "095713.515000", "095715.515000", "095717.515000", "095719.515000", "095721.515000", "095723.515000", "095725.515000", "095727.515000", "095729.515000", "095731.515000", "095733.515000", "095735.515000", "095737.515000", "095739.515000", "095741.515000", "095743.515000", "095745.515000", "095747.515000", "095749.515000", "095751.515000", "095753.515000", "095755.515000", "095757.515000", "095759.515000", "095801.515000", "095803.515000", "095805.515000", "095807.515000", "095809.515000", "095811.515000", "095813.515000", "095815.515000", "095817.515000", "095819.515000", "095821.515000", "095823.515000", "095825.515000", "095827.515000", "095829.515000", "095831.515000", "095833.515000", "095835.515000", "095837.515000", "095839.515000", "095841.515000", "095843.515000", "095845.515000", "095847.515000", "095849.515000", "095851.515000", "095853.515000", "095855.515000", "095857.515000", "095859.515000", "095901.515000", "095903.515000", "095905.515000", "095907.515000", "095909.515000", "095911.515000", "095913.515000", "095915.515000", "095917.515000", "095919.515000"],
      "ContentTime": ["095330.100000", "095330.103000", "095330.106000", "095330.108000", "095330.120000", "095330.122000", "095330.125000", "095330.128000", "095330.131000", "095330.133000", "095330.136000", "095330.138000", "095330.141000", "095330.143000", "095330.146000", "095330.148000", "095330.151000", "095330.154000", "095330.156000", "095330.159000", "095330.161000", "095330.164000", "095330.167000", "095330.169000", "095410.096000", "095410.099000", "095410.102000", "095410.104000", "095410.107000", "095410.109000", "095410.112000", "095410.114000", "095410.117000", "095410.119000", "095410.122000", "095410.125000", "095410.127000", "095410.130000", "095410.133000", "095410.149000", "095410.151000", "095410.154000", "095410.157000", "095410.159000", "095450.095000", "095450.098000", "095450.101000", "095450.107000", "095450.110000", "095450.112000", "095450.115000", "095450.117000", "095450.120000", "095450.122000", "095450.125000", "095450.128000", "095450.130000", "095450.133000", "095450.135000", "095450.138000", "095450.140000", "095450.143000", "095450.146000", "095450.148000", "095530.095000", "095530.098000", "095530.100000", "095530.103000", "095530.105000", "095530.108000", "095530.110000", "095530.113000", "095530.116000", "095530.118000", "095530.121000", "095530.123000", "095530.127000", "095530.129000", "095530.132000", "095530.135000", "095530.137000", "095530.140000", "095530.142000", "095530.145000", "095610.095000", "095610.098000", "095610.101000", "095610.103000", "095610.106000", "095610.109000", "095610.111000", "095610.114000", "095610.116000", "095610.119000", "095610.121000", "095610.124000", "095610.126000", "095610.129000", "095610.131000", "095610.134000", "095610.136000", "095610.139000", "095610.141000", "095610.144000", "095650.096000", "095650.098000", "095650.101000", "095650.104000", "095650.106000", "095650.109000", "095650.111000", "095650.114000", "095650.116000", "095650.119000", "095650.121000", "095650.124000", "095650.126000", "095650.129000", "095650.132000", "095650.134000", "095650.137000", "095650.139000", "095650.142000", "095650.144000", "095730.095000", "095730.097000", "095730.100000", "095730.102000", "095730.105000", "095730.108000", "095730.110000", "095730.113000", "095730.116000", "095730.118000", "095730.121000", "095730.124000", "095730.127000", "095730.130000", "095730.132000", "095730.135000", "095730.137000", "095730.140000", "095730.142000", "095730.145000", "095810.094000", "095810.097000", "095810.100000", "095810.102000", "095810.105000", "095810.107000", "095810.110000", "095810.114000", "095810.116000", "095810.119000", "095810.122000", "095810.125000", "095810.127000", "095810.130000", "095810.132000", "095810.135000", "095810.137000", "095810.140000", "095810.142000", "095810.145000", "095850.095000", "095850.098000", "095850.101000", "095850.103000", "095850.106000", "095850.109000", "095850.111000", "095850.114000", "095850.116000", "095850.119000", "095850.122000", "095850.125000", "095850.127000", "095850.130000", "095850.132000", "095850.135000", "095850.137000", "095850.140000", "095850.143000", "095850.145000", "095910.096000", "095910.098000", "095910.101000", "095910.104000", "095910.106000", "095910.109000", "095910.111000", "095910.114000", "095910.116000", "095910.119000", "095921.557000", "095921.560000", "095921.563000", "095921.565000", "095921.568000", "095921.570000"],
      "InstanceCreationTime": ["095330.100000", "095330.103000", "095330.106000", "095330.108000", "095330.120000", "095330.122000", "095330.125000", "095330.128000", "095330.131000", "095330.133000", "095330.136000", "095330.138000", "095330.141000", "095330.143000", "095330.146000", "095330.148000", "095330.151000", "095330.154000", "095330.156000", "095330.159000", "095330.161000", "095330.164000", "095330.167000", "095330.169000", "095410.096000", "095410.099000", "095410.102000", "095410.104000", "095410.107000", "095410.109000", "095410.112000", "095410.114000", "095410.117000", "095410.119000", "095410.122000", "095410.125000", "095410.127000", "095410.130000", "095410.133000", "095410.149000", "095410.151000", "095410.154000", "095410.157000", "095410.159000", "095450.095000", "095450.098000", "095450.101000", "095450.107000", "095450.110000", "095450.112000", "095450.115000", "095450.117000", "095450.120000", "095450.122000", "095450.125000", "095450.128000", "095450.130000", "095450.133000", "095450.135000", "095450.138000", "095450.140000", "095450.143000", "095450.146000", "095450.148000", "095530.095000", "095530.098000", "095530.100000", "095530.103000", "095530.105000", "095530.108000", "095530.110000", "095530.113000", "095530.116000", "095530.118000", "095530.121000", "095530.123000", "095530.127000", "095530.129000", "095530.132000", "095530.135000", "095530.137000", "095530.140000", "095530.142000", "095530.145000", "095610.095000", "095610.098000", "095610.101000", "095610.103000", "095610.106000", "095610.109000", "095610.111000", "095610.114000", "095610.116000", "095610.119000", "095610.121000", "095610.124000", "095610.126000", "095610.129000", "095610.131000", "095610.134000", "095610.136000", "095610.139000", "095610.141000", "095610.144000", "095650.096000", "095650.098000", "095650.101000", "095650.104000", "095650.106000", "095650.109000", "095650.111000", "095650.114000", "095650.116000", "095650.119000", "095650.121000", "095650.124000", "095650.126000", "095650.129000", "095650.132000", "095650.134000", "095650.137000", "095650.139000", "095650.142000", "095650.144000", "095730.095000", "095730.097000", "095730.100000", "095730.102000", "095730.105000", "095730.108000", "095730.110000", "095730.113000", "095730.116000", "095730.118000", "095730.121000", "095730.124000", "095730.127000", "095730.130000", "095730.132000", "095730.135000", "095730.137000", "095730.140000", "095730.142000", "095730.145000", "095810.094000", "095810.097000", "095810.100000", "095810.102000", "095810.105000", "095810.107000", "095810.110000", "095810.114000", "095810.116000", "095810.119000", "095810.122000", "095810.125000", "095810.127000", "095810.130000", "095810.132000", "095810.135000", "095810.137000", "095810.140000", "095810.142000", "095810.145000", "095850.095000", "095850.098000", "095850.101000", "095850.103000", "095850.106000", "095850.109000", "095850.111000", "095850.114000", "095850.116000", "095850.119000", "095850.122000", "095850.125000", "095850.127000", "095850.130000", "095850.132000", "095850.135000", "095850.137000", "095850.140000", "095850.143000", "095850.145000", "095910.096000", "095910.098000", "095910.101000", "095910.104000", "095910.106000", "095910.109000", "095910.111000", "095910.114000", "095910.116000", "095910.119000", "095921.557000", "095921.560000", "095921.563000", "095921.565000", "095921.568000", "095921.570000"],
      "InstanceNumber": [1, 2, 3, 4, 5, 6, 7, 8, 9, 10, 11, 12, 13, 14, 15, 16, 17, 18, 19, 20, 21, 22, 23, 24, 25, 26, 27, 28, 29, 30, 31, 32, 33, 34, 35, 36, 37, 38, 39, 40, 41, 42, 43, 44, 45, 46, 47, 48, 49, 50, 51, 52, 53, 54, 55, 56, 57, 58, 59, 60, 61, 62, 63, 64, 65, 66, 67, 68, 69, 70, 71, 72, 73, 74, 75, 76, 77, 78, 79, 80, 81, 82, 83, 84, 85, 86, 87, 88, 89, 90, 91, 92, 93, 94, 95, 96, 97, 98, 99, 100, 101, 102, 103, 104, 105, 106, 107, 108, 109, 110, 111, 112, 113, 114, 115, 116, 117, 118, 119, 120, 121, 122, 123, 124, 125, 126, 127, 128, 129, 130, 131, 132, 133, 134, 135, 136, 137, 138, 139, 140, 141, 142, 143, 144, 145, 146, 147, 148, 149, 150, 151, 152, 153, 154, 155, 156, 157, 158, 159, 160, 161, 162, 163, 164, 165, 166, 167, 168, 169, 170, 171, 172, 173, 174, 175, 176, 177, 178, 179, 180, 181, 182, 183, 184, 185, 186, 187, 188, 189, 190, 191, 192, 193, 194, 195, 196, 197, 198, 199, 200],
      "LargestImagePixelValue": [1984, 1984, 1985, 1984, 1985, 1986, 1984, 1984, 1982, 1985, 1983, 1984, 1983, 1982, 1982, 1984, 1984, 1984, 1982, 1983, 1982, 1985, 1983, 1983, 1984, 1982, 1983, 1984, 1982, 1982, 1982, 1982, 1984, 1982, 1982, 1980, 1982, 1982, 1982, 1982, 1983, 1981, 1979, 1981, 1980, 1981, 1981, 1982, 1982, 1982, 1981, 1982, 1982, 1982, 1984, 1982, 1981, 1982, 1982, 1984, 1982, 1981, 1982, 1980, 1979, 1982, 1980, 1979, 1980, 1981, 1981, 1980, 1981, 1980, 1980, 1981, 1979, 1979, 1981, 1981, 1982, 1981, 1981, 1981, 1980, 1980, 1980, 1980, 1982, 1980, 1980, 1980, 1980, 1980, 1980, 1980, 1980, 1979, 1981, 1980, 1980, 1981, 1979, 1982, 1980, 1981, 1981, 1980, 1981, 1980, 1981, 1980, 1981, 1980, 1980, 1979, 1980, 1981, 1980, 1981, 1981, 1980, 1979, 1979, 1979, 1980, 1980, 1980, 1980, 1979, 1981, 1981, 1979, 1979, 1980, 1980, 1980, 1979, 1978, 1978, 1979, 1981, 1979, 1977, 1980, 1980, 1980, 1979, 1979, 1980, 1977, 1981, 1980, 1980, 1980, 1981, 1980, 1977, 1979, 1979, 1979, 1980, 1979, 1981, 1978, 1979, 1979, 1980, 1979, 1978, 1979, 1980, 1979, 1979, 1980, 1980, 1979, 1980, 1980, 1979, 1981, 1978, 1978, 1978, 1979, 1980, 1979, 1980, 1977, 1979, 1980, 1978, 1979, 1978, 1979, 1978, 1980, 1979, 1981, 1980],
      "WindowCenter": [982.0, 982.0, 982.0, 981.0, 980.0, 982.0, 982.0, 982.0, 982.0, 981.0, 980.0, 981.0, 981.0, 981.0, 981.0, 982.0, 982.0, 982.0, 982.0, 981.0, 981.0, 980.0, 982.0, 982.0, 982.0, 980.0, 982.0, 982.0, 982.0, 981.0, 981.0, 980.0, 982.0, 980.0, 982.0, 981.0, 981.0, 980.0, 982.0, 981.0, 981.0, 981.0, 981.0, 981.0, 982.0, 981.0, 981.0, 979.0, 981.0, 981.0, 981.0, 981.0, 982.0, 981.0, 981.0, 981.0, 980.0, 981.0, 981.0, 980.0, 981.0, 981.0, 981.0, 981.0, 979.0, 981.0, 981.0, 981.0, 981.0, 980.0, 980.0, 981.0, 980.0, 980.0, 980.0, 980.0, 980.0, 981.0, 980.0, 981.0, 981.0, 981.0, 981.0, 980.0, 981.0, 981.0, 980.0, 981.0, 981.0, 981.0, 982.0, 980.0, 978.0, 981.0, 981.0, 981.0, 981.0, 980.0, 979.0, 979.0, 980.0, 981.0, 981.0, 981.0, 980.0, 980.0, 980.0, 981.0, 981.0, 981.0, 980.0, 980.0, 981.0, 980.0, 980.0, 980.0, 980.0, 980.0, 980.0, 980.0, 980.0, 979.0, 980.0, 980.0, 980.0, 980.0, 980.0, 979.0, 980.0, 980.0, 980.0, 980.0, 980.0, 980.0, 979.0, 979.0, 980.0, 979.0, 980.0, 980.0, 979.0, 980.0, 980.0, 980.0, 979.0, 980.0, 980.0, 979.0, 979.0, 981.0, 980.0, 979.0, 980.0, 979.0, 980.0, 980.0, 980.0, 980.0, 980.0, 980.0, 980.0, 980.0, 979.0, 979.0, 980.0, 979.0, 980.0, 980.0, 980.0, 981.0, 979.0, 981.0, 980.0, 980.0, 980.0, 980.0, 978.0, 978.0, 979.0, 980.0, 979.0, 980.0, 980.0, 980.0, 980.0, 980.0, 979.0, 980.0, 979.0, 978.0, 980.0, 980.0, 980.0, 980.0, 980.0, 980.0, 979.0, 980.0, 980.0, 979.0],
      "WindowWidth": [2151.0, 2151.0, 2151.0, 2151.0, 2150.0, 2152.0, 2152.0, 2152.0, 2152.0, 2151.0, 2149.0, 2150.0, 2150.0, 2150.0, 2150.0, 2151.0, 2152.0, 2151.0, 2151.0, 2150.0, 2150.0, 2149.0, 2151.0, 2151.0, 2151.0, 2149.0, 2151.0, 2151.0, 2151.0, 2150.0, 2150.0, 2149.0, 2150.0, 2149.0, 2150.0, 2149.0, 2149.0, 2149.0, 2150.0, 2149.0, 2149.0, 2149.0, 2149.0, 2149.0, 2150.0, 2149.0, 2149.0, 2148.0, 2149.0, 2149.0, 2149.0, 2149.0, 2150.0, 2149.0, 2149.0, 2149.0, 2149.0, 2149.0, 2149.0, 2148.0, 2149.0, 2149.0, 2149.0, 2149.0, 2148.0, 2149.0, 2149.0, 2149.0, 2149.0, 2148.0, 2148.0, 2149.0, 2148.0, 2148.0, 2149.0, 2149.0, 2149.0, 2149.0, 2148.0, 2149.0, 2149.0, 2149.0, 2149.0, 2148.0, 2149.0, 2149.0, 2148.0, 2149.0, 2149.0, 2149.0, 2150.0, 2148.0, 2147.0, 2149.0, 2149.0, 2149.0, 2149.0, 2148.0, 2147.0, 2148.0, 2148.0, 2149.0, 2149.0, 2149.0, 2148.0, 2148.0, 2148.0, 2149.0, 2149.0, 2149.0, 2149.0, 2149.0, 2149.0, 2149.0, 2148.0, 2149.0, 2148.0, 2149.0, 2147.0, 2148.0, 2147.0, 2148.0, 2148.0, 2147.0, 2148.0, 2148.0, 2149.0, 2148.0, 2148.0, 2148.0, 2148.0, 2148.0, 2148.0, 2148.0, 2147.0, 2147.0, 2148.0, 2147.0, 2148.0, 2148.0, 2147.0, 2148.0, 2148.0, 2148.0, 2147.0, 2148.0, 2148.0, 2147.0, 2147.0, 2149.0, 2148.0, 2147.0, 2148.0, 2147.0, 2148.0, 2148.0, 2148.0, 2148.0, 2148.0, 2148.0, 2148.0, 2148.0, 2148.0, 2147.0, 2148.0, 2147.0, 2148.0, 2148.0, 2148.0, 2149.0, 2147.0, 2148.0, 2148.0, 2148.0, 2148.0, 2148.0, 2146.0, 2146.0, 2147.0, 2148.0, 2147.0, 2148.0, 2148.0, 2148.0, 2148.0, 2148.0, 2147.0, 2148.0, 2147.0, 2146.0, 2148.0, 2148.0, 2148.0, 2148.0, 2148.0, 2148.0, 2147.0, 2148.0, 2148.0, 2147.0]
    },
    "slices": {}
  }
}