{
  "AcquisitionMatrixPE": 80,
  "AcquisitionNumber": 1,
  "AcquisitionTime": "09:38:57.495000",
  "BandwidthPerPixelPhaseEncode": 48.077,
  "BaseResolution": 80,
  "BodyPartExamined": "BRAIN",
  "CoilCombinationMethod": "Sum of Squares",
  "ConsistencyInfo": "N4_VE11C_LATEST_20160120",
  "ConversionSoftware": "dcm2niix",
  "ConversionSoftwareVersion": "v1.0.20220720",
  "DerivedVendorReportedEchoSpacing": 0.000519999,
  "DeviceSerialNumber": "66112",
  "DwellTime": 2.7e-06,
  "EchoTime": 0.035,
  "EchoTrainLength": 39,
  "EffectiveEchoSpacing": 0.00026,
  "FlipAngle": 90,
  "HeudiconvVersion": "0.13.1",
  "ImageOrientationPatientDICOM": [0.983219, 0.182188, 0.00941461, -0.176555, 0.937288, 0.300532],
  "ImageOrientationText": "Tra>Cor(17.3)>Sag(-2.6)",
  "ImageType": [
    "ORIGINAL",
    "PRIMARY",
    "M",
    "ND",
    "NORM",
    "MOSAIC"
],
  "ImagingFrequency": 123.252,
  "InPlanePhaseEncodingDirectionDICOM": "COL",
  "InstitutionAddress": "Maynard 3,Hanover,NH,US,03755",
  "InstitutionName": "Dartmouth College - PBS",
  "InstitutionalDepartmentName": "Department",
  "MRAcquisitionType": "2D",
  "MagneticFieldStrength": 3,
  "Manufacturer": "Siemens",
  "ManufacturersModelName": "Prisma",
  "MatrixCoilMode": "GRAPPA",
  "Modality": "MR",
  "NonlinearGradientCorrection": false,
  "ParallelReductionFactorInPlane": 2,
  "PartialFourier": 1,
  "PatientPosition": "HFS",
  "PercentPhaseFOV": 100,
  "PercentSampling": 100,
  "PhaseEncodingDirection": "j-",
  "PhaseEncodingSteps": 79,
  "PhaseResolution": 1,
  "PixelBandwidth": 2315,
  "ProcedureStepDescription": "dbic^QA",
  "ProtocolName": "func-bold_task-rest_acq-p2",
  "PulseSequenceDetails": "%SiemensSeq%\\ep2d_bold",
  "ReceiveCoilActiveElements": "HEA;HEP",
  "ReceiveCoilName": "Head_32",
  "ReconMatrixPE": 80,
  "RefLinesPE": 24,
  "RepetitionTime": 2,
  "SAR": 0.0556083,
  "ScanOptions": "FS",
  "ScanningSequence": "EP",
  "SequenceName": "*epfid2d1_80",
  "SequenceVariant": "SK",
  "SeriesDescription": "func-bold_task-rest_acq-p2",
  "SeriesNumber": 5,
  "ShimSetting": [4143, -7693, -7513, 270, -59, -85, -19, 58],
  "SliceThickness": 3.5,
  "SliceTiming": [0.99, 0, 1.055, 0.065, 1.1225, 0.1325, 1.1875, 0.1975, 1.2525, 0.2625, 1.32, 0.33, 1.385, 0.395, 1.4525, 0.4625, 1.5175, 0.5275, 1.5825, 0.5925, 1.65, 0.66, 1.715, 0.725, 1.7825, 0.7925, 1.8475, 0.8575, 1.9125, 0.9225],
  "SoftwareVersions": "syngo MR E11",
  "SpacingBetweenSlices": 3.99,
  "StationName": "AWP66112",
  "TaskName": "rest",
  "TotalReadoutTime": 0.02054,
  "TxRefAmp": 224.328,
  "dcmmeta_affine": [
    [-2.9496560096740723, -0.5296642184257507, -0.18325713276863098, 144.3874969482422],
    [-0.5465636253356934, 2.811864137649536, 1.1856324672698975, -96.93046569824219],
    [0.028243834152817726, -0.9015963077545166, 3.805363655090332, -17.54850959777832],
    [0.0, 0.0, 0.0, 1.0]
],
  "dcmmeta_reorient_transform": [
    [0.0, -1.0, 0.0, 79.0],
    [1.0, 0.0, 0.0, 0.0],
    [0.0, 0.0, 1.0, 0.0],
    [0.0, 0.0, 0.0, 1.0]
],
  "dcmmeta_shape": [80, 80, 30, 200],
  "dcmmeta_slice_dim": 2,
  "dcmmeta_version": 0.6,
  "global": {
    "const": {
      "AccessionNumber": "qa",
      "AcquisitionMatrix": [80, 0, 0, 80],
      "AngioFlag": "N",
      "BitsAllocated": 16,
      "BitsStored": 12,
      "BodyPartExamined": "BRAIN",
      "Columns": 480,
      "EchoNumbers": 1,
      "EchoTime": 35.0,
      "EchoTrainLength": 39,
      "FlipAngle": 90.0,
      "HighBit": 11,
      "ImageOrientationPatient": [0.98321866467684, 0.18218787699755, 0.00941461131555, -0.1765547359397, 0.9372880430778, 0.30053211063157],
      "ImagePositionPatient": [-586.54237864727, -796.89235144198, -274.74265252775],
      "ImageType": [
        "ORIGINAL",
        "PRIMARY",
        "M",
        "ND",
        "NORM",
        "MOSAIC"
],
      "ImagedNucleus": "1H",
      "ImagingFrequency": 123.252368,
      "InPlanePhaseEncodingDirection": "COL",
      "MRAcquisitionType": "2D",
      "MagneticFieldStrength": 3.0,
      "Manufacturer": "SIEMENS",
      "ManufacturerModelName": "Prisma",
      "Modality": "MR",
      "NumberOfAverages": 1.0,
      "NumberOfPhaseEncodingSteps": 79,
      "PercentPhaseFieldOfView": 100.0,
      "PercentSampling": 100.0,
      "PerformedProcedureStepStartTime": "093403.119000",
      "PhotometricInterpretation": "MONOCHROME2",
      "PixelBandwidth": 2315.0,
      "PixelRepresentation": 0,
      "PixelSpacing": [3.0, 3.0],
      "ProtocolName": "func-bold_task-rest_acq-p2",
      "RepetitionTime": 2000.0,
      "Rows": 480,
      "SAR": 0.05560829669844,
      "SamplesPerPixel": 1,
      "ScanOptions": "FS",
      "ScanningSequence": "EP",
      "SequenceName": "*epfid2d1_80",
      "SequenceVariant": "SK",
      "SeriesDescription": "func-bold_task-rest_acq-p2",
      "SeriesNumber": 5,
      "SeriesTime": "093930.165000",
      "SliceLocation": -52.171026925725,
      "SliceThickness": 3.5,
      "SmallestImagePixelValue": 0,
      "SoftwareVersions": "syngo MR E11",
      "SpacingBetweenSlices": 3.9900000835126,
      "SpecificCharacterSet": "ISO_IR 100",
      "StudyID": "32",
      "StudyTime": "093403.063000",
      "TransmitCoilName": "Body",
      "VariableFlipAngleFlag": "N",
      "WindowCenterWidthExplanation": "Algo1",
      "dBdt": 0.0},
    "slices": {}
  },
  "time": {
    "samples": {
      "AcquisitionNumber": [1, 2, 3, 4, 5, 6, 7, 8, 9, 10, 11, 12, 13, 14, 15, 16, 17, 18, 19, 20, 21, 22, 23, 24, 25, 26, 27, 28, 29, 30, 31, 32, 33, 34, 35, 36, 37, 38, 39, 40, 41, 42, 43, 44, 45, 46, 47, 48, 49, 50, 51, 52, 53, 54, 55, 56, 57, 58, 59, 60, 61, 62, 63, 64, 65, 66, 67, 68, 69, 70, 71, 72, 73, 74, 75, 76, 77, 78, 79, 80, 81, 82, 83, 84, 85, 86, 87, 88, 89, 90, 91, 92, 93, 94, 95, 96, 97, 98, 99, 100, 101, 102, 103, 104, 105, 106, 107, 108, 109, 110, 111, 112, 113, 114, 115, 116, 117, 118, 119, 120, 121, 122, 123, 124, 125, 126, 127, 128, 129, 130, 131, 132, 133, 134, 135, 136, 137, 138, 139, 140, 141, 142, 143, 144, 145, 146, 147, 148, 149, 150, 151, 152, 153, 154, 155, 156, 157, 158, 159, 160, 161, 162, 163, 164, 165, 166, 167, 168, 169, 170, 171, 172, 173, 174, 175, 176, 177, 178, 179, 180, 181, 182, 183, 184, 185, 186, 187, 188, 189, 190, 191, 192, 193, 194, 195, 196, 197, 198, 199, 200],
      "AcquisitionTime": ["093857.495000", "093859.495000", "093901.495000", "093903.495000", "093905.495000", "093907.495000", "093909.495000", "093911.495000", "093913.495000", "093915.495000", "093917.495000", "093919.495000", "093921.495000", "093923.495000", "093925.495000", "093927.495000", "093929.495000", "093931.495000", "093933.495000", "093935.495000", "093937.495000", "093939.495000", "093941.495000", "093943.495000", "093945.495000", "093947.495000", "093949.495000", "093951.495000", "093953.495000", "093955.495000", "093957.495000", "093959.495000", "094001.495000", "094003.495000", "094005.495000", "094007.495000", "094009.495000", "094011.495000", "094013.495000", "094015.495000", "094017.495000", "094019.495000", "094021.495000", "094023.495000", "094025.495000", "094027.495000", "094029.495000", "094031.495000", "094033.495000", "094035.495000", "094037.495000", "094039.495000", "094041.495000", "094043.495000", "094045.495000", "094047.495000", "094049.495000", "094051.495000", "094053.495000", "094055.495000", "094057.495000", "094059.495000", "094101.495000", "094103.495000", "094105.495000", "094107.495000", "094109.495000", "094111.495000", "094113.495000", "094115.495000", "094117.495000", "094119.495000", "094121.495000", "094123.495000", "094125.495000", "094127.495000", "094129.495000", "094131.495000", "094133.495000", "094135.495000", "094137.495000", "094139.495000", "094141.495000", "094143.495000", "094145.495000", "094147.495000", "094149.495000", "094151.495000", "094153.495000", "094155.495000", "094157.495000", "094159.495000", "094201.495000", "094203.495000", "094205.495000", "094207.495000", "094209.495000", "094211.495000", "094213.495000", "094215.495000", "094217.495000", "094219.495000", "094221.495000", "094223.495000", "094225.495000", "094227.495000", "094229.495000", "094231.495000", "094233.495000", "094235.495000", "094237.495000", "094239.495000", "094241.495000", "094243.495000", "094245.495000", "094247.495000", "094249.495000", "094251.495000", "094253.495000", "094255.495000", "094257.495000", "094259.495000", "094301.495000", "094303.495000", "094305.495000", "094307.495000", "094309.495000", "094311.495000", "094313.495000", "094315.495000", "094317.495000", "094319.495000", "094321.495000", "094323.495000", "094325.495000", "094327.495000", "094329.495000", "094331.495000", "094333.495000", "094335.495000", "094337.495000", "094339.495000", "094341.495000", "094343.495000", "094345.495000", "094347.495000", "094349.495000", "094351.495000", "094353.495000", "094355.495000", "094357.495000", "094359.495000", "094401.495000", "094403.495000", "094405.495000", "094407.495000", "094409.495000", "094411.495000", "094413.495000", "094415.495000", "094417.495000", "094419.495000", "094421.495000", "094423.495000", "094425.495000", "094427.495000", "094429.495000", "094431.495000", "094433.495000", "094435.495000", "094437.495000", "094439.495000", "094441.495000", "094443.495000", "094445.495000", "094447.495000", "094449.495000", "094451.495000", "094453.495000", "094455.495000", "094457.495000", "094459.495000", "094501.495000", "094503.495000", "094505.495000", "094507.495000", "094509.495000", "094511.495000", "094513.495000", "094515.495000", "094517.495000", "094519.495000", "094521.495000", "094523.495000", "094525.495000", "094527.495000", "094529.495000", "094531.495000", "094533.495000", "094535.495000"],
      "ContentTime": ["093930.168000", "093930.172000", "093930.174000", "093930.177000", "093930.180000", "093930.182000", "093930.194000", "093930.196000", "093930.199000", "093930.201000", "093930.204000", "093930.206000", "093930.209000", "093930.212000", "093930.214000", "093930.217000", "094010.164000", "094010.167000", "094010.178000", "094010.181000", "094010.183000", "094010.186000", "094010.188000", "094010.191000", "094010.193000", "094010.196000", "094010.199000", "094010.201000", "094010.204000", "094010.206000", "094010.209000", "094010.212000", "094010.214000", "094010.217000", "094010.219000", "094010.222000", "094050.165000", "094050.167000", "094050.170000", "094050.173000", "094050.175000", "094050.178000", "094050.181000", "094050.183000", "094050.186000", "094050.188000", "094050.191000", "094050.194000", "094050.196000", "094050.199000", "094050.201000", "094050.204000", "094050.206000", "094050.209000", "094050.212000", "094050.214000", "094130.164000", "094130.166000", "094130.169000", "094130.172000", "094130.174000", "094130.177000", "094130.180000", "094130.182000", "094130.185000", "094130.187000", "094130.190000", "094130.193000", "094130.195000", "094130.198000", "094130.200000", "094130.203000", "094130.206000", "094130.208000", "094130.211000", "094130.213000", "094210.165000", "094210.167000", "094210.170000", "094210.173000", "094210.175000", "094210.178000", "094210.181000", "094210.183000", "094210.186000", "094210.188000", "094210.191000", "094210.193000", "094210.196000", "094210.199000", "094210.201000", "094210.204000", "094210.206000", "094210.209000", "094210.212000", "094210.214000", "094250.164000", "094250.167000", "094250.170000", "094250.173000", "094250.175000", "094250.178000", "094250.189000", "094250.191000", "094250.194000", "094250.197000", "094250.199000", "094250.202000", "094250.204000", "094250.207000", "094250.210000", "094250.212000", "094250.215000", "094250.217000", "094250.220000", "094250.222000", "094330.163000", "094330.166000", "094330.169000", "094330.172000", "094330.174000", "094330.177000", "094330.180000", "094330.182000", "094330.185000", "094330.187000", "094330.190000", "094330.193000", "094330.195000", "094330.198000", "094330.201000", "094330.203000", "094330.206000", "094330.208000", "094330.211000", "094330.213000", "094410.164000", "094410.166000", "094410.169000", "094410.172000", "094410.174000", "094410.177000", "094410.180000", "094410.182000", "094410.185000", "094410.187000", "094410.190000", "094410.193000", "094410.195000", "094410.198000", "094410.201000", "094410.203000", "094410.206000", "094410.208000", "094410.211000", "094410.214000", "094450.165000", "094450.167000", "094450.170000", "094450.173000", "094450.175000", "094450.178000", "094450.181000", "094450.184000", "094450.186000", "094450.189000", "094450.191000", "094450.194000", "094450.197000", "094450.199000", "094450.202000", "094450.205000", "094450.207000", "094450.210000", "094450.212000", "094450.215000", "094530.165000", "094530.167000", "094530.170000", "094530.173000", "094530.175000", "094530.178000", "094530.181000", "094530.183000", "094530.186000", "094530.189000", "094530.191000", "094530.194000", "094530.197000", "094530.199000", "094530.202000", "094530.204000", "094530.207000", "094530.209000", "094530.212000", "094530.215000", "094537.107000", "094537.110000", "094537.113000", "094537.115000"],
      "InstanceCreationTime": ["093930.168000", "093930.172000", "093930.174000", "093930.177000", "093930.180000", "093930.182000", "093930.194000", "093930.196000", "093930.199000", "093930.201000", "093930.204000", "093930.206000", "093930.209000", "093930.212000", "093930.214000", "093930.217000", "094010.164000", "094010.167000", "094010.178000", "094010.181000", "094010.183000", "094010.186000", "094010.188000", "094010.191000", "094010.193000", "094010.196000", "094010.199000", "094010.201000", "094010.204000", "094010.206000", "094010.209000", "094010.212000", "094010.214000", "094010.217000", "094010.219000", "094010.222000", "094050.165000", "094050.167000", "094050.170000", "094050.173000", "094050.175000", "094050.178000", "094050.181000", "094050.183000", "094050.186000", "094050.188000", "094050.191000", "094050.194000", "094050.196000", "094050.199000", "094050.201000", "094050.204000", "094050.206000", "094050.209000", "094050.212000", "094050.214000", "094130.164000", "094130.166000", "094130.169000", "094130.172000", "094130.174000", "094130.177000", "094130.180000", "094130.182000", "094130.185000", "094130.187000", "094130.190000", "094130.193000", "094130.195000", "094130.198000", "094130.200000", "094130.203000", "094130.206000", "094130.208000", "094130.211000", "094130.213000", "094210.165000", "094210.167000", "094210.170000", "094210.173000", "094210.175000", "094210.178000", "094210.181000", "094210.183000", "094210.186000", "094210.188000", "094210.191000", "094210.193000", "094210.196000", "094210.199000", "094210.201000", "094210.204000", "094210.206000", "094210.209000", "094210.212000", "094210.214000", "094250.164000", "094250.167000", "094250.170000", "094250.173000", "094250.175000", "094250.178000", "094250.189000", "094250.191000", "094250.194000", "094250.197000", "094250.199000", "094250.202000", "094250.204000", "094250.207000", "094250.210000", "094250.212000", "094250.215000", "094250.217000", "094250.220000", "094250.222000", "094330.163000", "094330.166000", "094330.169000", "094330.172000", "094330.174000", "094330.177000", "094330.180000", "094330.182000", "094330.185000", "094330.187000", "094330.190000", "094330.193000", "094330.195000", "094330.198000", "094330.201000", "094330.203000", "094330.206000", "094330.208000", "094330.211000", "094330.213000", "094410.164000", "094410.166000", "094410.169000", "094410.172000", "094410.174000", "094410.177000", "094410.180000", "094410.182000", "094410.185000", "094410.187000", "094410.190000", "094410.193000", "094410.195000", "094410.198000", "094410.201000", "094410.203000", "094410.206000", "094410.208000", "094410.211000", "094410.214000", "094450.165000", "094450.167000", "094450.170000", "094450.173000", "094450.175000", "094450.178000", "094450.181000", "094450.184000", "094450.186000", "094450.189000", "094450.191000", "094450.194000", "094450.197000", "094450.199000", "094450.202000", "094450.205000", "094450.207000", "094450.210000", "094450.212000", "094450.215000", "094530.165000", "094530.167000", "094530.170000", "094530.173000", "094530.175000", "094530.178000", "094530.181000", "094530.183000", "094530.186000", "094530.189000", "094530.191000", "094530.194000", "094530.197000", "094530.199000", "094530.202000", "094530.204000", "094530.207000", "094530.209000", "094530.212000", "094530.215000", "094537.107000", "094537.110000", "094537.113000", "094537.115000"],
      "InstanceNumber": [1, 2, 3, 4, 5, 6, 7, 8, 9, 10, 11, 12, 13, 14, 15, 16, 17, 18, 19, 20, 21, 22, 23, 24, 25, 26, 27, 28, 29, 30, 31, 32, 33, 34, 35, 36, 37, 38, 39, 40, 41, 42, 43, 44, 45, 46, 47, 48, 49, 50, 51, 52, 53, 54, 55, 56, 57, 58, 59, 60, 61, 62, 63, 64, 65, 66, 67, 68, 69, 70, 71, 72, 73, 74, 75, 76, 77, 78, 79, 80, 81, 82, 83, 84, 85, 86, 87, 88, 89, 90, 91, 92, 93, 94, 95, 96, 97, 98, 99, 100, 101, 102, 103, 104, 105, 106, 107, 108, 109, 110, 111, 112, 113, 114, 115, 116, 117, 118, 119, 120, 121, 122, 123, 124, 125, 126, 127, 128, 129, 130, 131, 132, 133, 134, 135, 136, 137, 138, 139, 140, 141, 142, 143, 144, 145, 146, 147, 148, 149, 150, 151, 152, 153, 154, 155, 156, 157, 158, 159, 160, 161, 162, 163, 164, 165, 166, 167, 168, 169, 170, 171, 172, 173, 174, 175, 176, 177, 178, 179, 180, 181, 182, 183, 184, 185, 186, 187, 188, 189, 190, 191, 192, 193, 194, 195, 196, 197, 198, 199, 200],
      "LargestImagePixelValue": [2042, 2048, 2036, 2042, 2040, 2039, 2034, 2048, 2044, 2038, 2044, 2039, 2044, 2036, 2045, 2044, 2046, 2046, 2051, 2040, 2046, 2034, 2039, 2043, 2047, 2043, 2044, 2040, 2041, 2042, 2048, 2041, 2040, 2042, 2042, 2038, 2042, 2047, 2047, 2045, 2042, 2045, 2036, 2042, 2049, 2052, 2048, 2044, 2043, 2045, 2045, 2045, 2048, 2049, 2049, 2044, 2045, 2045, 2047, 2046, 2046, 2047, 2042, 2045, 2038, 2045, 2046, 2047, 2047, 2050, 2043, 2049, 2043, 2042, 2039, 2042, 2040, 2050, 2042, 2043, 2051, 2043, 2055, 2043, 2051, 2048, 2043, 2045, 2038, 2043, 2047, 2043, 2039, 2043, 2039, 2049, 2042, 2042, 2045, 2048, 2039, 2044, 2048, 2046, 2047, 2035, 2042, 2044, 2042, 2039, 2044, 2038, 2047, 2038, 2050, 2044, 2046, 2043, 2048, 2045, 2050, 2041, 2052, 2055, 2044, 2042, 2047, 2050, 2042, 2048, 2042, 2049, 2046, 2043, 2044, 2045, 2046, 2052, 2049, 2043, 2047, 2048, 2044, 2045, 2050, 2041, 2046, 2042, 2040, 2042, 2047, 2043, 2048, 2040, 2045, 2052, 2051, 2050, 2046, 2049, 2049, 2041, 2043, 2041, 2045, 2041, 2039, 2046, 2039, 2045, 2046, 2050, 2044, 2045, 2045, 2048, 2052, 2044, 2044, 2043, 2044, 2045, 2045, 2040, 2041, 2050, 2044, 2044, 2044, 2041, 2040, 2033, 2038, 2046, 2040, 2036, 2043, 2041, 2044, 2044],
      "WindowCenter": [991.0, 991.0, 991.0, 992.0, 992.0, 991.0, 992.0, 992.0, 993.0, 991.0, 993.0, 992.0, 992.0, 992.0, 992.0, 993.0, 993.0, 992.0, 991.0, 992.0, 992.0, 991.0, 992.0, 991.0, 991.0, 992.0, 992.0, 992.0, 992.0, 992.0, 991.0, 992.0, 992.0, 991.0, 991.0, 991.0, 993.0, 992.0, 991.0, 991.0, 991.0, 991.0, 992.0, 992.0, 992.0, 992.0, 991.0, 992.0, 992.0, 991.0, 991.0, 991.0, 991.0, 992.0, 992.0, 991.0, 992.0, 991.0, 991.0, 992.0, 991.0, 992.0, 991.0, 992.0, 991.0, 991.0, 992.0, 991.0, 991.0, 991.0, 992.0, 992.0, 991.0, 991.0, 991.0, 991.0, 992.0, 991.0, 991.0, 991.0, 991.0, 991.0, 991.0, 991.0, 991.0, 991.0, 991.0, 991.0, 991.0, 991.0, 991.0, 990.0, 991.0, 991.0, 991.0, 990.0, 991.0, 990.0, 992.0, 991.0, 990.0, 990.0, 990.0, 991.0, 991.0, 990.0, 991.0, 991.0, 991.0, 991.0, 993.0, 990.0, 990.0, 990.0, 990.0, 990.0, 990.0, 992.0, 991.0, 990.0, 990.0, 991.0, 990.0, 990.0, 990.0, 991.0, 991.0, 990.0, 991.0, 990.0, 991.0, 991.0, 990.0, 991.0, 990.0, 990.0, 991.0, 990.0, 990.0, 992.0, 991.0, 991.0, 991.0, 990.0, 990.0, 991.0, 992.0, 991.0, 991.0, 990.0, 991.0, 990.0, 991.0, 991.0, 991.0, 991.0, 990.0, 990.0, 990.0, 990.0, 990.0, 991.0, 991.0, 991.0, 990.0, 990.0, 990.0, 990.0, 991.0, 990.0, 990.0, 992.0, 990.0, 991.0, 991.0, 990.0, 990.0, 990.0, 991.0, 991.0, 991.0, 991.0, 991.0, 991.0, 990.0, 990.0, 991.0, 991.0, 990.0, 991.0, 992.0, 991.0, 990.0, 991.0, 991.0, 991.0, 991.0, 990.0, 990.0, 991.0],
      "WindowWidth": [2182.0, 2181.0, 2181.0, 2182.0, 2181.0, 2181.0, 2181.0, 2181.0, 2182.0, 2180.0, 2182.0, 2181.0, 2181.0, 2181.0, 2181.0, 2182.0, 2182.0, 2181.0, 2180.0, 2181.0, 2181.0, 2180.0, 2181.0, 2180.0, 2180.0, 2181.0, 2181.0, 2181.0, 2181.0, 2181.0, 2180.0, 2181.0, 2181.0, 2180.0, 2180.0, 2180.0, 2181.0, 2181.0, 2179.0, 2179.0, 2179.0, 2180.0, 2180.0, 2180.0, 2180.0, 2180.0, 2180.0, 2180.0, 2180.0, 2179.0, 2179.0, 2179.0, 2179.0, 2180.0, 2180.0, 2179.0, 2180.0, 2180.0, 2179.0, 2180.0, 2179.0, 2180.0, 2180.0, 2180.0, 2179.0, 2179.0, 2181.0, 2180.0, 2179.0, 2179.0, 2180.0, 2180.0, 2180.0, 2179.0, 2180.0, 2179.0, 2180.0, 2179.0, 2179.0, 2179.0, 2179.0, 2179.0, 2179.0, 2178.0, 2180.0, 2178.0, 2179.0, 2179.0, 2179.0, 2180.0, 2180.0, 2179.0, 2178.0, 2179.0, 2180.0, 2179.0, 2180.0, 2179.0, 2180.0, 2179.0, 2178.0, 2179.0, 2179.0, 2180.0, 2178.0, 2178.0, 2179.0, 2179.0, 2178.0, 2179.0, 2180.0, 2178.0, 2178.0, 2178.0, 2178.0, 2178.0, 2178.0, 2180.0, 2178.0, 2178.0, 2179.0, 2179.0, 2179.0, 2178.0, 2178.0, 2179.0, 2179.0, 2178.0, 2179.0, 2178.0, 2179.0, 2179.0, 2178.0, 2179.0, 2178.0, 2178.0, 2178.0, 2178.0, 2177.0, 2179.0, 2178.0, 2179.0, 2179.0, 2178.0, 2177.0, 2179.0, 2179.0, 2179.0, 2179.0, 2177.0, 2178.0, 2178.0, 2178.0, 2178.0, 2178.0, 2178.0, 2177.0, 2178.0, 2177.0, 2177.0, 2177.0, 2178.0, 2178.0, 2178.0, 2177.0, 2177.0, 2177.0, 2177.0, 2178.0, 2177.0, 2177.0, 2179.0, 2177.0, 2178.0, 2178.0, 2177.0, 2177.0, 2177.0, 2178.0, 2178.0, 2178.0, 2178.0, 2178.0, 2178.0, 2177.0, 2177.0, 2178.0, 2178.0, 2177.0, 2178.0, 2178.0, 2178.0, 2177.0, 2178.0, 2178.0, 2178.0, 2178.0, 2177.0, 2176.0, 2178.0]
    },
    "slices": {}
  }
}