{
  "AcquisitionMatrixPE": 80,
  "AcquisitionNumber": 1,
  "AcquisitionTime": "10:06:42.780000",
  "BandwidthPerPixelPhaseEncode": 48.077,
  "BaseResolution": 80,
  "BodyPartExamined": "BRAIN",
  "CoilCombinationMethod": "Sum of Squares",
  "ConsistencyInfo": "N4_VE11C_LATEST_20160120",
  "ConversionSoftware": "dcm2niix",
  "ConversionSoftwareVersion": "v1.0.20220720",
  "DerivedVendorReportedEchoSpacing": 0.000519999,
  "DeviceSerialNumber": "66112",
  "DwellTime": 2.7e-06,
  "EchoTime": 0.035,
  "EchoTrainLength": 39,
  "EffectiveEchoSpacing": 0.00026,
  "FlipAngle": 90,
  "HeudiconvVersion": "0.13.1",
  "ImageOrientationPatientDICOM": [0.999972, 0.00610326, 0.00444025, -0.00715578, 0.953722, 0.300604],
  "ImageOrientationText": "Tra>Cor(17.5)>Sag(0.1)",
  "ImageType": [
    "ORIGINAL",
    "PRIMARY",
    "M",
    "ND",
    "NORM",
    "MOSAIC"
],
  "ImagingFrequency": 123.252,
  "InPlanePhaseEncodingDirectionDICOM": "COL",
  "InstitutionAddress": "Maynard 3,Hanover,NH,US,03755",
  "InstitutionName": "Dartmouth College - PBS",
  "InstitutionalDepartmentName": "Department",
  "MRAcquisitionType": "2D",
  "MagneticFieldStrength": 3,
  "Manufacturer": "Siemens",
  "ManufacturersModelName": "Prisma",
  "MatrixCoilMode": "GRAPPA",
  "Modality": "MR",
  "NonlinearGradientCorrection": false,
  "ParallelReductionFactorInPlane": 2,
  "PartialFourier": 1,
  "PatientPosition": "HFS",
  "PercentPhaseFOV": 100,
  "PercentSampling": 100,
  "PhaseEncodingDirection": "j-",
  "PhaseEncodingSteps": 79,
  "PhaseResolution": 1,
  "PixelBandwidth": 2315,
  "ProcedureStepDescription": "dbic^QA",
  "ProtocolName": "func-bold_task-rest_acq-p2",
  "PulseSequenceDetails": "%SiemensSeq%\\ep2d_bold",
  "ReceiveCoilActiveElements": "HEA;HEP",
  "ReceiveCoilName": "Head_32",
  "ReconMatrixPE": 80,
  "RefLinesPE": 24,
  "RepetitionTime": 2,
  "SAR": 0.0556983,
  "ScanOptions": "FS",
  "ScanningSequence": "EP",
  "SequenceName": "*epfid2d1_80",
  "SequenceVariant": "SK",
  "SeriesDescription": "func-bold_task-rest_acq-p2",
  "SeriesNumber": 5,
  "ShimSetting": [4147, -7702, -7507, 478, -116, -222, -70, 147],
  "SliceThickness": 3.5,
  "SliceTiming": [0.99, 0, 1.055, 0.065, 1.12, 0.1325, 1.1875, 0.1975, 1.2525, 0.2625, 1.32, 0.33, 1.385, 0.395, 1.45, 0.4625, 1.5175, 0.5275, 1.5825, 0.5925, 1.65, 0.66, 1.715, 0.725, 1.78, 0.79, 1.8475, 0.8575, 1.9125, 0.9225],
  "SoftwareVersions": "syngo MR E11",
  "SpacingBetweenSlices": 3.99,
  "StationName": "AWP66112",
  "TaskName": "rest",
  "TotalReadoutTime": 0.02054,
  "TxRefAmp": 231.956,
  "dcmmeta_affine": [
    [-2.9999146461486816, -0.02146732807159424, 0.009576384909451008, 121.42420196533203],
    [-0.018309788778424263, 2.8611667156219482, 1.1995021104812622, -122.23981475830078],
    [0.013320736587047577, -0.9018116593360901, 3.805417537689209, -21.762836456298828],
    [0.0, 0.0, 0.0, 1.0]
],
  "dcmmeta_reorient_transform": [
    [0.0, -1.0, 0.0, 79.0],
    [1.0, 0.0, 0.0, 0.0],
    [0.0, 0.0, 1.0, 0.0],
    [0.0, 0.0, 0.0, 1.0]
],
  "dcmmeta_shape": [80, 80, 30, 200],
  "dcmmeta_slice_dim": 2,
  "dcmmeta_version": 0.6,
  "global": {
    "const": {
      "AccessionNumber": "qa",
      "AcquisitionMatrix": [80, 0, 0, 80],
      "AngioFlag": "N",
      "BitsAllocated": 16,
      "BitsStored": 12,
      "BodyPartExamined": "BRAIN",
      "Columns": 480,
      "EchoNumbers": 1,
      "EchoTime": 35.0,
      "EchoTrainLength": 39,
      "FlipAngle": 90.0,
      "HighBit": 11,
      "ImageOrientationPatient": [0.99997151679581, 0.00610326271094, 0.00444024564197, -0.0071557762701, 0.95372223197687, 0.30060389069177],
      "ImagePositionPatient": [-715.41772463562, -679.68764791564, -276.0324396288],
      "ImageType": [
        "ORIGINAL",
        "PRIMARY",
        "M",
        "ND",
        "NORM",
        "MOSAIC"
],
      "ImagedNucleus": "1H",
      "ImagingFrequency": 123.252438,
      "InPlanePhaseEncodingDirection": "COL",
      "MRAcquisitionType": "2D",
      "MagneticFieldStrength": 3.0,
      "Manufacturer": "SIEMENS",
      "ManufacturerModelName": "Prisma",
      "Modality": "MR",
      "NumberOfAverages": 1.0,
      "NumberOfPhaseEncodingSteps": 79,
      "PercentPhaseFieldOfView": 100.0,
      "PercentSampling": 100.0,
      "PerformedProcedureStepStartTime": "100511.935000",
      "PhotometricInterpretation": "MONOCHROME2",
      "PixelBandwidth": 2315.0,
      "PixelRepresentation": 0,
      "PixelSpacing": [3.0, 3.0],
      "ProtocolName": "func-bold_task-rest_acq-p2",
      "RepetitionTime": 2000.0,
      "Rows": 480,
      "SAR": 0.05569829357111,
      "SamplesPerPixel": 1,
      "ScanOptions": "FS",
      "ScanningSequence": "EP",
      "SequenceName": "*epfid2d1_80",
      "SequenceVariant": "SK",
      "SeriesDescription": "func-bold_task-rest_acq-p2",
      "SeriesNumber": 5,
      "SeriesTime": "100731.782000",
      "SliceLocation": -57.213231940215,
      "SliceThickness": 3.5,
      "SmallestImagePixelValue": 0,
      "SoftwareVersions": "syngo MR E11",
      "SpacingBetweenSlices": 3.9899999763142,
      "SpecificCharacterSet": "ISO_IR 100",
      "StudyID": "111",
      "StudyTime": "100511.849000",
      "TransmitCoilName": "Body",
      "VariableFlipAngleFlag": "N",
      "WindowCenterWidthExplanation": "Algo1",
      "dBdt": 0.0},
    "slices": {}
  },
  "time": {
    "samples": {
      "AcquisitionNumber": [1, 2, 3, 4, 5, 6, 7, 8, 9, 10, 11, 12, 13, 14, 15, 16, 17, 18, 19, 20, 21, 22, 23, 24, 25, 26, 27, 28, 29, 30, 31, 32, 33, 34, 35, 36, 37, 38, 39, 40, 41, 42, 43, 44, 45, 46, 47, 48, 49, 50, 51, 52, 53, 54, 55, 56, 57, 58, 59, 60, 61, 62, 63, 64, 65, 66, 67, 68, 69, 70, 71, 72, 73, 74, 75, 76, 77, 78, 79, 80, 81, 82, 83, 84, 85, 86, 87, 88, 89, 90, 91, 92, 93, 94, 95, 96, 97, 98, 99, 100, 101, 102, 103, 104, 105, 106, 107, 108, 109, 110, 111, 112, 113, 114, 115, 116, 117, 118, 119, 120, 121, 122, 123, 124, 125, 126, 127, 128, 129, 130, 131, 132, 133, 134, 135, 136, 137, 138, 139, 140, 141, 142, 143, 144, 145, 146, 147, 148, 149, 150, 151, 152, 153, 154, 155, 156, 157, 158, 159, 160, 161, 162, 163, 164, 165, 166, 167, 168, 169, 170, 171, 172, 173, 174, 175, 176, 177, 178, 179, 180, 181, 182, 183, 184, 185, 186, 187, 188, 189, 190, 191, 192, 193, 194, 195, 196, 197, 198, 199, 200],
      "AcquisitionTime": ["100642.780000", "100644.780000", "100646.780000", "100648.780000", "100650.780000", "100652.780000", "100654.780000", "100656.780000", "100658.780000", "100700.780000", "100702.780000", "100704.780000", "100706.780000", "100708.780000", "100710.780000", "100712.780000", "100714.780000", "100716.780000", "100718.780000", "100720.780000", "100722.780000", "100724.780000", "100726.780000", "100728.780000", "100730.780000", "100732.780000", "100734.780000", "100736.780000", "100738.780000", "100740.780000", "100742.780000", "100744.780000", "100746.780000", "100748.780000", "100750.780000", "100752.780000", "100754.780000", "100756.780000", "100758.780000", "100800.780000", "100802.780000", "100804.780000", "100806.780000", "100808.780000", "100810.780000", "100812.780000", "100814.780000", "100816.780000", "100818.780000", "100820.780000", "100822.780000", "100824.780000", "100826.780000", "100828.780000", "100830.780000", "100832.780000", "100834.780000", "100836.780000", "100838.780000", "100840.780000", "100842.780000", "100844.780000", "100846.780000", "100848.780000", "100850.780000", "100852.780000", "100854.780000", "100856.780000", "100858.780000", "100900.780000", "100902.780000", "100904.780000", "100906.780000", "100908.780000", "100910.780000", "100912.780000", "100914.780000", "100916.780000", "100918.780000", "100920.780000", "100922.780000", "100924.780000", "100926.780000", "100928.780000", "100930.780000", "100932.780000", "100934.780000", "100936.780000", "100938.780000", "100940.780000", "100942.780000", "100944.780000", "100946.780000", "100948.780000", "100950.780000", "100952.780000", "100954.780000", "100956.780000", "100958.780000", "101000.780000", "101002.780000", "101004.780000", "101006.780000", "101008.780000", "101010.780000", "101012.780000", "101014.780000", "101016.780000", "101018.780000", "101020.780000", "101022.780000", "101024.780000", "101026.780000", "101028.780000", "101030.780000", "101032.780000", "101034.780000", "101036.780000", "101038.780000", "101040.780000", "101042.780000", "101044.780000", "101046.780000", "101048.780000", "101050.780000", "101052.780000", "101054.780000", "101056.780000", "101058.780000", "101100.780000", "101102.780000", "101104.780000", "101106.780000", "101108.780000", "101110.780000", "101112.780000", "101114.780000", "101116.780000", "101118.780000", "101120.780000", "101122.780000", "101124.780000", "101126.780000", "101128.780000", "101130.780000", "101132.780000", "101134.780000", "101136.780000", "101138.780000", "101140.780000", "101142.780000", "101144.780000", "101146.780000", "101148.780000", "101150.780000", "101152.780000", "101154.780000", "101156.780000", "101158.780000", "101200.780000", "101202.780000", "101204.780000", "101206.780000", "101208.780000", "101210.780000", "101212.780000", "101214.780000", "101216.780000", "101218.780000", "101220.780000", "101222.780000", "101224.780000", "101226.780000", "101228.780000", "101230.780000", "101232.780000", "101234.780000", "101236.780000", "101238.780000", "101240.780000", "101242.780000", "101244.780000", "101246.780000", "101248.780000", "101250.780000", "101252.780000", "101254.780000", "101256.780000", "101258.780000", "101300.780000", "101302.780000", "101304.780000", "101306.780000", "101308.780000", "101310.780000", "101312.780000", "101314.780000", "101316.780000", "101318.780000", "101320.780000"],
      "ContentTime": ["100731.786000", "100731.789000", "100731.792000", "100731.795000", "100731.797000", "100731.800000", "100731.802000", "100731.818000", "100731.820000", "100731.823000", "100731.825000", "100731.828000", "100731.830000", "100731.833000", "100731.836000", "100731.838000", "100731.841000", "100731.844000", "100731.846000", "100731.849000", "100731.851000", "100731.854000", "100731.857000", "100731.859000", "100811.781000", "100811.783000", "100811.786000", "100811.789000", "100811.791000", "100811.794000", "100811.797000", "100811.799000", "100811.802000", "100811.804000", "100811.807000", "100811.810000", "100811.812000", "100811.815000", "100811.817000", "100811.820000", "100811.823000", "100811.825000", "100811.828000", "100811.830000", "100851.780000", "100851.782000", "100851.785000", "100851.788000", "100851.790000", "100851.793000", "100851.795000", "100851.798000", "100851.810000", "100851.813000", "100851.815000", "100851.818000", "100851.821000", "100851.823000", "100851.826000", "100851.829000", "100851.831000", "100851.834000", "100851.837000", "100851.840000", "100931.781000", "100931.854000", "100931.856000", "100931.859000", "100931.861000", "100931.864000", "100931.867000", "100931.869000", "100931.872000", "100931.874000", "100931.877000", "100931.880000", "100931.882000", "100931.885000", "100931.887000", "100931.890000", "100931.893000", "100931.895000", "100931.898000", "100931.901000", "100951.781000", "100951.798000", "100951.807000", "100951.816000", "100951.819000", "100951.821000", "100951.824000", "100951.827000", "100951.829000", "100951.832000", "101031.781000", "101031.801000", "101031.804000", "101031.820000", "101031.822000", "101031.825000", "101031.827000", "101031.830000", "101031.833000", "101031.835000", "101031.838000", "101031.841000", "101031.843000", "101031.846000", "101031.848000", "101031.851000", "101031.853000", "101031.856000", "101031.858000", "101031.861000", "101111.780000", "101111.782000", "101111.785000", "101111.788000", "101111.790000", "101111.793000", "101111.795000", "101111.798000", "101111.801000", "101111.803000", "101111.806000", "101111.809000", "101111.811000", "101111.814000", "101111.816000", "101111.819000", "101111.822000", "101111.824000", "101111.827000", "101111.829000", "101151.781000", "101151.783000", "101151.793000", "101151.795000", "101151.798000", "101151.801000", "101151.803000", "101151.806000", "101151.809000", "101151.811000", "101151.814000", "101151.817000", "101151.819000", "101151.822000", "101151.824000", "101151.827000", "101151.830000", "101151.832000", "101151.835000", "101151.838000", "101231.781000", "101231.783000", "101231.786000", "101231.789000", "101231.791000", "101231.794000", "101231.796000", "101231.799000", "101231.802000", "101231.804000", "101231.807000", "101231.810000", "101231.812000", "101231.815000", "101231.817000", "101231.820000", "101231.823000", "101231.825000", "101231.828000", "101231.831000", "101311.780000", "101311.782000", "101311.785000", "101311.788000", "101311.790000", "101311.793000", "101311.795000", "101311.798000", "101311.801000", "101311.803000", "101311.806000", "101311.808000", "101311.811000", "101311.814000", "101311.816000", "101311.819000", "101311.822000", "101311.824000", "101311.827000", "101311.829000", "101322.714000", "101322.717000", "101322.719000", "101322.722000", "101322.725000", "101322.727000"],
      "InstanceCreationTime": ["100731.786000", "100731.789000", "100731.792000", "100731.795000", "100731.797000", "100731.800000", "100731.802000", "100731.818000", "100731.820000", "100731.823000", "100731.825000", "100731.828000", "100731.830000", "100731.833000", "100731.836000", "100731.838000", "100731.841000", "100731.844000", "100731.846000", "100731.849000", "100731.851000", "100731.854000", "100731.857000", "100731.859000", "100811.781000", "100811.783000", "100811.786000", "100811.789000", "100811.791000", "100811.794000", "100811.797000", "100811.799000", "100811.802000", "100811.804000", "100811.807000", "100811.810000", "100811.812000", "100811.815000", "100811.817000", "100811.820000", "100811.823000", "100811.825000", "100811.828000", "100811.830000", "100851.780000", "100851.782000", "100851.785000", "100851.788000", "100851.790000", "100851.793000", "100851.795000", "100851.798000", "100851.810000", "100851.813000", "100851.815000", "100851.818000", "100851.821000", "100851.823000", "100851.826000", "100851.829000", "100851.831000", "100851.834000", "100851.837000", "100851.840000", "100931.781000", "100931.854000", "100931.856000", "100931.859000", "100931.861000", "100931.864000", "100931.867000", "100931.869000", "100931.872000", "100931.874000", "100931.877000", "100931.880000", "100931.882000", "100931.885000", "100931.887000", "100931.890000", "100931.893000", "100931.895000", "100931.898000", "100931.901000", "100951.781000", "100951.798000", "100951.807000", "100951.816000", "100951.819000", "100951.821000", "100951.824000", "100951.827000", "100951.829000", "100951.832000", "101031.781000", "101031.801000", "101031.804000", "101031.820000", "101031.822000", "101031.825000", "101031.827000", "101031.830000", "101031.833000", "101031.835000", "101031.838000", "101031.841000", "101031.843000", "101031.846000", "101031.848000", "101031.851000", "101031.853000", "101031.856000", "101031.858000", "101031.861000", "101111.780000", "101111.782000", "101111.785000", "101111.788000", "101111.790000", "101111.793000", "101111.795000", "101111.798000", "101111.801000", "101111.803000", "101111.806000", "101111.809000", "101111.811000", "101111.814000", "101111.816000", "101111.819000", "101111.822000", "101111.824000", "101111.827000", "101111.829000", "101151.781000", "101151.783000", "101151.793000", "101151.795000", "101151.798000", "101151.801000", "101151.803000", "101151.806000", "101151.809000", "101151.811000", "101151.814000", "101151.817000", "101151.819000", "101151.822000", "101151.824000", "101151.827000", "101151.830000", "101151.832000", "101151.835000", "101151.838000", "101231.781000", "101231.783000", "101231.786000", "101231.789000", "101231.791000", "101231.794000", "101231.796000", "101231.799000", "101231.802000", "101231.804000", "101231.807000", "101231.810000", "101231.812000", "101231.815000", "101231.817000", "101231.820000", "101231.823000", "101231.825000", "101231.828000", "101231.831000", "101311.780000", "101311.782000", "101311.785000", "101311.788000", "101311.790000", "101311.793000", "101311.795000", "101311.798000", "101311.801000", "101311.803000", "101311.806000", "101311.808000", "101311.811000", "101311.814000", "101311.816000", "101311.819000", "101311.822000", "101311.824000", "101311.827000", "101311.829000", "101322.714000", "101322.717000", "101322.719000", "101322.722000", "101322.725000", "101322.727000"],
      "InstanceNumber": [1, 2, 3, 4, 5, 6, 7, 8, 9, 10, 11, 12, 13, 14, 15, 16, 17, 18, 19, 20, 21, 22, 23, 24, 25, 26, 27, 28, 29, 30, 31, 32, 33, 34, 35, 36, 37, 38, 39, 40, 41, 42, 43, 44, 45, 46, 47, 48, 49, 50, 51, 52, 53, 54, 55, 56, 57, 58, 59, 60, 61, 62, 63, 64, 65, 66, 67, 68, 69, 70, 71, 72, 73, 74, 75, 76, 77, 78, 79, 80, 81, 82, 83, 84, 85, 86, 87, 88, 89, 90, 91, 92, 93, 94, 95, 96, 97, 98, 99, 100, 101, 102, 103, 104, 105, 106, 107, 108, 109, 110, 111, 112, 113, 114, 115, 116, 117, 118, 119, 120, 121, 122, 123, 124, 125, 126, 127, 128, 129, 130, 131, 132, 133, 134, 135, 136, 137, 138, 139, 140, 141, 142, 143, 144, 145, 146, 147, 148, 149, 150, 151, 152, 153, 154, 155, 156, 157, 158, 159, 160, 161, 162, 163, 164, 165, 166, 167, 168, 169, 170, 171, 172, 173, 174, 175, 176, 177, 178, 179, 180, 181, 182, 183, 184, 185, 186, 187, 188, 189, 190, 191, 192, 193, 194, 195, 196, 197, 198, 199, 200],
      "LargestImagePixelValue": [1975, 1971, 1974, 1971, 1974, 1968, 1971, 1974, 1966, 1972, 1978, 1978, 1973, 1982, 1987, 1985, 1985, 1989, 1980, 1983, 1986, 1984, 1979, 1975, 1980, 1982, 1983, 1985, 1985, 1986, 1981, 1982, 1986, 1982, 1982, 1991, 1983, 1991, 1987, 1989, 1986, 1984, 1997, 1997, 2002, 1989, 1992, 1988, 1992, 1995, 1986, 1990, 1988, 1991, 1993, 1995, 1988, 1997, 1995, 1994, 1988, 1984, 1987, 1987, 1990, 1989, 1992, 1991, 1999, 1989, 1990, 1986, 1992, 1986, 1990, 1998, 1988, 1990, 1999, 1996, 1995, 1999, 1994, 1985, 1989, 1990, 1986, 1985, 1996, 1991, 1990, 1992, 1985, 1985, 1984, 1992, 1992, 1991, 1991, 1995, 1985, 1985, 1987, 1983, 1986, 1992, 1994, 1987, 1994, 2002, 2000, 1995, 1999, 1992, 1996, 2000, 1998, 1999, 1998, 1995, 1993, 2002, 1994, 1997, 1998, 1997, 2004, 2002, 1998, 2001, 1995, 1998, 1994, 1990, 1997, 1999, 1993, 1994, 1998, 1993, 1996, 1991, 1997, 1993, 1996, 1995, 1997, 1992, 2005, 1996, 1995, 1988, 1989, 1990, 1989, 1990, 1990, 2002, 1995, 1990, 1994, 1996, 1998, 2002, 1996, 2000, 1998, 1997, 1993, 1993, 1998, 1998, 1996, 1995, 1998, 1995, 1997, 2000, 1995, 1992, 1994, 1998, 1999, 1995, 1997, 2000, 1994, 1998, 2003, 2003, 2000, 1998, 2000, 1997, 2000, 1997, 2000, 2001, 1994, 1998],
      "WindowCenter": [978.0, 978.0, 978.0, 979.0, 978.0, 978.0, 978.0, 979.0, 979.0, 978.0, 978.0, 978.0, 978.0, 978.0, 978.0, 979.0, 979.0, 978.0, 978.0, 978.0, 979.0, 978.0, 978.0, 978.0, 978.0, 978.0, 978.0, 978.0, 978.0, 979.0, 978.0, 979.0, 978.0, 979.0, 978.0, 979.0, 978.0, 978.0, 978.0, 978.0, 978.0, 978.0, 978.0, 978.0, 978.0, 978.0, 979.0, 978.0, 979.0, 978.0, 978.0, 978.0, 978.0, 978.0, 979.0, 978.0, 978.0, 978.0, 978.0, 978.0, 978.0, 978.0, 978.0, 978.0, 978.0, 979.0, 978.0, 978.0, 979.0, 979.0, 978.0, 978.0, 978.0, 978.0, 978.0, 979.0, 978.0, 978.0, 979.0, 978.0, 978.0, 978.0, 978.0, 978.0, 978.0, 978.0, 978.0, 978.0, 978.0, 978.0, 978.0, 978.0, 978.0, 978.0, 978.0, 978.0, 978.0, 978.0, 978.0, 978.0, 978.0, 978.0, 978.0, 978.0, 978.0, 978.0, 978.0, 978.0, 978.0, 978.0, 978.0, 978.0, 978.0, 978.0, 978.0, 978.0, 978.0, 978.0, 979.0, 978.0, 978.0, 978.0, 978.0, 978.0, 978.0, 978.0, 978.0, 978.0, 978.0, 978.0, 978.0, 978.0, 978.0, 978.0, 978.0, 978.0, 978.0, 978.0, 978.0, 978.0, 978.0, 978.0, 978.0, 979.0, 978.0, 978.0, 978.0, 978.0, 978.0, 978.0, 978.0, 978.0, 978.0, 978.0, 978.0, 978.0, 978.0, 978.0, 978.0, 978.0, 978.0, 978.0, 978.0, 978.0, 978.0, 978.0, 978.0, 978.0, 978.0, 978.0, 978.0, 978.0, 978.0, 978.0, 978.0, 978.0, 977.0, 977.0, 978.0, 977.0, 978.0, 978.0, 977.0, 977.0, 978.0, 978.0, 977.0, 977.0, 977.0, 977.0, 977.0, 978.0, 977.0, 977.0, 978.0, 977.0, 978.0, 977.0, 977.0, 977.0],
      "WindowWidth": [2136.0, 2135.0, 2135.0, 2136.0, 2135.0, 2135.0, 2135.0, 2136.0, 2136.0, 2135.0, 2135.0, 2135.0, 2135.0, 2135.0, 2135.0, 2136.0, 2136.0, 2135.0, 2135.0, 2135.0, 2136.0, 2135.0, 2135.0, 2135.0, 2135.0, 2135.0, 2135.0, 2135.0, 2135.0, 2136.0, 2135.0, 2136.0, 2135.0, 2136.0, 2135.0, 2135.0, 2135.0, 2135.0, 2135.0, 2134.0, 2135.0, 2135.0, 2135.0, 2134.0, 2135.0, 2135.0, 2136.0, 2135.0, 2136.0, 2135.0, 2135.0, 2135.0, 2135.0, 2134.0, 2135.0, 2135.0, 2134.0, 2135.0, 2135.0, 2135.0, 2135.0, 2135.0, 2135.0, 2135.0, 2135.0, 2135.0, 2135.0, 2135.0, 2135.0, 2135.0, 2135.0, 2135.0, 2135.0, 2135.0, 2135.0, 2135.0, 2135.0, 2135.0, 2136.0, 2135.0, 2135.0, 2135.0, 2135.0, 2135.0, 2135.0, 2135.0, 2135.0, 2135.0, 2135.0, 2135.0, 2135.0, 2135.0, 2135.0, 2135.0, 2135.0, 2135.0, 2135.0, 2135.0, 2135.0, 2135.0, 2135.0, 2135.0, 2135.0, 2135.0, 2135.0, 2135.0, 2135.0, 2135.0, 2135.0, 2135.0, 2135.0, 2135.0, 2135.0, 2135.0, 2135.0, 2135.0, 2135.0, 2135.0, 2135.0, 2135.0, 2135.0, 2135.0, 2135.0, 2135.0, 2135.0, 2135.0, 2135.0, 2135.0, 2135.0, 2135.0, 2135.0, 2136.0, 2135.0, 2135.0, 2135.0, 2135.0, 2135.0, 2135.0, 2135.0, 2135.0, 2135.0, 2135.0, 2135.0, 2135.0, 2135.0, 2135.0, 2135.0, 2135.0, 2134.0, 2135.0, 2135.0, 2134.0, 2135.0, 2135.0, 2135.0, 2134.0, 2135.0, 2135.0, 2135.0, 2135.0, 2135.0, 2135.0, 2135.0, 2134.0, 2135.0, 2134.0, 2134.0, 2134.0, 2134.0, 2134.0, 2134.0, 2135.0, 2134.0, 2134.0, 2134.0, 2135.0, 2134.0, 2134.0, 2135.0, 2134.0, 2135.0, 2134.0, 2134.0, 2134.0, 2134.0, 2135.0, 2134.0, 2134.0, 2134.0, 2134.0, 2134.0, 2134.0, 2134.0, 2134.0, 2135.0, 2134.0, 2134.0, 2134.0, 2134.0, 2134.0]
    },
    "slices": {}
  }
}