{
  "AcquisitionMatrixPE": 80,
  "AcquisitionNumber": 1,
  "AcquisitionTime": "10:27:13.515000",
  "BandwidthPerPixelPhaseEncode": 25,
  "BaseResolution": 80,
  "BodyPartExamined": "BRAIN",
  "CoilCombinationMethod": "Sum of Squares",
  "ConsistencyInfo": "N4_VE11C_LATEST_20160120",
  "ConversionSoftware": "dcm2niix",
  "ConversionSoftwareVersion": "v1.0.20220720",
  "DerivedVendorReportedEchoSpacing": 0.0005,
  "DeviceSerialNumber": "66112",
  "DwellTime": 2.7e-06,
  "EchoTime": 0.03,
  "EchoTrainLength": 80,
  "EffectiveEchoSpacing": 0.0005,
  "FlipAngle": 10,
  "HeudiconvVersion": "0.13.1",
  "ImageOrientationPatientDICOM": [0.999972, 0.00610326, 0.00444025, -0.00715578, 0.953722, 0.300604],
  "ImageOrientationText": "Tra>Cor(17.5)>Sag(0.1)",
  "ImageType": [
    "ORIGINAL",
    "PRIMARY",
    "M",
    "ND",
    "NORM",
    "MOSAIC"
],
  "ImagingFrequency": 123.252,
  "InPlanePhaseEncodingDirectionDICOM": "COL",
  "InstitutionAddress": "Maynard 3,Hanover,NH,US,03755",
  "InstitutionName": "Dartmouth College - PBS",
  "InstitutionalDepartmentName": "Department",
  "MRAcquisitionType": "2D",
  "MagneticFieldStrength": 3,
  "Manufacturer": "Siemens",
  "ManufacturersModelName": "Prisma",
  "MatrixCoilMode": "SENSE",
  "Modality": "MR",
  "NonlinearGradientCorrection": false,
  "PartialFourier": 1,
  "PatientPosition": "HFS",
  "PercentPhaseFOV": 100,
  "PercentSampling": 100,
  "PhaseEncodingDirection": "j-",
  "PhaseEncodingSteps": 80,
  "PhaseResolution": 1,
  "PixelBandwidth": 2315,
  "ProcedureStepDescription": "dbic^QA",
  "ProtocolName": "func-bold_acq-32ch-10flip",
  "PulseSequenceDetails": "%SiemensSeq%\\ep2d_bold",
  "ReceiveCoilActiveElements": "HEA;HEP",
  "ReceiveCoilName": "Head_32",
  "ReconMatrixPE": 80,
  "RepetitionTime": 2,
  "SAR": 0.0117414,
  "ScanOptions": "FS",
  "ScanningSequence": "EP",
  "SequenceName": "*epfid2d1_80",
  "SequenceVariant": "SK",
  "SeriesDescription": "func-bold_acq-32ch-10flip",
  "SeriesNumber": 10,
  "ShimSetting": [4147, -7702, -7507, 479, -117, -221, -70, 148],
  "SliceThickness": 3.5,
  "SliceTiming": [0.99, 0, 1.055, 0.065, 1.12, 0.1325, 1.1875, 0.1975, 1.2525, 0.2625, 1.32, 0.33, 1.385, 0.395, 1.45, 0.46, 1.5175, 0.5275, 1.5825, 0.5925, 1.65, 0.66, 1.715, 0.725, 1.78, 0.79, 1.8475, 0.8575, 1.9125, 0.9225],
  "SoftwareVersions": "syngo MR E11",
  "SpacingBetweenSlices": 3.99,
  "StationName": "AWP66112",
  "TotalReadoutTime": 0.0395,
  "TxRefAmp": 231.956,
  "dcmmeta_affine": [
    [-2.9999146461486816, -0.02146732807159424, 0.009576384909451008, 121.42269134521484],
    [-0.018309788778424263, 2.8611667156219482, 1.1995021104812622, -122.43284606933594],
    [0.013320736587047577, -0.9018116593360901, 3.805417537689209, -22.36767578125],
    [0.0, 0.0, 0.0, 1.0]
],
  "dcmmeta_reorient_transform": [
    [0.0, -1.0, 0.0, 79.0],
    [1.0, 0.0, 0.0, 0.0],
    [0.0, 0.0, 1.0, 0.0],
    [0.0, 0.0, 0.0, 1.0]
],
  "dcmmeta_shape": [80, 80, 30, 200],
  "dcmmeta_slice_dim": 2,
  "dcmmeta_version": 0.6,
  "global": {
    "const": {
      "AccessionNumber": "qa",
      "AcquisitionMatrix": [80, 0, 0, 80],
      "AngioFlag": "N",
      "BitsAllocated": 16,
      "BitsStored": 12,
      "BodyPartExamined": "BRAIN",
      "Columns": 480,
      "EchoNumbers": 1,
      "EchoTime": 30.0,
      "EchoTrainLength": 80,
      "FlipAngle": 10.0,
      "HighBit": 11,
      "ImageOrientationPatient": [0.99997151679581, 0.00610326271094, 0.00444024564197, -0.0071557762701, 0.95372223197687, 0.30060389069177],
      "ImagePositionPatient": [-715.41621717455, -679.49461660461, -276.63727895375],
      "ImageType": [
        "ORIGINAL",
        "PRIMARY",
        "M",
        "ND",
        "NORM",
        "MOSAIC"
],
      "ImagedNucleus": "1H",
      "ImagingFrequency": 123.252434,
      "InPlanePhaseEncodingDirection": "COL",
      "MRAcquisitionType": "2D",
      "MagneticFieldStrength": 3.0,
      "Manufacturer": "SIEMENS",
      "ManufacturerModelName": "Prisma",
      "Modality": "MR",
      "NumberOfAverages": 1.0,
      "NumberOfPhaseEncodingSteps": 80,
      "PercentPhaseFieldOfView": 100.0,
      "PercentSampling": 100.0,
      "PerformedProcedureStepStartTime": "100511.935000",
      "PhotometricInterpretation": "MONOCHROME2",
      "PixelBandwidth": 2315.0,
      "PixelRepresentation": 0,
      "PixelSpacing": [3.0, 3.0],
      "ProtocolName": "func-bold_acq-32ch-10flip",
      "RepetitionTime": 2000.0,
      "Rows": 480,
      "SAR": 0.01174139783468,
      "SamplesPerPixel": 1,
      "ScanOptions": "FS",
      "ScanningSequence": "EP",
      "SequenceName": "*epfid2d1_80",
      "SequenceVariant": "SK",
      "SeriesDescription": "func-bold_acq-32ch-10flip",
      "SeriesNumber": 10,
      "SeriesTime": "102811.782000",
      "SliceLocation": -57.848124697866,
      "SliceThickness": 3.5,
      "SmallestImagePixelValue": 0,
      "SoftwareVersions": "syngo MR E11",
      "SpacingBetweenSlices": 3.9899999763142,
      "SpecificCharacterSet": "ISO_IR 100",
      "StudyID": "111",
      "StudyTime": "100511.849000",
      "TransmitCoilName": "Body",
      "VariableFlipAngleFlag": "N",
      "WindowCenterWidthExplanation": "Algo1",
      "dBdt": 0.0},
    "slices": {}
  },
  "time": {
    "samples": {
      "AcquisitionNumber": [1, 2, 3, 4, 5, 6, 7, 8, 9, 10, 11, 12, 13, 14, 15, 16, 17, 18, 19, 20, 21, 22, 23, 24, 25, 26, 27, 28, 29, 30, 31, 32, 33, 34, 35, 36, 37, 38, 39, 40, 41, 42, 43, 44, 45, 46, 47, 48, 49, 50, 51, 52, 53, 54, 55, 56, 57, 58, 59, 60, 61, 62, 63, 64, 65, 66, 67, 68, 69, 70, 71, 72, 73, 74, 75, 76, 77, 78, 79, 80, 81, 82, 83, 84, 85, 86, 87, 88, 89, 90, 91, 92, 93, 94, 95, 96, 97, 98, 99, 100, 101, 102, 103, 104, 105, 106, 107, 108, 109, 110, 111, 112, 113, 114, 115, 116, 117, 118, 119, 120, 121, 122, 123, 124, 125, 126, 127, 128, 129, 130, 131, 132, 133, 134, 135, 136, 137, 138, 139, 140, 141, 142, 143, 144, 145, 146, 147, 148, 149, 150, 151, 152, 153, 154, 155, 156, 157, 158, 159, 160, 161, 162, 163, 164, 165, 166, 167, 168, 169, 170, 171, 172, 173, 174, 175, 176, 177, 178, 179, 180, 181, 182, 183, 184, 185, 186, 187, 188, 189, 190, 191, 192, 193, 194, 195, 196, 197, 198, 199, 200],
      "AcquisitionTime": ["102713.515000", "102715.515000", "102717.515000", "102719.515000", "102721.515000", "102723.515000", "102725.515000", "102727.515000", "102729.515000", "102731.515000", "102733.515000", "102735.515000", "102737.515000", "102739.515000", "102741.515000", "102743.515000", "102745.515000", "102747.515000", "102749.515000", "102751.515000", "102753.515000", "102755.515000", "102757.515000", "102759.515000", "102801.515000", "102803.515000", "102805.515000", "102807.515000", "102809.515000", "102811.515000", "102813.515000", "102815.515000", "102817.515000", "102819.515000", "102821.515000", "102823.515000", "102825.515000", "102827.515000", "102829.515000", "102831.515000", "102833.515000", "102835.515000", "102837.515000", "102839.515000", "102841.515000", "102843.515000", "102845.515000", "102847.515000", "102849.515000", "102851.515000", "102853.515000", "102855.515000", "102857.515000", "102859.515000", "102901.515000", "102903.515000", "102905.515000", "102907.515000", "102909.515000", "102911.515000", "102913.515000", "102915.515000", "102917.515000", "102919.515000", "102921.515000", "102923.515000", "102925.515000", "102927.515000", "102929.515000", "102931.515000", "102933.515000", "102935.515000", "102937.515000", "102939.515000", "102941.515000", "102943.515000", "102945.515000", "102947.515000", "102949.515000", "102951.515000", "102953.515000", "102955.515000", "102957.515000", "102959.515000", "103001.515000", "103003.515000", "103005.515000", "103007.515000", "103009.515000", "103011.515000", "103013.515000", "103015.515000", "103017.515000", "103019.515000", "103021.515000", "103023.515000", "103025.515000", "103027.515000", "103029.515000", "103031.515000", "103033.515000", "103035.515000", "103037.515000", "103039.515000", "103041.515000", "103043.515000", "103045.515000", "103047.515000", "103049.515000", "103051.515000", "103053.515000", "103055.515000", "103057.515000", "103059.515000", "103101.515000", "103103.515000", "103105.515000", "103107.515000", "103109.515000", "103111.515000", "103113.515000", "103115.515000", "103117.515000", "103119.515000", "103121.515000", "103123.515000", "103125.515000", "103127.515000", "103129.515000", "103131.515000", "103133.515000", "103135.515000", "103137.515000", "103139.515000", "103141.515000", "103143.515000", "103145.515000", "103147.515000", "103149.515000", "103151.515000", "103153.515000", "103155.515000", "103157.515000", "103159.515000", "103201.515000", "103203.515000", "103205.515000", "103207.515000", "103209.515000", "103211.515000", "103213.515000", "103215.515000", "103217.515000", "103219.515000", "103221.515000", "103223.515000", "103225.515000", "103227.515000", "103229.515000", "103231.515000", "103233.515000", "103235.515000", "103237.515000", "103239.515000", "103241.515000", "103243.515000", "103245.515000", "103247.515000", "103249.515000", "103251.515000", "103253.515000", "103255.515000", "103257.515000", "103259.515000", "103301.515000", "103303.515000", "103305.515000", "103307.515000", "103309.515000", "103311.515000", "103313.515000", "103315.515000", "103317.515000", "103319.515000", "103321.515000", "103323.515000", "103325.515000", "103327.515000", "103329.515000", "103331.515000", "103333.515000", "103335.515000", "103337.515000", "103339.515000", "103341.515000", "103343.515000", "103345.515000", "103347.515000", "103349.515000", "103351.515000"],
      "ContentTime": ["102811.785000", "102811.789000", "102811.791000", "102811.794000", "102811.796000", "102811.799000", "102811.801000", "102811.804000", "102811.807000", "102811.809000", "102811.812000", "102811.814000", "102811.817000", "102811.819000", "102811.822000", "102811.825000", "102811.827000", "102811.830000", "102811.832000", "102811.838000", "102811.840000", "102811.843000", "102811.846000", "102811.848000", "102811.851000", "102811.853000", "102811.856000", "102811.858000", "102811.861000", "102851.781000", "102851.784000", "102851.786000", "102851.789000", "102851.791000", "102851.794000", "102851.796000", "102851.799000", "102851.808000", "102851.810000", "102851.813000", "102851.815000", "102851.818000", "102851.821000", "102851.823000", "102851.826000", "102851.828000", "102851.831000", "102851.834000", "102851.836000", "102931.779000", "102931.782000", "102931.785000", "102931.788000", "102931.790000", "102931.793000", "102931.795000", "102931.798000", "102931.800000", "102931.803000", "102931.805000", "102931.808000", "102931.818000", "102931.821000", "102931.824000", "102931.826000", "102931.829000", "102931.831000", "102931.834000", "102931.836000", "103011.781000", "103011.784000", "103011.786000", "103011.789000", "103011.791000", "103011.794000", "103011.796000", "103011.799000", "103011.801000", "103011.804000", "103011.807000", "103011.809000", "103011.812000", "103011.814000", "103011.817000", "103011.819000", "103011.822000", "103011.825000", "103011.827000", "103011.830000", "103051.781000", "103051.784000", "103051.786000", "103051.789000", "103051.792000", "103051.794000", "103051.797000", "103051.799000", "103051.802000", "103051.805000", "103051.807000", "103051.810000", "103051.812000", "103051.815000", "103051.817000", "103051.820000", "103051.822000", "103051.825000", "103051.828000", "103051.830000", "103131.780000", "103131.783000", "103131.786000", "103131.789000", "103131.791000", "103131.794000", "103131.796000", "103131.799000", "103131.801000", "103131.804000", "103131.806000", "103131.809000", "103131.811000", "103131.814000", "103131.817000", "103131.819000", "103131.822000", "103131.825000", "103131.827000", "103131.830000", "103211.779000", "103211.782000", "103211.785000", "103211.787000", "103211.790000", "103211.792000", "103211.795000", "103211.797000", "103211.800000", "103211.802000", "103211.805000", "103211.808000", "103211.810000", "103211.813000", "103211.815000", "103211.818000", "103211.820000", "103211.823000", "103211.825000", "103211.828000", "103251.780000", "103251.783000", "103251.786000", "103251.788000", "103251.791000", "103251.794000", "103251.796000", "103251.799000", "103251.801000", "103251.804000", "103251.806000", "103251.809000", "103251.811000", "103251.814000", "103251.816000", "103251.819000", "103251.821000", "103251.824000", "103251.826000", "103251.829000", "103331.781000", "103331.783000", "103331.786000", "103331.788000", "103331.791000", "103331.793000", "103331.796000", "103331.799000", "103331.801000", "103331.804000", "103331.806000", "103331.809000", "103331.811000", "103331.814000", "103331.816000", "103331.819000", "103331.821000", "103331.824000", "103331.827000", "103331.829000", "103353.369000", "103353.372000", "103353.375000", "103353.377000", "103353.380000", "103353.383000", "103353.385000", "103353.388000", "103353.390000", "103353.393000", "103353.395000"],
      "InstanceCreationTime": ["102811.785000", "102811.789000", "102811.791000", "102811.794000", "102811.796000", "102811.799000", "102811.801000", "102811.804000", "102811.807000", "102811.809000", "102811.812000", "102811.814000", "102811.817000", "102811.819000", "102811.822000", "102811.825000", "102811.827000", "102811.830000", "102811.832000", "102811.838000", "102811.840000", "102811.843000", "102811.846000", "102811.848000", "102811.851000", "102811.853000", "102811.856000", "102811.858000", "102811.861000", "102851.781000", "102851.784000", "102851.786000", "102851.789000", "102851.791000", "102851.794000", "102851.796000", "102851.799000", "102851.808000", "102851.810000", "102851.813000", "102851.815000", "102851.818000", "102851.821000", "102851.823000", "102851.826000", "102851.828000", "102851.831000", "102851.834000", "102851.836000", "102931.779000", "102931.782000", "102931.785000", "102931.788000", "102931.790000", "102931.793000", "102931.795000", "102931.798000", "102931.800000", "102931.803000", "102931.805000", "102931.808000", "102931.818000", "102931.821000", "102931.824000", "102931.826000", "102931.829000", "102931.831000", "102931.834000", "102931.836000", "103011.781000", "103011.784000", "103011.786000", "103011.789000", "103011.791000", "103011.794000", "103011.796000", "103011.799000", "103011.801000", "103011.804000", "103011.807000", "103011.809000", "103011.812000", "103011.814000", "103011.817000", "103011.819000", "103011.822000", "103011.825000", "103011.827000", "103011.830000", "103051.781000", "103051.784000", "103051.786000", "103051.789000", "103051.792000", "103051.794000", "103051.797000", "103051.799000", "103051.802000", "103051.805000", "103051.807000", "103051.810000", "103051.812000", "103051.815000", "103051.817000", "103051.820000", "103051.822000", "103051.825000", "103051.828000", "103051.830000", "103131.780000", "103131.783000", "103131.786000", "103131.789000", "103131.791000", "103131.794000", "103131.796000", "103131.799000", "103131.801000", "103131.804000", "103131.806000", "103131.809000", "103131.811000", "103131.814000", "103131.817000", "103131.819000", "103131.822000", "103131.825000", "103131.827000", "103131.830000", "103211.779000", "103211.782000", "103211.785000", "103211.787000", "103211.790000", "103211.792000", "103211.795000", "103211.797000", "103211.800000", "103211.802000", "103211.805000", "103211.808000", "103211.810000", "103211.813000", "103211.815000", "103211.818000", "103211.820000", "103211.823000", "103211.825000", "103211.828000", "103251.780000", "103251.783000", "103251.786000", "103251.788000", "103251.791000", "103251.794000", "103251.796000", "103251.799000", "103251.801000", "103251.804000", "103251.806000", "103251.809000", "103251.811000", "103251.814000", "103251.816000", "103251.819000", "103251.821000", "103251.824000", "103251.826000", "103251.829000", "103331.781000", "103331.783000", "103331.786000", "103331.788000", "103331.791000", "103331.793000", "103331.796000", "103331.799000", "103331.801000", "103331.804000", "103331.806000", "103331.809000", "103331.811000", "103331.814000", "103331.816000", "103331.819000", "103331.821000", "103331.824000", "103331.827000", "103331.829000", "103353.369000", "103353.372000", "103353.375000", "103353.377000", "103353.380000", "103353.383000", "103353.385000", "103353.388000", "103353.390000", "103353.393000", "103353.395000"],
      "InstanceNumber": [1, 2, 3, 4, 5, 6, 7, 8, 9, 10, 11, 12, 13, 14, 15, 16, 17, 18, 19, 20, 21, 22, 23, 24, 25, 26, 27, 28, 29, 30, 31, 32, 33, 34, 35, 36, 37, 38, 39, 40, 41, 42, 43, 44, 45, 46, 47, 48, 49, 50, 51, 52, 53, 54, 55, 56, 57, 58, 59, 60, 61, 62, 63, 64, 65, 66, 67, 68, 69, 70, 71, 72, 73, 74, 75, 76, 77, 78, 79, 80, 81, 82, 83, 84, 85, 86, 87, 88, 89, 90, 91, 92, 93, 94, 95, 96, 97, 98, 99, 100, 101, 102, 103, 104, 105, 106, 107, 108, 109, 110, 111, 112, 113, 114, 115, 116, 117, 118, 119, 120, 121, 122, 123, 124, 125, 126, 127, 128, 129, 130, 131, 132, 133, 134, 135, 136, 137, 138, 139, 140, 141, 142, 143, 144, 145, 146, 147, 148, 149, 150, 151, 152, 153, 154, 155, 156, 157, 158, 159, 160, 161, 162, 163, 164, 165, 166, 167, 168, 169, 170, 171, 172, 173, 174, 175, 176, 177, 178, 179, 180, 181, 182, 183, 184, 185, 186, 187, 188, 189, 190, 191, 192, 193, 194, 195, 196, 197, 198, 199, 200],
      "LargestImagePixelValue": [334, 334, 332, 333, 333, 333, 335, 332, 332, 331, 332, 333, 333, 333, 333, 332, 334, 333, 334, 336, 335, 334, 333, 332, 334, 334, 336, 332, 335, 334, 332, 334, 334, 334, 336, 335, 336, 334, 334, 335, 335, 334, 335, 337, 334, 336, 335, 334, 334, 335, 334, 334, 335, 333, 335, 334, 335, 335, 333, 334, 334, 335, 335, 332, 338, 334, 335, 333, 334, 335, 334, 334, 333, 333, 334, 334, 334, 335, 333, 336, 333, 333, 335, 335, 334, 333, 333, 335, 334, 336, 336, 334, 334, 335, 334, 336, 335, 336, 335, 336, 334, 335, 333, 335, 335, 334, 334, 333, 335, 336, 335, 334, 333, 334, 333, 334, 334, 334, 336, 335, 336, 334, 333, 334, 333, 334, 335, 334, 333, 335, 335, 333, 335, 335, 334, 334, 334, 334, 333, 335, 336, 333, 332, 334, 334, 333, 335, 334, 334, 333, 335, 334, 335, 334, 334, 333, 331, 334, 333, 333, 335, 333, 334, 333, 334, 334, 333, 334, 335, 335, 335, 334, 333, 333, 334, 333, 335, 334, 335, 333, 334, 333, 334, 335, 335, 332, 334, 334, 334, 334, 335, 336, 335, 335, 336, 334, 332, 333, 335, 335],
      "WindowCenter": [275.0, 275.0, 275.0, 275.0, 275.0, 275.0, 275.0, 275.0, 275.0, 275.0, 275.0, 275.0, 275.0, 275.0, 275.0, 275.0, 276.0, 276.0, 276.0, 276.0, 275.0, 276.0, 275.0, 276.0, 275.0, 275.0, 275.0, 275.0, 275.0, 275.0, 275.0, 275.0, 275.0, 275.0, 275.0, 275.0, 275.0, 275.0, 275.0, 275.0, 275.0, 275.0, 275.0, 275.0, 275.0, 275.0, 275.0, 275.0, 275.0, 275.0, 275.0, 275.0, 275.0, 275.0, 275.0, 275.0, 275.0, 275.0, 275.0, 275.0, 275.0, 275.0, 275.0, 275.0, 275.0, 275.0, 275.0, 275.0, 275.0, 275.0, 275.0, 275.0, 275.0, 275.0, 275.0, 274.0, 274.0, 275.0, 275.0, 275.0, 275.0, 274.0, 275.0, 274.0, 275.0, 274.0, 275.0, 275.0, 275.0, 275.0, 275.0, 275.0, 275.0, 275.0, 275.0, 275.0, 275.0, 275.0, 275.0, 274.0, 275.0, 275.0, 275.0, 275.0, 275.0, 275.0, 275.0, 275.0, 275.0, 275.0, 275.0, 275.0, 275.0, 275.0, 275.0, 275.0, 275.0, 275.0, 275.0, 275.0, 275.0, 275.0, 274.0, 275.0, 275.0, 275.0, 275.0, 275.0, 274.0, 275.0, 275.0, 275.0, 275.0, 275.0, 275.0, 275.0, 275.0, 275.0, 274.0, 275.0, 275.0, 275.0, 274.0, 275.0, 274.0, 275.0, 275.0, 274.0, 275.0, 275.0, 275.0, 275.0, 274.0, 275.0, 274.0, 275.0, 274.0, 275.0, 275.0, 275.0, 274.0, 275.0, 275.0, 274.0, 275.0, 275.0, 275.0, 274.0, 275.0, 275.0, 274.0, 274.0, 275.0, 274.0, 274.0, 275.0, 275.0, 275.0, 275.0, 274.0, 274.0, 275.0, 274.0, 274.0, 275.0, 274.0, 274.0, 275.0, 275.0, 275.0, 274.0, 275.0, 275.0, 274.0, 275.0, 275.0, 275.0, 274.0, 275.0, 274.0],
      "WindowWidth": [603.0, 602.0, 602.0, 601.0, 602.0, 602.0, 602.0, 601.0, 602.0, 601.0, 602.0, 601.0, 601.0, 602.0, 601.0, 601.0, 603.0, 603.0, 603.0, 603.0, 603.0, 603.0, 602.0, 603.0, 602.0, 601.0, 601.0, 601.0, 601.0, 601.0, 601.0, 601.0, 601.0, 601.0, 601.0, 601.0, 601.0, 601.0, 601.0, 601.0, 601.0, 602.0, 601.0, 601.0, 601.0, 602.0, 602.0, 601.0, 601.0, 601.0, 601.0, 602.0, 601.0, 601.0, 601.0, 601.0, 601.0, 601.0, 601.0, 601.0, 601.0, 601.0, 601.0, 601.0, 601.0, 601.0, 601.0, 601.0, 601.0, 601.0, 601.0, 601.0, 601.0, 601.0, 601.0, 601.0, 601.0, 601.0, 601.0, 601.0, 601.0, 601.0, 601.0, 601.0, 601.0, 601.0, 601.0, 601.0, 601.0, 601.0, 601.0, 601.0, 601.0, 601.0, 601.0, 601.0, 601.0, 601.0, 601.0, 601.0, 601.0, 601.0, 601.0, 601.0, 601.0, 601.0, 601.0, 601.0, 601.0, 601.0, 601.0, 601.0, 601.0, 601.0, 601.0, 601.0, 601.0, 601.0, 601.0, 601.0, 601.0, 601.0, 601.0, 601.0, 601.0, 601.0, 601.0, 601.0, 601.0, 601.0, 601.0, 601.0, 601.0, 601.0, 601.0, 601.0, 601.0, 601.0, 601.0, 601.0, 601.0, 601.0, 601.0, 601.0, 601.0, 601.0, 601.0, 601.0, 601.0, 601.0, 601.0, 601.0, 601.0, 601.0, 601.0, 601.0, 601.0, 601.0, 601.0, 601.0, 601.0, 601.0, 601.0, 601.0, 601.0, 601.0, 601.0, 601.0, 601.0, 601.0, 601.0, 601.0, 601.0, 601.0, 601.0, 601.0, 601.0, 601.0, 601.0, 601.0, 601.0, 601.0, 601.0, 601.0, 601.0, 601.0, 601.0, 601.0, 601.0, 601.0, 601.0, 601.0, 601.0, 601.0, 601.0, 601.0, 601.0, 601.0, 601.0, 601.0]
    },
    "slices": {}
  }
}