{
  "AcquisitionMatrixPE": 80,
  "AcquisitionNumber": 1,
  "AcquisitionTime": "10:20:27.497500",
  "BandwidthPerPixelPhaseEncode": 25,
  "BaseResolution": 80,
  "BodyPartExamined": "BRAIN",
  "CoilCombinationMethod": "Sum of Squares",
  "ConsistencyInfo": "N4_VE11C_LATEST_20160120",
  "ConversionSoftware": "dcm2niix",
  "ConversionSoftwareVersion": "v1.0.20220720",
  "DerivedVendorReportedEchoSpacing": 0.0005,
  "DeviceSerialNumber": "66112",
  "DwellTime": 2.7e-06,
  "EchoTime": 0.03,
  "EchoTrainLength": 80,
  "EffectiveEchoSpacing": 0.0005,
  "FlipAngle": 77,
  "HeudiconvVersion": "0.13.1",
  "ImageOrientationPatientDICOM": [0.999972, 0.00610326, 0.00444025, -0.00715578, 0.953722, 0.300604],
  "ImageOrientationText": "Tra>Cor(17.5)>Sag(0.1)",
  "ImageType": [
    "ORIGINAL",
    "PRIMARY",
    "M",
    "ND",
    "NORM",
    "MOSAIC"
],
  "ImagingFrequency": 123.252,
  "InPlanePhaseEncodingDirectionDICOM": "COL",
  "InstitutionAddress": "Maynard 3,Hanover,NH,US,03755",
  "InstitutionName": "Dartmouth College - PBS",
  "InstitutionalDepartmentName": "Department",
  "MRAcquisitionType": "2D",
  "MagneticFieldStrength": 3,
  "Manufacturer": "Siemens",
  "ManufacturersModelName": "Prisma",
  "MatrixCoilMode": "SENSE",
  "Modality": "MR",
  "NonlinearGradientCorrection": false,
  "PartialFourier": 1,
  "PatientPosition": "HFS",
  "PercentPhaseFOV": 100,
  "PercentSampling": 100,
  "PhaseEncodingDirection": "j-",
  "PhaseEncodingSteps": 80,
  "PhaseResolution": 1,
  "PixelBandwidth": 2315,
  "ProcedureStepDescription": "dbic^QA",
  "ProtocolName": "func-bold_acq-32ch-77flip",
  "PulseSequenceDetails": "%SiemensSeq%\\ep2d_bold",
  "ReceiveCoilActiveElements": "HEA;HEP",
  "ReceiveCoilName": "Head_32",
  "ReconMatrixPE": 80,
  "RepetitionTime": 2,
  "SAR": 0.0437705,
  "ScanOptions": "FS",
  "ScanningSequence": "EP",
  "SequenceName": "*epfid2d1_80",
  "SequenceVariant": "SK",
  "SeriesDescription": "func-bold_acq-32ch-77flip",
  "SeriesNumber": 8,
  "ShimSetting": [4147, -7702, -7507, 479, -117, -221, -70, 148],
  "SliceThickness": 3.5,
  "SliceTiming": [0.99, 0, 1.055, 0.065, 1.12, 0.13, 1.1875, 0.1975, 1.2525, 0.2625, 1.32, 0.33, 1.385, 0.395, 1.45, 0.46, 1.5175, 0.5275, 1.5825, 0.5925, 1.65, 0.66, 1.715, 0.725, 1.78, 0.79, 1.8475, 0.8575, 1.9125, 0.9225],
  "SoftwareVersions": "syngo MR E11",
  "SpacingBetweenSlices": 3.99,
  "StationName": "AWP66112",
  "TotalReadoutTime": 0.0395,
  "TxRefAmp": 231.956,
  "dcmmeta_affine": [
    [-2.9999146461486816, -0.02146732807159424, 0.009576384909451008, 121.42269134521484],
    [-0.018309788778424263, 2.8611667156219482, 1.1995021104812622, -122.43284606933594],
    [0.013320736587047577, -0.9018116593360901, 3.805417537689209, -22.36767578125],
    [0.0, 0.0, 0.0, 1.0]
],
  "dcmmeta_reorient_transform": [
    [0.0, -1.0, 0.0, 79.0],
    [1.0, 0.0, 0.0, 0.0],
    [0.0, 0.0, 1.0, 0.0],
    [0.0, 0.0, 0.0, 1.0]
],
  "dcmmeta_shape": [80, 80, 30, 200],
  "dcmmeta_slice_dim": 2,
  "dcmmeta_version": 0.6,
  "global": {
    "const": {
      "AccessionNumber": "qa",
      "AcquisitionMatrix": [80, 0, 0, 80],
      "AngioFlag": "N",
      "BitsAllocated": 16,
      "BitsStored": 12,
      "BodyPartExamined": "BRAIN",
      "Columns": 480,
      "EchoNumbers": 1,
      "EchoTime": 30.0,
      "EchoTrainLength": 80,
      "FlipAngle": 77.0,
      "HighBit": 11,
      "ImageOrientationPatient": [0.99997151679581, 0.00610326271094, 0.00444024564197, -0.0071557762701, 0.95372223197687, 0.30060389069177],
      "ImagePositionPatient": [-715.41621717455, -679.49461660461, -276.63727895375],
      "ImageType": [
        "ORIGINAL",
        "PRIMARY",
        "M",
        "ND",
        "NORM",
        "MOSAIC"
],
      "ImagedNucleus": "1H",
      "ImagingFrequency": 123.252432,
      "InPlanePhaseEncodingDirection": "COL",
      "MRAcquisitionType": "2D",
      "MagneticFieldStrength": 3.0,
      "Manufacturer": "SIEMENS",
      "ManufacturerModelName": "Prisma",
      "Modality": "MR",
      "NumberOfAverages": 1.0,
      "NumberOfPhaseEncodingSteps": 80,
      "PercentPhaseFieldOfView": 100.0,
      "PercentSampling": 100.0,
      "PerformedProcedureStepStartTime": "100511.935000",
      "PhotometricInterpretation": "MONOCHROME2",
      "PixelBandwidth": 2315.0,
      "PixelRepresentation": 0,
      "PixelSpacing": [3.0, 3.0],
      "ProtocolName": "func-bold_acq-32ch-77flip",
      "RepetitionTime": 2000.0,
      "Rows": 480,
      "SAR": 0.04377049546527,
      "SamplesPerPixel": 1,
      "ScanOptions": "FS",
      "ScanningSequence": "EP",
      "SequenceName": "*epfid2d1_80",
      "SequenceVariant": "SK",
      "SeriesDescription": "func-bold_acq-32ch-77flip",
      "SeriesNumber": 8,
      "SeriesTime": "102111.712000",
      "SliceLocation": -57.848124697866,
      "SliceThickness": 3.5,
      "SmallestImagePixelValue": 0,
      "SoftwareVersions": "syngo MR E11",
      "SpacingBetweenSlices": 3.9899999763142,
      "SpecificCharacterSet": "ISO_IR 100",
      "StudyID": "111",
      "StudyTime": "100511.849000",
      "TransmitCoilName": "Body",
      "VariableFlipAngleFlag": "N",
      "WindowCenterWidthExplanation": "Algo1",
      "dBdt": 0.0},
    "slices": {}
  },
  "time": {
    "samples": {
      "AcquisitionNumber": [1, 2, 3, 4, 5, 6, 7, 8, 9, 10, 11, 12, 13, 14, 15, 16, 17, 18, 19, 20, 21, 22, 23, 24, 25, 26, 27, 28, 29, 30, 31, 32, 33, 34, 35, 36, 37, 38, 39, 40, 41, 42, 43, 44, 45, 46, 47, 48, 49, 50, 51, 52, 53, 54, 55, 56, 57, 58, 59, 60, 61, 62, 63, 64, 65, 66, 67, 68, 69, 70, 71, 72, 73, 74, 75, 76, 77, 78, 79, 80, 81, 82, 83, 84, 85, 86, 87, 88, 89, 90, 91, 92, 93, 94, 95, 96, 97, 98, 99, 100, 101, 102, 103, 104, 105, 106, 107, 108, 109, 110, 111, 112, 113, 114, 115, 116, 117, 118, 119, 120, 121, 122, 123, 124, 125, 126, 127, 128, 129, 130, 131, 132, 133, 134, 135, 136, 137, 138, 139, 140, 141, 142, 143, 144, 145, 146, 147, 148, 149, 150, 151, 152, 153, 154, 155, 156, 157, 158, 159, 160, 161, 162, 163, 164, 165, 166, 167, 168, 169, 170, 171, 172, 173, 174, 175, 176, 177, 178, 179, 180, 181, 182, 183, 184, 185, 186, 187, 188, 189, 190, 191, 192, 193, 194, 195, 196, 197, 198, 199, 200],
      "AcquisitionTime": ["102027.497500", "102029.497500", "102031.497500", "102033.497500", "102035.497500", "102037.497500", "102039.497500", "102041.497500", "102043.497500", "102045.497500", "102047.497500", "102049.497500", "102051.497500", "102053.497500", "102055.497500", "102057.497500", "102059.497500", "102101.497500", "102103.497500", "102105.497500", "102107.497500", "102109.497500", "102111.497500", "102113.497500", "102115.497500", "102117.497500", "102119.497500", "102121.497500", "102123.497500", "102125.497500", "102127.497500", "102129.497500", "102131.497500", "102133.497500", "102135.497500", "102137.497500", "102139.497500", "102141.497500", "102143.497500", "102145.497500", "102147.497500", "102149.497500", "102151.497500", "102153.497500", "102155.497500", "102157.497500", "102159.497500", "102201.497500", "102203.497500", "102205.497500", "102207.497500", "102209.497500", "102211.497500", "102213.497500", "102215.497500", "102217.497500", "102219.497500", "102221.497500", "102223.497500", "102225.497500", "102227.497500", "102229.497500", "102231.497500", "102233.497500", "102235.497500", "102237.497500", "102239.497500", "102241.497500", "102243.497500", "102245.497500", "102247.497500", "102249.497500", "102251.497500", "102253.497500", "102255.497500", "102257.497500", "102259.497500", "102301.497500", "102303.497500", "102305.497500", "102307.497500", "102309.497500", "102311.497500", "102313.497500", "102315.497500", "102317.497500", "102319.497500", "102321.497500", "102323.497500", "102325.497500", "102327.497500", "102329.497500", "102331.497500", "102333.497500", "102335.497500", "102337.497500", "102339.497500", "102341.497500", "102343.497500", "102345.497500", "102347.497500", "102349.497500", "102351.497500", "102353.497500", "102355.497500", "102357.497500", "102359.497500", "102401.497500", "102403.497500", "102405.497500", "102407.497500", "102409.497500", "102411.497500", "102413.497500", "102415.497500", "102417.497500", "102419.497500", "102421.497500", "102423.497500", "102425.497500", "102427.497500", "102429.497500", "102431.497500", "102433.497500", "102435.497500", "102437.497500", "102439.497500", "102441.497500", "102443.497500", "102445.497500", "102447.497500", "102449.497500", "102451.497500", "102453.497500", "102455.497500", "102457.497500", "102459.497500", "102501.497500", "102503.497500", "102505.497500", "102507.497500", "102509.497500", "102511.497500", "102513.497500", "102515.497500", "102517.497500", "102519.497500", "102521.497500", "102523.497500", "102525.497500", "102527.497500", "102529.497500", "102531.497500", "102533.497500", "102535.497500", "102537.497500", "102539.497500", "102541.497500", "102543.497500", "102545.497500", "102547.497500", "102549.497500", "102551.497500", "102553.497500", "102555.497500", "102557.497500", "102559.497500", "102601.497500", "102603.497500", "102605.497500", "102607.497500", "102609.497500", "102611.497500", "102613.497500", "102615.497500", "102617.497500", "102619.497500", "102621.497500", "102623.497500", "102625.497500", "102627.497500", "102629.497500", "102631.497500", "102633.497500", "102635.497500", "102637.497500", "102639.497500", "102641.497500", "102643.497500", "102645.497500", "102647.497500", "102649.497500", "102651.497500", "102653.497500", "102655.497500", "102657.497500", "102659.497500", "102701.497500", "102703.497500", "102705.497500"],
      "ContentTime": ["102111.715000", "102111.719000", "102111.721000", "102111.724000", "102111.727000", "102111.734000", "102111.736000", "102111.739000", "102111.742000", "102111.744000", "102111.753000", "102111.756000", "102111.759000", "102111.761000", "102111.764000", "102111.766000", "102111.769000", "102111.772000", "102111.774000", "102111.777000", "102111.779000", "102111.792000", "102151.710000", "102151.713000", "102151.716000", "102151.719000", "102151.721000", "102151.724000", "102151.726000", "102151.729000", "102151.731000", "102151.734000", "102151.737000", "102151.739000", "102151.742000", "102151.744000", "102151.747000", "102151.749000", "102151.752000", "102151.754000", "102151.757000", "102151.760000", "102231.710000", "102231.712000", "102231.715000", "102231.718000", "102231.720000", "102231.723000", "102231.725000", "102231.728000", "102231.731000", "102231.733000", "102231.736000", "102231.738000", "102231.741000", "102231.743000", "102231.746000", "102231.748000", "102231.761000", "102231.764000", "102231.766000", "102231.769000", "102311.710000", "102311.712000", "102311.715000", "102311.725000", "102311.727000", "102311.730000", "102311.733000", "102311.735000", "102311.738000", "102311.740000", "102311.743000", "102311.745000", "102311.748000", "102311.750000", "102311.753000", "102311.756000", "102311.758000", "102311.761000", "102311.763000", "102311.766000", "102351.710000", "102351.713000", "102351.716000", "102351.733000", "102351.735000", "102351.738000", "102351.741000", "102351.743000", "102351.746000", "102351.749000", "102351.751000", "102351.754000", "102351.757000", "102351.759000", "102351.762000", "102351.765000", "102351.767000", "102351.770000", "102351.773000", "102351.775000", "102431.711000", "102431.713000", "102431.716000", "102431.719000", "102431.721000", "102431.724000", "102431.727000", "102431.729000", "102431.732000", "102431.734000", "102431.737000", "102431.740000", "102431.742000", "102431.745000", "102431.747000", "102431.750000", "102431.752000", "102431.755000", "102431.758000", "102431.760000", "102511.710000", "102511.713000", "102511.715000", "102511.718000", "102511.720000", "102511.723000", "102511.726000", "102511.728000", "102511.731000", "102511.733000", "102511.736000", "102511.739000", "102511.741000", "102511.744000", "102511.746000", "102511.749000", "102511.752000", "102511.754000", "102511.757000", "102511.759000", "102551.711000", "102551.713000", "102551.716000", "102551.719000", "102551.721000", "102551.724000", "102551.727000", "102551.729000", "102551.732000", "102551.734000", "102551.737000", "102551.740000", "102551.742000", "102551.745000", "102551.747000", "102551.750000", "102551.752000", "102551.755000", "102551.758000", "102551.760000", "102631.711000", "102631.713000", "102631.716000", "102631.719000", "102631.721000", "102631.724000", "102631.727000", "102631.729000", "102631.732000", "102631.734000", "102631.737000", "102631.740000", "102631.742000", "102631.745000", "102631.747000", "102631.750000", "102631.752000", "102631.755000", "102631.758000", "102631.760000", "102707.055000", "102707.058000", "102707.061000", "102707.063000", "102707.066000", "102707.068000", "102707.071000", "102707.074000", "102707.077000", "102707.079000", "102707.082000", "102707.085000", "102707.088000", "102707.093000", "102707.096000", "102707.099000", "102707.102000", "102707.109000"],
      "InstanceCreationTime": ["102111.715000", "102111.719000", "102111.721000", "102111.724000", "102111.727000", "102111.734000", "102111.736000", "102111.739000", "102111.742000", "102111.744000", "102111.753000", "102111.756000", "102111.759000", "102111.761000", "102111.764000", "102111.766000", "102111.769000", "102111.772000", "102111.774000", "102111.777000", "102111.779000", "102111.792000", "102151.710000", "102151.713000", "102151.716000", "102151.719000", "102151.721000", "102151.724000", "102151.726000", "102151.729000", "102151.731000", "102151.734000", "102151.737000", "102151.739000", "102151.742000", "102151.744000", "102151.747000", "102151.749000", "102151.752000", "102151.754000", "102151.757000", "102151.760000", "102231.710000", "102231.712000", "102231.715000", "102231.718000", "102231.720000", "102231.723000", "102231.725000", "102231.728000", "102231.731000", "102231.733000", "102231.736000", "102231.738000", "102231.741000", "102231.743000", "102231.746000", "102231.748000", "102231.761000", "102231.764000", "102231.766000", "102231.769000", "102311.710000", "102311.712000", "102311.715000", "102311.725000", "102311.727000", "102311.730000", "102311.733000", "102311.735000", "102311.738000", "102311.740000", "102311.743000", "102311.745000", "102311.748000", "102311.750000", "102311.753000", "102311.756000", "102311.758000", "102311.761000", "102311.763000", "102311.766000", "102351.710000", "102351.713000", "102351.716000", "102351.733000", "102351.735000", "102351.738000", "102351.741000", "102351.743000", "102351.746000", "102351.749000", "102351.751000", "102351.754000", "102351.757000", "102351.759000", "102351.762000", "102351.765000", "102351.767000", "102351.770000", "102351.773000", "102351.775000", "102431.711000", "102431.713000", "102431.716000", "102431.719000", "102431.721000", "102431.724000", "102431.727000", "102431.729000", "102431.732000", "102431.734000", "102431.737000", "102431.740000", "102431.742000", "102431.745000", "102431.747000", "102431.750000", "102431.752000", "102431.755000", "102431.758000", "102431.760000", "102511.710000", "102511.713000", "102511.715000", "102511.718000", "102511.720000", "102511.723000", "102511.726000", "102511.728000", "102511.731000", "102511.733000", "102511.736000", "102511.739000", "102511.741000", "102511.744000", "102511.746000", "102511.749000", "102511.752000", "102511.754000", "102511.757000", "102511.759000", "102551.711000", "102551.713000", "102551.716000", "102551.719000", "102551.721000", "102551.724000", "102551.727000", "102551.729000", "102551.732000", "102551.734000", "102551.737000", "102551.740000", "102551.742000", "102551.745000", "102551.747000", "102551.750000", "102551.752000", "102551.755000", "102551.758000", "102551.760000", "102631.711000", "102631.713000", "102631.716000", "102631.719000", "102631.721000", "102631.724000", "102631.727000", "102631.729000", "102631.732000", "102631.734000", "102631.737000", "102631.740000", "102631.742000", "102631.745000", "102631.747000", "102631.750000", "102631.752000", "102631.755000", "102631.758000", "102631.760000", "102707.055000", "102707.058000", "102707.061000", "102707.063000", "102707.066000", "102707.068000", "102707.071000", "102707.074000", "102707.077000", "102707.079000", "102707.082000", "102707.085000", "102707.088000", "102707.093000", "102707.096000", "102707.099000", "102707.102000", "102707.109000"],
      "InstanceNumber": [1, 2, 3, 4, 5, 6, 7, 8, 9, 10, 11, 12, 13, 14, 15, 16, 17, 18, 19, 20, 21, 22, 23, 24, 25, 26, 27, 28, 29, 30, 31, 32, 33, 34, 35, 36, 37, 38, 39, 40, 41, 42, 43, 44, 45, 46, 47, 48, 49, 50, 51, 52, 53, 54, 55, 56, 57, 58, 59, 60, 61, 62, 63, 64, 65, 66, 67, 68, 69, 70, 71, 72, 73, 74, 75, 76, 77, 78, 79, 80, 81, 82, 83, 84, 85, 86, 87, 88, 89, 90, 91, 92, 93, 94, 95, 96, 97, 98, 99, 100, 101, 102, 103, 104, 105, 106, 107, 108, 109, 110, 111, 112, 113, 114, 115, 116, 117, 118, 119, 120, 121, 122, 123, 124, 125, 126, 127, 128, 129, 130, 131, 132, 133, 134, 135, 136, 137, 138, 139, 140, 141, 142, 143, 144, 145, 146, 147, 148, 149, 150, 151, 152, 153, 154, 155, 156, 157, 158, 159, 160, 161, 162, 163, 164, 165, 166, 167, 168, 169, 170, 171, 172, 173, 174, 175, 176, 177, 178, 179, 180, 181, 182, 183, 184, 185, 186, 187, 188, 189, 190, 191, 192, 193, 194, 195, 196, 197, 198, 199, 200],
      "LargestImagePixelValue": [1938, 1939, 1936, 1935, 1938, 1936, 1938, 1936, 1940, 1934, 1936, 1942, 1943, 1936, 1937, 1937, 1940, 1937, 1936, 1937, 1936, 1939, 1939, 1938, 1945, 1940, 1940, 1946, 1939, 1938, 1939, 1940, 1938, 1938, 1939, 1950, 1941, 1939, 1938, 1940, 1937, 1936, 1944, 1936, 1935, 1937, 1937, 1938, 1938, 1941, 1940, 1936, 1946, 1935, 1936, 1939, 1935, 1935, 1936, 1937, 1937, 1937, 1935, 1940, 1940, 1937, 1950, 1941, 1942, 1935, 1945, 1936, 1943, 1938, 1938, 1935, 1947, 1946, 1936, 1939, 1948, 1948, 1937, 1943, 1940, 1938, 1938, 1938, 1938, 1939, 1936, 1946, 1948, 1942, 1942, 1945, 1942, 1939, 1937, 1939, 1939, 1935, 1947, 1951, 1940, 1947, 1939, 1941, 1949, 1939, 1933, 1936, 1935, 1937, 1937, 1942, 1939, 1945, 1952, 1939, 1946, 1948, 1948, 1945, 1942, 1943, 1943, 1951, 1945, 1940, 1939, 1935, 1937, 1936, 1935, 1941, 1944, 1940, 1942, 1947, 1945, 1941, 1934, 1937, 1937, 1937, 1949, 1938, 1936, 1936, 1935, 1934, 1942, 1937, 1944, 1949, 1937, 1943, 1942, 1936, 1938, 1935, 1934, 1935, 1935, 1935, 1936, 1936, 1935, 1941, 1938, 1941, 1945, 1947, 1936, 1938, 1943, 1945, 1945, 1935, 1937, 1939, 1935, 1943, 1936, 1946, 1949, 1937, 1944, 1952, 1944, 1938, 1936, 1942, 1941, 1948, 1947, 1941, 1940, 1945],
      "WindowCenter": [965.0, 965.0, 965.0, 965.0, 965.0, 965.0, 965.0, 966.0, 966.0, 966.0, 965.0, 966.0, 966.0, 966.0, 965.0, 965.0, 965.0, 965.0, 966.0, 964.0, 965.0, 965.0, 966.0, 966.0, 966.0, 965.0, 965.0, 965.0, 965.0, 965.0, 965.0, 965.0, 966.0, 966.0, 965.0, 965.0, 964.0, 966.0, 965.0, 966.0, 966.0, 965.0, 965.0, 965.0, 964.0, 964.0, 965.0, 965.0, 965.0, 965.0, 966.0, 965.0, 964.0, 964.0, 964.0, 965.0, 964.0, 964.0, 965.0, 964.0, 964.0, 965.0, 965.0, 964.0, 964.0, 964.0, 964.0, 964.0, 963.0, 964.0, 964.0, 964.0, 964.0, 965.0, 965.0, 965.0, 963.0, 964.0, 965.0, 965.0, 965.0, 965.0, 964.0, 964.0, 964.0, 965.0, 965.0, 964.0, 965.0, 965.0, 964.0, 964.0, 964.0, 965.0, 964.0, 965.0, 965.0, 965.0, 965.0, 963.0, 963.0, 965.0, 964.0, 964.0, 964.0, 965.0, 965.0, 964.0, 965.0, 964.0, 964.0, 965.0, 965.0, 964.0, 964.0, 965.0, 965.0, 964.0, 964.0, 965.0, 965.0, 964.0, 964.0, 964.0, 965.0, 964.0, 964.0, 965.0, 964.0, 965.0, 964.0, 964.0, 964.0, 965.0, 965.0, 964.0, 964.0, 964.0, 963.0, 963.0, 963.0, 965.0, 965.0, 965.0, 964.0, 963.0, 964.0, 964.0, 964.0, 963.0, 965.0, 965.0, 964.0, 963.0, 965.0, 963.0, 965.0, 964.0, 964.0, 964.0, 964.0, 964.0, 964.0, 964.0, 964.0, 964.0, 964.0, 964.0, 964.0, 964.0, 964.0, 964.0, 964.0, 963.0, 963.0, 964.0, 964.0, 964.0, 964.0, 964.0, 964.0, 963.0, 964.0, 963.0, 963.0, 963.0, 964.0, 964.0, 964.0, 964.0, 964.0, 964.0, 963.0, 964.0, 963.0, 963.0, 963.0, 964.0, 964.0, 964.0],
      "WindowWidth": [2103.0, 2103.0, 2103.0, 2103.0, 2103.0, 2103.0, 2103.0, 2104.0, 2104.0, 2104.0, 2103.0, 2103.0, 2104.0, 2104.0, 2103.0, 2103.0, 2103.0, 2103.0, 2104.0, 2103.0, 2103.0, 2103.0, 2104.0, 2104.0, 2104.0, 2103.0, 2103.0, 2103.0, 2103.0, 2103.0, 2103.0, 2103.0, 2104.0, 2103.0, 2103.0, 2103.0, 2102.0, 2104.0, 2102.0, 2103.0, 2104.0, 2102.0, 2102.0, 2102.0, 2102.0, 2101.0, 2102.0, 2102.0, 2102.0, 2103.0, 2103.0, 2102.0, 2101.0, 2101.0, 2101.0, 2102.0, 2101.0, 2101.0, 2102.0, 2101.0, 2102.0, 2102.0, 2102.0, 2101.0, 2101.0, 2102.0, 2102.0, 2102.0, 2101.0, 2101.0, 2101.0, 2101.0, 2101.0, 2102.0, 2102.0, 2102.0, 2100.0, 2101.0, 2102.0, 2102.0, 2102.0, 2102.0, 2101.0, 2101.0, 2101.0, 2102.0, 2102.0, 2101.0, 2102.0, 2102.0, 2101.0, 2101.0, 2101.0, 2102.0, 2101.0, 2102.0, 2101.0, 2101.0, 2101.0, 2100.0, 2100.0, 2101.0, 2101.0, 2101.0, 2101.0, 2102.0, 2101.0, 2101.0, 2101.0, 2101.0, 2101.0, 2101.0, 2101.0, 2101.0, 2101.0, 2101.0, 2101.0, 2101.0, 2101.0, 2101.0, 2101.0, 2101.0, 2101.0, 2101.0, 2101.0, 2101.0, 2101.0, 2101.0, 2101.0, 2101.0, 2100.0, 2101.0, 2101.0, 2101.0, 2101.0, 2100.0, 2100.0, 2100.0, 2100.0, 2100.0, 2100.0, 2101.0, 2101.0, 2101.0, 2100.0, 2100.0, 2100.0, 2100.0, 2100.0, 2100.0, 2101.0, 2101.0, 2100.0, 2100.0, 2101.0, 2100.0, 2101.0, 2100.0, 2100.0, 2100.0, 2101.0, 2100.0, 2100.0, 2101.0, 2101.0, 2100.0, 2100.0, 2101.0, 2101.0, 2100.0, 2100.0, 2100.0, 2100.0, 2100.0, 2100.0, 2100.0, 2100.0, 2101.0, 2101.0, 2100.0, 2100.0, 2100.0, 2101.0, 2099.0, 2099.0, 2099.0, 2101.0, 2100.0, 2101.0, 2100.0, 2101.0, 2100.0, 2100.0, 2100.0, 2100.0, 2100.0, 2100.0, 2101.0, 2100.0, 2101.0]
    },
    "slices": {}
  }
}