{
  "AcquisitionMatrixPE": 80,
  "AcquisitionNumber": 1,
  "AcquisitionTime": "09:05:13.512500",
  "BandwidthPerPixelPhaseEncode": 25,
  "BaseResolution": 80,
  "BodyPartExamined": "BRAIN",
  "CoilCombinationMethod": "Sum of Squares",
  "ConsistencyInfo": "N4_VE11C_LATEST_20160120",
  "ConversionSoftware": "dcm2niix",
  "ConversionSoftwareVersion": "v1.0.20220720",
  "DerivedVendorReportedEchoSpacing": 0.0005,
  "DeviceSerialNumber": "66112",
  "DwellTime": 2.7e-06,
  "EchoTime": 0.03,
  "EchoTrainLength": 80,
  "EffectiveEchoSpacing": 0.0005,
  "FlipAngle": 77,
  "HeudiconvVersion": "0.13.1",
  "ImageOrientationPatientDICOM": [0.980952, 0.1938, 0.0132207, -0.188191, 0.931287, 0.31191],
  "ImageOrientationText": "Tra>Cor(18.0)>Sag(-2.8)",
  "ImageType": [
    "ORIGINAL",
    "PRIMARY",
    "M",
    "ND",
    "NORM",
    "MOSAIC"
],
  "ImagingFrequency": 123.252,
  "InPlanePhaseEncodingDirectionDICOM": "COL",
  "InstitutionAddress": "Maynard 3,Hanover,NH,US,03755",
  "InstitutionName": "Dartmouth College - PBS",
  "InstitutionalDepartmentName": "Department",
  "MRAcquisitionType": "2D",
  "MagneticFieldStrength": 3,
  "Manufacturer": "Siemens",
  "ManufacturersModelName": "Prisma",
  "MatrixCoilMode": "SENSE",
  "Modality": "MR",
  "NonlinearGradientCorrection": false,
  "PartialFourier": 1,
  "PatientPosition": "HFS",
  "PercentPhaseFOV": 100,
  "PercentSampling": 100,
  "PhaseEncodingDirection": "j-",
  "PhaseEncodingSteps": 80,
  "PhaseResolution": 1,
  "PixelBandwidth": 2315,
  "ProcedureStepDescription": "dbic^QA",
  "ProtocolName": "func-bold_acq-32ch-77flip",
  "PulseSequenceDetails": "%SiemensSeq%\\ep2d_bold",
  "ReceiveCoilActiveElements": "HEA;HEP",
  "ReceiveCoilName": "Head_32",
  "ReconMatrixPE": 80,
  "RepetitionTime": 2,
  "SAR": 0.0436804,
  "ScanOptions": "FS",
  "ScanningSequence": "EP",
  "SequenceName": "*epfid2d1_80",
  "SequenceVariant": "SK",
  "SeriesDescription": "func-bold_acq-32ch-77flip",
  "SeriesNumber": 8,
  "ShimSetting": [4151, -7697, -7517, 252, -39, -151, -35, 59],
  "SliceThickness": 3.5,
  "SliceTiming": [0.99, 0, 1.055, 0.065, 1.12, 0.13, 1.1875, 0.1975, 1.2525, 0.2625, 1.32, 0.33, 1.385, 0.395, 1.45, 0.46, 1.5175, 0.5275, 1.5825, 0.5925, 1.65, 0.66, 1.715, 0.725, 1.78, 0.79, 1.8475, 0.8575, 1.9125, 0.9225],
  "SoftwareVersions": "syngo MR E11",
  "SpacingBetweenSlices": 3.99,
  "StationName": "AWP66112",
  "TotalReadoutTime": 0.0395,
  "TxRefAmp": 227.158,
  "dcmmeta_affine": [
    [-2.9428560733795166, -0.5645744204521179, -0.19206181168556213, 144.64134216308594],
    [-0.5813989043235779, 2.7938616275787354, 1.230743646621704, -89.42953491210938],
    [0.03966221585869789, -0.9357308745384216, 3.7905778884887695, -24.289505004882812],
    [0.0, 0.0, 0.0, 1.0]
],
  "dcmmeta_reorient_transform": [
    [0.0, -1.0, 0.0, 79.0],
    [1.0, 0.0, 0.0, 0.0],
    [0.0, 0.0, 1.0, 0.0],
    [0.0, 0.0, 0.0, 1.0]
],
  "dcmmeta_shape": [80, 80, 30, 200],
  "dcmmeta_slice_dim": 2,
  "dcmmeta_version": 0.6,
  "global": {
    "const": {
      "AccessionNumber": "qa",
      "AcquisitionMatrix": [80, 0, 0, 80],
      "AngioFlag": "N",
      "BitsAllocated": 16,
      "BitsStored": 12,
      "BodyPartExamined": "BRAIN",
      "Columns": 480,
      "EchoNumbers": 1,
      "EchoTime": 30.0,
      "EchoTrainLength": 80,
      "FlipAngle": 77.0,
      "HighBit": 11,
      "ImageOrientationPatient": [0.98095204511466, 0.19379963170318, 0.01322073890042, -0.1881914728372, 0.93128724753505, 0.31191029500479],
      "ImagePositionPatient": [-575.69629963134, -806.33766949516, -293.29086617078],
      "ImageType": [
        "ORIGINAL",
        "PRIMARY",
        "M",
        "ND",
        "NORM",
        "MOSAIC"
],
      "ImagedNucleus": "1H",
      "ImagingFrequency": 123.252419,
      "InPlanePhaseEncodingDirection": "COL",
      "MRAcquisitionType": "2D",
      "MagneticFieldStrength": 3.0,
      "Manufacturer": "SIEMENS",
      "ManufacturerModelName": "Prisma",
      "Modality": "MR",
      "NumberOfAverages": 1.0,
      "NumberOfPhaseEncodingSteps": 80,
      "PercentPhaseFieldOfView": 100.0,
      "PercentSampling": 100.0,
      "PerformedProcedureStepStartTime": "084632.806000",
      "PhotometricInterpretation": "MONOCHROME2",
      "PixelBandwidth": 2315.0,
      "PixelRepresentation": 0,
      "PixelSpacing": [3.0, 3.0],
      "ProtocolName": "func-bold_acq-32ch-77flip",
      "RepetitionTime": 2000.0,
      "Rows": 480,
      "SAR": 0.04368043927143,
      "SamplesPerPixel": 1,
      "ScanOptions": "FS",
      "ScanningSequence": "EP",
      "SequenceName": "*epfid2d1_80",
      "SequenceVariant": "SK",
      "SeriesDescription": "func-bold_acq-32ch-77flip",
      "SeriesNumber": 8,
      "SeriesTime": "090607.643000",
      "SliceLocation": -57.623104293672,
      "SliceThickness": 3.5,
      "SmallestImagePixelValue": 0,
      "SoftwareVersions": "syngo MR E11",
      "SpacingBetweenSlices": 3.9899999149836,
      "SpecificCharacterSet": "ISO_IR 100",
      "StudyID": "13",
      "StudyTime": "084632.728000",
      "TransmitCoilName": "Body",
      "VariableFlipAngleFlag": "N",
      "WindowCenterWidthExplanation": "Algo1",
      "dBdt": 0.0},
    "slices": {}
  },
  "time": {
    "samples": {
      "AcquisitionNumber": [1, 2, 3, 4, 5, 6, 7, 8, 9, 10, 11, 12, 13, 14, 15, 16, 17, 18, 19, 20, 21, 22, 23, 24, 25, 26, 27, 28, 29, 30, 31, 32, 33, 34, 35, 36, 37, 38, 39, 40, 41, 42, 43, 44, 45, 46, 47, 48, 49, 50, 51, 52, 53, 54, 55, 56, 57, 58, 59, 60, 61, 62, 63, 64, 65, 66, 67, 68, 69, 70, 71, 72, 73, 74, 75, 76, 77, 78, 79, 80, 81, 82, 83, 84, 85, 86, 87, 88, 89, 90, 91, 92, 93, 94, 95, 96, 97, 98, 99, 100, 101, 102, 103, 104, 105, 106, 107, 108, 109, 110, 111, 112, 113, 114, 115, 116, 117, 118, 119, 120, 121, 122, 123, 124, 125, 126, 127, 128, 129, 130, 131, 132, 133, 134, 135, 136, 137, 138, 139, 140, 141, 142, 143, 144, 145, 146, 147, 148, 149, 150, 151, 152, 153, 154, 155, 156, 157, 158, 159, 160, 161, 162, 163, 164, 165, 166, 167, 168, 169, 170, 171, 172, 173, 174, 175, 176, 177, 178, 179, 180, 181, 182, 183, 184, 185, 186, 187, 188, 189, 190, 191, 192, 193, 194, 195, 196, 197, 198, 199, 200],
      "AcquisitionTime": ["090513.512500", "090515.512500", "090517.512500", "090519.512500", "090521.512500", "090523.512500", "090525.512500", "090527.512500", "090529.512500", "090531.512500", "090533.512500", "090535.512500", "090537.512500", "090539.512500", "090541.512500", "090543.512500", "090545.512500", "090547.512500", "090549.512500", "090551.512500", "090553.512500", "090555.512500", "090557.512500", "090559.512500", "090601.512500", "090603.512500", "090605.512500", "090607.512500", "090609.512500", "090611.512500", "090613.512500", "090615.512500", "090617.512500", "090619.512500", "090621.512500", "090623.512500", "090625.512500", "090627.512500", "090629.512500", "090631.512500", "090633.512500", "090635.512500", "090637.512500", "090639.512500", "090641.512500", "090643.512500", "090645.512500", "090647.512500", "090649.512500", "090651.512500", "090653.512500", "090655.512500", "090657.512500", "090659.512500", "090701.512500", "090703.512500", "090705.512500", "090707.512500", "090709.512500", "090711.512500", "090713.512500", "090715.512500", "090717.512500", "090719.512500", "090721.512500", "090723.512500", "090725.512500", "090727.512500", "090729.512500", "090731.512500", "090733.512500", "090735.512500", "090737.512500", "090739.512500", "090741.512500", "090743.512500", "090745.512500", "090747.512500", "090749.512500", "090751.512500", "090753.512500", "090755.512500", "090757.512500", "090759.512500", "090801.512500", "090803.512500", "090805.512500", "090807.512500", "090809.512500", "090811.512500", "090813.512500", "090815.512500", "090817.512500", "090819.512500", "090821.512500", "090823.512500", "090825.512500", "090827.512500", "090829.512500", "090831.512500", "090833.512500", "090835.512500", "090837.512500", "090839.512500", "090841.512500", "090843.512500", "090845.512500", "090847.512500", "090849.512500", "090851.512500", "090853.512500", "090855.512500", "090857.512500", "090859.512500", "090901.512500", "090903.512500", "090905.512500", "090907.512500", "090909.512500", "090911.512500", "090913.512500", "090915.512500", "090917.512500", "090919.512500", "090921.512500", "090923.512500", "090925.512500", "090927.512500", "090929.512500", "090931.512500", "090933.512500", "090935.512500", "090937.512500", "090939.512500", "090941.512500", "090943.512500", "090945.512500", "090947.512500", "090949.512500", "090951.512500", "090953.512500", "090955.512500", "090957.512500", "090959.512500", "091001.512500", "091003.512500", "091005.512500", "091007.512500", "091009.512500", "091011.512500", "091013.512500", "091015.512500", "091017.512500", "091019.512500", "091021.512500", "091023.512500", "091025.512500", "091027.512500", "091029.512500", "091031.512500", "091033.512500", "091035.512500", "091037.512500", "091039.512500", "091041.512500", "091043.512500", "091045.512500", "091047.512500", "091049.512500", "091051.512500", "091053.512500", "091055.512500", "091057.512500", "091059.512500", "091101.512500", "091103.512500", "091105.512500", "091107.512500", "091109.512500", "091111.512500", "091113.512500", "091115.512500", "091117.512500", "091119.512500", "091121.512500", "091123.512500", "091125.512500", "091127.512500", "091129.512500", "091131.512500", "091133.512500", "091135.512500", "091137.512500", "091139.512500", "091141.512500", "091143.512500", "091145.512500", "091147.512500", "091149.512500", "091151.512500"],
      "ContentTime": ["090607.646000", "090607.650000", "090607.652000", "090607.655000", "090607.657000", "090607.660000", "090607.662000", "090607.665000", "090607.667000", "090607.670000", "090607.672000", "090607.675000", "090607.677000", "090607.680000", "090607.682000", "090607.685000", "090607.687000", "090607.690000", "090607.692000", "090607.695000", "090607.697000", "090607.700000", "090607.702000", "090607.705000", "090607.707000", "090607.710000", "090607.712000", "090647.641000", "090647.644000", "090647.647000", "090647.649000", "090647.652000", "090647.654000", "090647.657000", "090647.659000", "090647.662000", "090647.665000", "090647.667000", "090647.669000", "090647.672000", "090647.674000", "090647.677000", "090647.679000", "090647.682000", "090647.684000", "090647.687000", "090647.689000", "090727.641000", "090727.644000", "090727.647000", "090727.649000", "090727.652000", "090727.654000", "090727.657000", "090727.659000", "090727.662000", "090727.664000", "090727.667000", "090727.669000", "090727.672000", "090727.674000", "090727.677000", "090727.679000", "090727.682000", "090727.684000", "090727.687000", "090727.689000", "090807.641000", "090807.644000", "090807.647000", "090807.649000", "090807.652000", "090807.654000", "090807.657000", "090807.659000", "090807.662000", "090807.664000", "090807.667000", "090807.669000", "090807.672000", "090807.674000", "090807.677000", "090807.679000", "090807.682000", "090807.684000", "090807.687000", "090807.689000", "090847.641000", "090847.644000", "090847.647000", "090847.649000", "090847.652000", "090847.654000", "090847.657000", "090847.659000", "090847.662000", "090847.665000", "090847.667000", "090847.669000", "090847.672000", "090847.675000", "090847.677000", "090847.679000", "090847.682000", "090847.685000", "090847.687000", "090847.689000", "090927.642000", "090927.645000", "090927.647000", "090927.650000", "090927.652000", "090927.655000", "090927.657000", "090927.659000", "090927.662000", "090927.665000", "090927.667000", "090927.669000", "090927.672000", "090927.675000", "090927.677000", "090927.680000", "090927.682000", "090927.685000", "090927.687000", "090927.690000", "091007.655000", "091007.658000", "091007.660000", "091007.663000", "091007.665000", "091007.668000", "091007.670000", "091007.673000", "091007.675000", "091007.678000", "091007.680000", "091007.683000", "091007.685000", "091007.688000", "091007.690000", "091007.693000", "091007.695000", "091007.698000", "091007.700000", "091007.703000", "091047.641000", "091047.644000", "091047.647000", "091047.649000", "091047.652000", "091047.655000", "091047.657000", "091047.659000", "091047.662000", "091047.665000", "091047.667000", "091047.670000", "091047.672000", "091047.675000", "091047.677000", "091047.679000", "091047.682000", "091047.684000", "091047.687000", "091047.689000", "091127.641000", "091127.644000", "091127.647000", "091127.649000", "091127.652000", "091127.654000", "091127.657000", "091127.659000", "091127.662000", "091127.665000", "091127.667000", "091127.669000", "091127.672000", "091127.675000", "091127.677000", "091127.679000", "091127.682000", "091127.685000", "091127.687000", "091127.689000", "091152.953000", "091152.955000", "091152.958000", "091152.961000", "091152.963000", "091152.966000", "091152.968000", "091152.971000", "091152.973000", "091152.976000", "091152.979000", "091152.981000", "091152.986000"],
      "InstanceCreationTime": ["090607.646000", "090607.650000", "090607.652000", "090607.655000", "090607.657000", "090607.660000", "090607.662000", "090607.665000", "090607.667000", "090607.670000", "090607.672000", "090607.675000", "090607.677000", "090607.680000", "090607.682000", "090607.685000", "090607.687000", "090607.690000", "090607.692000", "090607.695000", "090607.697000", "090607.700000", "090607.702000", "090607.705000", "090607.707000", "090607.710000", "090607.712000", "090647.641000", "090647.644000", "090647.647000", "090647.649000", "090647.652000", "090647.654000", "090647.657000", "090647.659000", "090647.662000", "090647.665000", "090647.667000", "090647.669000", "090647.672000", "090647.674000", "090647.677000", "090647.679000", "090647.682000", "090647.684000", "090647.687000", "090647.689000", "090727.641000", "090727.644000", "090727.647000", "090727.649000", "090727.652000", "090727.654000", "090727.657000", "090727.659000", "090727.662000", "090727.664000", "090727.667000", "090727.669000", "090727.672000", "090727.674000", "090727.677000", "090727.679000", "090727.682000", "090727.684000", "090727.687000", "090727.689000", "090807.641000", "090807.644000", "090807.647000", "090807.649000", "090807.652000", "090807.654000", "090807.657000", "090807.659000", "090807.662000", "090807.664000", "090807.667000", "090807.669000", "090807.672000", "090807.674000", "090807.677000", "090807.679000", "090807.682000", "090807.684000", "090807.687000", "090807.689000", "090847.641000", "090847.644000", "090847.647000", "090847.649000", "090847.652000", "090847.654000", "090847.657000", "090847.659000", "090847.662000", "090847.665000", "090847.667000", "090847.669000", "090847.672000", "090847.675000", "090847.677000", "090847.679000", "090847.682000", "090847.685000", "090847.687000", "090847.689000", "090927.642000", "090927.645000", "090927.647000", "090927.650000", "090927.652000", "090927.655000", "090927.657000", "090927.659000", "090927.662000", "090927.665000", "090927.667000", "090927.669000", "090927.672000", "090927.675000", "090927.677000", "090927.680000", "090927.682000", "090927.685000", "090927.687000", "090927.690000", "091007.655000", "091007.658000", "091007.660000", "091007.663000", "091007.665000", "091007.668000", "091007.670000", "091007.673000", "091007.675000", "091007.678000", "091007.680000", "091007.683000", "091007.685000", "091007.688000", "091007.690000", "091007.693000", "091007.695000", "091007.698000", "091007.700000", "091007.703000", "091047.641000", "091047.644000", "091047.647000", "091047.649000", "091047.652000", "091047.655000", "091047.657000", "091047.659000", "091047.662000", "091047.665000", "091047.667000", "091047.670000", "091047.672000", "091047.675000", "091047.677000", "091047.679000", "091047.682000", "091047.684000", "091047.687000", "091047.689000", "091127.641000", "091127.644000", "091127.647000", "091127.649000", "091127.652000", "091127.654000", "091127.657000", "091127.659000", "091127.662000", "091127.665000", "091127.667000", "091127.669000", "091127.672000", "091127.675000", "091127.677000", "091127.679000", "091127.682000", "091127.685000", "091127.687000", "091127.689000", "091152.953000", "091152.955000", "091152.958000", "091152.961000", "091152.963000", "091152.966000", "091152.968000", "091152.971000", "091152.973000", "091152.976000", "091152.979000", "091152.981000", "091152.986000"],
      "InstanceNumber": [1, 2, 3, 4, 5, 6, 7, 8, 9, 10, 11, 12, 13, 14, 15, 16, 17, 18, 19, 20, 21, 22, 23, 24, 25, 26, 27, 28, 29, 30, 31, 32, 33, 34, 35, 36, 37, 38, 39, 40, 41, 42, 43, 44, 45, 46, 47, 48, 49, 50, 51, 52, 53, 54, 55, 56, 57, 58, 59, 60, 61, 62, 63, 64, 65, 66, 67, 68, 69, 70, 71, 72, 73, 74, 75, 76, 77, 78, 79, 80, 81, 82, 83, 84, 85, 86, 87, 88, 89, 90, 91, 92, 93, 94, 95, 96, 97, 98, 99, 100, 101, 102, 103, 104, 105, 106, 107, 108, 109, 110, 111, 112, 113, 114, 115, 116, 117, 118, 119, 120, 121, 122, 123, 124, 125, 126, 127, 128, 129, 130, 131, 132, 133, 134, 135, 136, 137, 138, 139, 140, 141, 142, 143, 144, 145, 146, 147, 148, 149, 150, 151, 152, 153, 154, 155, 156, 157, 158, 159, 160, 161, 162, 163, 164, 165, 166, 167, 168, 169, 170, 171, 172, 173, 174, 175, 176, 177, 178, 179, 180, 181, 182, 183, 184, 185, 186, 187, 188, 189, 190, 191, 192, 193, 194, 195, 196, 197, 198, 199, 200],
      "LargestImagePixelValue": [1880, 1880, 1880, 1879, 1879, 1880, 1879, 1879, 1883, 1880, 1880, 1880, 1880, 1881, 1882, 1880, 1880, 1880, 1880, 1881, 1883, 1880, 1881, 1879, 1880, 1882, 1881, 1881, 1880, 1880, 1882, 1881, 1880, 1882, 1882, 1881, 1881, 1882, 1880, 1881, 1882, 1880, 1880, 1882, 1879, 1881, 1880, 1879, 1881, 1880, 1878, 1879, 1879, 1880, 1880, 1880, 1880, 1878, 1881, 1880, 1880, 1880, 1880, 1878, 1879, 1881, 1881, 1880, 1879, 1877, 1881, 1880, 1879, 1881, 1880, 1880, 1881, 1880, 1881, 1879, 1880, 1879, 1879, 1879, 1880, 1878, 1879, 1879, 1878, 1881, 1880, 1880, 1879, 1879, 1878, 1880, 1881, 1880, 1879, 1880, 1881, 1880, 1880, 1879, 1879, 1880, 1879, 1881, 1880, 1881, 1880, 1879, 1881, 1879, 1878, 1880, 1878, 1878, 1877, 1879, 1879, 1876, 1882, 1877, 1878, 1879, 1878, 1880, 1882, 1878, 1879, 1879, 1879, 1879, 1878, 1879, 1879, 1880, 1881, 1880, 1880, 1879, 1879, 1880, 1879, 1879, 1879, 1879, 1879, 1879, 1880, 1876, 1879, 1878, 1879, 1878, 1880, 1880, 1878, 1878, 1881, 1878, 1878, 1880, 1881, 1880, 1879, 1879, 1879, 1880, 1881, 1881, 1879, 1879, 1879, 1878, 1879, 1880, 1880, 1879, 1879, 1879, 1878, 1879, 1879, 1877, 1877, 1879, 1879, 1878, 1878, 1879, 1878, 1878, 1878, 1877, 1877, 1879, 1878, 1879],
      "WindowCenter": [960.0, 959.0, 960.0, 959.0, 959.0, 959.0, 959.0, 959.0, 959.0, 959.0, 960.0, 960.0, 959.0, 960.0, 960.0, 959.0, 960.0, 959.0, 960.0, 959.0, 959.0, 960.0, 959.0, 960.0, 960.0, 960.0, 959.0, 959.0, 959.0, 961.0, 959.0, 960.0, 960.0, 960.0, 960.0, 960.0, 959.0, 959.0, 960.0, 959.0, 959.0, 960.0, 960.0, 960.0, 959.0, 958.0, 960.0, 959.0, 959.0, 959.0, 960.0, 960.0, 959.0, 960.0, 959.0, 959.0, 959.0, 960.0, 961.0, 959.0, 959.0, 960.0, 959.0, 960.0, 959.0, 959.0, 958.0, 959.0, 960.0, 960.0, 959.0, 960.0, 960.0, 959.0, 959.0, 959.0, 959.0, 960.0, 960.0, 959.0, 960.0, 960.0, 959.0, 959.0, 959.0, 960.0, 960.0, 960.0, 959.0, 959.0, 959.0, 959.0, 960.0, 959.0, 959.0, 960.0, 960.0, 959.0, 960.0, 960.0, 960.0, 959.0, 959.0, 959.0, 959.0, 960.0, 959.0, 960.0, 959.0, 959.0, 959.0, 959.0, 960.0, 959.0, 959.0, 959.0, 959.0, 959.0, 959.0, 959.0, 959.0, 960.0, 959.0, 959.0, 959.0, 959.0, 959.0, 959.0, 959.0, 960.0, 959.0, 959.0, 959.0, 959.0, 958.0, 960.0, 959.0, 960.0, 959.0, 959.0, 959.0, 959.0, 958.0, 959.0, 959.0, 958.0, 959.0, 959.0, 959.0, 959.0, 959.0, 958.0, 959.0, 958.0, 959.0, 959.0, 959.0, 958.0, 959.0, 960.0, 958.0, 959.0, 958.0, 958.0, 958.0, 958.0, 959.0, 960.0, 958.0, 959.0, 958.0, 958.0, 959.0, 959.0, 960.0, 959.0, 959.0, 958.0, 959.0, 958.0, 958.0, 959.0, 959.0, 958.0, 958.0, 959.0, 960.0, 958.0, 958.0, 959.0, 959.0, 958.0, 959.0, 960.0, 959.0, 959.0, 958.0, 959.0, 958.0, 958.0],
      "WindowWidth": [2089.0, 2089.0, 2089.0, 2088.0, 2088.0, 2088.0, 2088.0, 2088.0, 2088.0, 2088.0, 2088.0, 2088.0, 2088.0, 2089.0, 2089.0, 2088.0, 2089.0, 2088.0, 2089.0, 2088.0, 2088.0, 2089.0, 2088.0, 2088.0, 2088.0, 2089.0, 2088.0, 2088.0, 2088.0, 2089.0, 2088.0, 2089.0, 2089.0, 2089.0, 2088.0, 2088.0, 2088.0, 2088.0, 2088.0, 2088.0, 2087.0, 2088.0, 2088.0, 2088.0, 2088.0, 2087.0, 2088.0, 2088.0, 2088.0, 2088.0, 2088.0, 2088.0, 2087.0, 2088.0, 2088.0, 2088.0, 2087.0, 2088.0, 2089.0, 2087.0, 2088.0, 2088.0, 2087.0, 2088.0, 2088.0, 2087.0, 2087.0, 2088.0, 2088.0, 2088.0, 2087.0, 2088.0, 2088.0, 2087.0, 2087.0, 2087.0, 2087.0, 2089.0, 2088.0, 2087.0, 2088.0, 2089.0, 2087.0, 2087.0, 2087.0, 2088.0, 2088.0, 2088.0, 2087.0, 2087.0, 2087.0, 2087.0, 2088.0, 2088.0, 2088.0, 2088.0, 2088.0, 2087.0, 2088.0, 2088.0, 2088.0, 2088.0, 2088.0, 2087.0, 2088.0, 2088.0, 2087.0, 2088.0, 2088.0, 2087.0, 2088.0, 2088.0, 2088.0, 2087.0, 2087.0, 2087.0, 2087.0, 2087.0, 2087.0, 2086.0, 2088.0, 2088.0, 2088.0, 2088.0, 2086.0, 2088.0, 2087.0, 2087.0, 2087.0, 2088.0, 2086.0, 2087.0, 2087.0, 2087.0, 2086.0, 2088.0, 2086.0, 2088.0, 2086.0, 2086.0, 2087.0, 2087.0, 2086.0, 2087.0, 2087.0, 2086.0, 2087.0, 2087.0, 2087.0, 2086.0, 2086.0, 2086.0, 2087.0, 2086.0, 2088.0, 2086.0, 2087.0, 2086.0, 2087.0, 2088.0, 2087.0, 2086.0, 2086.0, 2086.0, 2086.0, 2086.0, 2087.0, 2087.0, 2086.0, 2087.0, 2086.0, 2086.0, 2087.0, 2087.0, 2087.0, 2087.0, 2087.0, 2086.0, 2087.0, 2086.0, 2086.0, 2087.0, 2087.0, 2086.0, 2086.0, 2087.0, 2087.0, 2086.0, 2086.0, 2087.0, 2087.0, 2086.0, 2087.0, 2087.0, 2087.0, 2087.0, 2086.0, 2087.0, 2086.0, 2086.0]
    },
    "slices": {}
  }
}