{
  "AcquisitionMatrixPE": 122,
  "AcquisitionNumber": 1,
  "AcquisitionTime": "09:56:13.077500",
  "BandwidthPerPixelPhaseEncode": 28.76,
  "BaseResolution": 122,
  "BodyPartExamined": "BRAIN",
  "CoilCombinationMethod": "Adaptive Combine",
  "ConsistencyInfo": "N4_VE11C_LATEST_20160120",
  "ConversionSoftware": "dcm2niix",
  "ConversionSoftwareVersion": "v1.0.20220720",
  "DerivedVendorReportedEchoSpacing": 0.000570008,
  "DeviceSerialNumber": "66112",
  "DiffusionScheme": "Monopolar",
  "DwellTime": 2e-06,
  "EchoTime": 0.075,
  "EchoTrainLength": 61,
  "EffectiveEchoSpacing": 0.000285004,
  "FlipAngle": 90,
  "HeudiconvVersion": "0.13.1",
  "ImageOrientationPatientDICOM": [0.986591, 0.163006, 0.00823029, -0.157673, 0.938863, 0.306066],
  "ImageOrientationText": "Tra>Cor(17.7)>Sag(-2.4)",
  "ImageType": [
    "ORIGINAL",
    "PRIMARY",
    "DIFFUSION",
    "NONE",
    "ND",
    "NORM"
],
  "ImagingFrequency": 123.252,
  "InPlanePhaseEncodingDirectionDICOM": "COL",
  "InstitutionAddress": "Maynard 3,Hanover,NH,US,03755",
  "InstitutionName": "Dartmouth College - PBS",
  "InstitutionalDepartmentName": "Department",
  "MRAcquisitionType": "2D",
  "MagneticFieldStrength": 3,
  "Manufacturer": "Siemens",
  "ManufacturersModelName": "Prisma",
  "MatrixCoilMode": "GRAPPA",
  "Modality": "MR",
  "NonlinearGradientCorrection": false,
  "ParallelReductionFactorInPlane": 2,
  "PartialFourier": 1,
  "PatientPosition": "HFS",
  "PercentPhaseFOV": 100,
  "PercentSampling": 100,
  "PhaseEncodingDirection": "j-",
  "PhaseEncodingSteps": 122,
  "PhaseResolution": 1,
  "PixelBandwidth": 2050,
  "ProcedureStepDescription": "dbic^QA",
  "ProtocolName": "dwi_acq-DTI-30-p2",
  "PulseSequenceDetails": "%SiemensSeq%\\ep2d_diff",
  "ReceiveCoilActiveElements": "HEA;HEP",
  "ReceiveCoilName": "Head_32",
  "ReconMatrixPE": 122,
  "RefLinesPE": 38,
  "RepetitionTime": 7.7,
  "SAR": 0.0871704,
  "ScanOptions": "FS",
  "ScanningSequence": "EP",
  "SequenceName": "*ep_b0",
  "SequenceVariant": "SK\\SP",
  "SeriesDescription": "dwi_acq-DTI-30-p2",
  "SeriesNumber": 12,
  "ShimSetting": [4142, -7700, -7518, 243, -84, -90, 7, 66],
  "SliceThickness": 2,
  "SliceTiming": [3.84375, 0, 3.95312, 0.10938, 4.0625, 0.22656, 4.17188, 0.33594, 4.28125, 0.44531, 4.39062, 0.55469, 4.5, 0.66406, 4.60938, 0.77344, 4.71875, 0.88281, 4.82812, 0.99219, 4.9375, 1.10156, 5.04688, 1.21094, 5.16406, 1.32031, 5.27344, 1.42969, 5.38281, 1.53906, 5.48438, 1.64844, 5.60156, 1.75781, 5.71094, 1.86719, 5.82031, 1.97656, 5.92969, 2.08594, 6.03906, 2.19531, 6.14844, 2.30469, 6.25781, 2.42188, 6.36719, 2.53125, 6.47656, 2.63281, 6.58594, 2.74219, 6.69531, 2.85938, 6.80469, 2.96875, 6.91406, 3.07812, 7.02344, 3.1875, 7.13281, 3.29688, 7.24219, 3.40625, 7.35156, 3.51562, 7.46094, 3.625, 7.57031, 3.73438],
  "SoftwareVersions": "syngo MR E11",
  "SpacingBetweenSlices": 2,
  "SpoilingState": true,
  "StationName": "AWP66112",
  "TotalReadoutTime": 0.0344855,
  "TxRefAmp": 225.964,
  "dcmmeta_affine": [
    [-1.940834403038025, -0.3101765811443329, -0.08432674407958984, 140.24134826660156],
    [-0.32066667079925537, 1.846942663192749, 0.6065216064453125, -99.26245880126953],
    [0.01619073748588562, -0.6020970940589905, 1.9039497375488281, -31.907468795776367],
    [0.0, 0.0, 0.0, 1.0]
],
  "dcmmeta_reorient_transform": [
    [0.0, -1.0, 0.0, 121.0],
    [1.0, 0.0, 0.0, 0.0],
    [0.0, 0.0, -1.0, 69.0],
    [0.0, 0.0, 0.0, 1.0]
],
  "dcmmeta_shape": [122, 122, 70, 31],
  "dcmmeta_slice_dim": 2,
  "dcmmeta_version": 0.6,
  "global": {
    "const": {
      "AccessionNumber": "qa",
      "AcquisitionMatrix": [122, 0, 0, 122],
      "AngioFlag": "N",
      "BitsAllocated": 16,
      "BitsStored": 12,
      "BodyPartExamined": "BRAIN",
      "Columns": 122,
      "EchoNumbers": 1,
      "EchoTime": 75.0,
      "EchoTrainLength": 61,
      "FlipAngle": 90.0,
      "HighBit": 11,
      "ImageOrientationPatient": [0.98659082179699, 0.16300556019789, 0.00823029103487, -0.1576730866377, 0.93886250002401, 0.30606601215882],
      "ImageType": [
        "ORIGINAL",
        "PRIMARY",
        "DIFFUSION",
        "NONE",
        "ND",
        "NORM"
],
      "ImagedNucleus": "1H",
      "ImagingFrequency": 123.252356,
      "InPlanePhaseEncodingDirection": "COL",
      "MRAcquisitionType": "2D",
      "MagneticFieldStrength": 3.0,
      "Manufacturer": "SIEMENS",
      "ManufacturerModelName": "Prisma",
      "Modality": "MR",
      "NumberOfAverages": 1.0,
      "NumberOfPhaseEncodingSteps": 122,
      "PercentPhaseFieldOfView": 100.0,
      "PercentSampling": 100.0,
      "PerformedProcedureStepStartTime": "092538.384000",
      "PhotometricInterpretation": "MONOCHROME2",
      "PixelBandwidth": 2050.0,
      "PixelRepresentation": 0,
      "PixelSpacing": [1.9672131538391, 1.9672131538391],
      "ProtocolName": "dwi_acq-DTI-30-p2",
      "RepetitionTime": 7700.0,
      "Rows": 122,
      "SAR": 0.08717039932762,
      "SamplesPerPixel": 1,
      "ScanOptions": "FS",
      "ScanningSequence": "EP",
      "SequenceVariant": [
        "SK",
        "SP"
],
      "SeriesDescription": "dwi_acq-DTI-30-p2",
      "SeriesNumber": 12,
      "SeriesTime": "095622.965000",
      "SliceThickness": 2.0,
      "SmallestImagePixelValue": 0,
      "SoftwareVersions": "syngo MR E11",
      "SpacingBetweenSlices": 2.0,
      "SpecificCharacterSet": "ISO_IR 100",
      "StudyID": "60",
      "StudyTime": "092538.328000",
      "TransmitCoilName": "Body",
      "VariableFlipAngleFlag": "N",
      "WindowCenterWidthExplanation": "Algo1",
      "dBdt": 0.0},
    "slices": {
      "AcquisitionTime": ["095613.077500", "095609.237500", "095613.187500", "095609.347500", "095613.297500", "095609.457500", "095613.407500", "095609.567500", "095613.517500", "095609.677500", "095613.627500", "095609.787500", "095613.737500", "095609.897500", "095613.845000", "095610.005000", "095613.955000", "095610.115000", "095614.065000", "095610.225000", "095614.175000", "095610.335000", "095614.285000", "095610.445000", "095614.395000", "095610.555000", "095614.505000", "095610.665000", "095614.615000", "095610.775000", "095614.722500", "095610.885000", "095614.832500", "095610.992500", "095614.942500", "095611.102500", "095615.052500", "095611.212500", "095615.162500", "095611.322500", "095615.272500", "095611.432500", "095615.382500", "095611.542500", "095615.492500", "095611.652500", "095615.602500", "095611.762500", "095615.710000", "095611.870000", "095615.820000", "095611.980000", "095615.930000", "095612.090000", "095616.040000", "095612.200000", "095616.150000", "095612.310000", "095616.260000", "095612.420000", "095616.370000", "095612.530000", "095616.480000", "095612.640000", "095616.587500", "095612.750000", "095616.697500", "095612.857500", "095616.807500", "095612.967500", "095620.777500", "095616.937500", "095620.887500", "095617.047500", "095620.997500", "095617.157500", "095621.107500", "095617.267500", "095621.217500", "095617.377500", "095621.327500", "095617.487500", "095621.437500", "095617.597500", "095621.545000", "095617.705000", "095621.655000", "095617.815000", "095621.765000", "095617.925000", "095621.875000", "095618.035000", "095621.985000", "095618.145000", "095622.095000", "095618.255000", "095622.205000", "095618.365000", "095622.315000", "095618.475000", "095622.422500", "095618.585000", "095622.532500", "095618.692500", "095622.642500", "095618.802500", "095622.752500", "095618.912500", "095622.862500", "095619.022500", "095622.972500", "095619.132500", "095623.082500", "095619.242500", "095623.192500", "095619.352500", "095623.302500", "095619.462500", "095623.410000", "095619.570000", "095623.520000", "095619.680000", "095623.630000", "095619.790000", "095623.740000", "095619.900000", "095623.850000", "095620.010000", "095623.960000", "095620.120000", "095624.070000", "095620.230000", "095624.180000", "095620.340000", "095624.287500", "095620.450000", "095624.397500", "095620.557500", "095624.507500", "095620.667500", "095628.477500", "095624.637500", "095628.587500", "095624.747500", "095628.697500", "095624.857500", "095628.807500", "095624.967500", "095628.917500", "095625.077500", "095629.027500", "095625.187500", "095629.137500", "095625.297500", "095629.245000", "095625.405000", "095629.355000", "095625.515000", "095629.465000", "095625.625000", "095629.575000", "095625.735000", "095629.685000", "095625.845000", "095629.795000", "095625.955000", "095629.905000", "095626.065000", "095630.015000", "095626.175000", "095630.122500", "095626.285000", "095630.232500", "095626.392500", "095630.342500", "095626.502500", "095630.452500", "095626.612500", "095630.562500", "095626.722500", "095630.672500", "095626.832500", "095630.782500", "095626.942500", "095630.892500", "095627.052500", "095631.002500", "095627.162500", "095631.110000", "095627.270000", "095631.220000", "095627.380000", "095631.330000", "095627.490000", "095631.440000", "095627.600000", "095631.550000", "095627.710000", "095631.660000", "095627.820000", "095631.770000", "095627.930000", "095631.880000", "095628.040000", "095631.987500", "095628.150000", "095632.097500", "095628.257500", "095632.207500", "095628.367500", "095636.177500", "095632.337500", "095636.287500", "095632.447500", "095636.397500", "095632.557500", "095636.507500", "095632.667500", "095636.617500", "095632.777500", "095636.727500", "095632.887500", "095636.837500", "095632.997500", "095636.945000", "095633.105000", "095637.055000", "095633.215000", "095637.165000", "095633.325000", "095637.275000", "095633.435000", "095637.385000", "095633.545000", "095637.495000", "095633.655000", "095637.605000", "095633.765000", "095637.715000", "095633.875000", "095637.822500", "095633.985000", "095637.932500", "095634.092500", "095638.042500", "095634.202500", "095638.152500", "095634.312500", "095638.262500", "095634.422500", "095638.372500", "095634.532500", "095638.482500", "095634.642500", "095638.592500", "095634.752500", "095638.702500", "095634.862500", "095638.810000", "095634.970000", "095638.920000", "095635.080000", "095639.030000", "095635.190000", "095639.140000", "095635.300000", "095639.250000", "095635.410000", "095639.360000", "095635.520000", "095639.470000", "095635.630000", "095639.580000", "095635.740000", "095639.687500", "095635.850000", "095639.797500", "095635.957500", "095639.907500", "095636.067500", "095643.877500", "095640.037500", "095643.987500", "095640.147500", "095644.097500", "095640.257500", "095644.207500", "095640.367500", "095644.317500", "095640.477500", "095644.427500", "095640.587500", "095644.537500", "095640.697500", "095644.645000", "095640.805000", "095644.755000", "095640.915000", "095644.865000", "095641.025000", "095644.975000", "095641.135000", "095645.085000", "095641.245000", "095645.195000", "095641.355000", "095645.305000", "095641.465000", "095645.415000", "095641.575000", "095645.522500", "095641.685000", "095645.632500", "095641.792500", "095645.742500", "095641.902500", "095645.852500", "095642.012500", "095645.962500", "095642.122500", "095646.072500", "095642.232500", "095646.182500", "095642.342500", "095646.292500", "095642.452500", "095646.402500", "095642.562500", "095646.510000", "095642.670000", "095646.620000", "095642.780000", "095646.730000", "095642.890000", "095646.840000", "095643.000000", "095646.950000", "095643.110000", "095647.060000", "095643.220000", "095647.170000", "095643.330000", "095647.280000", "095643.440000", "095647.387500", "095643.550000", "095647.497500", "095643.657500", "095647.607500", "095643.767500", "095651.577500", "095647.737500", "095651.687500", "095647.847500", "095651.797500", "095647.957500", "095651.907500", "095648.067500", "095652.017500", "095648.177500", "095652.127500", "095648.287500", "095652.237500", "095648.397500", "095652.345000", "095648.505000", "095652.455000", "095648.615000", "095652.565000", "095648.725000", "095652.675000", "095648.835000", "095652.785000", "095648.945000", "095652.895000", "095649.055000", "095653.005000", "095649.165000", "095653.115000", "095649.275000", "095653.222500", "095649.385000", "095653.332500", "095649.492500", "095653.442500", "095649.602500", "095653.552500", "095649.712500", "095653.662500", "095649.822500", "095653.772500", "095649.932500", "095653.882500", "095650.042500", "095653.992500", "095650.152500", "095654.102500", "095650.262500", "095654.210000", "095650.370000", "095654.320000", "095650.480000", "095654.430000", "095650.590000", "095654.540000", "095650.700000", "095654.650000", "095650.810000", "095654.760000", "095650.920000", "095654.870000", "095651.030000", "095654.980000", "095651.140000", "095655.087500", "095651.250000", "095655.197500", "095651.357500", "095655.307500", "095651.467500", "095659.277500", "095655.437500", "095659.387500", "095655.547500", "095659.497500", "095655.657500", "095659.607500", "095655.767500", "095659.717500", "095655.877500", "095659.827500", "095655.987500", "095659.937500", "095656.097500", "095700.045000", "095656.205000", "095700.155000", "095656.315000", "095700.265000", "095656.425000", "095700.375000", "095656.535000", "095700.485000", "095656.645000", "095700.595000", "095656.755000", "095700.705000", "095656.865000", "095700.815000", "095656.975000", "095700.922500", "095657.085000", "095701.032500", "095657.192500", "095701.142500", "095657.302500", "095701.252500", "095657.412500", "095701.362500", "095657.522500", "095701.472500", "095657.632500", "095701.582500", "095657.742500", "095701.692500", "095657.852500", "095701.802500", "095657.962500", "095701.910000", "095658.070000", "095702.020000", "095658.180000", "095702.130000", "095658.290000", "095702.240000", "095658.400000", "095702.350000", "095658.510000", "095702.460000", "095658.620000", "095702.570000", "095658.730000", "095702.680000", "095658.840000", "095702.787500", "095658.950000", "095702.897500", "095659.057500", "095703.007500", "095659.167500", "095706.977500", "095703.137500", "095707.087500", "095703.247500", "095707.197500", "095703.357500", "095707.307500", "095703.467500", "095707.417500", "095703.577500", "095707.527500", "095703.687500", "095707.637500", "095703.797500", "095707.745000", "095703.905000", "095707.855000", "095704.015000", "095707.965000", "095704.125000", "095708.075000", "095704.235000", "095708.185000", "095704.345000", "095708.295000", "095704.455000", "095708.405000", "095704.565000", "095708.515000", "095704.675000", "095708.622500", "095704.785000", "095708.732500", "095704.892500", "095708.842500", "095705.002500", "095708.952500", "095705.112500", "095709.062500", "095705.222500", "095709.172500", "095705.332500", "095709.282500", "095705.442500", "095709.392500", "095705.552500", "095709.502500", "095705.662500", "095709.610000", "095705.770000", "095709.720000", "095705.880000", "095709.830000", "095705.990000", "095709.940000", "095706.100000", "095710.050000", "095706.210000", "095710.160000", "095706.320000", "095710.270000", "095706.430000", "095710.380000", "095706.540000", "095710.487500", "095706.650000", "095710.597500", "095706.757500", "095710.707500", "095706.867500", "095714.677500", "095710.837500", "095714.787500", "095710.947500", "095714.897500", "095711.057500", "095715.007500", "095711.167500", "095715.117500", "095711.277500", "095715.227500", "095711.387500", "095715.337500", "095711.497500", "095715.445000", "095711.605000", "095715.555000", "095711.715000", "095715.665000", "095711.825000", "095715.775000", "095711.935000", "095715.885000", "095712.045000", "095715.995000", "095712.155000", "095716.105000", "095712.265000", "095716.215000", "095712.375000", "095716.322500", "095712.485000", "095716.432500", "095712.592500", "095716.542500", "095712.702500", "095716.652500", "095712.812500", "095716.762500", "095712.922500", "095716.872500", "095713.032500", "095716.982500", "095713.142500", "095717.092500", "095713.252500", "095717.202500", "095713.362500", "095717.310000", "095713.470000", "095717.420000", "095713.580000", "095717.530000", "095713.690000", "095717.640000", "095713.800000", "095717.750000", "095713.910000", "095717.860000", "095714.020000", "095717.970000", "095714.130000", "095718.080000", "095714.240000", "095718.187500", "095714.350000", "095718.297500", "095714.457500", "095718.407500", "095714.567500", "095722.377500", "095718.537500", "095722.487500", "095718.647500", "095722.597500", "095718.757500", "095722.707500", "095718.867500", "095722.817500", "095718.977500", "095722.927500", "095719.087500", "095723.037500", "095719.197500", "095723.145000", "095719.305000", "095723.255000", "095719.415000", "095723.365000", "095719.525000", "095723.475000", "095719.635000", "095723.585000", "095719.745000", "095723.695000", "095719.855000", "095723.805000", "095719.965000", "095723.915000", "095720.075000", "095724.022500", "095720.185000", "095724.132500", "095720.292500", "095724.242500", "095720.402500", "095724.352500", "095720.512500", "095724.462500", "095720.622500", "095724.572500", "095720.732500", "095724.682500", "095720.842500", "095724.792500", "095720.952500", "095724.902500", "095721.062500", "095725.010000", "095721.170000", "095725.120000", "095721.280000", "095725.230000", "095721.390000", "095725.340000", "095721.500000", "095725.450000", "095721.610000", "095725.560000", "095721.720000", "095725.670000", "095721.830000", "095725.780000", "095721.940000", "095725.887500", "095722.050000", "095725.997500", "095722.157500", "095726.107500", "095722.267500", "095730.077500", "095726.237500", "095730.187500", "095726.347500", "095730.297500", "095726.457500", "095730.407500", "095726.567500", "095730.517500", "095726.677500", "095730.627500", "095726.787500", "095730.737500", "095726.897500", "095730.845000", "095727.005000", "095730.955000", "095727.115000", "095731.065000", "095727.225000", "095731.175000", "095727.335000", "095731.285000", "095727.445000", "095731.395000", "095727.555000", "095731.505000", "095727.665000", "095731.615000", "095727.775000", "095731.722500", "095727.885000", "095731.832500", "095727.992500", "095731.942500", "095728.102500", "095732.052500", "095728.212500", "095732.162500", "095728.322500", "095732.272500", "095728.432500", "095732.382500", "095728.542500", "095732.492500", "095728.652500", "095732.602500", "095728.762500", "095732.710000", "095728.870000", "095732.820000", "095728.980000", "095732.930000", "095729.090000", "095733.040000", "095729.200000", "095733.150000", "095729.310000", "095733.260000", "095729.420000", "095733.370000", "095729.530000", "095733.480000", "095729.640000", "095733.587500", "095729.750000", "095733.697500", "095729.857500", "095733.807500", "095729.967500", "095737.777500", "095733.937500", "095737.887500", "095734.047500", "095737.997500", "095734.157500", "095738.107500", "095734.267500", "095738.217500", "095734.377500", "095738.327500", "095734.487500", "095738.437500", "095734.597500", "095738.545000", "095734.705000", "095738.655000", "095734.815000", "095738.765000", "095734.925000", "095738.875000", "095735.035000", "095738.985000", "095735.145000", "095739.095000", "095735.255000", "095739.205000", "095735.365000", "095739.315000", "095735.475000", "095739.422500", "095735.585000", "095739.532500", "095735.692500", "095739.642500", "095735.802500", "095739.752500", "095735.912500", "095739.862500", "095736.022500", "095739.972500", "095736.132500", "095740.082500", "095736.242500", "095740.192500", "095736.352500", "095740.302500", "095736.462500", "095740.410000", "095736.570000", "095740.520000", "095736.680000", "095740.630000", "095736.790000", "095740.740000", "095736.900000", "095740.850000", "095737.010000", "095740.960000", "095737.120000", "095741.070000", "095737.230000", "095741.180000", "095737.340000", "095741.287500", "095737.450000", "095741.397500", "095737.557500", "095741.507500", "095737.667500", "095745.477500", "095741.637500", "095745.587500", "095741.747500", "095745.697500", "095741.857500", "095745.807500", "095741.967500", "095745.917500", "095742.077500", "095746.027500", "095742.187500", "095746.137500", "095742.297500", "095746.245000", "095742.405000", "095746.355000", "095742.515000", "095746.465000", "095742.625000", "095746.575000", "095742.735000", "095746.685000", "095742.845000", "095746.795000", "095742.955000", "095746.905000", "095743.065000", "095747.015000", "095743.175000", "095747.122500", "095743.285000", "095747.232500", "095743.392500", "095747.342500", "095743.502500", "095747.452500", "095743.612500", "095747.562500", "095743.722500", "095747.672500", "095743.832500", "095747.782500", "095743.942500", "095747.892500", "095744.052500", "095748.002500", "095744.162500", "095748.110000", "095744.270000", "095748.220000", "095744.380000", "095748.330000", "095744.490000", "095748.440000", "095744.600000", "095748.550000", "095744.710000", "095748.660000", "095744.820000", "095748.770000", "095744.930000", "095748.880000", "095745.040000", "095748.987500", "095745.150000", "095749.097500", "095745.257500", "095749.207500", "095745.367500", "095753.177500", "095749.337500", "095753.287500", "095749.447500", "095753.397500", "095749.557500", "095753.507500", "095749.667500", "095753.617500", "095749.777500", "095753.727500", "095749.887500", "095753.837500", "095749.997500", "095753.945000", "095750.105000", "095754.055000", "095750.215000", "095754.165000", "095750.325000", "095754.275000", "095750.435000", "095754.385000", "095750.545000", "095754.495000", "095750.655000", "095754.605000", "095750.765000", "095754.715000", "095750.875000", "095754.822500", "095750.985000", "095754.932500", "095751.092500", "095755.042500", "095751.202500", "095755.152500", "095751.312500", "095755.262500", "095751.422500", "095755.372500", "095751.532500", "095755.482500", "095751.642500", "095755.592500", "095751.752500", "095755.702500", "095751.862500", "095755.810000", "095751.970000", "095755.920000", "095752.080000", "095756.030000", "095752.190000", "095756.140000", "095752.300000", "095756.250000", "095752.410000", "095756.360000", "095752.520000", "095756.470000", "095752.630000", "095756.580000", "095752.740000", "095756.687500", "095752.850000", "095756.797500", "095752.957500", "095756.907500", "095753.067500", "095800.877500", "095757.037500", "095800.987500", "095757.147500", "095801.097500", "095757.257500", "095801.207500", "095757.367500", "095801.317500", "095757.477500", "095801.427500", "095757.587500", "095801.537500", "095757.697500", "095801.645000", "095757.805000", "095801.755000", "095757.915000", "095801.865000", "095758.025000", "095801.975000", "095758.135000", "095802.085000", "095758.245000", "095802.195000", "095758.355000", "095802.305000", "095758.465000", "095802.415000", "095758.575000", "095802.522500", "095758.685000", "095802.632500", "095758.792500", "095802.742500", "095758.902500", "095802.852500", "095759.012500", "095802.962500", "095759.122500", "095803.072500", "095759.232500", "095803.182500", "095759.342500", "095803.292500", "095759.452500", "095803.402500", "095759.562500", "095803.510000", "095759.670000", "095803.620000", "095759.780000", "095803.730000", "095759.890000", "095803.840000", "095800.000000", "095803.950000", "095800.110000", "095804.060000", "095800.220000", "095804.170000", "095800.330000", "095804.280000", "095800.440000", "095804.387500", "095800.550000", "095804.497500", "095800.657500", "095804.607500", "095800.767500", "095808.577500", "095804.737500", "095808.687500", "095804.847500", "095808.797500", "095804.957500", "095808.907500", "095805.067500", "095809.017500", "095805.177500", "095809.127500", "095805.287500", "095809.237500", "095805.397500", "095809.345000", "095805.505000", "095809.455000", "095805.615000", "095809.565000", "095805.725000", "095809.675000", "095805.835000", "095809.785000", "095805.945000", "095809.895000", "095806.055000", "095810.005000", "095806.165000", "095810.115000", "095806.275000", "095810.222500", "095806.385000", "095810.332500", "095806.492500", "095810.442500", "095806.602500", "095810.552500", "095806.712500", "095810.662500", "095806.822500", "095810.772500", "095806.932500", "095810.882500", "095807.042500", "095810.992500", "095807.152500", "095811.102500", "095807.262500", "095811.210000", "095807.370000", "095811.320000", "095807.480000", "095811.430000", "095807.590000", "095811.540000", "095807.700000", "095811.650000", "095807.810000", "095811.760000", "095807.920000", "095811.870000", "095808.030000", "095811.980000", "095808.140000", "095812.087500", "095808.250000", "095812.197500", "095808.357500", "095812.307500", "095808.467500", "095816.277500", "095812.437500", "095816.387500", "095812.547500", "095816.497500", "095812.657500", "095816.607500", "095812.767500", "095816.717500", "095812.877500", "095816.827500", "095812.987500", "095816.937500", "095813.097500", "095817.045000", "095813.205000", "095817.155000", "095813.315000", "095817.265000", "095813.425000", "095817.375000", "095813.535000", "095817.485000", "095813.645000", "095817.595000", "095813.755000", "095817.705000", "095813.865000", "095817.815000", "095813.975000", "095817.922500", "095814.085000", "095818.032500", "095814.192500", "095818.142500", "095814.302500", "095818.252500", "095814.412500", "095818.362500", "095814.522500", "095818.472500", "095814.632500", "095818.582500", "095814.742500", "095818.692500", "095814.852500", "095818.802500", "095814.962500", "095818.910000", "095815.070000", "095819.020000", "095815.180000", "095819.130000", "095815.290000", "095819.240000", "095815.400000", "095819.350000", "095815.510000", "095819.460000", "095815.620000", "095819.570000", "095815.730000", "095819.680000", "095815.840000", "095819.787500", "095815.950000", "095819.897500", "095816.057500", "095820.007500", "095816.167500", "095823.977500", "095820.137500", "095824.087500", "095820.247500", "095824.197500", "095820.357500", "095824.307500", "095820.467500", "095824.417500", "095820.577500", "095824.527500", "095820.687500", "095824.637500", "095820.797500", "095824.745000", "095820.905000", "095824.855000", "095821.015000", "095824.965000", "095821.125000", "095825.075000", "095821.235000", "095825.185000", "095821.345000", "095825.295000", "095821.455000", "095825.405000", "095821.565000", "095825.515000", "095821.675000", "095825.622500", "095821.785000", "095825.732500", "095821.892500", "095825.842500", "095822.002500", "095825.952500", "095822.112500", "095826.062500", "095822.222500", "095826.172500", "095822.332500", "095826.282500", "095822.442500", "095826.392500", "095822.552500", "095826.502500", "095822.662500", "095826.610000", "095822.770000", "095826.720000", "095822.880000", "095826.830000", "095822.990000", "095826.940000", "095823.100000", "095827.050000", "095823.210000", "095827.160000", "095823.320000", "095827.270000", "095823.430000", "095827.380000", "095823.540000", "095827.487500", "095823.650000", "095827.597500", "095823.757500", "095827.707500", "095823.867500", "095831.677500", "095827.837500", "095831.787500", "095827.947500", "095831.897500", "095828.057500", "095832.007500", "095828.167500", "095832.117500", "095828.277500", "095832.227500", "095828.387500", "095832.337500", "095828.497500", "095832.445000", "095828.605000", "095832.555000", "095828.715000", "095832.665000", "095828.825000", "095832.775000", "095828.935000", "095832.885000", "095829.045000", "095832.995000", "095829.155000", "095833.105000", "095829.265000", "095833.215000", "095829.375000", "095833.322500", "095829.485000", "095833.432500", "095829.592500", "095833.542500", "095829.702500", "095833.652500", "095829.812500", "095833.762500", "095829.922500", "095833.872500", "095830.032500", "095833.982500", "095830.142500", "095834.092500", "095830.252500", "095834.202500", "095830.362500", "095834.310000", "095830.470000", "095834.420000", "095830.580000", "095834.530000", "095830.690000", "095834.640000", "095830.800000", "095834.750000", "095830.910000", "095834.860000", "095831.020000", "095834.970000", "095831.130000", "095835.080000", "095831.240000", "095835.187500", "095831.350000", "095835.297500", "095831.457500", "095835.407500", "095831.567500", "095839.377500", "095835.537500", "095839.487500", "095835.647500", "095839.597500", "095835.757500", "095839.707500", "095835.867500", "095839.817500", "095835.977500", "095839.927500", "095836.087500", "095840.037500", "095836.197500", "095840.145000", "095836.305000", "095840.255000", "095836.415000", "095840.365000", "095836.525000", "095840.475000", "095836.635000", "095840.585000", "095836.745000", "095840.695000", "095836.855000", "095840.805000", "095836.965000", "095840.915000", "095837.075000", "095841.022500", "095837.185000", "095841.132500", "095837.292500", "095841.242500", "095837.402500", "095841.352500", "095837.512500", "095841.462500", "095837.622500", "095841.572500", "095837.732500", "095841.682500", "095837.842500", "095841.792500", "095837.952500", "095841.902500", "095838.062500", "095842.010000", "095838.170000", "095842.120000", "095838.280000", "095842.230000", "095838.390000", "095842.340000", "095838.500000", "095842.450000", "095838.610000", "095842.560000", "095838.720000", "095842.670000", "095838.830000", "095842.780000", "095838.940000", "095842.887500", "095839.050000", "095842.997500", "095839.157500", "095843.107500", "095839.267500", "095847.077500", "095843.237500", "095847.187500", "095843.347500", "095847.297500", "095843.457500", "095847.407500", "095843.567500", "095847.517500", "095843.677500", "095847.627500", "095843.787500", "095847.737500", "095843.897500", "095847.845000", "095844.005000", "095847.955000", "095844.115000", "095848.065000", "095844.225000", "095848.175000", "095844.335000", "095848.285000", "095844.445000", "095848.395000", "095844.555000", "095848.505000", "095844.665000", "095848.615000", "095844.775000", "095848.722500", "095844.885000", "095848.832500", "095844.992500", "095848.9