{
  "AcquisitionMatrixPE": 80,
  "AcquisitionNumber": 1,
  "AcquisitionTime": "09:27:42.182500",
  "BandwidthPerPixelPhaseEncode": 44.643,
  "BaseResolution": 80,
  "BodyPartExamined": "BRAIN",
  "CoilCombinationMethod": "Sum of Squares",
  "ConsistencyInfo": "N4_VE11C_LATEST_20160120",
  "ConversionSoftware": "dcm2niix",
  "ConversionSoftwareVersion": "v1.0.20220720",
  "DerivedVendorReportedEchoSpacing": 0.000559998,
  "DeviceSerialNumber": "66112",
  "DwellTime": 2.7e-06,
  "EchoTime": 0.035,
  "EchoTrainLength": 39,
  "EffectiveEchoSpacing": 0.000279999,
  "FlipAngle": 90,
  "HeudiconvVersion": "0.13.1",
  "ImageOrientationPatientDICOM": [0.985016, 0.172131, 0.0106664, -0.16731, 0.938767, 0.301205],
  "ImageOrientationText": "Tra>Cor(17.4)>Sag(-2.4)",
  "ImageType": [
    "ORIGINAL",
    "PRIMARY",
    "M",
    "ND",
    "NORM",
    "MOSAIC"
],
  "ImagingFrequency": 123.253,
  "InPlanePhaseEncodingDirectionDICOM": "COL",
  "InstitutionAddress": "Maynard 3,Hanover,NH,US,03755",
  "InstitutionName": "Dartmouth College - PBS",
  "InstitutionalDepartmentName": "Department",
  "MRAcquisitionType": "2D",
  "MagneticFieldStrength": 3,
  "Manufacturer": "Siemens",
  "ManufacturersModelName": "Prisma",
  "Modality": "MR",
  "MultibandAccelerationFactor": 4,
  "NonlinearGradientCorrection": false,
  "ParallelReductionFactorInPlane": 2,
  "PartialFourier": 1,
  "PatientPosition": "HFS",
  "PercentPhaseFOV": 100,
  "PercentSampling": 100,
  "PhaseEncodingDirection": "j-",
  "PhaseEncodingSteps": 79,
  "PhaseResolution": 1,
  "PixelBandwidth": 2315,
  "ProcedureStepDescription": "dbic^QA",
  "ProtocolName": "func-bold_task-rest_acq-p2-s4-3.5mm",
  "PulseSequenceDetails": "%SiemensSeq%\\ep2d_bold",
  "ReceiveCoilActiveElements": "HEA;HEP",
  "ReceiveCoilName": "Head_32",
  "ReconMatrixPE": 80,
  "RefLinesPE": 24,
  "RepetitionTime": 2,
  "SAR": 0.0178944,
  "ScanOptions": "FS",
  "ScanningSequence": "EP",
  "SequenceName": "*epfid2d1_80",
  "SequenceVariant": "SK",
  "SeriesDescription": "func-bold_task-rest_acq-p2-s4-3.5mm",
  "SeriesNumber": 11,
  "ShimSetting": [4147, -7674, -7527, 333, -11, -275, -89, 81],
  "SliceThickness": 3.5,
  "SliceTiming": [1.485, 0, 0.99, 0.2475, 1.2375, 0.7425, 1.7325, 0.495, 1.485, 0, 0.99, 0.2475, 1.2375, 0.7425, 1.7325, 0.495, 1.485, 0, 0.99, 0.2475, 1.2375, 0.7425, 1.7325, 0.495, 1.485, 0, 0.99, 0.2475, 1.2375, 0.7425, 1.7325, 0.495],
  "SoftwareVersions": "syngo MR E11",
  "SpacingBetweenSlices": 3.99,
  "StationName": "AWP66112",
  "TaskName": "rest",
  "TotalReadoutTime": 0.0221199,
  "TxRefAmp": 232.349,
  "dcmmeta_affine": [
    [-2.9550490379333496, -0.5019314289093018, -0.16691569983959198, 145.0768280029297],
    [-0.5163928866386414, 2.8162996768951416, 1.190921425819397, -112.88923645019531],
    [0.031999070197343826, -0.903615415096283, 3.8044636249542236, -50.681739807128906],
    [0.0, 0.0, 0.0, 1.0]
],
  "dcmmeta_reorient_transform": [
    [0.0, -1.0, 0.0, 79.0],
    [1.0, 0.0, 0.0, 0.0],
    [0.0, 0.0, 1.0, 0.0],
    [0.0, 0.0, 0.0, 1.0]
],
  "dcmmeta_shape": [80, 80, 32, 200],
  "dcmmeta_slice_dim": 2,
  "dcmmeta_version": 0.6,
  "global": {
    "const": {
      "AccessionNumber": "qa",
      "AcquisitionMatrix": [80, 0, 0, 80],
      "AngioFlag": "N",
      "BitsAllocated": 16,
      "BitsStored": 12,
      "BodyPartExamined": "BRAIN",
      "Columns": 480,
      "EchoNumbers": 1,
      "EchoTime": 35.0,
      "EchoTrainLength": 39,
      "FlipAngle": 90.0,
      "HighBit": 11,
      "ImageOrientationPatient": [0.985016324391, 0.17213096618296, 0.01066635664955, -0.1673104836564, 0.93876656718793, 0.3012051367239],
      "ImagePositionPatient": [-596.04774966334, -776.13696117914, -309.19025171814],
      "ImageType": [
        "ORIGINAL",
        "PRIMARY",
        "M",
        "ND",
        "NORM",
        "MOSAIC"
],
      "ImagedNucleus": "1H",
      "ImagingFrequency": 123.25252,
      "InPlanePhaseEncodingDirection": "COL",
      "MRAcquisitionType": "2D",
      "MagneticFieldStrength": 3.0,
      "Manufacturer": "SIEMENS",
      "ManufacturerModelName": "Prisma",
      "Modality": "MR",
      "NumberOfAverages": 1.0,
      "NumberOfPhaseEncodingSteps": 79,
      "PercentPhaseFieldOfView": 100.0,
      "PercentSampling": 100.0,
      "PerformedProcedureStepStartTime": "091514.725000",
      "PhotometricInterpretation": "MONOCHROME2",
      "PixelBandwidth": 2315.0,
      "PixelRepresentation": 0,
      "PixelSpacing": [3.0, 3.0],
      "ProtocolName": "func-bold_task-rest_acq-p2-s4-3.5mm",
      "RepetitionTime": 2000.0,
      "Rows": 480,
      "SAR": 0.01789441937334,
      "SamplesPerPixel": 1,
      "ScanOptions": "FS",
      "ScanningSequence": "EP",
      "SequenceName": "*epfid2d1_80",
      "SequenceVariant": "SK",
      "SeriesDescription": "func-bold_task-rest_acq-p2-s4-3.5mm",
      "SeriesNumber": 11,
      "SeriesTime": "092829.251000",
      "SliceLocation": -88.088887751951,
      "SliceThickness": 3.5,
      "SmallestImagePixelValue": 0,
      "SoftwareVersions": "syngo MR E11",
      "SpacingBetweenSlices": 3.9899998311219,
      "SpecificCharacterSet": "ISO_IR 100",
      "StudyID": "57",
      "StudyTime": "091514.648000",
      "TransmitCoilName": "Body",
      "VariableFlipAngleFlag": "N",
      "WindowCenterWidthExplanation": "Algo1",
      "dBdt": 0.0},
    "slices": {}
  },
  "time": {
    "samples": {
      "AcquisitionNumber": [1, 2, 3, 4, 5, 6, 7, 8, 9, 10, 11, 12, 13, 14, 15, 16, 17, 18, 19, 20, 21, 22, 23, 24, 25, 26, 27, 28, 29, 30, 31, 32, 33, 34, 35, 36, 37, 38, 39, 40, 41, 42, 43, 44, 45, 46, 47, 48, 49, 50, 51, 52, 53, 54, 55, 56, 57, 58, 59, 60, 61, 62, 63, 64, 65, 66, 67, 68, 69, 70, 71, 72, 73, 74, 75, 76, 77, 78, 79, 80, 81, 82, 83, 84, 85, 86, 87, 88, 89, 90, 91, 92, 93, 94, 95, 96, 97, 98, 99, 100, 101, 102, 103, 104, 105, 106, 107, 108, 109, 110, 111, 112, 113, 114, 115, 116, 117, 118, 119, 120, 121, 122, 123, 124, 125, 126, 127, 128, 129, 130, 131, 132, 133, 134, 135, 136, 137, 138, 139, 140, 141, 142, 143, 144, 145, 146, 147, 148, 149, 150, 151, 152, 153, 154, 155, 156, 157, 158, 159, 160, 161, 162, 163, 164, 165, 166, 167, 168, 169, 170, 171, 172, 173, 174, 175, 176, 177, 178, 179, 180, 181, 182, 183, 184, 185, 186, 187, 188, 189, 190, 191, 192, 193, 194, 195, 196, 197, 198, 199, 200],
      "AcquisitionTime": ["092742.182500", "092744.182500", "092746.182500", "092748.182500", "092750.182500", "092752.182500", "092754.182500", "092756.182500", "092758.182500", "092800.182500", "092802.182500", "092804.182500", "092806.182500", "092808.182500", "092810.182500", "092812.182500", "092814.182500", "092816.182500", "092818.182500", "092820.182500", "092822.182500", "092824.182500", "092826.182500", "092828.182500", "092830.182500", "092832.182500", "092834.182500", "092836.182500", "092838.182500", "092840.182500", "092842.182500", "092844.182500", "092846.182500", "092848.182500", "092850.182500", "092852.182500", "092854.182500", "092856.182500", "092858.182500", "092900.182500", "092902.182500", "092904.182500", "092906.182500", "092908.182500", "092910.182500", "092912.182500", "092914.182500", "092916.182500", "092918.182500", "092920.182500", "092922.182500", "092924.182500", "092926.182500", "092928.182500", "092930.182500", "092932.182500", "092934.182500", "092936.182500", "092938.182500", "092940.182500", "092942.182500", "092944.182500", "092946.182500", "092948.182500", "092950.182500", "092952.182500", "092954.182500", "092956.182500", "092958.182500", "093000.182500", "093002.182500", "093004.182500", "093006.182500", "093008.182500", "093010.182500", "093012.182500", "093014.182500", "093016.182500", "093018.182500", "093020.182500", "093022.182500", "093024.182500", "093026.182500", "093028.182500", "093030.182500", "093032.182500", "093034.182500", "093036.182500", "093038.182500", "093040.182500", "093042.182500", "093044.182500", "093046.182500", "093048.182500", "093050.182500", "093052.182500", "093054.182500", "093056.182500", "093058.182500", "093100.182500", "093102.182500", "093104.182500", "093106.182500", "093108.182500", "093110.182500", "093112.182500", "093114.182500", "093116.182500", "093118.182500", "093120.182500", "093122.182500", "093124.182500", "093126.182500", "093128.182500", "093130.182500", "093132.182500", "093134.182500", "093136.182500", "093138.182500", "093140.182500", "093142.182500", "093144.182500", "093146.182500", "093148.182500", "093150.182500", "093152.182500", "093154.182500", "093156.182500", "093158.182500", "093200.182500", "093202.182500", "093204.182500", "093206.182500", "093208.182500", "093210.182500", "093212.182500", "093214.182500", "093216.182500", "093218.182500", "093220.182500", "093222.182500", "093224.182500", "093226.182500", "093228.182500", "093230.182500", "093232.182500", "093234.182500", "093236.182500", "093238.182500", "093240.182500", "093242.182500", "093244.182500", "093246.182500", "093248.182500", "093250.182500", "093252.182500", "093254.182500", "093256.182500", "093258.182500", "093300.182500", "093302.182500", "093304.182500", "093306.182500", "093308.182500", "093310.182500", "093312.182500", "093314.182500", "093316.182500", "093318.182500", "093320.182500", "093322.182500", "093324.182500", "093326.182500", "093328.182500", "093330.182500", "093332.182500", "093334.182500", "093336.182500", "093338.182500", "093340.182500", "093342.182500", "093344.182500", "093346.182500", "093348.182500", "093350.182500", "093352.182500", "093354.182500", "093356.182500", "093358.182500", "093400.182500", "093402.182500", "093404.182500", "093406.182500", "093408.182500", "093410.182500", "093412.182500", "093414.182500", "093416.182500", "093418.182500", "093420.182500"],
      "ContentTime": ["092829.254000", "092829.257000", "092829.260000", "092829.271000", "092829.274000", "092829.277000", "092829.279000", "092829.282000", "092829.284000", "092829.287000", "092829.289000", "092829.292000", "092829.294000", "092829.297000", "092829.301000", "092829.304000", "092829.306000", "092829.315000", "092829.318000", "092829.321000", "092829.323000", "092829.326000", "092829.329000", "092909.249000", "092909.252000", "092909.255000", "092909.257000", "092909.260000", "092909.262000", "092909.265000", "092909.267000", "092909.270000", "092909.272000", "092909.275000", "092909.278000", "092909.280000", "092909.283000", "092909.285000", "092909.288000", "092909.290000", "092909.293000", "092909.295000", "092909.298000", "092949.249000", "092949.252000", "092949.255000", "092949.257000", "092949.260000", "092949.262000", "092949.265000", "092949.267000", "092949.270000", "092949.272000", "092949.275000", "092949.283000", "092949.286000", "092949.289000", "092949.291000", "092949.294000", "092949.296000", "092949.299000", "092949.301000", "092949.304000", "093029.249000", "093029.252000", "093029.255000", "093029.257000", "093029.260000", "093029.262000", "093029.265000", "093029.267000", "093029.270000", "093029.273000", "093029.275000", "093029.278000", "093029.280000", "093029.283000", "093029.285000", "093029.288000", "093029.290000", "093029.293000", "093029.295000", "093029.298000", "093109.249000", "093109.252000", "093109.255000", "093109.257000", "093109.260000", "093109.262000", "093109.265000", "093109.267000", "093109.270000", "093109.272000", "093109.275000", "093109.277000", "093109.280000", "093109.283000", "093109.285000", "093109.287000", "093109.290000", "093109.293000", "093109.295000", "093109.298000", "093149.249000", "093149.252000", "093149.255000", "093149.257000", "093149.260000", "093149.262000", "093149.265000", "093149.267000", "093149.270000", "093149.273000", "093149.275000", "093149.278000", "093149.280000", "093149.283000", "093149.285000", "093149.288000", "093149.290000", "093149.293000", "093149.295000", "093149.298000", "093229.249000", "093229.252000", "093229.255000", "093229.257000", "093229.275000", "093229.278000", "093229.280000", "093229.283000", "093229.285000", "093229.288000", "093229.290000", "093229.293000", "093229.295000", "093229.298000", "093229.300000", "093229.303000", "093229.305000", "093229.308000", "093229.310000", "093229.313000", "093309.249000", "093309.252000", "093309.255000", "093309.257000", "093309.260000", "093309.262000", "093309.265000", "093309.267000", "093309.270000", "093309.273000", "093309.275000", "093309.278000", "093309.280000", "093309.283000", "093309.285000", "093309.288000", "093309.290000", "093309.293000", "093309.295000", "093309.298000", "093349.249000", "093349.252000", "093349.255000", "093349.257000", "093349.260000", "093349.262000", "093349.265000", "093349.267000", "093349.270000", "093349.273000", "093349.275000", "093349.278000", "093349.280000", "093349.283000", "093349.285000", "093349.288000", "093349.291000", "093349.293000", "093349.296000", "093349.298000", "093421.446000", "093421.449000", "093421.451000", "093421.454000", "093421.457000", "093421.459000", "093421.462000", "093421.464000", "093421.467000", "093421.470000", "093421.472000", "093421.475000", "093421.481000", "093421.485000", "093421.488000", "093421.491000", "093421.494000"],
      "InstanceCreationTime": ["092829.254000", "092829.257000", "092829.260000", "092829.271000", "092829.274000", "092829.277000", "092829.279000", "092829.282000", "092829.284000", "092829.287000", "092829.289000", "092829.292000", "092829.294000", "092829.297000", "092829.301000", "092829.304000", "092829.306000", "092829.315000", "092829.318000", "092829.321000", "092829.323000", "092829.326000", "092829.329000", "092909.249000", "092909.252000", "092909.255000", "092909.257000", "092909.260000", "092909.262000", "092909.265000", "092909.267000", "092909.270000", "092909.272000", "092909.275000", "092909.278000", "092909.280000", "092909.283000", "092909.285000", "092909.288000", "092909.290000", "092909.293000", "092909.295000", "092909.298000", "092949.249000", "092949.252000", "092949.255000", "092949.257000", "092949.260000", "092949.262000", "092949.265000", "092949.267000", "092949.270000", "092949.272000", "092949.275000", "092949.283000", "092949.286000", "092949.289000", "092949.291000", "092949.294000", "092949.296000", "092949.299000", "092949.301000", "092949.304000", "093029.249000", "093029.252000", "093029.255000", "093029.257000", "093029.260000", "093029.262000", "093029.265000", "093029.267000", "093029.270000", "093029.273000", "093029.275000", "093029.278000", "093029.280000", "093029.283000", "093029.285000", "093029.288000", "093029.290000", "093029.293000", "093029.295000", "093029.298000", "093109.249000", "093109.252000", "093109.255000", "093109.257000", "093109.260000", "093109.262000", "093109.265000", "093109.267000", "093109.270000", "093109.272000", "093109.275000", "093109.277000", "093109.280000", "093109.283000", "093109.285000", "093109.287000", "093109.290000", "093109.293000", "093109.295000", "093109.298000", "093149.249000", "093149.252000", "093149.255000", "093149.257000", "093149.260000", "093149.262000", "093149.265000", "093149.267000", "093149.270000", "093149.273000", "093149.275000", "093149.278000", "093149.280000", "093149.283000", "093149.285000", "093149.288000", "093149.290000", "093149.293000", "093149.295000", "093149.298000", "093229.249000", "093229.252000", "093229.255000", "093229.257000", "093229.275000", "093229.278000", "093229.280000", "093229.283000", "093229.285000", "093229.288000", "093229.290000", "093229.293000", "093229.295000", "093229.298000", "093229.300000", "093229.303000", "093229.305000", "093229.308000", "093229.310000", "093229.313000", "093309.249000", "093309.252000", "093309.255000", "093309.257000", "093309.260000", "093309.262000", "093309.265000", "093309.267000", "093309.270000", "093309.273000", "093309.275000", "093309.278000", "093309.280000", "093309.283000", "093309.285000", "093309.288000", "093309.290000", "093309.293000", "093309.295000", "093309.298000", "093349.249000", "093349.252000", "093349.255000", "093349.257000", "093349.260000", "093349.262000", "093349.265000", "093349.267000", "093349.270000", "093349.273000", "093349.275000", "093349.278000", "093349.280000", "093349.283000", "093349.285000", "093349.288000", "093349.291000", "093349.293000", "093349.296000", "093349.298000", "093421.446000", "093421.449000", "093421.451000", "093421.454000", "093421.457000", "093421.459000", "093421.462000", "093421.464000", "093421.467000", "093421.470000", "093421.472000", "093421.475000", "093421.481000", "093421.485000", "093421.488000", "093421.491000", "093421.494000"],
      "InstanceNumber": [1, 2, 3, 4, 5, 6, 7, 8, 9, 10, 11, 12, 13, 14, 15, 16, 17, 18, 19, 20, 21, 22, 23, 24, 25, 26, 27, 28, 29, 30, 31, 32, 33, 34, 35, 36, 37, 38, 39, 40, 41, 42, 43, 44, 45, 46, 47, 48, 49, 50, 51, 52, 53, 54, 55, 56, 57, 58, 59, 60, 61, 62, 63, 64, 65, 66, 67, 68, 69, 70, 71, 72, 73, 74, 75, 76, 77, 78, 79, 80, 81, 82, 83, 84, 85, 86, 87, 88, 89, 90, 91, 92, 93, 94, 95, 96, 97, 98, 99, 100, 101, 102, 103, 104, 105, 106, 107, 108, 109, 110, 111, 112, 113, 114, 115, 116, 117, 118, 119, 120, 121, 122, 123, 124, 125, 126, 127, 128, 129, 130, 131, 132, 133, 134, 135, 136, 137, 138, 139, 140, 141, 142, 143, 144, 145, 146, 147, 148, 149, 150, 151, 152, 153, 154, 155, 156, 157, 158, 159, 160, 161, 162, 163, 164, 165, 166, 167, 168, 169, 170, 171, 172, 173, 174, 175, 176, 177, 178, 179, 180, 181, 182, 183, 184, 185, 186, 187, 188, 189, 190, 191, 192, 193, 194, 195, 196, 197, 198, 199, 200],
      "LargestImagePixelValue": [2028, 2032, 2025, 2030, 2031, 2033, 2028, 2028, 2031, 2032, 2032, 2029, 2032, 2032, 2034, 2028, 2028, 2029, 2029, 2026, 2030, 2032, 2027, 2026, 2033, 2031, 2035, 2030, 2030, 2031, 2028, 2028, 2031, 2035, 2029, 2029, 2026, 2029, 2026, 2027, 2030, 2030, 2033, 2034, 2031, 2027, 2028, 2030, 2026, 2031, 2026, 2038, 2027, 2028, 2025, 2028, 2025, 2030, 2034, 2027, 2030, 2030, 2032, 2030, 2029, 2030, 2031, 2032, 2030, 2027, 2031, 2027, 2030, 2029, 2033, 2023, 2030, 2028, 2028, 2030, 2029, 2034, 2025, 2026, 2031, 2031, 2032, 2032, 2028, 2031, 2026, 2030, 2027, 2027, 2029, 2030, 2023, 2027, 2029, 2031, 2032, 2028, 2031, 2029, 2033, 2026, 2028, 2030, 2029, 2027, 2027, 2029, 2031, 2028, 2029, 2031, 2032, 2028, 2033, 2031, 2026, 2029, 2028, 2031, 2026, 2029, 2027, 2026, 2028, 2026, 2029, 2024, 2031, 2032, 2028, 2028, 2025, 2032, 2027, 2033, 2028, 2033, 2028, 2028, 2029, 2028, 2029, 2033, 2029, 2028, 2030, 2026, 2026, 2034, 2027, 2026, 2027, 2026, 2025, 2027, 2032, 2028, 2032, 2028, 2031, 2028, 2032, 2028, 2029, 2028, 2026, 2029, 2029, 2027, 2030, 2027, 2027, 2026, 2026, 2036, 2028, 2029, 2028, 2025, 2029, 2035, 2028, 2028, 2023, 2026, 2030, 2027, 2026, 2028, 2029, 2027, 2027, 2026, 2030, 2027],
      "WindowCenter": [915.0, 915.0, 915.0, 915.0, 915.0, 915.0, 915.0, 915.0, 914.0, 915.0, 914.0, 915.0, 915.0, 915.0, 915.0, 915.0, 915.0, 915.0, 915.0, 915.0, 915.0, 915.0, 915.0, 915.0, 915.0, 915.0, 915.0, 915.0, 915.0, 915.0, 915.0, 915.0, 915.0, 915.0, 915.0, 915.0, 915.0, 915.0, 915.0, 915.0, 915.0, 915.0, 915.0, 915.0, 915.0, 915.0, 915.0, 915.0, 915.0, 915.0, 915.0, 915.0, 915.0, 915.0, 915.0, 915.0, 915.0, 915.0, 915.0, 915.0, 915.0, 915.0, 915.0, 915.0, 915.0, 915.0, 915.0, 915.0, 915.0, 915.0, 915.0, 915.0, 915.0, 915.0, 915.0, 915.0, 915.0, 915.0, 915.0, 915.0, 915.0, 915.0, 915.0, 915.0, 915.0, 915.0, 915.0, 915.0, 915.0, 915.0, 915.0, 915.0, 915.0, 915.0, 915.0, 915.0, 915.0, 915.0, 915.0, 915.0, 915.0, 915.0, 915.0, 915.0, 915.0, 915.0, 915.0, 915.0, 915.0, 915.0, 915.0, 915.0, 915.0, 915.0, 915.0, 915.0, 915.0, 915.0, 915.0, 915.0, 915.0, 915.0, 915.0, 915.0, 915.0, 915.0, 915.0, 915.0, 915.0, 915.0, 915.0, 915.0, 915.0, 915.0, 915.0, 915.0, 915.0, 915.0, 915.0, 915.0, 915.0, 915.0, 915.0, 915.0, 915.0, 915.0, 915.0, 915.0, 915.0, 915.0, 915.0, 915.0, 915.0, 915.0, 915.0, 915.0, 915.0, 915.0, 915.0, 914.0, 915.0, 915.0, 915.0, 915.0, 915.0, 915.0, 915.0, 915.0, 915.0, 915.0, 915.0, 915.0, 915.0, 915.0, 915.0, 915.0, 915.0, 915.0, 915.0, 915.0, 915.0, 915.0, 915.0, 915.0, 914.0, 915.0, 915.0, 915.0, 915.0, 915.0, 915.0, 915.0, 915.0, 915.0, 915.0, 915.0, 915.0, 915.0, 914.0, 915.0],
      "WindowWidth": [2078.0, 2078.0, 2078.0, 2079.0, 2078.0, 2079.0, 2078.0, 2078.0, 2078.0, 2078.0, 2078.0, 2078.0, 2079.0, 2079.0, 2079.0, 2078.0, 2078.0, 2078.0, 2078.0, 2078.0, 2079.0, 2078.0, 2079.0, 2078.0, 2079.0, 2078.0, 2078.0, 2079.0, 2079.0, 2079.0, 2078.0, 2079.0, 2079.0, 2079.0, 2079.0, 2079.0, 2078.0, 2079.0, 2078.0, 2079.0, 2079.0, 2079.0, 2078.0, 2078.0, 2079.0, 2078.0, 2079.0, 2078.0, 2078.0, 2079.0, 2079.0, 2079.0, 2079.0, 2079.0, 2079.0, 2078.0, 2078.0, 2078.0, 2079.0, 2078.0, 2079.0, 2079.0, 2079.0, 2079.0, 2078.0, 2078.0, 2079.0, 2079.0, 2078.0, 2078.0, 2078.0, 2079.0, 2078.0, 2078.0, 2079.0, 2079.0, 2078.0, 2078.0, 2078.0, 2078.0, 2079.0, 2079.0, 2078.0, 2079.0, 2078.0, 2079.0, 2078.0, 2079.0, 2078.0, 2078.0, 2079.0, 2078.0, 2079.0, 2078.0, 2078.0, 2078.0, 2078.0, 2078.0, 2078.0, 2078.0, 2078.0, 2078.0, 2078.0, 2079.0, 2078.0, 2078.0, 2078.0, 2078.0, 2078.0, 2078.0, 2078.0, 2078.0, 2079.0, 2078.0, 2078.0, 2078.0, 2078.0, 2078.0, 2078.0, 2079.0, 2079.0, 2078.0, 2079.0, 2078.0, 2078.0, 2078.0, 2078.0, 2078.0, 2079.0, 2078.0, 2078.0, 2078.0, 2078.0, 2078.0, 2078.0, 2078.0, 2079.0, 2078.0, 2077.0, 2079.0, 2078.0, 2079.0, 2078.0, 2079.0, 2079.0, 2078.0, 2078.0, 2079.0, 2078.0, 2078.0, 2078.0, 2078.0, 2078.0, 2078.0, 2078.0, 2078.0, 2078.0, 2079.0, 2078.0, 2078.0, 2078.0, 2078.0, 2078.0, 2078.0, 2079.0, 2078.0, 2078.0, 2078.0, 2078.0, 2078.0, 2078.0, 2078.0, 2079.0, 2078.0, 2078.0, 2079.0, 2079.0, 2078.0, 2078.0, 2078.0, 2078.0, 2079.0, 2078.0, 2077.0, 2078.0, 2078.0, 2078.0, 2077.0, 2078.0, 2078.0, 2078.0, 2078.0, 2078.0, 2078.0, 2078.0, 2078.0, 2077.0, 2078.0, 2078.0, 2078.0]
    },
    "slices": {}
  }
}