{
  "AcquisitionMatrixPE": 80,
  "AcquisitionNumber": 1,
  "AcquisitionTime": "09:13:42.550000",
  "BandwidthPerPixelPhaseEncode": 25,
  "BaseResolution": 80,
  "BodyPartExamined": "BRAIN",
  "CoilCombinationMethod": "Sum of Squares",
  "ConsistencyInfo": "N4_VE11C_LATEST_20160120",
  "ConversionSoftware": "dcm2niix",
  "ConversionSoftwareVersion": "v1.0.20220720",
  "DerivedVendorReportedEchoSpacing": 0.0005,
  "DeviceSerialNumber": "66112",
  "DwellTime": 2.7e-06,
  "EchoTime": 0.03,
  "EchoTrainLength": 80,
  "EffectiveEchoSpacing": 0.0005,
  "FlipAngle": 10,
  "HeudiconvVersion": "0.13.1",
  "ImageOrientationPatientDICOM": [0.986737, 0.161979, 0.0106708, -0.156813, 0.93415, 0.320583],
  "ImageOrientationText": "Tra>Cor(18.6)>Sag(-2.4)",
  "ImageType": [
    "ORIGINAL",
    "PRIMARY",
    "M",
    "ND",
    "NORM",
    "MOSAIC"
],
  "ImagingFrequency": 123.252,
  "InPlanePhaseEncodingDirectionDICOM": "COL",
  "InstitutionAddress": "Maynard 3,Hanover,NH,US,03755",
  "InstitutionName": "Dartmouth College - PBS",
  "InstitutionalDepartmentName": "Department",
  "MRAcquisitionType": "2D",
  "MagneticFieldStrength": 3,
  "Manufacturer": "Siemens",
  "ManufacturersModelName": "Prisma",
  "MatrixCoilMode": "SENSE",
  "Modality": "MR",
  "NonlinearGradientCorrection": false,
  "PartialFourier": 1,
  "PatientPosition": "HFS",
  "PercentPhaseFOV": 100,
  "PercentSampling": 100,
  "PhaseEncodingDirection": "j-",
  "PhaseEncodingSteps": 80,
  "PhaseResolution": 1,
  "PixelBandwidth": 2315,
  "ProcedureStepDescription": "dbic^QA",
  "ProtocolName": "func-bold_fa-10",
  "PulseSequenceDetails": "%SiemensSeq%\\ep2d_bold",
  "ReceiveCoilActiveElements": "HC1-7;NC1,2",
  "ReceiveCoilName": "HeadNeck_64",
  "ReconMatrixPE": 80,
  "RepetitionTime": 2,
  "SAR": 0.00866149,
  "ScanOptions": "FS",
  "ScanningSequence": "EP",
  "SequenceName": "*epfid2d1_80",
  "SequenceVariant": "SK",
  "SeriesDescription": "func-bold_fa-10",
  "SeriesNumber": 9,
  "ShimSetting": [4141, -7697, -7514, 203, -65, -306, -59, 73],
  "SliceThickness": 3.5,
  "SliceTiming": [0.99, 0, 1.0575, 0.0675, 1.1225, 0.1325, 1.1875, 0.1975, 1.255, 0.265, 1.32, 0.33, 1.3875, 0.3975, 1.4525, 0.4625, 1.5175, 0.5275, 1.585, 0.595, 1.65, 0.66, 1.7175, 0.7275, 1.7825, 0.7925, 1.8475, 0.8575, 1.915, 0.925],
  "SoftwareVersions": "syngo MR E11",
  "SpacingBetweenSlices": 3.99,
  "StationName": "AWP66112",
  "TotalReadoutTime": 0.0395,
  "TxRefAmp": 216.266,
  "dcmmeta_affine": [
    [-2.960209608078003, -0.470440149307251, -0.16741856932640076, 140.76272583007812],
    [-0.4859367907047272, 2.802450180053711, 1.2688356637954712, -91.14545440673828],
    [0.03201230242848396, -0.9617480039596558, 3.779170036315918, -23.91085433959961],
    [0.0, 0.0, 0.0, 1.0]
],
  "dcmmeta_reorient_transform": [
    [0.0, -1.0, 0.0, 79.0],
    [1.0, 0.0, 0.0, 0.0],
    [0.0, 0.0, 1.0, 0.0],
    [0.0, 0.0, 0.0, 1.0]
],
  "dcmmeta_shape": [80, 80, 30, 200],
  "dcmmeta_slice_dim": 2,
  "dcmmeta_version": 0.6,
  "global": {
    "const": {
      "AccessionNumber": "qa64",
      "AcquisitionMatrix": [80, 0, 0, 80],
      "AngioFlag": "N",
      "BitsAllocated": 16,
      "BitsStored": 12,
      "BodyPartExamined": "BRAIN",
      "Columns": 480,
      "EchoNumbers": 1,
      "EchoTime": 30.0,
      "EchoTrainLength": 80,
      "FlipAngle": 10.0,
      "HighBit": 11,
      "ImageOrientationPatient": [0.98673651982655, 0.16197893432771, 0.01067076729465, -0.1568133838953, 0.93415005032113, 0.32058266658749],
      "ImagePositionPatient": [-601.55183188557, -787.92549921908, -298.64100694104],
      "ImageType": [
        "ORIGINAL",
        "PRIMARY",
        "M",
        "ND",
        "NORM",
        "MOSAIC"
],
      "ImagedNucleus": "1H",
      "ImagingFrequency": 123.252352,
      "InPlanePhaseEncodingDirection": "COL",
      "MRAcquisitionType": "2D",
      "MagneticFieldStrength": 3.0,
      "Manufacturer": "SIEMENS",
      "ManufacturerModelName": "Prisma",
      "Modality": "MR",
      "NumberOfAverages": 1.0,
      "NumberOfPhaseEncodingSteps": 80,
      "PercentPhaseFieldOfView": 100.0,
      "PercentSampling": 100.0,
      "PerformedProcedureStepStartTime": "085750.257000",
      "PhotometricInterpretation": "MONOCHROME2",
      "PixelBandwidth": 2315.0,
      "PixelRepresentation": 0,
      "PixelSpacing": [3.0, 3.0],
      "ProtocolName": "func-bold_fa-10",
      "RepetitionTime": 2000.0,
      "Rows": 480,
      "SAR": 0.00866148590119,
      "SamplesPerPixel": 1,
      "ScanOptions": "FS",
      "ScanningSequence": "EP",
      "SequenceName": "*epfid2d1_80",
      "SequenceVariant": "SK",
      "SeriesDescription": "func-bold_fa-10",
      "SeriesNumber": 9,
      "SeriesTime": "091423.318000",
      "SliceLocation": -57.538368341065,
      "SliceThickness": 3.5,
      "SmallestImagePixelValue": 0,
      "SoftwareVersions": "syngo MR E11",
      "SpacingBetweenSlices": 3.9899999238093,
      "SpecificCharacterSet": "ISO_IR 100",
      "StudyID": "5",
      "StudyTime": "085750.191000",
      "TransmitCoilName": "Body",
      "VariableFlipAngleFlag": "N",
      "WindowCenterWidthExplanation": "Algo1",
      "dBdt": 0.0},
    "slices": {}
  },
  "time": {
    "samples": {
      "AcquisitionNumber": [1, 2, 3, 4, 5, 6, 7, 8, 9, 10, 11, 12, 13, 14, 15, 16, 17, 18, 19, 20, 21, 22, 23, 24, 25, 26, 27, 28, 29, 30, 31, 32, 33, 34, 35, 36, 37, 38, 39, 40, 41, 42, 43, 44, 45, 46, 47, 48, 49, 50, 51, 52, 53, 54, 55, 56, 57, 58, 59, 60, 61, 62, 63, 64, 65, 66, 67, 68, 69, 70, 71, 72, 73, 74, 75, 76, 77, 78, 79, 80, 81, 82, 83, 84, 85, 86, 87, 88, 89, 90, 91, 92, 93, 94, 95, 96, 97, 98, 99, 100, 101, 102, 103, 104, 105, 106, 107, 108, 109, 110, 111, 112, 113, 114, 115, 116, 117, 118, 119, 120, 121, 122, 123, 124, 125, 126, 127, 128, 129, 130, 131, 132, 133, 134, 135, 136, 137, 138, 139, 140, 141, 142, 143, 144, 145, 146, 147, 148, 149, 150, 151, 152, 153, 154, 155, 156, 157, 158, 159, 160, 161, 162, 163, 164, 165, 166, 167, 168, 169, 170, 171, 172, 173, 174, 175, 176, 177, 178, 179, 180, 181, 182, 183, 184, 185, 186, 187, 188, 189, 190, 191, 192, 193, 194, 195, 196, 197, 198, 199, 200],
      "AcquisitionTime": ["091342.550000", "091344.550000", "091346.550000", "091348.550000", "091350.550000", "091352.550000", "091354.550000", "091356.550000", "091358.550000", "091400.550000", "091402.550000", "091404.550000", "091406.550000", "091408.550000", "091410.550000", "091412.550000", "091414.550000", "091416.550000", "091418.550000", "091420.550000", "091422.550000", "091424.550000", "091426.550000", "091428.550000", "091430.550000", "091432.550000", "091434.550000", "091436.550000", "091438.550000", "091440.550000", "091442.550000", "091444.550000", "091446.550000", "091448.550000", "091450.550000", "091452.550000", "091454.550000", "091456.550000", "091458.550000", "091500.550000", "091502.550000", "091504.550000", "091506.550000", "091508.550000", "091510.550000", "091512.550000", "091514.550000", "091516.550000", "091518.550000", "091520.550000", "091522.550000", "091524.550000", "091526.550000", "091528.550000", "091530.550000", "091532.550000", "091534.550000", "091536.550000", "091538.550000", "091540.550000", "091542.550000", "091544.550000", "091546.550000", "091548.550000", "091550.550000", "091552.550000", "091554.550000", "091556.550000", "091558.550000", "091600.550000", "091602.550000", "091604.550000", "091606.550000", "091608.550000", "091610.550000", "091612.550000", "091614.550000", "091616.550000", "091618.550000", "091620.550000", "091622.550000", "091624.550000", "091626.550000", "091628.550000", "091630.550000", "091632.550000", "091634.550000", "091636.550000", "091638.550000", "091640.550000", "091642.550000", "091644.550000", "091646.550000", "091648.550000", "091650.550000", "091652.550000", "091654.550000", "091656.550000", "091658.550000", "091700.550000", "091702.550000", "091704.550000", "091706.550000", "091708.550000", "091710.550000", "091712.550000", "091714.550000", "091716.550000", "091718.550000", "091720.550000", "091722.550000", "091724.550000", "091726.550000", "091728.550000", "091730.550000", "091732.550000", "091734.550000", "091736.550000", "091738.550000", "091740.550000", "091742.550000", "091744.550000", "091746.550000", "091748.550000", "091750.550000", "091752.550000", "091754.550000", "091756.550000", "091758.550000", "091800.550000", "091802.550000", "091804.550000", "091806.550000", "091808.550000", "091810.550000", "091812.550000", "091814.550000", "091816.550000", "091818.550000", "091820.550000", "091822.550000", "091824.550000", "091826.550000", "091828.550000", "091830.550000", "091832.550000", "091834.550000", "091836.550000", "091838.550000", "091840.550000", "091842.550000", "091844.550000", "091846.550000", "091848.550000", "091850.550000", "091852.550000", "091854.550000", "091856.550000", "091858.550000", "091900.550000", "091902.550000", "091904.550000", "091906.550000", "091908.550000", "091910.550000", "091912.550000", "091914.550000", "091916.550000", "091918.550000", "091920.550000", "091922.550000", "091924.550000", "091926.550000", "091928.550000", "091930.550000", "091932.550000", "091934.550000", "091936.550000", "091938.550000", "091940.550000", "091942.550000", "091944.550000", "091946.550000", "091948.550000", "091950.550000", "091952.550000", "091954.550000", "091956.550000", "091958.550000", "092000.550000", "092002.550000", "092004.550000", "092006.550000", "092008.550000", "092010.550000", "092012.550000", "092014.550000", "092016.550000", "092018.550000", "092020.550000"],
      "ContentTime": ["091423.321000", "091423.325000", "091423.327000", "091423.330000", "091423.332000", "091423.335000", "091423.337000", "091423.339000", "091423.342000", "091423.352000", "091423.355000", "091423.357000", "091423.360000", "091423.362000", "091423.365000", "091423.367000", "091423.370000", "091423.372000", "091423.375000", "091423.377000", "091503.316000", "091503.319000", "091503.322000", "091503.324000", "091503.327000", "091503.329000", "091503.332000", "091503.334000", "091503.343000", "091503.346000", "091503.348000", "091503.351000", "091503.353000", "091503.356000", "091503.358000", "091503.361000", "091503.363000", "091503.366000", "091503.368000", "091503.371000", "091543.317000", "091543.320000", "091543.323000", "091543.325000", "091543.327000", "091543.330000", "091543.333000", "091543.335000", "091543.338000", "091543.340000", "091543.343000", "091543.345000", "091543.347000", "091543.350000", "091543.352000", "091543.355000", "091543.357000", "091543.360000", "091543.362000", "091543.365000", "091623.316000", "091623.319000", "091623.322000", "091623.324000", "091623.327000", "091623.329000", "091623.332000", "091623.334000", "091623.337000", "091623.339000", "091623.342000", "091623.344000", "091623.347000", "091623.349000", "091623.352000", "091623.354000", "091623.356000", "091623.359000", "091623.361000", "091623.364000", "091703.316000", "091703.319000", "091703.322000", "091703.324000", "091703.327000", "091703.329000", "091703.332000", "091703.334000", "091703.337000", "091703.339000", "091703.342000", "091703.344000", "091703.347000", "091703.349000", "091703.352000", "091703.354000", "091703.357000", "091703.359000", "091703.362000", "091703.364000", "091743.316000", "091743.319000", "091743.322000", "091743.324000", "091743.327000", "091743.329000", "091743.332000", "091743.334000", "091743.336000", "091743.339000", "091743.342000", "091743.344000", "091743.346000", "091743.349000", "091743.351000", "091743.354000", "091743.356000", "091743.359000", "091743.361000", "091743.364000", "091823.316000", "091823.319000", "091823.322000", "091823.324000", "091823.335000", "091823.337000", "091823.340000", "091823.342000", "091823.345000", "091823.347000", "091823.350000", "091823.352000", "091823.355000", "091823.357000", "091823.360000", "091823.362000", "091823.365000", "091823.367000", "091823.370000", "091823.372000", "091843.317000", "091843.319000", "091843.322000", "091843.324000", "091843.327000", "091843.329000", "091843.332000", "091843.334000", "091843.337000", "091843.339000", "091923.316000", "091923.319000", "091923.322000", "091923.324000", "091923.327000", "091923.329000", "091923.332000", "091923.334000", "091923.337000", "091923.339000", "091923.342000", "091923.344000", "091923.347000", "091923.349000", "091923.352000", "091923.354000", "091923.356000", "091923.359000", "091923.361000", "091923.364000", "092003.316000", "092003.319000", "092003.322000", "092003.324000", "092003.327000", "092003.329000", "092003.332000", "092003.334000", "092003.336000", "092003.339000", "092003.341000", "092003.344000", "092003.346000", "092003.349000", "092003.351000", "092003.354000", "092003.356000", "092003.359000", "092003.361000", "092003.364000", "092022.384000", "092022.387000", "092022.389000", "092022.392000", "092022.394000", "092022.397000", "092022.400000", "092022.402000", "092022.405000", "092022.407000"],
      "InstanceCreationTime": ["091423.321000", "091423.325000", "091423.327000", "091423.330000", "091423.332000", "091423.335000", "091423.337000", "091423.339000", "091423.342000", "091423.352000", "091423.355000", "091423.357000", "091423.360000", "091423.362000", "091423.365000", "091423.367000", "091423.370000", "091423.372000", "091423.375000", "091423.377000", "091503.316000", "091503.319000", "091503.322000", "091503.324000", "091503.327000", "091503.329000", "091503.332000", "091503.334000", "091503.343000", "091503.346000", "091503.348000", "091503.351000", "091503.353000", "091503.356000", "091503.358000", "091503.361000", "091503.363000", "091503.366000", "091503.368000", "091503.371000", "091543.317000", "091543.320000", "091543.323000", "091543.325000", "091543.327000", "091543.330000", "091543.333000", "091543.335000", "091543.338000", "091543.340000", "091543.343000", "091543.345000", "091543.347000", "091543.350000", "091543.352000", "091543.355000", "091543.357000", "091543.360000", "091543.362000", "091543.365000", "091623.316000", "091623.319000", "091623.322000", "091623.324000", "091623.327000", "091623.329000", "091623.332000", "091623.334000", "091623.337000", "091623.339000", "091623.342000", "091623.344000", "091623.347000", "091623.349000", "091623.352000", "091623.354000", "091623.356000", "091623.359000", "091623.361000", "091623.364000", "091703.316000", "091703.319000", "091703.322000", "091703.324000", "091703.327000", "091703.329000", "091703.332000", "091703.334000", "091703.337000", "091703.339000", "091703.342000", "091703.344000", "091703.347000", "091703.349000", "091703.352000", "091703.354000", "091703.357000", "091703.359000", "091703.362000", "091703.364000", "091743.316000", "091743.319000", "091743.322000", "091743.324000", "091743.327000", "091743.329000", "091743.332000", "091743.334000", "091743.336000", "091743.339000", "091743.342000", "091743.344000", "091743.346000", "091743.349000", "091743.351000", "091743.354000", "091743.356000", "091743.359000", "091743.361000", "091743.364000", "091823.316000", "091823.319000", "091823.322000", "091823.324000", "091823.335000", "091823.337000", "091823.340000", "091823.342000", "091823.345000", "091823.347000", "091823.350000", "091823.352000", "091823.355000", "091823.357000", "091823.360000", "091823.362000", "091823.365000", "091823.367000", "091823.370000", "091823.372000", "091843.317000", "091843.319000", "091843.322000", "091843.324000", "091843.327000", "091843.329000", "091843.332000", "091843.334000", "091843.337000", "091843.339000", "091923.316000", "091923.319000", "091923.322000", "091923.324000", "091923.327000", "091923.329000", "091923.332000", "091923.334000", "091923.337000", "091923.339000", "091923.342000", "091923.344000", "091923.347000", "091923.349000", "091923.352000", "091923.354000", "091923.356000", "091923.359000", "091923.361000", "091923.364000", "092003.316000", "092003.319000", "092003.322000", "092003.324000", "092003.327000", "092003.329000", "092003.332000", "092003.334000", "092003.336000", "092003.339000", "092003.341000", "092003.344000", "092003.346000", "092003.349000", "092003.351000", "092003.354000", "092003.356000", "092003.359000", "092003.361000", "092003.364000", "092022.384000", "092022.387000", "092022.389000", "092022.392000", "092022.394000", "092022.397000", "092022.400000", "092022.402000", "092022.405000", "092022.407000"],
      "InstanceNumber": [1, 2, 3, 4, 5, 6, 7, 8, 9, 10, 11, 12, 13, 14, 15, 16, 17, 18, 19, 20, 21, 22, 23, 24, 25, 26, 27, 28, 29, 30, 31, 32, 33, 34, 35, 36, 37, 38, 39, 40, 41, 42, 43, 44, 45, 46, 47, 48, 49, 50, 51, 52, 53, 54, 55, 56, 57, 58, 59, 60, 61, 62, 63, 64, 65, 66, 67, 68, 69, 70, 71, 72, 73, 74, 75, 76, 77, 78, 79, 80, 81, 82, 83, 84, 85, 86, 87, 88, 89, 90, 91, 92, 93, 94, 95, 96, 97, 98, 99, 100, 101, 102, 103, 104, 105, 106, 107, 108, 109, 110, 111, 112, 113, 114, 115, 116, 117, 118, 119, 120, 121, 122, 123, 124, 125, 126, 127, 128, 129, 130, 131, 132, 133, 134, 135, 136, 137, 138, 139, 140, 141, 142, 143, 144, 145, 146, 147, 148, 149, 150, 151, 152, 153, 154, 155, 156, 157, 158, 159, 160, 161, 162, 163, 164, 165, 166, 167, 168, 169, 170, 171, 172, 173, 174, 175, 176, 177, 178, 179, 180, 181, 182, 183, 184, 185, 186, 187, 188, 189, 190, 191, 192, 193, 194, 195, 196, 197, 198, 199, 200],
      "LargestImagePixelValue": [634, 631, 630, 634, 633, 634, 638, 634, 631, 634, 635, 630, 635, 635, 636, 636, 633, 638, 631, 632, 633, 632, 636, 635, 631, 633, 631, 633, 631, 637, 632, 635, 635, 635, 630, 635, 628, 638, 636, 631, 634, 634, 630, 631, 635, 635, 635, 637, 639, 632, 637, 634, 630, 632, 631, 632, 630, 637, 632, 636, 635, 633, 632, 637, 630, 633, 631, 632, 634, 631, 633, 631, 630, 631, 635, 630, 635, 633, 631, 630, 630, 632, 627, 628, 634, 634, 631, 634, 632, 634, 631, 638, 640, 632, 635, 631, 636, 635, 631, 633, 632, 635, 635, 637, 633, 636, 636, 630, 633, 635, 632, 630, 634, 637, 631, 628, 630, 632, 626, 632, 633, 635, 627, 633, 633, 630, 629, 638, 632, 631, 631, 632, 633, 634, 632, 629, 633, 633, 632, 628, 634, 632, 628, 633, 634, 630, 630, 631, 632, 632, 634, 633, 631, 634, 632, 631, 629, 631, 631, 631, 631, 637, 629, 628, 634, 632, 632, 629, 631, 632, 629, 632, 630, 627, 632, 626, 628, 629, 630, 634, 631, 630, 628, 634, 631, 631, 631, 634, 628, 632, 636, 633, 634, 631, 629, 632, 633, 631, 633, 632],
      "WindowCenter": [440.0, 440.0, 440.0, 440.0, 440.0, 440.0, 440.0, 440.0, 440.0, 440.0, 440.0, 440.0, 440.0, 440.0, 440.0, 440.0, 440.0, 440.0, 440.0, 440.0, 440.0, 440.0, 440.0, 440.0, 440.0, 440.0, 440.0, 440.0, 440.0, 440.0, 440.0, 440.0, 440.0, 440.0, 440.0, 440.0, 439.0, 440.0, 440.0, 440.0, 440.0, 440.0, 440.0, 440.0, 440.0, 440.0, 440.0, 440.0, 440.0, 440.0, 440.0, 440.0, 440.0, 439.0, 440.0, 440.0, 440.0, 439.0, 439.0, 439.0, 439.0, 439.0, 439.0, 440.0, 439.0, 439.0, 440.0, 439.0, 439.0, 439.0, 439.0, 439.0, 439.0, 439.0, 440.0, 439.0, 439.0, 439.0, 439.0, 439.0, 439.0, 439.0, 439.0, 439.0, 440.0, 439.0, 439.0, 440.0, 439.0, 439.0, 439.0, 439.0, 439.0, 439.0, 439.0, 439.0, 439.0, 439.0, 439.0, 439.0, 439.0, 439.0, 439.0, 439.0, 439.0, 439.0, 439.0, 439.0, 439.0, 439.0, 439.0, 439.0, 439.0, 439.0, 439.0, 439.0, 439.0, 439.0, 439.0, 439.0, 439.0, 439.0, 439.0, 439.0, 439.0, 439.0, 439.0, 439.0, 439.0, 439.0, 439.0, 439.0, 439.0, 439.0, 439.0, 439.0, 439.0, 439.0, 439.0, 439.0, 439.0, 439.0, 439.0, 439.0, 439.0, 439.0, 439.0, 439.0, 439.0, 439.0, 439.0, 439.0, 439.0, 439.0, 439.0, 439.0, 439.0, 439.0, 439.0, 439.0, 439.0, 439.0, 438.0, 439.0, 439.0, 439.0, 439.0, 438.0, 439.0, 439.0, 438.0, 439.0, 439.0, 438.0, 439.0, 438.0, 438.0, 438.0, 439.0, 439.0, 439.0, 439.0, 438.0, 439.0, 439.0, 439.0, 439.0, 439.0, 438.0, 439.0, 439.0, 439.0, 439.0, 439.0, 438.0, 439.0, 439.0, 439.0, 439.0, 439.0],
      "WindowWidth": [916.0, 916.0, 916.0, 916.0, 916.0, 916.0, 916.0, 916.0, 916.0, 916.0, 916.0, 916.0, 916.0, 916.0, 916.0, 916.0, 916.0, 916.0, 916.0, 916.0, 916.0, 916.0, 916.0, 916.0, 916.0, 916.0, 916.0, 916.0, 915.0, 916.0, 916.0, 916.0, 915.0, 916.0, 915.0, 916.0, 915.0, 916.0, 916.0, 916.0, 916.0, 916.0, 916.0, 915.0, 915.0, 915.0, 916.0, 916.0, 916.0, 915.0, 915.0, 915.0, 915.0, 915.0, 916.0, 915.0, 916.0, 915.0, 915.0, 915.0, 915.0, 915.0, 915.0, 916.0, 915.0, 915.0, 916.0, 915.0, 915.0, 915.0, 915.0, 915.0, 915.0, 915.0, 916.0, 915.0, 915.0, 915.0, 915.0, 915.0, 915.0, 915.0, 914.0, 914.0, 916.0, 915.0, 915.0, 915.0, 915.0, 915.0, 915.0, 915.0, 915.0, 915.0, 915.0, 915.0, 915.0, 915.0, 915.0, 915.0, 915.0, 915.0, 915.0, 915.0, 915.0, 915.0, 915.0, 915.0, 915.0, 915.0, 915.0, 915.0, 915.0, 915.0, 915.0, 914.0, 915.0, 915.0, 914.0, 915.0, 915.0, 915.0, 914.0, 915.0, 915.0, 915.0, 914.0, 915.0, 915.0, 915.0, 915.0, 915.0, 915.0, 915.0, 915.0, 914.0, 915.0, 915.0, 914.0, 914.0, 914.0, 914.0, 914.0, 914.0, 915.0, 914.0, 914.0, 914.0, 914.0, 914.0, 914.0, 914.0, 914.0, 914.0, 914.0, 914.0, 914.0, 914.0, 914.0, 914.0, 914.0, 914.0, 913.0, 914.0, 914.0, 914.0, 914.0, 913.0, 914.0, 914.0, 913.0, 914.0, 914.0, 913.0, 914.0, 913.0, 913.0, 913.0, 914.0, 914.0, 914.0, 914.0, 913.0, 914.0, 914.0, 914.0, 914.0, 914.0, 913.0, 914.0, 914.0, 913.0, 914.0, 914.0, 913.0, 913.0, 914.0, 913.0, 914.0, 914.0]
    },
    "slices": {}
  }
}