{
  "AcquisitionMatrixPE": 122,
  "AcquisitionNumber": 1,
  "AcquisitionTime": "11:25:44.225000",
  "BandwidthPerPixelPhaseEncode": 28.76,
  "BaseResolution": 122,
  "BodyPartExamined": "BRAIN",
  "CoilCombinationMethod": "Adaptive Combine",
  "ConsistencyInfo": "N4_VE11C_LATEST_20160120",
  "ConversionSoftware": "dcm2niix",
  "ConversionSoftwareVersion": "v1.0.20220720",
  "DerivedVendorReportedEchoSpacing": 0.000570008,
  "DeviceSerialNumber": "66112",
  "DiffusionScheme": "Monopolar",
  "DwellTime": 2e-06,
  "EchoTime": 0.075,
  "EchoTrainLength": 61,
  "EffectiveEchoSpacing": 0.000285004,
  "FlipAngle": 90,
  "HeudiconvVersion": "0.13.1",
  "ImageOrientationPatientDICOM": [0.983893, -0.177657, -0.019803, 0.173664, 0.923717, 0.341449],
  "ImageOrientationText": "Tra>Cor(19.9)>Sag(2.4)",
  "ImageType": [
    "ORIGINAL",
    "PRIMARY",
    "DIFFUSION",
    "NONE",
    "ND",
    "NORM"
],
  "ImagingFrequency": 123.252,
  "InPlanePhaseEncodingDirectionDICOM": "COL",
  "InstitutionAddress": "Maynard 3,Hanover,NH,US,03755",
  "InstitutionName": "Dartmouth College - PBS",
  "InstitutionalDepartmentName": "Department",
  "MRAcquisitionType": "2D",
  "MagneticFieldStrength": 3,
  "Manufacturer": "Siemens",
  "ManufacturersModelName": "Prisma",
  "MatrixCoilMode": "GRAPPA",
  "Modality": "MR",
  "NonlinearGradientCorrection": false,
  "ParallelReductionFactorInPlane": 2,
  "PartialFourier": 1,
  "PatientPosition": "HFS",
  "PercentPhaseFOV": 100,
  "PercentSampling": 100,
  "PhaseEncodingDirection": "j-",
  "PhaseEncodingSteps": 122,
  "PhaseResolution": 1,
  "PixelBandwidth": 2050,
  "ProcedureStepDescription": "dbic^QA",
  "ProtocolName": "dwi_acq-DTI-30-p2",
  "PulseSequenceDetails": "%SiemensSeq%\\ep2d_diff",
  "ReceiveCoilActiveElements": "HEA;HEP",
  "ReceiveCoilName": "Head_32",
  "ReconMatrixPE": 122,
  "RefLinesPE": 38,
  "RepetitionTime": 7.7,
  "SAR": 0.102119,
  "ScanOptions": "FS",
  "ScanningSequence": "EP",
  "SequenceName": "*ep_b0",
  "SequenceVariant": "SK\\SP",
  "SeriesDescription": "dwi_acq-DTI-30-p2",
  "SeriesNumber": 8,
  "ShimSetting": [4152, -7709, -7518, 281, -104, -178, -17, 122],
  "SliceThickness": 2,
  "SliceTiming": [3.84375, 0, 3.95312, 0.10938, 4.0625, 0.21875, 4.17188, 0.33594, 4.28125, 0.44531, 4.39062, 0.55469, 4.5, 0.65625, 4.60938, 0.77344, 4.71875, 0.88281, 4.82812, 0.99219, 4.9375, 1.10156, 5.04688, 1.21094, 5.15625, 1.32031, 5.27344, 1.42969, 5.375, 1.53906, 5.48438, 1.64844, 5.59375, 1.75781, 5.71094, 1.86719, 5.82031, 1.97656, 5.92969, 2.08594, 6.03906, 2.19531, 6.14844, 2.30469, 6.25781, 2.41406, 6.36719, 2.52344, 6.47656, 2.63281, 6.58594, 2.74219, 6.69531, 2.85156, 6.80469, 2.96094, 6.91406, 3.07812, 7.02344, 3.1875, 7.13281, 3.29688, 7.24219, 3.40625, 7.35156, 3.51562, 7.46094, 3.625, 7.57031, 3.73438],
  "SoftwareVersions": "syngo MR E11",
  "SpacingBetweenSlices": 2,
  "SpoilingState": true,
  "StationName": "AWP66112",
  "TotalReadoutTime": 0.0344855,
  "TxRefAmp": 228.656,
  "dcmmeta_affine": [
    [-1.9355275630950928, 0.34163403511047363, 0.08473697304725647, 92.14070129394531],
    [0.349489688873291, 1.8171485662460327, 0.6787757873535156, -146.70799255371094],
    [-0.038956817239522934, -0.6717031002044678, 1.8793792724609375, -18.442113876342773],
    [0.0, 0.0, 0.0, 1.0]
],
  "dcmmeta_reorient_transform": [
    [0.0, -1.0, 0.0, 121.0],
    [1.0, 0.0, 0.0, 0.0],
    [0.0, 0.0, -1.0, 69.0],
    [0.0, 0.0, 0.0, 1.0]
],
  "dcmmeta_shape": [122, 122, 70, 31],
  "dcmmeta_slice_dim": 2,
  "dcmmeta_version": 0.6,
  "global": {
    "const": {
      "AccessionNumber": "qa",
      "AcquisitionMatrix": [122, 0, 0, 122],
      "AngioFlag": "N",
      "BitsAllocated": 16,
      "BitsStored": 12,
      "BodyPartExamined": "BRAIN",
      "Columns": 122,
      "EchoNumbers": 1,
      "EchoTime": 75.0,
      "EchoTrainLength": 61,
      "FlipAngle": 90.0,
      "HighBit": 11,
      "ImageOrientationPatient": [0.98389315359855, -0.1776572586645, -0.0198030488991, 0.17366396643085, 0.92371713967941, 0.34144907764702],
      "ImageType": [
        "ORIGINAL",
        "PRIMARY",
        "DIFFUSION",
        "NONE",
        "ND",
        "NORM"
],
      "ImagedNucleus": "1H",
      "ImagingFrequency": 123.252403,
      "InPlanePhaseEncodingDirection": "COL",
      "MRAcquisitionType": "2D",
      "MagneticFieldStrength": 3.0,
      "Manufacturer": "SIEMENS",
      "ManufacturerModelName": "Prisma",
      "Modality": "MR",
      "NumberOfAverages": 1.0,
      "NumberOfPhaseEncodingSteps": 122,
      "PercentPhaseFieldOfView": 100.0,
      "PercentSampling": 100.0,
      "PerformedProcedureStepStartTime": "110959.159000",
      "PhotometricInterpretation": "MONOCHROME2",
      "PixelBandwidth": 2050.0,
      "PixelRepresentation": 0,
      "PixelSpacing": [1.9672131538391, 1.9672131538391],
      "ProtocolName": "dwi_acq-DTI-30-p2",
      "RepetitionTime": 7700.0,
      "Rows": 122,
      "SAR": 0.10211893979243,
      "SamplesPerPixel": 1,
      "ScanOptions": "FS",
      "ScanningSequence": "EP",
      "SequenceVariant": [
        "SK",
        "SP"
],
      "SeriesDescription": "dwi_acq-DTI-30-p2",
      "SeriesNumber": 8,
      "SeriesTime": "112559.165000",
      "SliceThickness": 2.0,
      "SmallestImagePixelValue": 0,
      "SoftwareVersions": "syngo MR E11",
      "SpacingBetweenSlices": 2.0,
      "SpecificCharacterSet": "ISO_IR 100",
      "StudyID": "91",
      "StudyTime": "110959.060000",
      "TransmitCoilName": "Body",
      "VariableFlipAngleFlag": "N",
      "WindowCenterWidthExplanation": "Algo1",
      "dBdt": 0.0},
    "slices": {
      "AcquisitionTime": ["112544.225000", "112540.385000", "112544.335000", "112540.495000", "112544.445000", "112540.605000", "112544.555000", "112540.715000", "112544.665000", "112540.825000", "112544.775000", "112540.935000", "112544.882500", "112541.042500", "112544.992500", "112541.152500", "112545.102500", "112541.262500", "112545.212500", "112541.372500", "112545.322500", "112541.482500", "112545.432500", "112541.592500", "112545.542500", "112541.702500", "112545.652500", "112541.812500", "112545.760000", "112541.922500", "112545.870000", "112542.030000", "112545.980000", "112542.140000", "112546.090000", "112542.250000", "112546.200000", "112542.360000", "112546.310000", "112542.470000", "112546.420000", "112542.580000", "112546.530000", "112542.690000", "112546.640000", "112542.800000", "112546.747500", "112542.907500", "112546.857500", "112543.017500", "112546.967500", "112543.127500", "112547.077500", "112543.237500", "112547.187500", "112543.347500", "112547.297500", "112543.457500", "112547.407500", "112543.567500", "112547.517500", "112543.677500", "112547.625000", "112543.787500", "112547.735000", "112543.895000", "112547.845000", "112544.005000", "112547.955000", "112544.115000", "112551.925000", "112548.085000", "112552.035000", "112548.195000", "112552.145000", "112548.305000", "112552.255000", "112548.415000", "112552.365000", "112548.525000", "112552.475000", "112548.635000", "112552.582500", "112548.742500", "112552.692500", "112548.852500", "112552.802500", "112548.962500", "112552.912500", "112549.072500", "112553.022500", "112549.182500", "112553.132500", "112549.292500", "112553.242500", "112549.402500", "112553.352500", "112549.512500", "112553.460000", "112549.622500", "112553.570000", "112549.730000", "112553.680000", "112549.840000", "112553.790000", "112549.950000", "112553.900000", "112550.060000", "112554.010000", "112550.170000", "112554.120000", "112550.280000", "112554.230000", "112550.390000", "112554.340000", "112550.500000", "112554.447500", "112550.607500", "112554.557500", "112550.717500", "112554.667500", "112550.827500", "112554.777500", "112550.937500", "112554.887500", "112551.047500", "112554.997500", "112551.157500", "112555.107500", "112551.267500", "112555.217500", "112551.377500", "112555.325000", "112551.487500", "112555.435000", "112551.595000", "112555.545000", "112551.705000", "112555.655000", "112551.815000", "112559.625000", "112555.785000", "112559.735000", "112555.895000", "112559.845000", "112556.005000", "112559.955000", "112556.115000", "112600.065000", "112556.225000", "112600.175000", "112556.335000", "112600.282500", "112556.442500", "112600.392500", "112556.552500", "112600.502500", "112556.662500", "112600.612500", "112556.772500", "112600.722500", "112556.882500", "112600.832500", "112556.992500", "112600.942500", "112557.102500", "112601.052500", "112557.212500", "112601.160000", "112557.322500", "112601.270000", "112557.430000", "112601.380000", "112557.540000", "112601.490000", "112557.650000", "112601.600000", "112557.760000", "112601.710000", "112557.870000", "112601.820000", "112557.980000", "112601.930000", "112558.090000", "112602.040000", "112558.200000", "112602.147500", "112558.307500", "112602.257500", "112558.417500", "112602.367500", "112558.527500", "112602.477500", "112558.637500", "112602.587500", "112558.747500", "112602.697500", "112558.857500", "112602.807500", "112558.967500", "112602.917500", "112559.077500", "112603.025000", "112559.187500", "112603.135000", "112559.295000", "112603.245000", "112559.405000", "112603.355000", "112559.515000", "112607.325000", "112603.485000", "112607.435000", "112603.595000", "112607.545000", "112603.705000", "112607.655000", "112603.815000", "112607.765000", "112603.925000", "112607.875000", "112604.035000", "112607.982500", "112604.142500", "112608.092500", "112604.252500", "112608.202500", "112604.362500", "112608.312500", "112604.472500", "112608.422500", "112604.582500", "112608.532500", "112604.692500", "112608.642500", "112604.802500", "112608.752500", "112604.912500", "112608.860000", "112605.022500", "112608.970000", "112605.130000", "112609.080000", "112605.240000", "112609.190000", "112605.350000", "112609.300000", "112605.460000", "112609.410000", "112605.570000", "112609.520000", "112605.680000", "112609.630000", "112605.790000", "112609.740000", "112605.900000", "112609.847500", "112606.007500", "112609.957500", "112606.117500", "112610.067500", "112606.227500", "112610.177500", "112606.337500", "112610.287500", "112606.447500", "112610.397500", "112606.557500", "112610.507500", "112606.667500", "112610.617500", "112606.777500", "112610.725000", "112606.887500", "112610.835000", "112606.995000", "112610.945000", "112607.105000", "112611.055000", "112607.215000", "112615.025000", "112611.185000", "112615.135000", "112611.295000", "112615.245000", "112611.405000", "112615.355000", "112611.515000", "112615.465000", "112611.625000", "112615.575000", "112611.735000", "112615.682500", "112611.842500", "112615.792500", "112611.952500", "112615.902500", "112612.062500", "112616.012500", "112612.172500", "112616.122500", "112612.282500", "112616.232500", "112612.392500", "112616.342500", "112612.502500", "112616.452500", "112612.612500", "112616.560000", "112612.722500", "112616.670000", "112612.830000", "112616.780000", "112612.940000", "112616.890000", "112613.050000", "112617.000000", "112613.160000", "112617.110000", "112613.270000", "112617.220000", "112613.380000", "112617.330000", "112613.490000", "112617.440000", "112613.600000", "112617.547500", "112613.707500", "112617.657500", "112613.817500", "112617.767500", "112613.927500", "112617.877500", "112614.037500", "112617.987500", "112614.147500", "112618.097500", "112614.257500", "112618.207500", "112614.367500", "112618.317500", "112614.477500", "112618.425000", "112614.587500", "112618.535000", "112614.695000", "112618.645000", "112614.805000", "112618.755000", "112614.915000", "112622.725000", "112618.885000", "112622.835000", "112618.995000", "112622.945000", "112619.105000", "112623.055000", "112619.215000", "112623.165000", "112619.325000", "112623.275000", "112619.435000", "112623.382500", "112619.542500", "112623.492500", "112619.652500", "112623.602500", "112619.762500", "112623.712500", "112619.872500", "112623.822500", "112619.982500", "112623.932500", "112620.092500", "112624.042500", "112620.202500", "112624.152500", "112620.312500", "112624.260000", "112620.422500", "112624.370000", "112620.530000", "112624.480000", "112620.640000", "112624.590000", "112620.750000", "112624.700000", "112620.860000", "112624.810000", "112620.970000", "112624.920000", "112621.080000", "112625.030000", "112621.190000", "112625.140000", "112621.300000", "112625.247500", "112621.407500", "112625.357500", "112621.517500", "112625.467500", "112621.627500", "112625.577500", "112621.737500", "112625.687500", "112621.847500", "112625.797500", "112621.957500", "112625.907500", "112622.067500", "112626.017500", "112622.177500", "112626.125000", "112622.287500", "112626.235000", "112622.395000", "112626.345000", "112622.505000", "112626.455000", "112622.615000", "112630.425000", "112626.585000", "112630.535000", "112626.695000", "112630.645000", "112626.805000", "112630.755000", "112626.915000", "112630.865000", "112627.025000", "112630.975000", "112627.135000", "112631.082500", "112627.242500", "112631.192500", "112627.352500", "112631.302500", "112627.462500", "112631.412500", "112627.572500", "112631.522500", "112627.682500", "112631.632500", "112627.792500", "112631.742500", "112627.902500", "112631.852500", "112628.012500", "112631.960000", "112628.122500", "112632.070000", "112628.230000", "112632.180000", "112628.340000", "112632.290000", "112628.450000", "112632.400000", "112628.560000", "112632.510000", "112628.670000", "112632.620000", "112628.780000", "112632.730000", "112628.890000", "112632.840000", "112629.000000", "112632.947500", "112629.107500", "112633.057500", "112629.217500", "112633.167500", "112629.327500", "112633.277500", "112629.437500", "112633.387500", "112629.547500", "112633.497500", "112629.657500", "112633.607500", "112629.767500", "112633.717500", "112629.877500", "112633.825000", "112629.987500", "112633.935000", "112630.095000", "112634.045000", "112630.205000", "112634.155000", "112630.315000", "112638.125000", "112634.285000", "112638.235000", "112634.395000", "112638.345000", "112634.505000", "112638.455000", "112634.615000", "112638.565000", "112634.725000", "112638.675000", "112634.835000", "112638.782500", "112634.942500", "112638.892500", "112635.052500", "112639.002500", "112635.162500", "112639.112500", "112635.272500", "112639.222500", "112635.382500", "112639.332500", "112635.492500", "112639.442500", "112635.602500", "112639.552500", "112635.712500", "112639.660000", "112635.822500", "112639.770000", "112635.930000", "112639.880000", "112636.040000", "112639.990000", "112636.150000", "112640.100000", "112636.260000", "112640.210000", "112636.370000", "112640.320000", "112636.480000", "112640.430000", "112636.590000", "112640.540000", "112636.700000", "112640.647500", "112636.807500", "112640.757500", "112636.917500", "112640.867500", "112637.027500", "112640.977500", "112637.137500", "112641.087500", "112637.247500", "112641.197500", "112637.357500", "112641.307500", "112637.467500", "112641.417500", "112637.577500", "112641.525000", "112637.687500", "112641.635000", "112637.795000", "112641.745000", "112637.905000", "112641.855000", "112638.015000", "112645.825000", "112641.985000", "112645.935000", "112642.095000", "112646.045000", "112642.205000", "112646.155000", "112642.315000", "112646.265000", "112642.425000", "112646.375000", "112642.535000", "112646.482500", "112642.642500", "112646.592500", "112642.752500", "112646.702500", "112642.862500", "112646.812500", "112642.972500", "112646.922500", "112643.082500", "112647.032500", "112643.192500", "112647.142500", "112643.302500", "112647.252500", "112643.412500", "112647.360000", "112643.522500", "112647.470000", "112643.630000", "112647.580000", "112643.740000", "112647.690000", "112643.850000", "112647.800000", "112643.960000", "112647.910000", "112644.070000", "112648.020000", "112644.180000", "112648.130000", "112644.290000", "112648.240000", "112644.400000", "112648.347500", "112644.507500", "112648.457500", "112644.617500", "112648.567500", "112644.727500", "112648.677500", "112644.837500", "112648.787500", "112644.947500", "112648.897500", "112645.057500", "112649.007500", "112645.167500", "112649.117500", "112645.277500", "112649.225000", "112645.387500", "112649.335000", "112645.495000", "112649.445000", "112645.605000", "112649.555000", "112645.715000", "112653.525000", "112649.685000", "112653.635000", "112649.795000", "112653.745000", "112649.905000", "112653.855000", "112650.015000", "112653.965000", "112650.125000", "112654.075000", "112650.235000", "112654.182500", "112650.342500", "112654.292500", "112650.452500", "112654.402500", "112650.562500", "112654.512500", "112650.672500", "112654.622500", "112650.782500", "112654.732500", "112650.892500", "112654.842500", "112651.002500", "112654.952500", "112651.112500", "112655.060000", "112651.222500", "112655.170000", "112651.330000", "112655.280000", "112651.440000", "112655.390000", "112651.550000", "112655.500000", "112651.660000", "112655.610000", "112651.770000", "112655.720000", "112651.880000", "112655.830000", "112651.990000", "112655.940000", "112652.100000", "112656.047500", "112652.207500", "112656.157500", "112652.317500", "112656.267500", "112652.427500", "112656.377500", "112652.537500", "112656.487500", "112652.647500", "112656.597500", "112652.757500", "112656.707500", "112652.867500", "112656.817500", "112652.977500", "112656.925000", "112653.087500", "112657.035000", "112653.195000", "112657.145000", "112653.305000", "112657.255000", "112653.415000", "112701.225000", "112657.385000", "112701.335000", "112657.495000", "112701.445000", "112657.605000", "112701.555000", "112657.715000", "112701.665000", "112657.825000", "112701.775000", "112657.935000", "112701.882500", "112658.042500", "112701.992500", "112658.152500", "112702.102500", "112658.262500", "112702.212500", "112658.372500", "112702.322500", "112658.482500", "112702.432500", "112658.592500", "112702.542500", "112658.702500", "112702.652500", "112658.812500", "112702.760000", "112658.922500", "112702.870000", "112659.030000", "112702.980000", "112659.140000", "112703.090000", "112659.250000", "112703.200000", "112659.360000", "112703.310000", "112659.470000", "112703.420000", "112659.580000", "112703.530000", "112659.690000", "112703.640000", "112659.800000", "112703.747500", "112659.907500", "112703.857500", "112700.017500", "112703.967500", "112700.127500", "112704.077500", "112700.237500", "112704.187500", "112700.347500", "112704.297500", "112700.457500", "112704.407500", "112700.567500", "112704.517500", "112700.677500", "112704.625000", "112700.787500", "112704.735000", "112700.895000", "112704.845000", "112701.005000", "112704.955000", "112701.115000", "112708.925000", "112705.085000", "112709.035000", "112705.195000", "112709.145000", "112705.305000", "112709.255000", "112705.415000", "112709.365000", "112705.525000", "112709.475000", "112705.635000", "112709.582500", "112705.742500", "112709.692500", "112705.852500", "112709.802500", "112705.962500", "112709.912500", "112706.072500", "112710.022500", "112706.182500", "112710.132500", "112706.292500", "112710.242500", "112706.402500", "112710.352500", "112706.512500", "112710.460000", "112706.622500", "112710.570000", "112706.730000", "112710.680000", "112706.840000", "112710.790000", "112706.950000", "112710.900000", "112707.060000", "112711.010000", "112707.170000", "112711.120000", "112707.280000", "112711.230000", "112707.390000", "112711.340000", "112707.500000", "112711.447500", "112707.607500", "112711.557500", "112707.717500", "112711.667500", "112707.827500", "112711.777500", "112707.937500", "112711.887500", "112708.047500", "112711.997500", "112708.157500", "112712.107500", "112708.267500", "112712.217500", "112708.377500", "112712.325000", "112708.487500", "112712.435000", "112708.595000", "112712.545000", "112708.705000", "112712.655000", "112708.815000", "112716.625000", "112712.785000", "112716.735000", "112712.895000", "112716.845000", "112713.005000", "112716.955000", "112713.115000", "112717.065000", "112713.225000", "112717.175000", "112713.335000", "112717.282500", "112713.442500", "112717.392500", "112713.552500", "112717.502500", "112713.662500", "112717.612500", "112713.772500", "112717.722500", "112713.882500", "112717.832500", "112713.992500", "112717.942500", "112714.102500", "112718.052500", "112714.212500", "112718.160000", "112714.322500", "112718.270000", "112714.430000", "112718.380000", "112714.540000", "112718.490000", "112714.650000", "112718.600000", "112714.760000", "112718.710000", "112714.870000", "112718.820000", "112714.980000", "112718.930000", "112715.090000", "112719.040000", "112715.200000", "112719.147500", "112715.307500", "112719.257500", "112715.417500", "112719.367500", "112715.527500", "112719.477500", "112715.637500", "112719.587500", "112715.747500", "112719.697500", "112715.857500", "112719.807500", "112715.967500", "112719.917500", "112716.077500", "112720.025000", "112716.187500", "112720.135000", "112716.295000", "112720.245000", "112716.405000", "112720.355000", "112716.515000", "112724.325000", "112720.485000", "112724.435000", "112720.595000", "112724.545000", "112720.705000", "112724.655000", "112720.815000", "112724.765000", "112720.925000", "112724.875000", "112721.035000", "112724.982500", "112721.142500", "112725.092500", "112721.252500", "112725.202500", "112721.362500", "112725.312500", "112721.472500", "112725.422500", "112721.582500", "112725.532500", "112721.692500", "112725.642500", "112721.802500", "112725.752500", "112721.912500", "112725.860000", "112722.022500", "112725.970000", "112722.130000", "112726.080000", "112722.240000", "112726.190000", "112722.350000", "112726.300000", "112722.460000", "112726.410000", "112722.570000", "112726.520000", "112722.680000", "112726.630000", "112722.790000", "112726.740000", "112722.900000", "112726.847500", "112723.007500", "112726.957500", "112723.117500", "112727.067500", "112723.227500", "112727.177500", "112723.337500", "112727.287500", "112723.447500", "112727.397500", "112723.557500", "112727.507500", "112723.667500", "112727.617500", "112723.777500", "112727.725000", "112723.887500", "112727.835000", "112723.995000", "112727.945000", "112724.105000", "112728.055000", "112724.215000", "112732.025000", "112728.185000", "112732.135000", "112728.295000", "112732.245000", "112728.405000", "112732.355000", "112728.515000", "112732.465000", "112728.625000", "112732.575000", "112728.735000", "112732.682500", "112728.842500", "112732.792500", "112728.952500", "112732.902500", "112729.062500", "112733.012500", "112729.172500", "112733.122500", "112729.282500", "112733.232500", "112729.392500", "112733.342500", "112729.502500", "112733.452500", "112729.612500", "112733.560000", "112729.722500", "112733.670000", "112729.830000", "112733.780000", "112729.940000", "112733.890000", "112730.050000", "112734.000000", "112730.160000", "112734.110000", "112730.270000", "112734.220000", "112730.380000", "112734.330000", "112730.490000", "112734.440000", "112730.600000", "112734.547500", "112730.707500", "112734.657500", "112730.817500", "112734.767500", "112730.927500", "112734.877500", "112731.037500", "112734.987500", "112731.147500", "112735.097500", "112731.257500", "112735.207500", "112731.367500", "112735.317500", "112731.477500", "112735.425000", "112731.587500", "112735.535000", "112731.695000", "112735.645000", "112731.805000", "112735.755000", "112731.915000", "112739.725000", "112735.885000", "112739.835000", "112735.995000", "112739.945000", "112736.105000", "112740.055000", "112736.215000", "112740.165000", "112736.325000", "112740.275000", "112736.435000", "112740.382500", "112736.542500", "112740.492500", "112736.652500", "112740.602500", "112736.762500", "112740.712500", "112736.872500", "112740.822500", "112736.982500", "112740.932500", "112737.092500", "112741.042500", "112737.202500", "112741.152500", "112737.312500", "112741.260000", "112737.422500", "112741.370000", "112737.530000", "112741.480000", "112737.640000", "112741.590000", "112737.750000", "112741.700000", "112737.860000", "112741.810000", "112737.970000", "112741.920000", "112738.080000", "112742.030000", "112738.190000", "112742.140000", "112738.300000", "112742.247500", "112738.407500", "112742.357500", "112738.517500", "112742.467500", "112738.627500", "112742.577500", "112738.737500", "112742.687500", "112738.847500", "112742.797500", "112738.957500", "112742.907500", "112739.067500", "112743.017500", "112739.177500", "112743.125000", "112739.287500", "112743.235000", "112739.395000", "112743.345000", "112739.505000", "112743.455000", "112739.615000", "112747.425000", "112743.585000", "112747.535000", "112743.695000", "112747.645000", "112743.805000", "112747.755000", "112743.915000", "112747.865000", "112744.025000", "112747.975000", "112744.135000", "112748.082500", "112744.242500", "112748.192500", "112744.352500", "112748.302500", "112744.462500", "112748.412500", "112744.572500", "112748.522500", "112744.682500", "112748.632500", "112744.792500", "112748.742500", "112744.902500", "112748.852500", "112745.012500", "112748.960000", "112745.122500", "112749.070000", "112745.230000", "112749.180000", "112745.340000", "112749.290000", "112745.450000", "112749.400000", "112745.560000", "112749.510000", "112745.670000", "112749.620000", "112745.780000", "112749.730000", "112745.890000", "112749.840000", "112746.000000", "112749.947500", "112746.107500", "112750.057500", "112746.217500", "112750.167500", "112746.327500", "112750.277500", "112746.437500", "112750.387500", "112746.547500", "112750.497500", "112746.657500", "112750.607500", "112746.767500", "112750.717500", "112746.877500", "112750.825000", "112746.987500", "112750.935000", "112747.095000", "112751.045000", "112747.205000", "112751.155000", "112747.315000", "112755.125000", "112751.285000", "112755.235000", "112751.395000", "112755.345000", "112751.505000", "112755.455000", "112751.615000", "112755.565000", "112751.725000", "112755.675000", "112751.835000", "112755.782500", "112751.942500", "112755.892500", "112752.052500", "112756.002500", "112752.162500", "112756.112500", "112752.272500", "112756.222500", "112752.382500", "112756.332500", "112752.492500", "112756.442500", "112752.602500", "112756.552500", "112752.712500", "112756.660000", "112752.822500", "112756.770000", "112752.930000", "112756.880000", "112753.040000", "112756.990000", "112753.150000", "112757.100000", "112753.260000", "112757.210000", "112753.370000", "112757.320000", "112753.480000", "112757.430000", "112753.590000", "112757.540000", "112753.700000", "112757.647500", "112753.807500", "112757.757500", "112753.917500", "112757.867500", "112754.027500", "112757.977500", "112754.137500", "112758.087500", "112754.247500", "112758.197500", "112754.357500", "112758.307500", "112754.467500", "112758.417500", "112754.577500", "112758.525000", "112754.687500", "112758.635000", "112754.795000", "112758.745000", "112754.905000", "112758.855000", "112755.015000", "112802.825000", "112758.985000", "112802.935000", "112759.095000", "112803.045000", "112759.205000", "112803.155000", "112759.315000", "112803.265000", "112759.425000", "112803.375000", "112759.535000", "112803.482500", "112759.642500", "112803.592500", "112759.752500", "112803.702500", "112759.862500", "112803.812500", "112759.972500", "112803.922500", "112800.082500", "112804.032500", "112800.192500", "112804.142500", "112800.302500", "112804.252500", "112800.412500", "112804.360000", "112800.522500", "112804.470000", "112800.630000", "112804.580000", "112800.740000", "112804.690000", "112800.850000", "112804.800000", "112800.960000", "112804.910000", "112801.070000", "112805.020000", "112801.180000", "112805.130000", "112801.290000", "112805.240000", "112801.400000", "112805.347500", "112801.507500", "112805.457500", "112801.617500", "112805.567500", "112801.727500", "112805.677500", "112801.837500", "112805.787500", "112801.947500", "112805.897500", "112802.057500", "112806.007500", "112802.167500", "112806.117500", "112802.277500", "112806.225000", "112802.387500", "112806.335000", "112802.495000", "112806.445000", "112802.605000", "112806.555000", "112802.715000", "112810.525000", "112806.685000", "112810.635000", "112806.795000", "112810.745000", "112806.905000", "112810.855000", "112807.015000", "112810.965000", "112807.125000", "112811.075000", "112807.235000", "112811.182500", "112807.342500", "112811.292500", "112807.452500", "112811.402500", "112807.562500", "112811.512500", "112807.672500", "112811.622500", "112807.782500", "112811.732500", "112807.892500", "112811.842500", "112808.002500", "112811.952500", "112808.112500", "112812.060000", "112808.222500", "112812.170000", "112808.330000", "112812.280000", "112808.440000", "112812.390000", "112808.550000", "112812.500000", "112808.660000", "112812.610000", "112808.770000", "112812.720000", "112808.880000", "112812.830000", "112808.990000", "112812.940000", "112809.100000", "112813.047500", "112809.207500", "112813.157500", "112809.317500", "112813.267500", "112809.427500", "112813.377500", "112809.537500", "112813.487500", "112809.647500", "112813.597500", "112809.757500", "112813.707500", "112809.867500", "112813.817500", "112809.977500", "112813.925000", "112810.087500", "112814.035000", "112810.195000", "112814.145000", "112810.305000", "112814.255000", "112810.415000", "112818.225000", "112814.385000", "112818.335000", "112814.495000", "112818.445000", "112814.605000", "112818.555000", "112814.715000", "112818.665000", "112814.825000", "112818.775000", "112814.935000", "112818.882500", "112815.042500", "112818.992500", "112815.152500", "112819.102500", "112815.262500", "112819.212500", "112815.372500", "112819.322500", "112815.482500", "112819.432500", "112815.592500", "112819.542500", "112815.702500", "112819.652500", "112815.812500", "112819.760000", "112815.922500", "112819.870000", "112816.030000", "112819.980000", "112816.140000", "112820.090