{
  "AcquisitionMatrixPE": 80,
  "AcquisitionNumber": 1,
  "AcquisitionTime": "09:02:28.500000",
  "BandwidthPerPixelPhaseEncode": 25,
  "BaseResolution": 80,
  "BodyPartExamined": "BRAIN",
  "CoilCombinationMethod": "Sum of Squares",
  "ConsistencyInfo": "N4_VE11E_LATEST_20181129",
  "ConversionSoftware": "dcm2niix",
  "ConversionSoftwareVersion": "v1.0.20220720",
  "DerivedVendorReportedEchoSpacing": 0.0005,
  "DeviceSerialNumber": "66112",
  "DwellTime": 2.7e-06,
  "EchoTime": 0.03,
  "EchoTrainLength": 80,
  "EffectiveEchoSpacing": 0.0005,
  "FlipAngle": 10,
  "HeudiconvVersion": "0.13.1",
  "ImageOrientationPatientDICOM": [0.987364, 0.158225, 0.00881159, -0.153205, 0.93887, 0.308305],
  "ImageOrientationText": "Tra>Cor(17.8)>Sag(-2.3)",
  "ImageType": [
    "ORIGINAL",
    "PRIMARY",
    "M",
    "ND",
    "NORM",
    "MOSAIC"
],
  "ImagingFrequency": 123.259,
  "InPlanePhaseEncodingDirectionDICOM": "COL",
  "InstitutionAddress": "Maynard 3,Hanover,NH,US,03755",
  "InstitutionName": "Dartmouth College - PBS",
  "InstitutionalDepartmentName": "Department",
  "MRAcquisitionType": "2D",
  "MagneticFieldStrength": 3,
  "Manufacturer": "Siemens",
  "ManufacturersModelName": "Prisma",
  "MatrixCoilMode": "SENSE",
  "Modality": "MR",
  "NonlinearGradientCorrection": false,
  "PartialFourier": 1,
  "PatientPosition": "HFS",
  "PercentPhaseFOV": 100,
  "PercentSampling": 100,
  "PhaseEncodingDirection": "j-",
  "PhaseEncodingSteps": 80,
  "PhaseResolution": 1,
  "PixelBandwidth": 2315,
  "ProcedureStepDescription": "dbic^QA",
  "ProtocolName": "func-bold_fa-10",
  "PulseSequenceDetails": "%SiemensSeq%\\ep2d_bold",
  "ReceiveCoilActiveElements": "HC1-7;NC1,2",
  "ReceiveCoilName": "HeadNeck_64",
  "ReconMatrixPE": 80,
  "RepetitionTime": 2,
  "SAR": 0.00864966,
  "ScanOptions": "FS",
  "ScanningSequence": "EP",
  "SequenceName": "*epfid2d1_80",
  "SequenceVariant": "SK",
  "SeriesDescription": "func-bold_fa-10",
  "SeriesNumber": 7,
  "ShimSetting": [4217, -7741, -7487, -101, -163, -222, -50, 92],
  "SliceThickness": 3.5,
  "SliceTiming": [0.99, 0, 1.055, 0.065, 1.1225, 0.1325, 1.1875, 0.1975, 1.2525, 0.2625, 1.32, 0.33, 1.385, 0.395, 1.4525, 0.4625, 1.5175, 0.5275, 1.5825, 0.5925, 1.65, 0.66, 1.715, 0.725, 1.7825, 0.7925, 1.8475, 0.8575, 1.9125, 0.9225],
  "SoftwareVersions": "syngo MR E11",
  "SpacingBetweenSlices": 3.99,
  "StationName": "AWP66112",
  "TotalReadoutTime": 0.0395,
  "TxRefAmp": 209.273,
  "dcmmeta_affine": [
    [-2.9620914459228516, -0.4596148729324341, -0.16162873804569244, 139.07644653320312],
    [-0.4746740460395813, 2.8166093826293945, 1.2199774980545044, -105.16569519042969],
    [0.026434777304530144, -0.924913763999939, 3.7954750061035156, -16.42982292175293],
    [0.0, 0.0, 0.0, 1.0]
],
  "dcmmeta_reorient_transform": [
    [0.0, -1.0, 0.0, 79.0],
    [1.0, 0.0, 0.0, 0.0],
    [0.0, 0.0, 1.0, 0.0],
    [0.0, 0.0, 0.0, 1.0]
],
  "dcmmeta_shape": [80, 80, 30, 200],
  "dcmmeta_slice_dim": 2,
  "dcmmeta_version": 0.6,
  "global": {
    "const": {
      "AccessionNumber": "qa64",
      "AcquisitionMatrix": [80, 0, 0, 80],
      "AngioFlag": "N",
      "BitsAllocated": 16,
      "BitsStored": 12,
      "BodyPartExamined": "BRAIN",
      "Columns": 480,
      "EchoNumbers": 1,
      "EchoTime": 30.0,
      "EchoTrainLength": 80,
      "FlipAngle": 10.0,
      "HighBit": 11,
      "ImageOrientationPatient": [0.98736381676961, 0.15822467941754, 0.0088115922149, -0.1532049549564, 0.9388698101993, 0.30830459171596],
      "ImagePositionPatient": [-603.26219285292, -775.60314665987, -279.76772133891],
      "ImageType": [
        "ORIGINAL",
        "PRIMARY",
        "M",
        "ND",
        "NORM",
        "MOSAIC"
],
      "ImagedNucleus": "1H",
      "ImagingFrequency": 123.259245,
      "InPlanePhaseEncodingDirection": "COL",
      "MRAcquisitionType": "2D",
      "MagneticFieldStrength": 3.0,
      "Manufacturer": "SIEMENS",
      "ManufacturerModelName": "Prisma",
      "Modality": "MR",
      "NumberOfAverages": 1.0,
      "NumberOfPhaseEncodingSteps": 80,
      "PercentPhaseFieldOfView": 100.0,
      "PercentSampling": 100.0,
      "PerformedProcedureStepStartTime": "084646.502000",
      "PhotometricInterpretation": "MONOCHROME2",
      "PixelBandwidth": 2315.0,
      "PixelRepresentation": 0,
      "PixelSpacing": [3.0, 3.0],
      "ProtocolName": "func-bold_fa-10",
      "RepetitionTime": 2000.0,
      "Rows": 480,
      "SAR": 0.00864965939147,
      "SamplesPerPixel": 1,
      "ScanOptions": "FS",
      "ScanningSequence": "EP",
      "SequenceName": "*epfid2d1_80",
      "SequenceVariant": "SK",
      "SeriesDescription": "func-bold_fa-10",
      "SeriesNumber": 7,
      "SeriesTime": "090319.917000",
      "SliceLocation": -53.417923640106,
      "SliceThickness": 3.5,
      "SmallestImagePixelValue": 0,
      "SoftwareVersions": "syngo MR E11",
      "SpacingBetweenSlices": 3.9899999259467,
      "SpecificCharacterSet": "ISO_IR 100",
      "StudyID": "9",
      "StudyTime": "084646.444000",
      "TransmitCoilName": "Body",
      "VariableFlipAngleFlag": "N",
      "WindowCenterWidthExplanation": "Algo1"
    },
    "slices": {}
  },
  "time": {
    "samples": {
      "AcquisitionNumber": [1, 2, 3, 4, 5, 6, 7, 8, 9, 10, 11, 12, 13, 14, 15, 16, 17, 18, 19, 20, 21, 22, 23, 24, 25, 26, 27, 28, 29, 30, 31, 32, 33, 34, 35, 36, 37, 38, 39, 40, 41, 42, 43, 44, 45, 46, 47, 48, 49, 50, 51, 52, 53, 54, 55, 56, 57, 58, 59, 60, 61, 62, 63, 64, 65, 66, 67, 68, 69, 70, 71, 72, 73, 74, 75, 76, 77, 78, 79, 80, 81, 82, 83, 84, 85, 86, 87, 88, 89, 90, 91, 92, 93, 94, 95, 96, 97, 98, 99, 100, 101, 102, 103, 104, 105, 106, 107, 108, 109, 110, 111, 112, 113, 114, 115, 116, 117, 118, 119, 120, 121, 122, 123, 124, 125, 126, 127, 128, 129, 130, 131, 132, 133, 134, 135, 136, 137, 138, 139, 140, 141, 142, 143, 144, 145, 146, 147, 148, 149, 150, 151, 152, 153, 154, 155, 156, 157, 158, 159, 160, 161, 162, 163, 164, 165, 166, 167, 168, 169, 170, 171, 172, 173, 174, 175, 176, 177, 178, 179, 180, 181, 182, 183, 184, 185, 186, 187, 188, 189, 190, 191, 192, 193, 194, 195, 196, 197, 198, 199, 200],
      "AcquisitionTime": ["090228.500000", "090230.500000", "090232.500000", "090234.500000", "090236.500000", "090238.500000", "090240.500000", "090242.500000", "090244.500000", "090246.500000", "090248.500000", "090250.500000", "090252.500000", "090254.500000", "090256.500000", "090258.500000", "090300.500000", "090302.500000", "090304.500000", "090306.500000", "090308.500000", "090310.500000", "090312.500000", "090314.500000", "090316.500000", "090318.500000", "090320.500000", "090322.500000", "090324.500000", "090326.500000", "090328.500000", "090330.500000", "090332.500000", "090334.500000", "090336.500000", "090338.500000", "090340.500000", "090342.500000", "090344.500000", "090346.500000", "090348.500000", "090350.500000", "090352.500000", "090354.500000", "090356.500000", "090358.500000", "090400.500000", "090402.500000", "090404.500000", "090406.500000", "090408.500000", "090410.500000", "090412.500000", "090414.500000", "090416.500000", "090418.500000", "090420.500000", "090422.500000", "090424.500000", "090426.500000", "090428.500000", "090430.500000", "090432.500000", "090434.500000", "090436.500000", "090438.500000", "090440.500000", "090442.500000", "090444.500000", "090446.500000", "090448.500000", "090450.500000", "090452.500000", "090454.500000", "090456.500000", "090458.500000", "090500.500000", "090502.500000", "090504.500000", "090506.500000", "090508.500000", "090510.500000", "090512.500000", "090514.500000", "090516.500000", "090518.500000", "090520.500000", "090522.500000", "090524.500000", "090526.500000", "090528.500000", "090530.500000", "090532.500000", "090534.500000", "090536.500000", "090538.500000", "090540.500000", "090542.500000", "090544.500000", "090546.500000", "090548.500000", "090550.500000", "090552.500000", "090554.500000", "090556.500000", "090558.500000", "090600.500000", "090602.500000", "090604.500000", "090606.500000", "090608.500000", "090610.500000", "090612.500000", "090614.500000", "090616.500000", "090618.500000", "090620.500000", "090622.500000", "090624.500000", "090626.500000", "090628.500000", "090630.500000", "090632.500000", "090634.500000", "090636.500000", "090638.500000", "090640.500000", "090642.500000", "090644.500000", "090646.500000", "090648.500000", "090650.500000", "090652.500000", "090654.500000", "090656.500000", "090658.500000", "090700.500000", "090702.500000", "090704.500000", "090706.500000", "090708.500000", "090710.500000", "090712.500000", "090714.500000", "090716.500000", "090718.500000", "090720.500000", "090722.500000", "090724.500000", "090726.500000", "090728.500000", "090730.500000", "090732.500000", "090734.500000", "090736.500000", "090738.500000", "090740.500000", "090742.500000", "090744.500000", "090746.500000", "090748.500000", "090750.500000", "090752.500000", "090754.500000", "090756.500000", "090758.500000", "090800.500000", "090802.500000", "090804.500000", "090806.500000", "090808.500000", "090810.500000", "090812.500000", "090814.500000", "090816.500000", "090818.500000", "090820.500000", "090822.500000", "090824.500000", "090826.500000", "090828.500000", "090830.500000", "090832.500000", "090834.500000", "090836.500000", "090838.500000", "090840.500000", "090842.500000", "090844.500000", "090846.500000", "090848.500000", "090850.500000", "090852.500000", "090854.500000", "090856.500000", "090858.500000", "090900.500000", "090902.500000", "090904.500000", "090906.500000"],
      "ContentTime": ["090319.920000", "090319.923000", "090319.926000", "090319.928000", "090319.930000", "090319.932000", "090319.943000", "090319.945000", "090319.948000", "090319.950000", "090319.952000", "090319.955000", "090319.957000", "090319.959000", "090319.961000", "090319.972000", "090319.975000", "090319.977000", "090319.979000", "090319.989000", "090319.991000", "090319.994000", "090319.996000", "090319.999000", "090320.001000", "090320.003000", "090359.914000", "090359.917000", "090359.919000", "090359.921000", "090359.924000", "090359.926000", "090359.928000", "090359.931000", "090359.933000", "090359.935000", "090359.938000", "090359.940000", "090359.942000", "090359.945000", "090359.947000", "090359.949000", "090359.952000", "090359.954000", "090359.956000", "090359.959000", "090439.914000", "090439.917000", "090439.919000", "090439.921000", "090439.924000", "090439.926000", "090439.928000", "090439.931000", "090439.933000", "090439.935000", "090439.937000", "090439.940000", "090439.942000", "090439.944000", "090439.947000", "090439.949000", "090439.951000", "090439.953000", "090439.956000", "090439.958000", "090519.914000", "090519.917000", "090519.919000", "090519.921000", "090519.924000", "090519.926000", "090519.928000", "090519.930000", "090519.933000", "090519.935000", "090519.937000", "090519.940000", "090519.942000", "090519.944000", "090519.947000", "090519.955000", "090519.958000", "090519.960000", "090519.963000", "090519.965000", "090559.915000", "090559.918000", "090559.920000", "090559.922000", "090559.925000", "090559.927000", "090559.929000", "090559.932000", "090559.934000", "090559.936000", "090559.939000", "090559.941000", "090559.943000", "090559.945000", "090559.948000", "090559.950000", "090559.952000", "090559.955000", "090559.957000", "090559.959000", "090639.914000", "090639.917000", "090639.919000", "090639.921000", "090639.924000", "090639.926000", "090639.929000", "090639.931000", "090639.933000", "090639.935000", "090639.938000", "090639.940000", "090639.942000", "090639.945000", "090639.947000", "090639.949000", "090639.951000", "090639.954000", "090639.956000", "090639.958000", "090719.914000", "090719.917000", "090719.929000", "090719.931000", "090719.933000", "090719.935000", "090719.938000", "090719.940000", "090719.943000", "090719.945000", "090719.947000", "090719.950000", "090719.952000", "090719.954000", "090719.957000", "090719.959000", "090719.961000", "090719.963000", "090719.966000", "090719.968000", "090759.915000", "090759.918000", "090759.920000", "090759.922000", "090759.925000", "090759.927000", "090759.929000", "090759.932000", "090759.934000", "090759.936000", "090759.939000", "090759.941000", "090759.943000", "090759.945000", "090759.948000", "090759.950000", "090759.952000", "090759.955000", "090759.957000", "090759.959000", "090839.914000", "090839.917000", "090839.919000", "090839.921000", "090839.924000", "090839.926000", "090839.928000", "090839.931000", "090839.933000", "090839.935000", "090839.937000", "090839.940000", "090839.942000", "090839.944000", "090839.947000", "090839.949000", "090839.951000", "090839.954000", "090839.956000", "090839.958000", "090907.549000", "090907.552000", "090907.555000", "090907.558000", "090907.560000", "090907.562000", "090907.565000", "090907.567000", "090907.569000", "090907.572000", "090907.574000", "090907.576000", "090907.579000", "090907.583000"],
      "InstanceCreationTime": ["090319.920000", "090319.923000", "090319.926000", "090319.928000", "090319.930000", "090319.932000", "090319.943000", "090319.945000", "090319.948000", "090319.950000", "090319.952000", "090319.955000", "090319.957000", "090319.959000", "090319.961000", "090319.972000", "090319.975000", "090319.977000", "090319.979000", "090319.989000", "090319.991000", "090319.994000", "090319.996000", "090319.999000", "090320.001000", "090320.003000", "090359.914000", "090359.917000", "090359.919000", "090359.921000", "090359.924000", "090359.926000", "090359.928000", "090359.931000", "090359.933000", "090359.935000", "090359.938000", "090359.940000", "090359.942000", "090359.945000", "090359.947000", "090359.949000", "090359.952000", "090359.954000", "090359.956000", "090359.959000", "090439.914000", "090439.917000", "090439.919000", "090439.921000", "090439.924000", "090439.926000", "090439.928000", "090439.931000", "090439.933000", "090439.935000", "090439.937000", "090439.940000", "090439.942000", "090439.944000", "090439.947000", "090439.949000", "090439.951000", "090439.953000", "090439.956000", "090439.958000", "090519.914000", "090519.917000", "090519.919000", "090519.921000", "090519.924000", "090519.926000", "090519.928000", "090519.930000", "090519.933000", "090519.935000", "090519.937000", "090519.940000", "090519.942000", "090519.944000", "090519.947000", "090519.955000", "090519.958000", "090519.960000", "090519.963000", "090519.965000", "090559.915000", "090559.918000", "090559.920000", "090559.922000", "090559.925000", "090559.927000", "090559.929000", "090559.932000", "090559.934000", "090559.936000", "090559.939000", "090559.941000", "090559.943000", "090559.945000", "090559.948000", "090559.950000", "090559.952000", "090559.955000", "090559.957000", "090559.959000", "090639.914000", "090639.917000", "090639.919000", "090639.921000", "090639.924000", "090639.926000", "090639.929000", "090639.931000", "090639.933000", "090639.935000", "090639.938000", "090639.940000", "090639.942000", "090639.945000", "090639.947000", "090639.949000", "090639.951000", "090639.954000", "090639.956000", "090639.958000", "090719.914000", "090719.917000", "090719.929000", "090719.931000", "090719.933000", "090719.935000", "090719.938000", "090719.940000", "090719.943000", "090719.945000", "090719.947000", "090719.950000", "090719.952000", "090719.954000", "090719.957000", "090719.959000", "090719.961000", "090719.963000", "090719.966000", "090719.968000", "090759.915000", "090759.918000", "090759.920000", "090759.922000", "090759.925000", "090759.927000", "090759.929000", "090759.932000", "090759.934000", "090759.936000", "090759.939000", "090759.941000", "090759.943000", "090759.945000", "090759.948000", "090759.950000", "090759.952000", "090759.955000", "090759.957000", "090759.959000", "090839.914000", "090839.917000", "090839.919000", "090839.921000", "090839.924000", "090839.926000", "090839.928000", "090839.931000", "090839.933000", "090839.935000", "090839.937000", "090839.940000", "090839.942000", "090839.944000", "090839.947000", "090839.949000", "090839.951000", "090839.954000", "090839.956000", "090839.958000", "090907.549000", "090907.552000", "090907.555000", "090907.558000", "090907.560000", "090907.562000", "090907.565000", "090907.567000", "090907.569000", "090907.572000", "090907.574000", "090907.576000", "090907.579000", "090907.583000"],
      "InstanceNumber": [1, 2, 3, 4, 5, 6, 7, 8, 9, 10, 11, 12, 13, 14, 15, 16, 17, 18, 19, 20, 21, 22, 23, 24, 25, 26, 27, 28, 29, 30, 31, 32, 33, 34, 35, 36, 37, 38, 39, 40, 41, 42, 43, 44, 45, 46, 47, 48, 49, 50, 51, 52, 53, 54, 55, 56, 57, 58, 59, 60, 61, 62, 63, 64, 65, 66, 67, 68, 69, 70, 71, 72, 73, 74, 75, 76, 77, 78, 79, 80, 81, 82, 83, 84, 85, 86, 87, 88, 89, 90, 91, 92, 93, 94, 95, 96, 97, 98, 99, 100, 101, 102, 103, 104, 105, 106, 107, 108, 109, 110, 111, 112, 113, 114, 115, 116, 117, 118, 119, 120, 121, 122, 123, 124, 125, 126, 127, 128, 129, 130, 131, 132, 133, 134, 135, 136, 137, 138, 139, 140, 141, 142, 143, 144, 145, 146, 147, 148, 149, 150, 151, 152, 153, 154, 155, 156, 157, 158, 159, 160, 161, 162, 163, 164, 165, 166, 167, 168, 169, 170, 171, 172, 173, 174, 175, 176, 177, 178, 179, 180, 181, 182, 183, 184, 185, 186, 187, 188, 189, 190, 191, 192, 193, 194, 195, 196, 197, 198, 199, 200],
      "LargestImagePixelValue": [663, 663, 664, 662, 659, 662, 663, 663, 665, 670, 667, 666, 661, 662, 664, 661, 667, 667, 662, 665, 666, 662, 664, 661, 662, 662, 661, 665, 665, 665, 668, 663, 663, 664, 670, 664, 658, 660, 661, 666, 666, 664, 661, 666, 662, 662, 661, 668, 665, 664, 660, 665, 664, 662, 665, 663, 663, 660, 658, 658, 659, 661, 664, 663, 664, 664, 657, 658, 663, 661, 663, 662, 669, 665, 668, 661, 662, 665, 660, 654, 659, 660, 662, 660, 655, 662, 659, 663, 662, 663, 660, 660, 664, 660, 665, 662, 662, 663, 665, 666, 667, 660, 654, 657, 664, 663, 664, 667, 663, 657, 663, 662, 659, 656, 658, 662, 667, 662, 668, 664, 663, 660, 663, 662, 660, 662, 662, 666, 665, 664, 660, 661, 661, 659, 663, 661, 658, 658, 662, 667, 666, 665, 659, 660, 666, 662, 661, 664, 659, 663, 669, 667, 667, 663, 662, 666, 661, 658, 660, 664, 665, 662, 665, 662, 665, 667, 665, 661, 659, 659, 661, 663, 658, 663, 665, 661, 660, 661, 659, 659, 656, 663, 660, 666, 664, 663, 665, 659, 659, 659, 661, 661, 665, 661, 660, 665, 661, 661, 663, 661],
      "WindowCenter": [463.0, 462.0, 463.0, 462.0, 462.0, 462.0, 462.0, 462.0, 462.0, 463.0, 463.0, 462.0, 462.0, 462.0, 462.0, 462.0, 462.0, 462.0, 462.0, 462.0, 462.0, 462.0, 462.0, 462.0, 462.0, 462.0, 462.0, 462.0, 462.0, 462.0, 462.0, 462.0, 462.0, 462.0, 463.0, 462.0, 462.0, 462.0, 462.0, 462.0, 462.0, 462.0, 462.0, 462.0, 462.0, 462.0, 462.0, 462.0, 462.0, 462.0, 462.0, 462.0, 462.0, 462.0, 462.0, 462.0, 462.0, 462.0, 462.0, 462.0, 462.0, 462.0, 462.0, 462.0, 462.0, 462.0, 462.0, 462.0, 462.0, 462.0, 462.0, 462.0, 462.0, 462.0, 462.0, 462.0, 462.0, 462.0, 462.0, 462.0, 462.0, 462.0, 462.0, 462.0, 462.0, 462.0, 462.0, 462.0, 462.0, 462.0, 462.0, 462.0, 462.0, 462.0, 462.0, 462.0, 462.0, 462.0, 462.0, 462.0, 462.0, 462.0, 462.0, 462.0, 462.0, 462.0, 462.0, 462.0, 462.0, 462.0, 462.0, 462.0, 462.0, 462.0, 462.0, 462.0, 462.0, 462.0, 462.0, 462.0, 462.0, 462.0, 462.0, 462.0, 462.0, 462.0, 462.0, 461.0, 462.0, 462.0, 462.0, 462.0, 462.0, 462.0, 462.0, 462.0, 461.0, 461.0, 461.0, 461.0, 462.0, 462.0, 462.0, 462.0, 462.0, 462.0, 461.0, 461.0, 461.0, 461.0, 461.0, 461.0, 462.0, 462.0, 462.0, 462.0, 462.0, 461.0, 461.0, 461.0, 461.0, 461.0, 461.0, 462.0, 462.0, 462.0, 462.0, 461.0, 461.0, 461.0, 461.0, 461.0, 461.0, 461.0, 461.0, 461.0, 461.0, 461.0, 461.0, 461.0, 461.0, 461.0, 461.0, 461.0, 461.0, 461.0, 461.0, 461.0, 461.0, 461.0, 461.0, 461.0, 461.0, 461.0, 461.0, 461.0, 461.0, 461.0, 461.0, 461.0],
      "WindowWidth": [961.0, 961.0, 962.0, 961.0, 961.0, 961.0, 961.0, 961.0, 961.0, 962.0, 962.0, 961.0, 961.0, 961.0, 961.0, 961.0, 961.0, 961.0, 961.0, 961.0, 961.0, 961.0, 961.0, 961.0, 961.0, 961.0, 961.0, 961.0, 961.0, 961.0, 961.0, 961.0, 961.0, 961.0, 962.0, 961.0, 961.0, 961.0, 960.0, 960.0, 961.0, 961.0, 960.0, 961.0, 961.0, 961.0, 961.0, 961.0, 960.0, 960.0, 960.0, 960.0, 961.0, 961.0, 961.0, 961.0, 960.0, 960.0, 960.0, 960.0, 960.0, 960.0, 960.0, 960.0, 960.0, 961.0, 961.0, 961.0, 961.0, 960.0, 960.0, 960.0, 960.0, 960.0, 960.0, 960.0, 961.0, 961.0, 961.0, 960.0, 960.0, 959.0, 959.0, 959.0, 960.0, 960.0, 960.0, 960.0, 960.0, 960.0, 960.0, 960.0, 959.0, 959.0, 959.0, 959.0, 959.0, 960.0, 960.0, 960.0, 960.0, 960.0, 959.0, 959.0, 959.0, 959.0, 959.0, 959.0, 960.0, 960.0, 960.0, 960.0, 959.0, 959.0, 959.0, 959.0, 959.0, 959.0, 959.0, 959.0, 959.0, 960.0, 959.0, 959.0, 959.0, 959.0, 959.0, 959.0, 959.0, 959.0, 959.0, 959.0, 959.0, 959.0, 959.0, 959.0, 958.0, 959.0, 959.0, 958.0, 959.0, 959.0, 959.0, 959.0, 959.0, 959.0, 958.0, 958.0, 959.0, 959.0, 959.0, 959.0, 959.0, 959.0, 959.0, 959.0, 959.0, 959.0, 959.0, 958.0, 958.0, 959.0, 959.0, 959.0, 959.0, 959.0, 959.0, 959.0, 958.0, 959.0, 958.0, 958.0, 958.0, 958.0, 959.0, 959.0, 959.0, 959.0, 959.0, 958.0, 958.0, 958.0, 958.0, 958.0, 958.0, 959.0, 958.0, 959.0, 959.0, 958.0, 958.0, 958.0, 958.0, 958.0, 958.0, 958.0, 958.0, 959.0, 958.0, 958.0]
    },
    "slices": {}
  }
}