{
  "AcquisitionMatrixPE": 80,
  "AcquisitionNumber": 1,
  "AcquisitionTime": "08:48:50.755000",
  "BandwidthPerPixelPhaseEncode": 48.077,
  "BaseResolution": 80,
  "BodyPartExamined": "BRAIN",
  "CoilCombinationMethod": "Sum of Squares",
  "ConsistencyInfo": "N4_VE11E_LATEST_20181129",
  "ConversionSoftware": "dcm2niix",
  "ConversionSoftwareVersion": "v1.0.20220720",
  "DerivedVendorReportedEchoSpacing": 0.000519999,
  "DeviceSerialNumber": "66112",
  "DwellTime": 2.7e-06,
  "EchoTime": 0.035,
  "EchoTrainLength": 39,
  "EffectiveEchoSpacing": 0.00026,
  "FlipAngle": 90,
  "HeudiconvVersion": "0.13.1",
  "ImageOrientationPatientDICOM": [0.987364, 0.158225, 0.00881159, -0.153205, 0.93887, 0.308305],
  "ImageOrientationText": "Tra>Cor(17.8)>Sag(-2.3)",
  "ImageType": [
    "ORIGINAL",
    "PRIMARY",
    "M",
    "ND",
    "NORM",
    "MOSAIC"
],
  "ImagingFrequency": 123.259,
  "InPlanePhaseEncodingDirectionDICOM": "COL",
  "InstitutionAddress": "Maynard 3,Hanover,NH,US,03755",
  "InstitutionName": "Dartmouth College - PBS",
  "InstitutionalDepartmentName": "Department",
  "MRAcquisitionType": "2D",
  "MagneticFieldStrength": 3,
  "Manufacturer": "Siemens",
  "ManufacturersModelName": "Prisma",
  "MatrixCoilMode": "GRAPPA",
  "Modality": "MR",
  "NonlinearGradientCorrection": false,
  "ParallelReductionFactorInPlane": 2,
  "PartialFourier": 1,
  "PatientPosition": "HFS",
  "PercentPhaseFOV": 100,
  "PercentSampling": 100,
  "PhaseEncodingDirection": "j-",
  "PhaseEncodingSteps": 79,
  "PhaseResolution": 1,
  "PixelBandwidth": 2315,
  "ProcedureStepDescription": "dbic^QA",
  "ProtocolName": "func-bold_task-rest_acq-p2",
  "PulseSequenceDetails": "%SiemensSeq%\\ep2d_bold",
  "ReceiveCoilActiveElements": "HC1-7;NC1,2",
  "ReceiveCoilName": "HeadNeck_64",
  "ReconMatrixPE": 80,
  "RefLinesPE": 24,
  "RepetitionTime": 2,
  "SAR": 0.0410319,
  "ScanOptions": "FS",
  "ScanningSequence": "EP",
  "SequenceName": "*epfid2d1_80",
  "SequenceVariant": "SK",
  "SeriesDescription": "func-bold_task-rest_acq-p2",
  "SeriesNumber": 5,
  "ShimSetting": [4217, -7741, -7487, -104, -164, -223, -51, 92],
  "SliceThickness": 3.5,
  "SliceTiming": [0.99, 0, 1.0575, 0.0675, 1.1225, 0.1325, 1.1875, 0.1975, 1.255, 0.265, 1.32, 0.33, 1.385, 0.3975, 1.4525, 0.4625, 1.5175, 0.5275, 1.585, 0.595, 1.65, 0.66, 1.715, 0.7275, 1.7825, 0.7925, 1.8475, 0.8575, 1.915, 0.925],
  "SoftwareVersions": "syngo MR E11",
  "SpacingBetweenSlices": 3.99,
  "StationName": "AWP66112",
  "TaskName": "rest",
  "TotalReadoutTime": 0.02054,
  "TxRefAmp": 209.273,
  "dcmmeta_affine": [
    [-2.9620914459228516, -0.4596148729324341, -0.16162873804569244, 141.31817626953125],
    [-0.4746740460395813, 2.8166093826293945, 1.2199774980545044, -107.05609130859375],
    [0.026434777304530144, -0.924913763999939, 3.7954750061035156, -17.070375442504883],
    [0.0, 0.0, 0.0, 1.0]
],
  "dcmmeta_reorient_transform": [
    [0.0, -1.0, 0.0, 79.0],
    [1.0, 0.0, 0.0, 0.0],
    [0.0, 0.0, 1.0, 0.0],
    [0.0, 0.0, 0.0, 1.0]
],
  "dcmmeta_shape": [80, 80, 30, 200],
  "dcmmeta_slice_dim": 2,
  "dcmmeta_version": 0.6,
  "global": {
    "const": {
      "AccessionNumber": "qa64",
      "AcquisitionMatrix": [80, 0, 0, 80],
      "AngioFlag": "N",
      "BitsAllocated": 16,
      "BitsStored": 12,
      "BodyPartExamined": "BRAIN",
      "Columns": 480,
      "EchoNumbers": 1,
      "EchoTime": 35.0,
      "EchoTrainLength": 39,
      "FlipAngle": 90.0,
      "HighBit": 11,
      "ImageOrientationPatient": [0.98736381676961, 0.15822467941754, 0.0088115922149, -0.1532049549564, 0.9388698101993, 0.30830459171596],
      "ImagePositionPatient": [-605.5039206819, -773.7127505417, -280.40827385966],
      "ImageType": [
        "ORIGINAL",
        "PRIMARY",
        "M",
        "ND",
        "NORM",
        "MOSAIC"
],
      "ImagedNucleus": "1H",
      "ImagingFrequency": 123.259245,
      "InPlanePhaseEncodingDirection": "COL",
      "LargestImagePixelValue": 4095,
      "MRAcquisitionType": "2D",
      "MagneticFieldStrength": 3.0,
      "Manufacturer": "SIEMENS",
      "ManufacturerModelName": "Prisma",
      "Modality": "MR",
      "NumberOfAverages": 1.0,
      "NumberOfPhaseEncodingSteps": 79,
      "PercentPhaseFieldOfView": 100.0,
      "PercentSampling": 100.0,
      "PerformedProcedureStepStartTime": "084646.502000",
      "PhotometricInterpretation": "MONOCHROME2",
      "PixelBandwidth": 2315.0,
      "PixelRepresentation": 0,
      "PixelSpacing": [3.0, 3.0],
      "ProtocolName": "func-bold_task-rest_acq-p2",
      "RepetitionTime": 2000.0,
      "Rows": 480,
      "SAR": 0.04103185069173,
      "SamplesPerPixel": 1,
      "ScanOptions": "FS",
      "ScanningSequence": "EP",
      "SequenceName": "*epfid2d1_80",
      "SequenceVariant": "SK",
      "SeriesDescription": "func-bold_task-rest_acq-p2",
      "SeriesNumber": 5,
      "SeriesTime": "084939.740000",
      "SliceLocation": -54.696061372592,
      "SliceThickness": 3.5,
      "SmallestImagePixelValue": 0,
      "SoftwareVersions": "syngo MR E11",
      "SpacingBetweenSlices": 3.989999925905,
      "SpecificCharacterSet": "ISO_IR 100",
      "StudyID": "9",
      "StudyTime": "084646.444000",
      "TransmitCoilName": "Body",
      "VariableFlipAngleFlag": "N",
      "WindowCenterWidthExplanation": "Algo1"
    },
    "slices": {}
  },
  "time": {
    "samples": {
      "AcquisitionNumber": [1, 2, 3, 4, 5, 6, 7, 8, 9, 10, 11, 12, 13, 14, 15, 16, 17, 18, 19, 20, 21, 22, 23, 24, 25, 26, 27, 28, 29, 30, 31, 32, 33, 34, 35, 36, 37, 38, 39, 40, 41, 42, 43, 44, 45, 46, 47, 48, 49, 50, 51, 52, 53, 54, 55, 56, 57, 58, 59, 60, 61, 62, 63, 64, 65, 66, 67, 68, 69, 70, 71, 72, 73, 74, 75, 76, 77, 78, 79, 80, 81, 82, 83, 84, 85, 86, 87, 88, 89, 90, 91, 92, 93, 94, 95, 96, 97, 98, 99, 100, 101, 102, 103, 104, 105, 106, 107, 108, 109, 110, 111, 112, 113, 114, 115, 116, 117, 118, 119, 120, 121, 122, 123, 124, 125, 126, 127, 128, 129, 130, 131, 132, 133, 134, 135, 136, 137, 138, 139, 140, 141, 142, 143, 144, 145, 146, 147, 148, 149, 150, 151, 152, 153, 154, 155, 156, 157, 158, 159, 160, 161, 162, 163, 164, 165, 166, 167, 168, 169, 170, 171, 172, 173, 174, 175, 176, 177, 178, 179, 180, 181, 182, 183, 184, 185, 186, 187, 188, 189, 190, 191, 192, 193, 194, 195, 196, 197, 198, 199, 200],
      "AcquisitionTime": ["084850.755000", "084852.755000", "084854.755000", "084856.755000", "084858.755000", "084900.755000", "084902.755000", "084904.755000", "084906.755000", "084908.755000", "084910.755000", "084912.755000", "084914.755000", "084916.755000", "084918.755000", "084920.755000", "084922.755000", "084924.755000", "084926.755000", "084928.755000", "084930.755000", "084932.755000", "084934.755000", "084936.755000", "084938.755000", "084940.755000", "084942.755000", "084944.755000", "084946.755000", "084948.755000", "084950.755000", "084952.755000", "084954.755000", "084956.755000", "084958.755000", "085000.755000", "085002.755000", "085004.755000", "085006.755000", "085008.755000", "085010.755000", "085012.755000", "085014.755000", "085016.755000", "085018.755000", "085020.755000", "085022.755000", "085024.755000", "085026.755000", "085028.755000", "085030.755000", "085032.755000", "085034.755000", "085036.755000", "085038.755000", "085040.755000", "085042.755000", "085044.755000", "085046.755000", "085048.755000", "085050.755000", "085052.755000", "085054.755000", "085056.755000", "085058.755000", "085100.755000", "085102.755000", "085104.755000", "085106.755000", "085108.755000", "085110.755000", "085112.755000", "085114.755000", "085116.755000", "085118.755000", "085120.755000", "085122.755000", "085124.755000", "085126.755000", "085128.755000", "085130.755000", "085132.755000", "085134.755000", "085136.755000", "085138.755000", "085140.755000", "085142.755000", "085144.755000", "085146.755000", "085148.755000", "085150.755000", "085152.755000", "085154.755000", "085156.755000", "085158.755000", "085200.755000", "085202.755000", "085204.755000", "085206.755000", "085208.755000", "085210.755000", "085212.755000", "085214.755000", "085216.755000", "085218.755000", "085220.755000", "085222.755000", "085224.755000", "085226.755000", "085228.755000", "085230.755000", "085232.755000", "085234.755000", "085236.755000", "085238.755000", "085240.755000", "085242.755000", "085244.755000", "085246.755000", "085248.755000", "085250.755000", "085252.755000", "085254.755000", "085256.755000", "085258.755000", "085300.755000", "085302.755000", "085304.755000", "085306.755000", "085308.755000", "085310.755000", "085312.755000", "085314.755000", "085316.755000", "085318.755000", "085320.755000", "085322.755000", "085324.755000", "085326.755000", "085328.755000", "085330.755000", "085332.755000", "085334.755000", "085336.755000", "085338.755000", "085340.755000", "085342.755000", "085344.755000", "085346.755000", "085348.755000", "085350.755000", "085352.755000", "085354.755000", "085356.755000", "085358.755000", "085400.755000", "085402.755000", "085404.755000", "085406.755000", "085408.755000", "085410.755000", "085412.755000", "085414.755000", "085416.755000", "085418.755000", "085420.755000", "085422.755000", "085424.755000", "085426.755000", "085428.755000", "085430.755000", "085432.755000", "085434.755000", "085436.755000", "085438.755000", "085440.755000", "085442.755000", "085444.755000", "085446.755000", "085448.755000", "085450.755000", "085452.755000", "085454.755000", "085456.755000", "085458.755000", "085500.755000", "085502.755000", "085504.755000", "085506.755000", "085508.755000", "085510.755000", "085512.755000", "085514.755000", "085516.755000", "085518.755000", "085520.755000", "085522.755000", "085524.755000", "085526.755000", "085528.755000"],
      "ContentTime": ["084939.744000", "084939.747000", "084939.749000", "084939.751000", "084939.754000", "084939.756000", "084939.758000", "084939.761000", "084939.763000", "084939.765000", "084939.768000", "084939.770000", "084939.772000", "084939.774000", "084939.777000", "084939.779000", "084939.781000", "084939.784000", "084939.796000", "084939.798000", "084939.801000", "084939.803000", "084939.805000", "084939.808000", "085019.737000", "085019.740000", "085019.742000", "085019.744000", "085019.747000", "085019.749000", "085019.751000", "085019.754000", "085019.756000", "085019.758000", "085019.761000", "085019.763000", "085019.765000", "085019.768000", "085019.770000", "085019.772000", "085019.774000", "085019.777000", "085019.779000", "085019.782000", "085039.737000", "085039.740000", "085039.742000", "085039.752000", "085039.754000", "085039.756000", "085039.759000", "085039.761000", "085039.763000", "085039.766000", "085119.737000", "085119.740000", "085119.742000", "085119.744000", "085119.747000", "085119.749000", "085119.751000", "085119.754000", "085119.756000", "085119.758000", "085119.761000", "085119.763000", "085119.765000", "085119.768000", "085119.770000", "085119.772000", "085119.775000", "085119.777000", "085119.779000", "085119.782000", "085159.738000", "085159.741000", "085159.743000", "085159.746000", "085159.748000", "085159.750000", "085159.753000", "085159.755000", "085159.757000", "085159.760000", "085159.762000", "085159.764000", "085159.767000", "085159.769000", "085159.771000", "085159.774000", "085159.776000", "085159.778000", "085159.789000", "085159.791000", "085239.737000", "085239.740000", "085239.742000", "085239.744000", "085239.747000", "085239.749000", "085239.751000", "085239.754000", "085239.756000", "085239.758000", "085239.761000", "085239.763000", "085239.765000", "085239.768000", "085239.770000", "085239.772000", "085239.775000", "085239.781000", "085239.783000", "085239.786000", "085319.737000", "085319.740000", "085319.742000", "085319.744000", "085319.747000", "085319.749000", "085319.751000", "085319.754000", "085319.756000", "085319.758000", "085319.761000", "085319.763000", "085319.765000", "085319.768000", "085319.770000", "085319.772000", "085319.775000", "085319.777000", "085319.779000", "085319.781000", "085359.737000", "085359.740000", "085359.742000", "085359.744000", "085359.747000", "085359.749000", "085359.751000", "085359.754000", "085359.756000", "085359.758000", "085359.761000", "085359.764000", "085359.766000", "085359.769000", "085359.771000", "085359.773000", "085359.776000", "085359.778000", "085359.780000", "085359.783000", "085439.737000", "085439.740000", "085439.742000", "085439.744000", "085439.746000", "085439.749000", "085439.751000", "085439.753000", "085439.756000", "085439.758000", "085439.760000", "085439.763000", "085439.765000", "085439.767000", "085439.770000", "085439.772000", "085439.774000", "085439.777000", "085439.779000", "085439.781000", "085519.737000", "085519.740000", "085519.742000", "085519.744000", "085519.747000", "085519.749000", "085519.751000", "085519.754000", "085519.756000", "085519.758000", "085519.761000", "085519.763000", "085519.765000", "085519.771000", "085519.774000", "085519.776000", "085519.778000", "085519.811000", "085519.813000", "085519.816000", "085530.125000", "085530.128000", "085530.130000", "085530.133000", "085530.135000", "085530.137000"],
      "InstanceCreationTime": ["084939.744000", "084939.747000", "084939.749000", "084939.751000", "084939.754000", "084939.756000", "084939.758000", "084939.761000", "084939.763000", "084939.765000", "084939.768000", "084939.770000", "084939.772000", "084939.774000", "084939.777000", "084939.779000", "084939.781000", "084939.784000", "084939.796000", "084939.798000", "084939.801000", "084939.803000", "084939.805000", "084939.808000", "085019.737000", "085019.740000", "085019.742000", "085019.744000", "085019.747000", "085019.749000", "085019.751000", "085019.754000", "085019.756000", "085019.758000", "085019.761000", "085019.763000", "085019.765000", "085019.768000", "085019.770000", "085019.772000", "085019.774000", "085019.777000", "085019.779000", "085019.782000", "085039.737000", "085039.740000", "085039.742000", "085039.752000", "085039.754000", "085039.756000", "085039.759000", "085039.761000", "085039.763000", "085039.766000", "085119.737000", "085119.740000", "085119.742000", "085119.744000", "085119.747000", "085119.749000", "085119.751000", "085119.754000", "085119.756000", "085119.758000", "085119.761000", "085119.763000", "085119.765000", "085119.768000", "085119.770000", "085119.772000", "085119.775000", "085119.777000", "085119.779000", "085119.782000", "085159.738000", "085159.741000", "085159.743000", "085159.746000", "085159.748000", "085159.750000", "085159.753000", "085159.755000", "085159.757000", "085159.760000", "085159.762000", "085159.764000", "085159.767000", "085159.769000", "085159.771000", "085159.774000", "085159.776000", "085159.778000", "085159.789000", "085159.791000", "085239.737000", "085239.740000", "085239.742000", "085239.744000", "085239.747000", "085239.749000", "085239.751000", "085239.754000", "085239.756000", "085239.758000", "085239.761000", "085239.763000", "085239.765000", "085239.768000", "085239.770000", "085239.772000", "085239.775000", "085239.781000", "085239.783000", "085239.786000", "085319.737000", "085319.740000", "085319.742000", "085319.744000", "085319.747000", "085319.749000", "085319.751000", "085319.754000", "085319.756000", "085319.758000", "085319.761000", "085319.763000", "085319.765000", "085319.768000", "085319.770000", "085319.772000", "085319.775000", "085319.777000", "085319.779000", "085319.781000", "085359.737000", "085359.740000", "085359.742000", "085359.744000", "085359.747000", "085359.749000", "085359.751000", "085359.754000", "085359.756000", "085359.758000", "085359.761000", "085359.764000", "085359.766000", "085359.769000", "085359.771000", "085359.773000", "085359.776000", "085359.778000", "085359.780000", "085359.783000", "085439.737000", "085439.740000", "085439.742000", "085439.744000", "085439.746000", "085439.749000", "085439.751000", "085439.753000", "085439.756000", "085439.758000", "085439.760000", "085439.763000", "085439.765000", "085439.767000", "085439.770000", "085439.772000", "085439.774000", "085439.777000", "085439.779000", "085439.781000", "085519.737000", "085519.740000", "085519.742000", "085519.744000", "085519.747000", "085519.749000", "085519.751000", "085519.754000", "085519.756000", "085519.758000", "085519.761000", "085519.763000", "085519.765000", "085519.771000", "085519.774000", "085519.776000", "085519.778000", "085519.811000", "085519.813000", "085519.816000", "085530.125000", "085530.128000", "085530.130000", "085530.133000", "085530.135000", "085530.137000"],
      "InstanceNumber": [1, 2, 3, 4, 5, 6, 7, 8, 9, 10, 11, 12, 13, 14, 15, 16, 17, 18, 19, 20, 21, 22, 23, 24, 25, 26, 27, 28, 29, 30, 31, 32, 33, 34, 35, 36, 37, 38, 39, 40, 41, 42, 43, 44, 45, 46, 47, 48, 49, 50, 51, 52, 53, 54, 55, 56, 57, 58, 59, 60, 61, 62, 63, 64, 65, 66, 67, 68, 69, 70, 71, 72, 73, 74, 75, 76, 77, 78, 79, 80, 81, 82, 83, 84, 85, 86, 87, 88, 89, 90, 91, 92, 93, 94, 95, 96, 97, 98, 99, 100, 101, 102, 103, 104, 105, 106, 107, 108, 109, 110, 111, 112, 113, 114, 115, 116, 117, 118, 119, 120, 121, 122, 123, 124, 125, 126, 127, 128, 129, 130, 131, 132, 133, 134, 135, 136, 137, 138, 139, 140, 141, 142, 143, 144, 145, 146, 147, 148, 149, 150, 151, 152, 153, 154, 155, 156, 157, 158, 159, 160, 161, 162, 163, 164, 165, 166, 167, 168, 169, 170, 171, 172, 173, 174, 175, 176, 177, 178, 179, 180, 181, 182, 183, 184, 185, 186, 187, 188, 189, 190, 191, 192, 193, 194, 195, 196, 197, 198, 199, 200],
      "WindowCenter": [1515.0, 1514.0, 1514.0, 1514.0, 1514.0, 1514.0, 1514.0, 1515.0, 1513.0, 1513.0, 1514.0, 1513.0, 1514.0, 1513.0, 1514.0, 1513.0, 1513.0, 1513.0, 1514.0, 1513.0, 1513.0, 1513.0, 1513.0, 1512.0, 1513.0, 1512.0, 1513.0, 1513.0, 1512.0, 1512.0, 1513.0, 1513.0, 1513.0, 1513.0, 1513.0, 1511.0, 1512.0, 1511.0, 1512.0, 1512.0, 1511.0, 1512.0, 1512.0, 1512.0, 1511.0, 1510.0, 1511.0, 1511.0, 1511.0, 1512.0, 1512.0, 1512.0, 1511.0, 1512.0, 1510.0, 1510.0, 1511.0, 1511.0, 1510.0, 1510.0, 1511.0, 1511.0, 1511.0, 1511.0, 1511.0, 1511.0, 1510.0, 1511.0, 1510.0, 1510.0, 1510.0, 1510.0, 1510.0, 1510.0, 1511.0, 1510.0, 1510.0, 1510.0, 1510.0, 1509.0, 1510.0, 1510.0, 1510.0, 1509.0, 1510.0, 1510.0, 1510.0, 1510.0, 1509.0, 1509.0, 1510.0, 1510.0, 1509.0, 1510.0, 1510.0, 1509.0, 1510.0, 1508.0, 1509.0, 1509.0, 1509.0, 1509.0, 1509.0, 1509.0, 1510.0, 1509.0, 1509.0, 1509.0, 1509.0, 1508.0, 1509.0, 1509.0, 1509.0, 1509.0, 1509.0, 1509.0, 1509.0, 1509.0, 1509.0, 1509.0, 1509.0, 1509.0, 1508.0, 1508.0, 1509.0, 1508.0, 1509.0, 1509.0, 1509.0, 1508.0, 1509.0, 1509.0, 1509.0, 1508.0, 1510.0, 1508.0, 1509.0, 1509.0, 1510.0, 1509.0, 1509.0, 1509.0, 1509.0, 1509.0, 1508.0, 1509.0, 1509.0, 1509.0, 1509.0, 1510.0, 1508.0, 1508.0, 1510.0, 1509.0, 1509.0, 1509.0, 1510.0, 1509.0, 1510.0, 1509.0, 1509.0, 1509.0, 1508.0, 1509.0, 1508.0, 1509.0, 1508.0, 1508.0, 1508.0, 1509.0, 1508.0, 1508.0, 1509.0, 1508.0, 1508.0, 1508.0, 1508.0, 1509.0, 1508.0, 1507.0, 1508.0, 1508.0, 1508.0, 1508.0, 1508.0, 1508.0, 1509.0, 1508.0, 1508.0, 1509.0, 1508.0, 1508.0, 1508.0, 1508.0, 1508.0, 1508.0, 1508.0, 1507.0, 1507.0, 1507.0],
      "WindowWidth": [3417.0, 3416.0, 3416.0, 3416.0, 3415.0, 3416.0, 3416.0, 3415.0, 3416.0, 3416.0, 3415.0, 3415.0, 3415.0, 3415.0, 3415.0, 3415.0, 3415.0, 3415.0, 3415.0, 3416.0, 3415.0, 3415.0, 3415.0, 3415.0, 3415.0, 3415.0, 3415.0, 3415.0, 3415.0, 3415.0, 3415.0, 3415.0, 3415.0, 3415.0, 3415.0, 3415.0, 3415.0, 3415.0, 3415.0, 3415.0, 3415.0, 3415.0, 3415.0, 3415.0, 3414.0, 3415.0, 3414.0, 3414.0, 3414.0, 3415.0, 3415.0, 3415.0, 3414.0, 3415.0, 3415.0, 3415.0, 3414.0, 3414.0, 3415.0, 3415.0, 3414.0, 3414.0, 3414.0, 3414.0, 3414.0, 3414.0, 3415.0, 3414.0, 3414.0, 3414.0, 3414.0, 3414.0, 3414.0, 3414.0, 3414.0, 3414.0, 3414.0, 3414.0, 3415.0, 3415.0, 3414.0, 3414.0, 3414.0, 3415.0, 3414.0, 3414.0, 3414.0, 3414.0, 3415.0, 3414.0, 3414.0, 3414.0, 3414.0, 3414.0, 3414.0, 3414.0, 3414.0, 3414.0, 3414.0, 3414.0, 3414.0, 3414.0, 3414.0, 3414.0, 3414.0, 3414.0, 3414.0, 3414.0, 3414.0, 3414.0, 3414.0, 3414.0, 3414.0, 3414.0, 3414.0, 3413.0, 3413.0, 3413.0, 3414.0, 3413.0, 3413.0, 3413.0, 3414.0, 3414.0, 3413.0, 3414.0, 3413.0, 3413.0, 3413.0, 3414.0, 3413.0, 3413.0, 3413.0, 3413.0, 3413.0, 3414.0, 3413.0, 3413.0, 3413.0, 3413.0, 3413.0, 3413.0, 3413.0, 3413.0, 3413.0, 3413.0, 3413.0, 3413.0, 3413.0, 3413.0, 3413.0, 3413.0, 3413.0, 3413.0, 3413.0, 3413.0, 3413.0, 3413.0, 3412.0, 3413.0, 3413.0, 3413.0, 3413.0, 3413.0, 3413.0, 3413.0, 3413.0, 3412.0, 3413.0, 3413.0, 3413.0, 3413.0, 3413.0, 3413.0, 3413.0, 3413.0, 3413.0, 3412.0, 3412.0, 3412.0, 3412.0, 3412.0, 3412.0, 3412.0, 3413.0, 3412.0, 3412.0, 3413.0, 3412.0, 3412.0, 3412.0, 3412.0, 3412.0, 3412.0, 3412.0, 3412.0, 3412.0, 3412.0, 3412.0, 3413.0]
    },
    "slices": {}
  }
}