{
  "AcquisitionMatrixPE": 80,
  "AcquisitionNumber": 1,
  "AcquisitionTime": "08:55:41.435000",
  "BandwidthPerPixelPhaseEncode": 25,
  "BaseResolution": 80,
  "BodyPartExamined": "BRAIN",
  "CoilCombinationMethod": "Sum of Squares",
  "ConsistencyInfo": "N4_VE11E_LATEST_20181129",
  "ConversionSoftware": "dcm2niix",
  "ConversionSoftwareVersion": "v1.0.20220720",
  "DerivedVendorReportedEchoSpacing": 0.0005,
  "DeviceSerialNumber": "66112",
  "DwellTime": 2.7e-06,
  "EchoTime": 0.03,
  "EchoTrainLength": 80,
  "EffectiveEchoSpacing": 0.0005,
  "FlipAngle": 77,
  "HeudiconvVersion": "0.13.1",
  "ImageOrientationPatientDICOM": [0.987364, 0.158225, 0.00881159, -0.153205, 0.93887, 0.308305],
  "ImageOrientationText": "Tra>Cor(17.8)>Sag(-2.3)",
  "ImageType": [
    "ORIGINAL",
    "PRIMARY",
    "M",
    "ND",
    "NORM",
    "MOSAIC"
],
  "ImagingFrequency": 123.259,
  "InPlanePhaseEncodingDirectionDICOM": "COL",
  "InstitutionAddress": "Maynard 3,Hanover,NH,US,03755",
  "InstitutionName": "Dartmouth College - PBS",
  "InstitutionalDepartmentName": "Department",
  "MRAcquisitionType": "2D",
  "MagneticFieldStrength": 3,
  "Manufacturer": "Siemens",
  "ManufacturersModelName": "Prisma",
  "MatrixCoilMode": "SENSE",
  "Modality": "MR",
  "NonlinearGradientCorrection": false,
  "PartialFourier": 1,
  "PatientPosition": "HFS",
  "PercentPhaseFOV": 100,
  "PercentSampling": 100,
  "PhaseEncodingDirection": "j-",
  "PhaseEncodingSteps": 80,
  "PhaseResolution": 1,
  "PixelBandwidth": 2315,
  "ProcedureStepDescription": "dbic^QA",
  "ProtocolName": "func-bold_fa-77",
  "PulseSequenceDetails": "%SiemensSeq%\\ep2d_bold",
  "ReceiveCoilActiveElements": "HC1-7;NC1,2",
  "ReceiveCoilName": "HeadNeck_64",
  "ReconMatrixPE": 80,
  "RepetitionTime": 2,
  "SAR": 0.0322449,
  "ScanOptions": "FS",
  "ScanningSequence": "EP",
  "SequenceName": "*epfid2d1_80",
  "SequenceVariant": "SK",
  "SeriesDescription": "func-bold_fa-77",
  "SeriesNumber": 6,
  "ShimSetting": [4217, -7741, -7487, -101, -163, -222, -50, 92],
  "SliceThickness": 3.5,
  "SliceTiming": [0.99, 0, 1.055, 0.065, 1.12, 0.1325, 1.1875, 0.1975, 1.2525, 0.2625, 1.32, 0.33, 1.385, 0.395, 1.45, 0.46, 1.5175, 0.5275, 1.5825, 0.5925, 1.65, 0.66, 1.715, 0.725, 1.78, 0.79, 1.8475, 0.8575, 1.9125, 0.9225],
  "SoftwareVersions": "syngo MR E11",
  "SpacingBetweenSlices": 3.99,
  "StationName": "AWP66112",
  "TotalReadoutTime": 0.0395,
  "TxRefAmp": 209.273,
  "dcmmeta_affine": [
    [-2.9620914459228516, -0.4596148729324341, -0.16162873804569244, 139.07644653320312],
    [-0.4746740460395813, 2.8166093826293945, 1.2199774980545044, -105.16569519042969],
    [0.026434777304530144, -0.924913763999939, 3.7954750061035156, -16.42982292175293],
    [0.0, 0.0, 0.0, 1.0]
],
  "dcmmeta_reorient_transform": [
    [0.0, -1.0, 0.0, 79.0],
    [1.0, 0.0, 0.0, 0.0],
    [0.0, 0.0, 1.0, 0.0],
    [0.0, 0.0, 0.0, 1.0]
],
  "dcmmeta_shape": [80, 80, 30, 200],
  "dcmmeta_slice_dim": 2,
  "dcmmeta_version": 0.6,
  "global": {
    "const": {
      "AccessionNumber": "qa64",
      "AcquisitionMatrix": [80, 0, 0, 80],
      "AngioFlag": "N",
      "BitsAllocated": 16,
      "BitsStored": 12,
      "BodyPartExamined": "BRAIN",
      "Columns": 480,
      "EchoNumbers": 1,
      "EchoTime": 30.0,
      "EchoTrainLength": 80,
      "FlipAngle": 77.0,
      "HighBit": 11,
      "ImageOrientationPatient": [0.98736381676961, 0.15822467941754, 0.0088115922149, -0.1532049549564, 0.9388698101993, 0.30830459171596],
      "ImagePositionPatient": [-603.26219285292, -775.60314665987, -279.76772133891],
      "ImageType": [
        "ORIGINAL",
        "PRIMARY",
        "M",
        "ND",
        "NORM",
        "MOSAIC"
],
      "ImagedNucleus": "1H",
      "ImagingFrequency": 123.259245,
      "InPlanePhaseEncodingDirection": "COL",
      "MRAcquisitionType": "2D",
      "MagneticFieldStrength": 3.0,
      "Manufacturer": "SIEMENS",
      "ManufacturerModelName": "Prisma",
      "Modality": "MR",
      "NumberOfAverages": 1.0,
      "NumberOfPhaseEncodingSteps": 80,
      "PercentPhaseFieldOfView": 100.0,
      "PercentSampling": 100.0,
      "PerformedProcedureStepStartTime": "084646.502000",
      "PhotometricInterpretation": "MONOCHROME2",
      "PixelBandwidth": 2315.0,
      "PixelRepresentation": 0,
      "PixelSpacing": [3.0, 3.0],
      "ProtocolName": "func-bold_fa-77",
      "RepetitionTime": 2000.0,
      "Rows": 480,
      "SAR": 0.03224487681809,
      "SamplesPerPixel": 1,
      "ScanOptions": "FS",
      "ScanningSequence": "EP",
      "SequenceName": "*epfid2d1_80",
      "SequenceVariant": "SK",
      "SeriesDescription": "func-bold_fa-77",
      "SeriesNumber": 6,
      "SeriesTime": "085639.830000",
      "SliceLocation": -53.417923640106,
      "SliceThickness": 3.5,
      "SmallestImagePixelValue": 0,
      "SoftwareVersions": "syngo MR E11",
      "SpacingBetweenSlices": 3.9899999259467,
      "SpecificCharacterSet": "ISO_IR 100",
      "StudyID": "9",
      "StudyTime": "084646.444000",
      "TransmitCoilName": "Body",
      "VariableFlipAngleFlag": "N",
      "WindowCenterWidthExplanation": "Algo1"
    },
    "slices": {}
  },
  "time": {
    "samples": {
      "AcquisitionNumber": [1, 2, 3, 4, 5, 6, 7, 8, 9, 10, 11, 12, 13, 14, 15, 16, 17, 18, 19, 20, 21, 22, 23, 24, 25, 26, 27, 28, 29, 30, 31, 32, 33, 34, 35, 36, 37, 38, 39, 40, 41, 42, 43, 44, 45, 46, 47, 48, 49, 50, 51, 52, 53, 54, 55, 56, 57, 58, 59, 60, 61, 62, 63, 64, 65, 66, 67, 68, 69, 70, 71, 72, 73, 74, 75, 76, 77, 78, 79, 80, 81, 82, 83, 84, 85, 86, 87, 88, 89, 90, 91, 92, 93, 94, 95, 96, 97, 98, 99, 100, 101, 102, 103, 104, 105, 106, 107, 108, 109, 110, 111, 112, 113, 114, 115, 116, 117, 118, 119, 120, 121, 122, 123, 124, 125, 126, 127, 128, 129, 130, 131, 132, 133, 134, 135, 136, 137, 138, 139, 140, 141, 142, 143, 144, 145, 146, 147, 148, 149, 150, 151, 152, 153, 154, 155, 156, 157, 158, 159, 160, 161, 162, 163, 164, 165, 166, 167, 168, 169, 170, 171, 172, 173, 174, 175, 176, 177, 178, 179, 180, 181, 182, 183, 184, 185, 186, 187, 188, 189, 190, 191, 192, 193, 194, 195, 196, 197, 198, 199, 200],
      "AcquisitionTime": ["085541.435000", "085543.435000", "085545.435000", "085547.435000", "085549.435000", "085551.435000", "085553.435000", "085555.435000", "085557.435000", "085559.435000", "085601.435000", "085603.435000", "085605.435000", "085607.435000", "085609.435000", "085611.435000", "085613.435000", "085615.435000", "085617.435000", "085619.435000", "085621.435000", "085623.435000", "085625.435000", "085627.435000", "085629.435000", "085631.435000", "085633.435000", "085635.435000", "085637.435000", "085639.435000", "085641.435000", "085643.435000", "085645.435000", "085647.435000", "085649.435000", "085651.435000", "085653.435000", "085655.435000", "085657.435000", "085659.435000", "085701.435000", "085703.435000", "085705.435000", "085707.435000", "085709.435000", "085711.435000", "085713.435000", "085715.435000", "085717.435000", "085719.435000", "085721.435000", "085723.435000", "085725.435000", "085727.435000", "085729.435000", "085731.435000", "085733.435000", "085735.435000", "085737.435000", "085739.435000", "085741.435000", "085743.435000", "085745.435000", "085747.435000", "085749.435000", "085751.435000", "085753.435000", "085755.435000", "085757.435000", "085759.435000", "085801.435000", "085803.435000", "085805.435000", "085807.435000", "085809.435000", "085811.435000", "085813.435000", "085815.435000", "085817.435000", "085819.435000", "085821.435000", "085823.435000", "085825.435000", "085827.435000", "085829.435000", "085831.435000", "085833.435000", "085835.435000", "085837.435000", "085839.435000", "085841.435000", "085843.435000", "085845.435000", "085847.435000", "085849.435000", "085851.435000", "085853.435000", "085855.435000", "085857.435000", "085859.435000", "085901.435000", "085903.435000", "085905.435000", "085907.435000", "085909.435000", "085911.435000", "085913.435000", "085915.435000", "085917.435000", "085919.435000", "085921.435000", "085923.435000", "085925.435000", "085927.435000", "085929.435000", "085931.435000", "085933.435000", "085935.435000", "085937.435000", "085939.435000", "085941.435000", "085943.435000", "085945.435000", "085947.435000", "085949.435000", "085951.435000", "085953.435000", "085955.435000", "085957.435000", "085959.435000", "090001.435000", "090003.435000", "090005.435000", "090007.435000", "090009.435000", "090011.435000", "090013.435000", "090015.435000", "090017.435000", "090019.435000", "090021.435000", "090023.435000", "090025.435000", "090027.435000", "090029.435000", "090031.435000", "090033.435000", "090035.435000", "090037.435000", "090039.435000", "090041.435000", "090043.435000", "090045.435000", "090047.435000", "090049.435000", "090051.435000", "090053.435000", "090055.435000", "090057.435000", "090059.435000", "090101.435000", "090103.435000", "090105.435000", "090107.435000", "090109.435000", "090111.435000", "090113.435000", "090115.435000", "090117.435000", "090119.435000", "090121.435000", "090123.435000", "090125.435000", "090127.435000", "090129.435000", "090131.435000", "090133.435000", "090135.435000", "090137.435000", "090139.435000", "090141.435000", "090143.435000", "090145.435000", "090147.435000", "090149.435000", "090151.435000", "090153.435000", "090155.435000", "090157.435000", "090159.435000", "090201.435000", "090203.435000", "090205.435000", "090207.435000", "090209.435000", "090211.435000", "090213.435000", "090215.435000", "090217.435000", "090219.435000"],
      "ContentTime": ["085639.833000", "085639.836000", "085639.838000", "085639.841000", "085639.843000", "085639.845000", "085639.857000", "085639.859000", "085639.862000", "085639.864000", "085639.866000", "085639.869000", "085639.871000", "085639.873000", "085639.875000", "085639.878000", "085639.880000", "085639.882000", "085639.885000", "085639.887000", "085639.889000", "085639.892000", "085639.894000", "085639.904000", "085639.906000", "085639.908000", "085639.910000", "085639.913000", "085639.915000", "085719.827000", "085719.830000", "085719.832000", "085719.834000", "085719.837000", "085719.839000", "085719.841000", "085719.844000", "085719.846000", "085719.848000", "085719.850000", "085719.853000", "085719.855000", "085719.858000", "085719.860000", "085719.862000", "085719.865000", "085719.873000", "085719.875000", "085719.877000", "085759.827000", "085759.830000", "085759.832000", "085759.834000", "085759.837000", "085759.839000", "085759.841000", "085759.844000", "085759.846000", "085759.848000", "085759.850000", "085759.853000", "085759.855000", "085759.858000", "085759.860000", "085759.862000", "085759.865000", "085759.867000", "085759.869000", "085759.871000", "085839.828000", "085839.831000", "085839.833000", "085839.835000", "085839.838000", "085839.840000", "085839.842000", "085839.844000", "085839.847000", "085839.849000", "085839.851000", "085839.863000", "085839.865000", "085839.868000", "085839.870000", "085839.872000", "085839.875000", "085839.877000", "085839.879000", "085839.882000", "085919.827000", "085919.830000", "085919.833000", "085919.835000", "085919.837000", "085919.840000", "085919.842000", "085919.844000", "085919.847000", "085919.849000", "085919.851000", "085919.853000", "085919.856000", "085919.858000", "085919.860000", "085919.863000", "085919.865000", "085919.867000", "085919.870000", "085919.872000", "085959.827000", "085959.830000", "085959.832000", "085959.835000", "085959.837000", "085959.839000", "085959.842000", "085959.844000", "085959.846000", "085959.848000", "085959.851000", "085959.853000", "085959.855000", "085959.857000", "085959.860000", "085959.862000", "085959.864000", "085959.867000", "085959.869000", "085959.871000", "090039.827000", "090039.830000", "090039.832000", "090039.835000", "090039.837000", "090039.839000", "090039.841000", "090039.844000", "090039.846000", "090039.848000", "090039.851000", "090039.853000", "090039.855000", "090039.857000", "090039.860000", "090039.862000", "090039.864000", "090039.867000", "090039.869000", "090039.871000", "090059.828000", "090059.831000", "090059.833000", "090059.835000", "090059.838000", "090059.840000", "090059.842000", "090059.844000", "090059.847000", "090059.849000", "090139.827000", "090139.830000", "090139.832000", "090139.834000", "090139.837000", "090139.839000", "090139.841000", "090139.844000", "090139.846000", "090139.848000", "090139.850000", "090139.853000", "090139.855000", "090139.857000", "090139.860000", "090139.862000", "090139.864000", "090139.867000", "090139.869000", "090139.871000", "090219.827000", "090219.830000", "090219.832000", "090219.834000", "090219.837000", "090219.839000", "090219.841000", "090219.844000", "090219.846000", "090219.848000", "090219.851000", "090219.853000", "090219.855000", "090219.858000", "090219.860000", "090219.862000", "090219.865000", "090219.867000", "090219.869000", "090219.871000", "090220.977000"],
      "InstanceCreationTime": ["085639.833000", "085639.836000", "085639.838000", "085639.841000", "085639.843000", "085639.845000", "085639.857000", "085639.859000", "085639.862000", "085639.864000", "085639.866000", "085639.869000", "085639.871000", "085639.873000", "085639.875000", "085639.878000", "085639.880000", "085639.882000", "085639.885000", "085639.887000", "085639.889000", "085639.892000", "085639.894000", "085639.904000", "085639.906000", "085639.908000", "085639.910000", "085639.913000", "085639.915000", "085719.827000", "085719.830000", "085719.832000", "085719.834000", "085719.837000", "085719.839000", "085719.841000", "085719.844000", "085719.846000", "085719.848000", "085719.850000", "085719.853000", "085719.855000", "085719.858000", "085719.860000", "085719.862000", "085719.865000", "085719.873000", "085719.875000", "085719.877000", "085759.827000", "085759.830000", "085759.832000", "085759.834000", "085759.837000", "085759.839000", "085759.841000", "085759.844000", "085759.846000", "085759.848000", "085759.850000", "085759.853000", "085759.855000", "085759.858000", "085759.860000", "085759.862000", "085759.865000", "085759.867000", "085759.869000", "085759.871000", "085839.828000", "085839.831000", "085839.833000", "085839.835000", "085839.838000", "085839.840000", "085839.842000", "085839.844000", "085839.847000", "085839.849000", "085839.851000", "085839.863000", "085839.865000", "085839.868000", "085839.870000", "085839.872000", "085839.875000", "085839.877000", "085839.879000", "085839.882000", "085919.827000", "085919.830000", "085919.833000", "085919.835000", "085919.837000", "085919.840000", "085919.842000", "085919.844000", "085919.847000", "085919.849000", "085919.851000", "085919.853000", "085919.856000", "085919.858000", "085919.860000", "085919.863000", "085919.865000", "085919.867000", "085919.870000", "085919.872000", "085959.827000", "085959.830000", "085959.832000", "085959.835000", "085959.837000", "085959.839000", "085959.842000", "085959.844000", "085959.846000", "085959.848000", "085959.851000", "085959.853000", "085959.855000", "085959.857000", "085959.860000", "085959.862000", "085959.864000", "085959.867000", "085959.869000", "085959.871000", "090039.827000", "090039.830000", "090039.832000", "090039.835000", "090039.837000", "090039.839000", "090039.841000", "090039.844000", "090039.846000", "090039.848000", "090039.851000", "090039.853000", "090039.855000", "090039.857000", "090039.860000", "090039.862000", "090039.864000", "090039.867000", "090039.869000", "090039.871000", "090059.828000", "090059.831000", "090059.833000", "090059.835000", "090059.838000", "090059.840000", "090059.842000", "090059.844000", "090059.847000", "090059.849000", "090139.827000", "090139.830000", "090139.832000", "090139.834000", "090139.837000", "090139.839000", "090139.841000", "090139.844000", "090139.846000", "090139.848000", "090139.850000", "090139.853000", "090139.855000", "090139.857000", "090139.860000", "090139.862000", "090139.864000", "090139.867000", "090139.869000", "090139.871000", "090219.827000", "090219.830000", "090219.832000", "090219.834000", "090219.837000", "090219.839000", "090219.841000", "090219.844000", "090219.846000", "090219.848000", "090219.851000", "090219.853000", "090219.855000", "090219.858000", "090219.860000", "090219.862000", "090219.865000", "090219.867000", "090219.869000", "090219.871000", "090220.977000"],
      "InstanceNumber": [1, 2, 3, 4, 5, 6, 7, 8, 9, 10, 11, 12, 13, 14, 15, 16, 17, 18, 19, 20, 21, 22, 23, 24, 25, 26, 27, 28, 29, 30, 31, 32, 33, 34, 35, 36, 37, 38, 39, 40, 41, 42, 43, 44, 45, 46, 47, 48, 49, 50, 51, 52, 53, 54, 55, 56, 57, 58, 59, 60, 61, 62, 63, 64, 65, 66, 67, 68, 69, 70, 71, 72, 73, 74, 75, 76, 77, 78, 79, 80, 81, 82, 83, 84, 85, 86, 87, 88, 89, 90, 91, 92, 93, 94, 95, 96, 97, 98, 99, 100, 101, 102, 103, 104, 105, 106, 107, 108, 109, 110, 111, 112, 113, 114, 115, 116, 117, 118, 119, 120, 121, 122, 123, 124, 125, 126, 127, 128, 129, 130, 131, 132, 133, 134, 135, 136, 137, 138, 139, 140, 141, 142, 143, 144, 145, 146, 147, 148, 149, 150, 151, 152, 153, 154, 155, 156, 157, 158, 159, 160, 161, 162, 163, 164, 165, 166, 167, 168, 169, 170, 171, 172, 173, 174, 175, 176, 177, 178, 179, 180, 181, 182, 183, 184, 185, 186, 187, 188, 189, 190, 191, 192, 193, 194, 195, 196, 197, 198, 199, 200],
      "LargestImagePixelValue": [3986, 3988, 3987, 3986, 3983, 3984, 3981, 3983, 3984, 3983, 3978, 3984, 3981, 3979, 3980, 3981, 3982, 3979, 3974, 3981, 3984, 3982, 3975, 3978, 3975, 3980, 3976, 3973, 3975, 3979, 3973, 3972, 3972, 3965, 3964, 3964, 3968, 3961, 3961, 3957, 3957, 3954, 3947, 3950, 3962, 3964, 3970, 3966, 3972, 3965, 3964, 3962, 3963, 3959, 3958, 3957, 3952, 3954, 3956, 3958, 3952, 3953, 3944, 3945, 3946, 3940, 3944, 3931, 3936, 3937, 3946, 3948, 3949, 3953, 3954, 3963, 3966, 3965, 3964, 3948, 3949, 3959, 3945, 3946, 3956, 3957, 3965, 3971, 3976, 3974, 3963, 3957, 3952, 3943, 3945, 3951, 3960, 3967, 3971, 3972, 3969, 3966, 3961, 3954, 3958, 3963, 3966, 3964, 3965, 3971, 3974, 3972, 3970, 3958, 3954, 3952, 3962, 3968, 3969, 3958, 3950, 3948, 3946, 3953, 3958, 3967, 3977, 3970, 3969, 3966, 3965, 3967, 3968, 3969, 3974, 3975, 3978, 3972, 3970, 3971, 3970, 3973, 3976, 3979, 3982, 3976, 3976, 3973, 3971, 3974, 3969, 3971, 3968, 3968, 3974, 3969, 3978, 3975, 3966, 3966, 3971, 3976, 3982, 3979, 3971, 3969, 3969, 3971, 3967, 3973, 3973, 3974, 3971, 3976, 3979, 3980, 3981, 3977, 3979, 3973, 3973, 3975, 3975, 3973, 3979, 3972, 3976, 3979, 3977, 3972, 3972, 3969, 3966, 3971, 3969, 3963, 3969, 3972, 3974, 3979],
      "WindowCenter": [1426.0, 1426.0, 1425.0, 1427.0, 1425.0, 1426.0, 1426.0, 1425.0, 1425.0, 1425.0, 1425.0, 1426.0, 1425.0, 1426.0, 1424.0, 1425.0, 1425.0, 1425.0, 1425.0, 1425.0, 1425.0, 1425.0, 1425.0, 1425.0, 1425.0, 1425.0, 1425.0, 1425.0, 1425.0, 1424.0, 1425.0, 1424.0, 1424.0, 1425.0, 1424.0, 1425.0, 1424.0, 1425.0, 1425.0, 1424.0, 1424.0, 1424.0, 1424.0, 1424.0, 1424.0, 1424.0, 1423.0, 1424.0, 1424.0, 1424.0, 1424.0, 1424.0, 1424.0, 1424.0, 1423.0, 1424.0, 1424.0, 1424.0, 1424.0, 1424.0, 1424.0, 1424.0, 1424.0, 1424.0, 1424.0, 1424.0, 1424.0, 1424.0, 1424.0, 1423.0, 1423.0, 1424.0, 1424.0, 1424.0, 1424.0, 1424.0, 1424.0, 1424.0, 1424.0, 1424.0, 1424.0, 1423.0, 1424.0, 1424.0, 1424.0, 1424.0, 1423.0, 1423.0, 1423.0, 1424.0, 1424.0, 1423.0, 1423.0, 1424.0, 1423.0, 1423.0, 1424.0, 1423.0, 1423.0, 1423.0, 1423.0, 1423.0, 1423.0, 1423.0, 1422.0, 1423.0, 1423.0, 1423.0, 1423.0, 1423.0, 1422.0, 1423.0, 1423.0, 1423.0, 1423.0, 1424.0, 1423.0, 1423.0, 1422.0, 1423.0, 1423.0, 1422.0, 1423.0, 1422.0, 1422.0, 1423.0, 1422.0, 1422.0, 1422.0, 1423.0, 1422.0, 1423.0, 1422.0, 1423.0, 1422.0, 1422.0, 1422.0, 1422.0, 1422.0, 1422.0, 1422.0, 1422.0, 1422.0, 1422.0, 1422.0, 1422.0, 1422.0, 1422.0, 1422.0, 1422.0, 1422.0, 1421.0, 1422.0, 1423.0, 1422.0, 1422.0, 1422.0, 1422.0, 1422.0, 1422.0, 1422.0, 1421.0, 1422.0, 1422.0, 1421.0, 1422.0, 1422.0, 1422.0, 1422.0, 1422.0, 1422.0, 1422.0, 1422.0, 1421.0, 1421.0, 1421.0, 1421.0, 1422.0, 1421.0, 1421.0, 1421.0, 1421.0, 1421.0, 1421.0, 1421.0, 1422.0, 1421.0, 1421.0, 1421.0, 1420.0, 1421.0, 1420.0, 1421.0, 1420.0, 1421.0, 1421.0, 1421.0, 1421.0, 1421.0, 1420.0],
      "WindowWidth": [3366.0, 3366.0, 3366.0, 3366.0, 3366.0, 3366.0, 3366.0, 3366.0, 3366.0, 3366.0, 3366.0, 3366.0, 3366.0, 3366.0, 3366.0, 3366.0, 3366.0, 3366.0, 3366.0, 3366.0, 3366.0, 3366.0, 3366.0, 3366.0, 3366.0, 3365.0, 3366.0, 3366.0, 3365.0, 3365.0, 3365.0, 3365.0, 3365.0, 3365.0, 3365.0, 3365.0, 3365.0, 3365.0, 3365.0, 3365.0, 3365.0, 3365.0, 3365.0, 3365.0, 3365.0, 3365.0, 3365.0, 3365.0, 3365.0, 3365.0, 3365.0, 3365.0, 3365.0, 3365.0, 3365.0, 3365.0, 3365.0, 3365.0, 3365.0, 3365.0, 3365.0, 3365.0, 3365.0, 3365.0, 3365.0, 3365.0, 3365.0, 3364.0, 3364.0, 3365.0, 3365.0, 3364.0, 3364.0, 3364.0, 3364.0, 3364.0, 3364.0, 3364.0, 3364.0, 3364.0, 3364.0, 3364.0, 3364.0, 3364.0, 3363.0, 3363.0, 3364.0, 3364.0, 3364.0, 3363.0, 3363.0, 3364.0, 3364.0, 3363.0, 3364.0, 3364.0, 3363.0, 3364.0, 3363.0, 3363.0, 3363.0, 3363.0, 3363.0, 3363.0, 3364.0, 3363.0, 3363.0, 3363.0, 3363.0, 3363.0, 3364.0, 3363.0, 3363.0, 3363.0, 3363.0, 3363.0, 3363.0, 3363.0, 3363.0, 3363.0, 3363.0, 3363.0, 3363.0, 3363.0, 3363.0, 3363.0, 3363.0, 3363.0, 3363.0, 3362.0, 3363.0, 3363.0, 3363.0, 3363.0, 3363.0, 3363.0, 3363.0, 3362.0, 3363.0, 3362.0, 3362.0, 3362.0, 3362.0, 3362.0, 3362.0, 3362.0, 3362.0, 3362.0, 3362.0, 3362.0, 3362.0, 3362.0, 3362.0, 3362.0, 3362.0, 3362.0, 3362.0, 3362.0, 3362.0, 3362.0, 3362.0, 3362.0, 3362.0, 3362.0, 3362.0, 3362.0, 3362.0, 3362.0, 3362.0, 3362.0, 3361.0, 3362.0, 3362.0, 3362.0, 3361.0, 3361.0, 3361.0, 3362.0, 3361.0, 3361.0, 3361.0, 3361.0, 3361.0, 3361.0, 3361.0, 3361.0, 3361.0, 3361.0, 3361.0, 3361.0, 3361.0, 3361.0, 3361.0, 3361.0, 3361.0, 3361.0, 3361.0, 3361.0, 3361.0, 3361.0]
    },
    "slices": {}
  }
}