{
  "AcquisitionMatrixPE": 80,
  "AcquisitionNumber": 1,
  "AcquisitionTime": "08:32:49.745000",
  "BandwidthPerPixelPhaseEncode": 48.077,
  "BaseResolution": 80,
  "BodyPartExamined": "BRAIN",
  "CoilCombinationMethod": "Sum of Squares",
  "ConsistencyInfo": "N4_VE11E_LATEST_20181129",
  "ConversionSoftware": "dcm2niix",
  "ConversionSoftwareVersion": "v1.0.20220720",
  "DerivedVendorReportedEchoSpacing": 0.000519999,
  "DeviceSerialNumber": "66112",
  "DwellTime": 2.7e-06,
  "EchoTime": 0.035,
  "EchoTrainLength": 39,
  "EffectiveEchoSpacing": 0.00026,
  "FlipAngle": 90,
  "HeudiconvVersion": "0.13.1",
  "ImageOrientationPatientDICOM": [0.989111, 0.147087, 0.00506339, -0.141476, 0.940774, 0.308104],
  "ImageOrientationText": "Tra>Cor(17.8)>Sag(-2.3)",
  "ImageType": [
    "ORIGINAL",
    "PRIMARY",
    "M",
    "ND",
    "NORM",
    "MOSAIC"
],
  "ImagingFrequency": 123.259,
  "InPlanePhaseEncodingDirectionDICOM": "COL",
  "InstitutionAddress": "Maynard 3,Hanover,NH,US,03755",
  "InstitutionName": "Dartmouth College - PBS",
  "InstitutionalDepartmentName": "Department",
  "MRAcquisitionType": "2D",
  "MagneticFieldStrength": 3,
  "Manufacturer": "Siemens",
  "ManufacturersModelName": "Prisma",
  "MatrixCoilMode": "GRAPPA",
  "Modality": "MR",
  "NonlinearGradientCorrection": false,
  "ParallelReductionFactorInPlane": 2,
  "PartialFourier": 1,
  "PatientPosition": "HFS",
  "PercentPhaseFOV": 100,
  "PercentSampling": 100,
  "PhaseEncodingDirection": "j-",
  "PhaseEncodingSteps": 79,
  "PhaseResolution": 1,
  "PixelBandwidth": 2315,
  "ProcedureStepDescription": "dbic^QA",
  "ProtocolName": "func-bold_task-rest_acq-p2",
  "PulseSequenceDetails": "%SiemensSeq%\\ep2d_bold",
  "ReceiveCoilActiveElements": "HC1-7;NC1,2",
  "ReceiveCoilName": "HeadNeck_64",
  "ReconMatrixPE": 80,
  "RefLinesPE": 24,
  "RepetitionTime": 2,
  "SAR": 0.0389462,
  "ScanOptions": "FS",
  "ScanningSequence": "EP",
  "SequenceName": "*epfid2d1_80",
  "SequenceVariant": "SK",
  "SeriesDescription": "func-bold_task-rest_acq-p2",
  "SeriesNumber": 5,
  "ShimSetting": [4216, -7739, -7491, -90, -161, -288, -45, 84],
  "SliceThickness": 3.5,
  "SliceTiming": [0.99, 0, 1.055, 0.065, 1.1225, 0.1325, 1.1875, 0.1975, 1.2525, 0.2625, 1.32, 0.33, 1.385, 0.395, 1.4525, 0.4625, 1.5175, 0.5275, 1.5825, 0.5925, 1.65, 0.66, 1.715, 0.725, 1.7825, 0.7925, 1.8475, 0.8575, 1.9125, 0.9225],
  "SoftwareVersions": "syngo MR E11",
  "SpacingBetweenSlices": 3.99,
  "StationName": "AWP66112",
  "TaskName": "rest",
  "TotalReadoutTime": 0.02054,
  "TxRefAmp": 213.426,
  "dcmmeta_affine": [
    [-2.967331886291504, -0.42442765831947327, -0.16181227564811707, 139.455322265625],
    [-0.44125962257385254, 2.8223230838775635, 1.2188067436218262, -108.93062591552734],
    [0.015190165489912033, -0.924312174320221, 3.7958433628082275, -24.30763053894043],
    [0.0, 0.0, 0.0, 1.0]
],
  "dcmmeta_reorient_transform": [
    [0.0, -1.0, 0.0, 79.0],
    [1.0, 0.0, 0.0, 0.0],
    [0.0, 0.0, 1.0, 0.0],
    [0.0, 0.0, 0.0, 1.0]
],
  "dcmmeta_shape": [80, 80, 30, 200],
  "dcmmeta_slice_dim": 2,
  "dcmmeta_version": 0.6,
  "global": {
    "const": {
      "AccessionNumber": "qa64",
      "AcquisitionMatrix": [80, 0, 0, 80],
      "AngioFlag": "N",
      "BitsAllocated": 16,
      "BitsStored": 12,
      "BodyPartExamined": "BRAIN",
      "Columns": 480,
      "EchoNumbers": 1,
      "EchoTime": 35.0,
      "EchoTrainLength": 39,
      "FlipAngle": 90.0,
      "HighBit": 11,
      "ImageOrientationPatient": [0.98911066670697, 0.14708654290425, 0.00506338848715, -0.1414758819778, 0.94077439482005, 0.30810406175442],
      "ImagePositionPatient": [-614.50640322031, -766.7494705747, -285.22876363682],
      "ImageType": [
        "ORIGINAL",
        "PRIMARY",
        "M",
        "ND",
        "NORM",
        "MOSAIC"
],
      "ImagedNucleus": "1H",
      "ImagingFrequency": 123.259262,
      "InPlanePhaseEncodingDirection": "COL",
      "LargestImagePixelValue": 4095,
      "MRAcquisitionType": "2D",
      "MagneticFieldStrength": 3.0,
      "Manufacturer": "SIEMENS",
      "ManufacturerModelName": "Prisma",
      "Modality": "MR",
      "NumberOfAverages": 1.0,
      "NumberOfPhaseEncodingSteps": 79,
      "PercentPhaseFieldOfView": 100.0,
      "PercentSampling": 100.0,
      "PerformedProcedureStepStartTime": "083100.426000",
      "PhotometricInterpretation": "MONOCHROME2",
      "PixelBandwidth": 2315.0,
      "PixelRepresentation": 0,
      "PixelSpacing": [3.0, 3.0],
      "ProtocolName": "func-bold_task-rest_acq-p2",
      "RepetitionTime": 2000.0,
      "Rows": 480,
      "SAR": 0.03894620113964,
      "SamplesPerPixel": 1,
      "ScanOptions": "FS",
      "ScanningSequence": "EP",
      "SequenceName": "*epfid2d1_80",
      "SequenceVariant": "SK",
      "SeriesDescription": "func-bold_task-rest_acq-p2",
      "SeriesNumber": 5,
      "SeriesTime": "083333.883000",
      "SliceLocation": -62.05486844832,
      "SliceThickness": 3.5,
      "SmallestImagePixelValue": 0,
      "SoftwareVersions": "syngo MR E11",
      "SpacingBetweenSlices": 3.9899999759615,
      "SpecificCharacterSet": "ISO_IR 100",
      "StudyID": "18",
      "StudyTime": "083100.312000",
      "TransmitCoilName": "Body",
      "VariableFlipAngleFlag": "N",
      "WindowCenterWidthExplanation": "Algo1"
    },
    "slices": {}
  },
  "time": {
    "samples": {
      "AcquisitionNumber": [1, 2, 3, 4, 5, 6, 7, 8, 9, 10, 11, 12, 13, 14, 15, 16, 17, 18, 19, 20, 21, 22, 23, 24, 25, 26, 27, 28, 29, 30, 31, 32, 33, 34, 35, 36, 37, 38, 39, 40, 41, 42, 43, 44, 45, 46, 47, 48, 49, 50, 51, 52, 53, 54, 55, 56, 57, 58, 59, 60, 61, 62, 63, 64, 65, 66, 67, 68, 69, 70, 71, 72, 73, 74, 75, 76, 77, 78, 79, 80, 81, 82, 83, 84, 85, 86, 87, 88, 89, 90, 91, 92, 93, 94, 95, 96, 97, 98, 99, 100, 101, 102, 103, 104, 105, 106, 107, 108, 109, 110, 111, 112, 113, 114, 115, 116, 117, 118, 119, 120, 121, 122, 123, 124, 125, 126, 127, 128, 129, 130, 131, 132, 133, 134, 135, 136, 137, 138, 139, 140, 141, 142, 143, 144, 145, 146, 147, 148, 149, 150, 151, 152, 153, 154, 155, 156, 157, 158, 159, 160, 161, 162, 163, 164, 165, 166, 167, 168, 169, 170, 171, 172, 173, 174, 175, 176, 177, 178, 179, 180, 181, 182, 183, 184, 185, 186, 187, 188, 189, 190, 191, 192, 193, 194, 195, 196, 197, 198, 199, 200],
      "AcquisitionTime": ["083249.745000", "083251.745000", "083253.745000", "083255.745000", "083257.745000", "083259.745000", "083301.745000", "083303.745000", "083305.745000", "083307.745000", "083309.745000", "083311.745000", "083313.745000", "083315.745000", "083317.745000", "083319.745000", "083321.745000", "083323.745000", "083325.745000", "083327.745000", "083329.745000", "083331.745000", "083333.745000", "083335.745000", "083337.745000", "083339.745000", "083341.745000", "083343.745000", "083345.745000", "083347.745000", "083349.745000", "083351.745000", "083353.745000", "083355.745000", "083357.745000", "083359.745000", "083401.745000", "083403.745000", "083405.745000", "083407.745000", "083409.745000", "083411.745000", "083413.745000", "083415.745000", "083417.745000", "083419.745000", "083421.745000", "083423.745000", "083425.745000", "083427.745000", "083429.745000", "083431.745000", "083433.745000", "083435.745000", "083437.745000", "083439.745000", "083441.745000", "083443.745000", "083445.745000", "083447.745000", "083449.745000", "083451.745000", "083453.745000", "083455.745000", "083457.745000", "083459.745000", "083501.745000", "083503.745000", "083505.745000", "083507.745000", "083509.745000", "083511.745000", "083513.745000", "083515.745000", "083517.745000", "083519.745000", "083521.745000", "083523.745000", "083525.745000", "083527.745000", "083529.745000", "083531.745000", "083533.745000", "083535.745000", "083537.745000", "083539.745000", "083541.745000", "083543.745000", "083545.745000", "083547.745000", "083549.745000", "083551.745000", "083553.745000", "083555.745000", "083557.745000", "083559.745000", "083601.745000", "083603.745000", "083605.745000", "083607.745000", "083609.745000", "083611.745000", "083613.745000", "083615.745000", "083617.745000", "083619.745000", "083621.745000", "083623.745000", "083625.745000", "083627.745000", "083629.745000", "083631.745000", "083633.745000", "083635.745000", "083637.745000", "083639.745000", "083641.745000", "083643.745000", "083645.745000", "083647.745000", "083649.745000", "083651.745000", "083653.745000", "083655.745000", "083657.745000", "083659.745000", "083701.745000", "083703.745000", "083705.745000", "083707.745000", "083709.745000", "083711.745000", "083713.745000", "083715.745000", "083717.745000", "083719.745000", "083721.745000", "083723.745000", "083725.745000", "083727.745000", "083729.745000", "083731.745000", "083733.745000", "083735.745000", "083737.745000", "083739.745000", "083741.745000", "083743.745000", "083745.745000", "083747.745000", "083749.745000", "083751.745000", "083753.745000", "083755.745000", "083757.745000", "083759.745000", "083801.745000", "083803.745000", "083805.745000", "083807.745000", "083809.745000", "083811.745000", "083813.745000", "083815.745000", "083817.745000", "083819.745000", "083821.745000", "083823.745000", "083825.745000", "083827.745000", "083829.745000", "083831.745000", "083833.745000", "083835.745000", "083837.745000", "083839.745000", "083841.745000", "083843.745000", "083845.745000", "083847.745000", "083849.745000", "083851.745000", "083853.745000", "083855.745000", "083857.745000", "083859.745000", "083901.745000", "083903.745000", "083905.745000", "083907.745000", "083909.745000", "083911.745000", "083913.745000", "083915.745000", "083917.745000", "083919.745000", "083921.745000", "083923.745000", "083925.745000", "083927.745000"],
      "ContentTime": ["083333.887000", "083333.890000", "083333.893000", "083333.895000", "083333.897000", "083333.900000", "083333.902000", "083333.904000", "083333.907000", "083333.909000", "083333.911000", "083333.914000", "083333.916000", "083333.919000", "083333.921000", "083333.923000", "083333.926000", "083333.928000", "083333.930000", "083333.933000", "083333.935000", "083333.937000", "083413.880000", "083413.883000", "083413.885000", "083413.888000", "083413.890000", "083413.893000", "083413.895000", "083413.897000", "083413.900000", "083413.902000", "083413.904000", "083413.907000", "083413.909000", "083413.912000", "083413.914000", "083413.916000", "083413.919000", "083413.921000", "083413.923000", "083413.926000", "083453.880000", "083453.887000", "083453.889000", "083453.891000", "083453.894000", "083453.896000", "083453.898000", "083453.901000", "083453.914000", "083453.916000", "083453.918000", "083453.921000", "083453.923000", "083453.925000", "083453.928000", "083453.930000", "083453.932000", "083453.935000", "083453.937000", "083453.939000", "083533.880000", "083533.884000", "083533.887000", "083533.889000", "083533.891000", "083533.894000", "083533.896000", "083533.899000", "083533.901000", "083533.903000", "083533.906000", "083533.908000", "083533.911000", "083533.913000", "083533.915000", "083533.918000", "083533.920000", "083533.922000", "083533.925000", "083533.927000", "083613.881000", "083613.884000", "083613.886000", "083613.888000", "083613.891000", "083613.893000", "083613.896000", "083613.898000", "083613.900000", "083613.903000", "083613.905000", "083613.907000", "083613.910000", "083613.912000", "083613.914000", "083613.917000", "083613.919000", "083613.921000", "083613.924000", "083613.926000", "083653.880000", "083653.883000", "083653.885000", "083653.888000", "083653.890000", "083653.892000", "083653.895000", "083653.897000", "083653.924000", "083653.927000", "083653.929000", "083653.931000", "083653.934000", "083653.936000", "083653.938000", "083653.941000", "083653.943000", "083653.945000", "083653.948000", "083653.950000", "083733.880000", "083733.883000", "083733.885000", "083733.887000", "083733.890000", "083733.892000", "083733.894000", "083733.897000", "083733.899000", "083733.901000", "083733.904000", "083733.906000", "083733.908000", "083733.911000", "083733.913000", "083733.915000", "083733.918000", "083733.920000", "083733.922000", "083733.925000", "083813.881000", "083813.884000", "083813.886000", "083813.889000", "083813.891000", "083813.893000", "083813.896000", "083813.898000", "083813.900000", "083813.903000", "083813.905000", "083813.907000", "083813.910000", "083813.912000", "083813.914000", "083813.917000", "083813.919000", "083813.921000", "083813.924000", "083813.926000", "083853.880000", "083853.883000", "083853.885000", "083853.888000", "083853.890000", "083853.892000", "083853.895000", "083853.897000", "083853.899000", "083853.902000", "083853.904000", "083853.907000", "083853.909000", "083853.911000", "083853.914000", "083853.916000", "083853.918000", "083853.921000", "083853.923000", "083853.925000", "083929.322000", "083929.329000", "083929.331000", "083929.334000", "083929.337000", "083929.339000", "083929.349000", "083929.351000", "083929.354000", "083929.356000", "083929.359000", "083929.361000", "083929.364000", "083929.367000", "083929.370000", "083929.375000", "083929.379000", "083929.382000"],
      "InstanceCreationTime": ["083333.887000", "083333.890000", "083333.893000", "083333.895000", "083333.897000", "083333.900000", "083333.902000", "083333.904000", "083333.907000", "083333.909000", "083333.911000", "083333.914000", "083333.916000", "083333.919000", "083333.921000", "083333.923000", "083333.926000", "083333.928000", "083333.930000", "083333.933000", "083333.935000", "083333.937000", "083413.880000", "083413.883000", "083413.885000", "083413.888000", "083413.890000", "083413.893000", "083413.895000", "083413.897000", "083413.900000", "083413.902000", "083413.904000", "083413.907000", "083413.909000", "083413.912000", "083413.914000", "083413.916000", "083413.919000", "083413.921000", "083413.923000", "083413.926000", "083453.880000", "083453.887000", "083453.889000", "083453.891000", "083453.894000", "083453.896000", "083453.898000", "083453.901000", "083453.914000", "083453.916000", "083453.918000", "083453.921000", "083453.923000", "083453.925000", "083453.928000", "083453.930000", "083453.932000", "083453.935000", "083453.937000", "083453.939000", "083533.880000", "083533.884000", "083533.887000", "083533.889000", "083533.891000", "083533.894000", "083533.896000", "083533.899000", "083533.901000", "083533.903000", "083533.906000", "083533.908000", "083533.911000", "083533.913000", "083533.915000", "083533.918000", "083533.920000", "083533.922000", "083533.925000", "083533.927000", "083613.881000", "083613.884000", "083613.886000", "083613.888000", "083613.891000", "083613.893000", "083613.896000", "083613.898000", "083613.900000", "083613.903000", "083613.905000", "083613.907000", "083613.910000", "083613.912000", "083613.914000", "083613.917000", "083613.919000", "083613.921000", "083613.924000", "083613.926000", "083653.880000", "083653.883000", "083653.885000", "083653.888000", "083653.890000", "083653.892000", "083653.895000", "083653.897000", "083653.924000", "083653.927000", "083653.929000", "083653.931000", "083653.934000", "083653.936000", "083653.938000", "083653.941000", "083653.943000", "083653.945000", "083653.948000", "083653.950000", "083733.880000", "083733.883000", "083733.885000", "083733.887000", "083733.890000", "083733.892000", "083733.894000", "083733.897000", "083733.899000", "083733.901000", "083733.904000", "083733.906000", "083733.908000", "083733.911000", "083733.913000", "083733.915000", "083733.918000", "083733.920000", "083733.922000", "083733.925000", "083813.881000", "083813.884000", "083813.886000", "083813.889000", "083813.891000", "083813.893000", "083813.896000", "083813.898000", "083813.900000", "083813.903000", "083813.905000", "083813.907000", "083813.910000", "083813.912000", "083813.914000", "083813.917000", "083813.919000", "083813.921000", "083813.924000", "083813.926000", "083853.880000", "083853.883000", "083853.885000", "083853.888000", "083853.890000", "083853.892000", "083853.895000", "083853.897000", "083853.899000", "083853.902000", "083853.904000", "083853.907000", "083853.909000", "083853.911000", "083853.914000", "083853.916000", "083853.918000", "083853.921000", "083853.923000", "083853.925000", "083929.322000", "083929.329000", "083929.331000", "083929.334000", "083929.337000", "083929.339000", "083929.349000", "083929.351000", "083929.354000", "083929.356000", "083929.359000", "083929.361000", "083929.364000", "083929.367000", "083929.370000", "083929.375000", "083929.379000", "083929.382000"],
      "InstanceNumber": [1, 2, 3, 4, 5, 6, 7, 8, 9, 10, 11, 12, 13, 14, 15, 16, 17, 18, 19, 20, 21, 22, 23, 24, 25, 26, 27, 28, 29, 30, 31, 32, 33, 34, 35, 36, 37, 38, 39, 40, 41, 42, 43, 44, 45, 46, 47, 48, 49, 50, 51, 52, 53, 54, 55, 56, 57, 58, 59, 60, 61, 62, 63, 64, 65, 66, 67, 68, 69, 70, 71, 72, 73, 74, 75, 76, 77, 78, 79, 80, 81, 82, 83, 84, 85, 86, 87, 88, 89, 90, 91, 92, 93, 94, 95, 96, 97, 98, 99, 100, 101, 102, 103, 104, 105, 106, 107, 108, 109, 110, 111, 112, 113, 114, 115, 116, 117, 118, 119, 120, 121, 122, 123, 124, 125, 126, 127, 128, 129, 130, 131, 132, 133, 134, 135, 136, 137, 138, 139, 140, 141, 142, 143, 144, 145, 146, 147, 148, 149, 150, 151, 152, 153, 154, 155, 156, 157, 158, 159, 160, 161, 162, 163, 164, 165, 166, 167, 168, 169, 170, 171, 172, 173, 174, 175, 176, 177, 178, 179, 180, 181, 182, 183, 184, 185, 186, 187, 188, 189, 190, 191, 192, 193, 194, 195, 196, 197, 198, 199, 200],
      "WindowCenter": [1521.0, 1520.0, 1520.0, 1520.0, 1520.0, 1520.0, 1520.0, 1519.0, 1519.0, 1520.0, 1519.0, 1520.0, 1519.0, 1519.0, 1520.0, 1519.0, 1519.0, 1519.0, 1519.0, 1519.0, 1519.0, 1519.0, 1518.0, 1518.0, 1519.0, 1519.0, 1518.0, 1519.0, 1519.0, 1518.0, 1519.0, 1519.0, 1518.0, 1519.0, 1519.0, 1519.0, 1519.0, 1519.0, 1518.0, 1518.0, 1518.0, 1519.0, 1518.0, 1518.0, 1518.0, 1518.0, 1517.0, 1517.0, 1518.0, 1516.0, 1517.0, 1517.0, 1517.0, 1516.0, 1517.0, 1517.0, 1516.0, 1515.0, 1516.0, 1516.0, 1515.0, 1516.0, 1516.0, 1516.0, 1515.0, 1515.0, 1515.0, 1515.0, 1515.0, 1515.0, 1515.0, 1515.0, 1515.0, 1513.0, 1514.0, 1514.0, 1514.0, 1514.0, 1515.0, 1514.0, 1514.0, 1515.0, 1513.0, 1513.0, 1513.0, 1513.0, 1513.0, 1514.0, 1514.0, 1514.0, 1514.0, 1513.0, 1514.0, 1515.0, 1513.0, 1514.0, 1513.0, 1513.0, 1512.0, 1513.0, 1514.0, 1513.0, 1513.0, 1513.0, 1513.0, 1513.0, 1512.0, 1513.0, 1513.0, 1513.0, 1512.0, 1511.0, 1513.0, 1513.0, 1512.0, 1512.0, 1511.0, 1512.0, 1513.0, 1512.0, 1513.0, 1511.0, 1511.0, 1512.0, 1511.0, 1512.0, 1511.0, 1511.0, 1511.0, 1511.0, 1511.0, 1511.0, 1511.0, 1511.0, 1511.0, 1511.0, 1510.0, 1511.0, 1511.0, 1510.0, 1510.0, 1511.0, 1510.0, 1511.0, 1510.0, 1511.0, 1511.0, 1509.0, 1509.0, 1509.0, 1509.0, 1509.0, 1510.0, 1509.0, 1509.0, 1509.0, 1510.0, 1509.0, 1509.0, 1509.0, 1509.0, 1508.0, 1508.0, 1509.0, 1509.0, 1508.0, 1508.0, 1508.0, 1508.0, 1507.0, 1508.0, 1508.0, 1508.0, 1508.0, 1508.0, 1508.0, 1507.0, 1508.0, 1507.0, 1508.0, 1507.0, 1508.0, 1507.0, 1507.0, 1507.0, 1508.0, 1508.0, 1507.0, 1507.0, 1508.0, 1507.0, 1507.0, 1507.0, 1507.0, 1508.0, 1507.0, 1507.0, 1507.0, 1507.0, 1507.0],
      "WindowWidth": [3425.0, 3424.0, 3424.0, 3424.0, 3424.0, 3424.0, 3424.0, 3423.0, 3423.0, 3423.0, 3423.0, 3423.0, 3423.0, 3423.0, 3422.0, 3423.0, 3423.0, 3423.0, 3422.0, 3423.0, 3422.0, 3422.0, 3422.0, 3422.0, 3422.0, 3421.0, 3422.0, 3421.0, 3421.0, 3422.0, 3421.0, 3421.0, 3421.0, 3421.0, 3421.0, 3421.0, 3421.0, 3421.0, 3421.0, 3421.0, 3420.0, 3420.0, 3420.0, 3420.0, 3421.0, 3420.0, 3420.0, 3420.0, 3420.0, 3420.0, 3420.0, 3420.0, 3420.0, 3420.0, 3420.0, 3420.0, 3420.0, 3420.0, 3419.0, 3419.0, 3420.0, 3419.0, 3419.0, 3419.0, 3419.0, 3419.0, 3419.0, 3419.0, 3419.0, 3419.0, 3419.0, 3419.0, 3419.0, 3419.0, 3419.0, 3419.0, 3419.0, 3419.0, 3418.0, 3419.0, 3419.0, 3418.0, 3419.0, 3419.0, 3419.0, 3419.0, 3419.0, 3418.0, 3418.0, 3418.0, 3418.0, 3419.0, 3418.0, 3418.0, 3418.0, 3418.0, 3418.0, 3418.0, 3418.0, 3418.0, 3418.0, 3418.0, 3418.0, 3418.0, 3418.0, 3417.0, 3418.0, 3417.0, 3417.0, 3417.0, 3418.0, 3418.0, 3417.0, 3417.0, 3418.0, 3418.0, 3417.0, 3418.0, 3417.0, 3417.0, 3417.0, 3417.0, 3417.0, 3417.0, 3417.0, 3417.0, 3417.0, 3417.0, 3417.0, 3417.0, 3417.0, 3417.0, 3417.0, 3417.0, 3417.0, 3417.0, 3417.0, 3417.0, 3417.0, 3417.0, 3417.0, 3417.0, 3417.0, 3417.0, 3417.0, 3417.0, 3417.0, 3417.0, 3417.0, 3417.0, 3417.0, 3417.0, 3416.0, 3417.0, 3417.0, 3417.0, 3416.0, 3417.0, 3417.0, 3417.0, 3417.0, 3417.0, 3417.0, 3417.0, 3416.0, 3417.0, 3417.0, 3417.0, 3417.0, 3417.0, 3417.0, 3416.0, 3416.0, 3417.0, 3416.0, 3416.0, 3417.0, 3416.0, 3416.0, 3416.0, 3416.0, 3416.0, 3416.0, 3416.0, 3416.0, 3416.0, 3416.0, 3416.0, 3416.0, 3416.0, 3416.0, 3416.0, 3416.0, 3416.0, 3416.0, 3416.0, 3416.0, 3416.0, 3416.0, 3416.0]
    },
    "slices": {}
  }
}