{
  "AcquisitionMatrixPE": 80,
  "AcquisitionNumber": 1,
  "AcquisitionTime": "09:40:9.060000",
  "BandwidthPerPixelPhaseEncode": 48.077,
  "BaseResolution": 80,
  "BodyPartExamined": "BRAIN",
  "CoilCombinationMethod": "Sum of Squares",
  "ConsistencyInfo": "N4_VE11C_LATEST_20160120",
  "ConversionSoftware": "dcm2niix",
  "ConversionSoftwareVersion": "v1.0.20220720",
  "DerivedVendorReportedEchoSpacing": 0.000519999,
  "DeviceSerialNumber": "66112",
  "DwellTime": 2.7e-06,
  "EchoTime": 0.035,
  "EchoTrainLength": 39,
  "EffectiveEchoSpacing": 0.00026,
  "FlipAngle": 90,
  "HeudiconvVersion": "0.13.1",
  "ImageOrientationPatientDICOM": [0.988357, 0.151786, 0.0105394, -0.147887, 0.942066, 0.301067],
  "ImageOrientationText": "Tra>Cor(17.4)>Sag(-2.0)",
  "ImageType": [
    "ORIGINAL",
    "PRIMARY",
    "M",
    "ND",
    "NORM",
    "MOSAIC"
],
  "ImagingFrequency": 123.252,
  "InPlanePhaseEncodingDirectionDICOM": "COL",
  "InstitutionAddress": "Maynard 3,Hanover,NH,US,03755",
  "InstitutionName": "Dartmouth College - PBS",
  "InstitutionalDepartmentName": "Department",
  "MRAcquisitionType": "2D",
  "MagneticFieldStrength": 3,
  "Manufacturer": "Siemens",
  "ManufacturersModelName": "Prisma",
  "MatrixCoilMode": "GRAPPA",
  "Modality": "MR",
  "NonlinearGradientCorrection": false,
  "ParallelReductionFactorInPlane": 2,
  "PartialFourier": 1,
  "PatientPosition": "HFS",
  "PercentPhaseFOV": 100,
  "PercentSampling": 100,
  "PhaseEncodingDirection": "j-",
  "PhaseEncodingSteps": 79,
  "PhaseResolution": 1,
  "PixelBandwidth": 2315,
  "ProcedureStepDescription": "dbic^QA",
  "ProtocolName": "func-bold_task-rest_acq-p2",
  "PulseSequenceDetails": "%SiemensSeq%\\ep2d_bold",
  "ReceiveCoilActiveElements": "HEA;HEP",
  "ReceiveCoilName": "Head_32",
  "ReconMatrixPE": 80,
  "RefLinesPE": 24,
  "RepetitionTime": 2,
  "SAR": 0.0557691,
  "ScanOptions": "FS",
  "ScanningSequence": "EP",
  "SequenceName": "*epfid2d1_80",
  "SequenceVariant": "SK",
  "SeriesDescription": "func-bold_task-rest_acq-p2",
  "SeriesNumber": 5,
  "ShimSetting": [4148, -7695, -7522, 251, -31, -86, -41, 71],
  "SliceThickness": 3.5,
  "SliceTiming": [0.99, 0, 1.055, 0.065, 1.1225, 0.1325, 1.1875, 0.1975, 1.255, 0.265, 1.32, 0.33, 1.385, 0.395, 1.4525, 0.4625, 1.5175, 0.5275, 1.585, 0.595, 1.65, 0.66, 1.715, 0.725, 1.7825, 0.7925, 1.8475, 0.8575, 1.915, 0.925],
  "SoftwareVersions": "syngo MR E11",
  "SpacingBetweenSlices": 3.99,
  "StationName": "AWP66112",
  "TaskName": "rest",
  "TotalReadoutTime": 0.02054,
  "TxRefAmp": 225.639,
  "dcmmeta_affine": [
    [-2.965071678161621, -0.4436618685722351, -0.14271798729896545, 145.13230895996094],
    [-0.45535796880722046, 2.826197385787964, 1.1934903860092163, -103.97456359863281],
    [0.031618282198905945, -0.9032010436058044, 3.8046436309814453, -14.022442817687988],
    [0.0, 0.0, 0.0, 1.0]
],
  "dcmmeta_reorient_transform": [
    [0.0, -1.0, 0.0, 79.0],
    [1.0, 0.0, 0.0, 0.0],
    [0.0, 0.0, 1.0, 0.0],
    [0.0, 0.0, 0.0, 1.0]
],
  "dcmmeta_shape": [80, 80, 30, 200],
  "dcmmeta_slice_dim": 2,
  "dcmmeta_version": 0.6,
  "global": {
    "const": {
      "AccessionNumber": "qa",
      "AcquisitionMatrix": [80, 0, 0, 80],
      "AngioFlag": "N",
      "BitsAllocated": 16,
      "BitsStored": 12,
      "BodyPartExamined": "BRAIN",
      "Columns": 480,
      "EchoNumbers": 1,
      "EchoTime": 35.0,
      "EchoTrainLength": 39,
      "FlipAngle": 90.0,
      "HighBit": 11,
      "ImageOrientationPatient": [0.98835718960365, 0.15178598821897, 0.01053942783834, -0.147887289004, 0.94206581937031, 0.30106700537454],
      "ImagePositionPatient": [-614.36495864263, -775.60611644383, -272.33918348798],
      "ImageType": [
        "ORIGINAL",
        "PRIMARY",
        "M",
        "ND",
        "NORM",
        "MOSAIC"
],
      "ImagedNucleus": "1H",
      "ImagingFrequency": 123.252332,
      "InPlanePhaseEncodingDirection": "COL",
      "MRAcquisitionType": "2D",
      "MagneticFieldStrength": 3.0,
      "Manufacturer": "SIEMENS",
      "ManufacturerModelName": "Prisma",
      "Modality": "MR",
      "NumberOfAverages": 1.0,
      "NumberOfPhaseEncodingSteps": 79,
      "PercentPhaseFieldOfView": 100.0,
      "PercentSampling": 100.0,
      "PerformedProcedureStepStartTime": "093653.822000",
      "PhotometricInterpretation": "MONOCHROME2",
      "PixelBandwidth": 2315.0,
      "PixelRepresentation": 0,
      "PixelSpacing": [3.0, 3.0],
      "ProtocolName": "func-bold_task-rest_acq-p2",
      "RepetitionTime": 2000.0,
      "Rows": 480,
      "SAR": 0.05576913488467,
      "SamplesPerPixel": 1,
      "ScanOptions": "FS",
      "ScanningSequence": "EP",
      "SequenceName": "*epfid2d1_80",
      "SequenceVariant": "SK",
      "SeriesDescription": "func-bold_task-rest_acq-p2",
      "SeriesNumber": 5,
      "SeriesTime": "094052.918000",
      "SliceLocation": -49.66316544858,
      "SliceThickness": 3.5,
      "SmallestImagePixelValue": 0,
      "SoftwareVersions": "syngo MR E11",
      "SpacingBetweenSlices": 3.9900000406145,
      "SpecificCharacterSet": "ISO_IR 100",
      "StudyID": "9",
      "StudyTime": "093653.772000",
      "TransmitCoilName": "Body",
      "VariableFlipAngleFlag": "N",
      "WindowCenterWidthExplanation": "Algo1",
      "dBdt": 0.0},
    "slices": {}
  },
  "time": {
    "samples": {
      "AcquisitionNumber": [1, 2, 3, 4, 5, 6, 7, 8, 9, 10, 11, 12, 13, 14, 15, 16, 17, 18, 19, 20, 21, 22, 23, 24, 25, 26, 27, 28, 29, 30, 31, 32, 33, 34, 35, 36, 37, 38, 39, 40, 41, 42, 43, 44, 45, 46, 47, 48, 49, 50, 51, 52, 53, 54, 55, 56, 57, 58, 59, 60, 61, 62, 63, 64, 65, 66, 67, 68, 69, 70, 71, 72, 73, 74, 75, 76, 77, 78, 79, 80, 81, 82, 83, 84, 85, 86, 87, 88, 89, 90, 91, 92, 93, 94, 95, 96, 97, 98, 99, 100, 101, 102, 103, 104, 105, 106, 107, 108, 109, 110, 111, 112, 113, 114, 115, 116, 117, 118, 119, 120, 121, 122, 123, 124, 125, 126, 127, 128, 129, 130, 131, 132, 133, 134, 135, 136, 137, 138, 139, 140, 141, 142, 143, 144, 145, 146, 147, 148, 149, 150, 151, 152, 153, 154, 155, 156, 157, 158, 159, 160, 161, 162, 163, 164, 165, 166, 167, 168, 169, 170, 171, 172, 173, 174, 175, 176, 177, 178, 179, 180, 181, 182, 183, 184, 185, 186, 187, 188, 189, 190, 191, 192, 193, 194, 195, 196, 197, 198, 199, 200],
      "AcquisitionTime": ["094009.060000", "094011.060000", "094013.060000", "094015.060000", "094017.060000", "094019.060000", "094021.060000", "094023.060000", "094025.060000", "094027.060000", "094029.060000", "094031.060000", "094033.060000", "094035.060000", "094037.060000", "094039.060000", "094041.060000", "094043.060000", "094045.060000", "094047.060000", "094049.060000", "094051.060000", "094053.060000", "094055.060000", "094057.060000", "094059.060000", "094101.060000", "094103.060000", "094105.060000", "094107.060000", "094109.060000", "094111.060000", "094113.060000", "094115.060000", "094117.060000", "094119.060000", "094121.060000", "094123.060000", "094125.060000", "094127.060000", "094129.060000", "094131.060000", "094133.060000", "094135.060000", "094137.060000", "094139.060000", "094141.060000", "094143.060000", "094145.060000", "094147.060000", "094149.060000", "094151.060000", "094153.060000", "094155.060000", "094157.060000", "094159.060000", "094201.060000", "094203.060000", "094205.060000", "094207.060000", "094209.060000", "094211.060000", "094213.060000", "094215.060000", "094217.060000", "094219.060000", "094221.060000", "094223.060000", "094225.060000", "094227.060000", "094229.060000", "094231.060000", "094233.060000", "094235.060000", "094237.060000", "094239.060000", "094241.060000", "094243.060000", "094245.060000", "094247.060000", "094249.060000", "094251.060000", "094253.060000", "094255.060000", "094257.060000", "094259.060000", "094301.060000", "094303.060000", "094305.060000", "094307.060000", "094309.060000", "094311.060000", "094313.060000", "094315.060000", "094317.060000", "094319.060000", "094321.060000", "094323.060000", "094325.060000", "094327.060000", "094329.060000", "094331.060000", "094333.060000", "094335.060000", "094337.060000", "094339.060000", "094341.060000", "094343.060000", "094345.060000", "094347.060000", "094349.060000", "094351.060000", "094353.060000", "094355.060000", "094357.060000", "094359.060000", "094401.060000", "094403.060000", "094405.060000", "094407.060000", "094409.060000", "094411.060000", "094413.060000", "094415.060000", "094417.060000", "094419.060000", "094421.060000", "094423.060000", "094425.060000", "094427.060000", "094429.060000", "094431.060000", "094433.060000", "094435.060000", "094437.060000", "094439.060000", "094441.060000", "094443.060000", "094445.060000", "094447.060000", "094449.060000", "094451.060000", "094453.060000", "094455.060000", "094457.060000", "094459.060000", "094501.060000", "094503.060000", "094505.060000", "094507.060000", "094509.060000", "094511.060000", "094513.060000", "094515.060000", "094517.060000", "094519.060000", "094521.060000", "094523.060000", "094525.060000", "094527.060000", "094529.060000", "094531.060000", "094533.060000", "094535.060000", "094537.060000", "094539.060000", "094541.060000", "094543.060000", "094545.060000", "094547.060000", "094549.060000", "094551.060000", "094553.060000", "094555.060000", "094557.060000", "094559.060000", "094601.060000", "094603.060000", "094605.060000", "094607.060000", "094609.060000", "094611.060000", "094613.060000", "094615.060000", "094617.060000", "094619.060000", "094621.060000", "094623.060000", "094625.060000", "094627.060000", "094629.060000", "094631.060000", "094633.060000", "094635.060000", "094637.060000", "094639.060000", "094641.060000", "094643.060000", "094645.060000", "094647.060000"],
      "ContentTime": ["094052.921000", "094052.925000", "094052.927000", "094052.930000", "094052.932000", "094052.939000", "094052.941000", "094052.944000", "094052.946000", "094052.948000", "094052.951000", "094052.953000", "094052.956000", "094052.958000", "094052.961000", "094052.963000", "094052.966000", "094052.968000", "094052.971000", "094052.973000", "094052.976000", "094052.978000", "094132.917000", "094132.919000", "094132.922000", "094132.924000", "094132.927000", "094132.929000", "094132.932000", "094132.934000", "094132.937000", "094132.939000", "094132.942000", "094132.944000", "094132.947000", "094132.949000", "094132.951000", "094132.954000", "094132.956000", "094132.959000", "094132.961000", "094132.964000", "094212.917000", "094212.919000", "094212.922000", "094212.927000", "094212.929000", "094212.932000", "094212.934000", "094212.937000", "094212.939000", "094212.942000", "094212.944000", "094212.947000", "094212.949000", "094212.952000", "094212.954000", "094212.957000", "094212.959000", "094212.962000", "094212.964000", "094212.967000", "094252.916000", "094252.919000", "094252.922000", "094252.924000", "094252.927000", "094252.929000", "094252.932000", "094252.934000", "094252.937000", "094252.939000", "094252.942000", "094252.944000", "094252.947000", "094252.949000", "094252.952000", "094252.954000", "094252.957000", "094252.959000", "094252.962000", "094252.964000", "094332.916000", "094332.919000", "094332.922000", "094332.924000", "094332.927000", "094332.929000", "094332.932000", "094332.934000", "094332.937000", "094332.939000", "094332.942000", "094332.944000", "094332.947000", "094332.949000", "094332.952000", "094332.954000", "094332.957000", "094332.959000", "094332.962000", "094332.964000", "094412.916000", "094412.919000", "094412.922000", "094412.924000", "094412.927000", "094412.929000", "094412.932000", "094412.934000", "094412.950000", "094412.952000", "094412.955000", "094412.957000", "094412.960000", "094412.963000", "094412.965000", "094412.967000", "094412.970000", "094412.973000", "094412.975000", "094412.978000", "094452.916000", "094452.919000", "094452.922000", "094452.924000", "094452.927000", "094452.929000", "094452.932000", "094452.934000", "094452.937000", "094452.939000", "094452.942000", "094452.944000", "094452.947000", "094452.949000", "094452.952000", "094452.954000", "094452.957000", "094452.959000", "094452.962000", "094452.964000", "094532.916000", "094532.919000", "094532.922000", "094532.924000", "094532.927000", "094532.929000", "094532.932000", "094532.934000", "094532.937000", "094532.939000", "094532.942000", "094532.944000", "094532.947000", "094532.949000", "094532.952000", "094532.954000", "094532.957000", "094532.959000", "094532.962000", "094532.964000", "094612.916000", "094612.919000", "094612.922000", "094612.924000", "094612.927000", "094612.929000", "094612.933000", "094612.935000", "094612.938000", "094612.940000", "094612.943000", "094612.945000", "094612.948000", "094612.950000", "094612.953000", "094612.955000", "094612.958000", "094612.960000", "094612.963000", "094612.965000", "094648.559000", "094648.562000", "094648.564000", "094648.567000", "094648.570000", "094648.572000", "094648.575000", "094648.577000", "094648.580000", "094648.583000", "094648.585000", "094648.588000", "094648.595000", "094648.598000", "094648.605000", "094648.610000", "094648.613000", "094648.616000"],
      "InstanceCreationTime": ["094052.921000", "094052.925000", "094052.927000", "094052.930000", "094052.932000", "094052.939000", "094052.941000", "094052.944000", "094052.946000", "094052.948000", "094052.951000", "094052.953000", "094052.956000", "094052.958000", "094052.961000", "094052.963000", "094052.966000", "094052.968000", "094052.971000", "094052.973000", "094052.976000", "094052.978000", "094132.917000", "094132.919000", "094132.922000", "094132.924000", "094132.927000", "094132.929000", "094132.932000", "094132.934000", "094132.937000", "094132.939000", "094132.942000", "094132.944000", "094132.947000", "094132.949000", "094132.951000", "094132.954000", "094132.956000", "094132.959000", "094132.961000", "094132.964000", "094212.917000", "094212.919000", "094212.922000", "094212.927000", "094212.929000", "094212.932000", "094212.934000", "094212.937000", "094212.939000", "094212.942000", "094212.944000", "094212.947000", "094212.949000", "094212.952000", "094212.954000", "094212.957000", "094212.959000", "094212.962000", "094212.964000", "094212.967000", "094252.916000", "094252.919000", "094252.922000", "094252.924000", "094252.927000", "094252.929000", "094252.932000", "094252.934000", "094252.937000", "094252.939000", "094252.942000", "094252.944000", "094252.947000", "094252.949000", "094252.952000", "094252.954000", "094252.957000", "094252.959000", "094252.962000", "094252.964000", "094332.916000", "094332.919000", "094332.922000", "094332.924000", "094332.927000", "094332.929000", "094332.932000", "094332.934000", "094332.937000", "094332.939000", "094332.942000", "094332.944000", "094332.947000", "094332.949000", "094332.952000", "094332.954000", "094332.957000", "094332.959000", "094332.962000", "094332.964000", "094412.916000", "094412.919000", "094412.922000", "094412.924000", "094412.927000", "094412.929000", "094412.932000", "094412.934000", "094412.950000", "094412.952000", "094412.955000", "094412.957000", "094412.960000", "094412.963000", "094412.965000", "094412.967000", "094412.970000", "094412.973000", "094412.975000", "094412.978000", "094452.916000", "094452.919000", "094452.922000", "094452.924000", "094452.927000", "094452.929000", "094452.932000", "094452.934000", "094452.937000", "094452.939000", "094452.942000", "094452.944000", "094452.947000", "094452.949000", "094452.952000", "094452.954000", "094452.957000", "094452.959000", "094452.962000", "094452.964000", "094532.916000", "094532.919000", "094532.922000", "094532.924000", "094532.927000", "094532.929000", "094532.932000", "094532.934000", "094532.937000", "094532.939000", "094532.942000", "094532.944000", "094532.947000", "094532.949000", "094532.952000", "094532.954000", "094532.957000", "094532.959000", "094532.962000", "094532.964000", "094612.916000", "094612.919000", "094612.922000", "094612.924000", "094612.927000", "094612.929000", "094612.933000", "094612.935000", "094612.938000", "094612.940000", "094612.943000", "094612.945000", "094612.948000", "094612.950000", "094612.953000", "094612.955000", "094612.958000", "094612.960000", "094612.963000", "094612.965000", "094648.559000", "094648.562000", "094648.564000", "094648.567000", "094648.570000", "094648.572000", "094648.575000", "094648.577000", "094648.580000", "094648.583000", "094648.585000", "094648.588000", "094648.595000", "094648.598000", "094648.605000", "094648.610000", "094648.613000", "094648.616000"],
      "InstanceNumber": [1, 2, 3, 4, 5, 6, 7, 8, 9, 10, 11, 12, 13, 14, 15, 16, 17, 18, 19, 20, 21, 22, 23, 24, 25, 26, 27, 28, 29, 30, 31, 32, 33, 34, 35, 36, 37, 38, 39, 40, 41, 42, 43, 44, 45, 46, 47, 48, 49, 50, 51, 52, 53, 54, 55, 56, 57, 58, 59, 60, 61, 62, 63, 64, 65, 66, 67, 68, 69, 70, 71, 72, 73, 74, 75, 76, 77, 78, 79, 80, 81, 82, 83, 84, 85, 86, 87, 88, 89, 90, 91, 92, 93, 94, 95, 96, 97, 98, 99, 100, 101, 102, 103, 104, 105, 106, 107, 108, 109, 110, 111, 112, 113, 114, 115, 116, 117, 118, 119, 120, 121, 122, 123, 124, 125, 126, 127, 128, 129, 130, 131, 132, 133, 134, 135, 136, 137, 138, 139, 140, 141, 142, 143, 144, 145, 146, 147, 148, 149, 150, 151, 152, 153, 154, 155, 156, 157, 158, 159, 160, 161, 162, 163, 164, 165, 166, 167, 168, 169, 170, 171, 172, 173, 174, 175, 176, 177, 178, 179, 180, 181, 182, 183, 184, 185, 186, 187, 188, 189, 190, 191, 192, 193, 194, 195, 196, 197, 198, 199, 200],
      "LargestImagePixelValue": [2148, 2148, 2164, 2155, 2156, 2145, 2146, 2146, 2153, 2153, 2150, 2147, 2145, 2146, 2148, 2154, 2150, 2160, 2154, 2151, 2156, 2159, 2161, 2154, 2152, 2149, 2158, 2158, 2155, 2149, 2151, 2155, 2158, 2143, 2147, 2145, 2153, 2157, 2147, 2149, 2152, 2147, 2147, 2151, 2151, 2152, 2149, 2146, 2147, 2147, 2147, 2153, 2150, 2152, 2150, 2151, 2151, 2151, 2148, 2147, 2145, 2149, 2148, 2152, 2150, 2149, 2150, 2150, 2157, 2153, 2149, 2151, 2146, 2154, 2145, 2143, 2142, 2144, 2147, 2142, 2149, 2146, 2145, 2141, 2141, 2141, 2150, 2152, 2154, 2144, 2152, 2150, 2149, 2142, 2154, 2151, 2145, 2145, 2148, 2143, 2144, 2147, 2145, 2143, 2140, 2142, 2143, 2145, 2148, 2143, 2148, 2143, 2146, 2140, 2136, 2140, 2147, 2138, 2139, 2144, 2147, 2145, 2144, 2147, 2145, 2145, 2142, 2150, 2141, 2145, 2147, 2141, 2143, 2137, 2142, 2141, 2145, 2147, 2145, 2148, 2151, 2149, 2147, 2147, 2146, 2145, 2142, 2148, 2145, 2145, 2148, 2140, 2146, 2138, 2151, 2141, 2144, 2145, 2148, 2144, 2149, 2145, 2156, 2144, 2143, 2138, 2144, 2149, 2139, 2156, 2144, 2149, 2142, 2143, 2141, 2143, 2143, 2146, 2142, 2148, 2141, 2145, 2140, 2144, 2139, 2142, 2138, 2140, 2143, 2143, 2139, 2149, 2152, 2143, 2143, 2141, 2149, 2150, 2144, 2146],
      "WindowCenter": [1022.0, 1022.0, 1022.0, 1022.0, 1022.0, 1022.0, 1021.0, 1021.0, 1022.0, 1021.0, 1022.0, 1021.0, 1022.0, 1022.0, 1022.0, 1022.0, 1022.0, 1023.0, 1021.0, 1023.0, 1022.0, 1021.0, 1023.0, 1022.0, 1022.0, 1022.0, 1022.0, 1021.0, 1022.0, 1022.0, 1021.0, 1021.0, 1022.0, 1021.0, 1022.0, 1021.0, 1021.0, 1021.0, 1022.0, 1021.0, 1022.0, 1021.0, 1022.0, 1021.0, 1020.0, 1022.0, 1021.0, 1021.0, 1021.0, 1021.0, 1021.0, 1022.0, 1021.0, 1021.0, 1020.0, 1020.0, 1020.0, 1021.0, 1020.0, 1021.0, 1021.0, 1021.0, 1020.0, 1021.0, 1020.0, 1021.0, 1021.0, 1021.0, 1020.0, 1022.0, 1021.0, 1021.0, 1021.0, 1022.0, 1021.0, 1020.0, 1022.0, 1020.0, 1021.0, 1021.0, 1022.0, 1020.0, 1021.0, 1021.0, 1021.0, 1021.0, 1021.0, 1020.0, 1020.0, 1021.0, 1021.0, 1021.0, 1020.0, 1021.0, 1021.0, 1021.0, 1021.0, 1020.0, 1020.0, 1020.0, 1022.0, 1021.0, 1020.0, 1020.0, 1021.0, 1021.0, 1021.0, 1021.0, 1021.0, 1021.0, 1021.0, 1021.0, 1022.0, 1021.0, 1020.0, 1020.0, 1021.0, 1020.0, 1021.0, 1021.0, 1022.0, 1020.0, 1021.0, 1021.0, 1022.0, 1020.0, 1020.0, 1021.0, 1022.0, 1021.0, 1021.0, 1021.0, 1022.0, 1022.0, 1020.0, 1021.0, 1021.0, 1021.0, 1021.0, 1021.0, 1021.0, 1021.0, 1022.0, 1021.0, 1022.0, 1020.0, 1020.0, 1020.0, 1021.0, 1021.0, 1021.0, 1021.0, 1021.0, 1021.0, 1021.0, 1021.0, 1021.0, 1022.0, 1021.0, 1021.0, 1021.0, 1021.0, 1021.0, 1021.0, 1020.0, 1021.0, 1021.0, 1021.0, 1021.0, 1021.0, 1021.0, 1021.0, 1021.0, 1021.0, 1020.0, 1021.0, 1020.0, 1020.0, 1021.0, 1022.0, 1021.0, 1021.0, 1021.0, 1020.0, 1021.0, 1022.0, 1021.0, 1021.0, 1021.0, 1021.0, 1021.0, 1021.0, 1021.0, 1020.0, 1020.0, 1020.0, 1021.0, 1020.0, 1021.0, 1020.0],
      "WindowWidth": [2269.0, 2268.0, 2268.0, 2268.0, 2267.0, 2268.0, 2266.0, 2267.0, 2267.0, 2267.0, 2267.0, 2267.0, 2267.0, 2267.0, 2267.0, 2267.0, 2267.0, 2268.0, 2266.0, 2268.0, 2267.0, 2266.0, 2268.0, 2267.0, 2267.0, 2267.0, 2267.0, 2266.0, 2267.0, 2267.0, 2266.0, 2266.0, 2267.0, 2266.0, 2267.0, 2267.0, 2267.0, 2267.0, 2267.0, 2267.0, 2267.0, 2266.0, 2267.0, 2267.0, 2266.0, 2267.0, 2266.0, 2266.0, 2267.0, 2266.0, 2266.0, 2267.0, 2266.0, 2266.0, 2266.0, 2266.0, 2266.0, 2266.0, 2265.0, 2266.0, 2266.0, 2266.0, 2265.0, 2266.0, 2265.0, 2266.0, 2266.0, 2266.0, 2265.0, 2266.0, 2266.0, 2266.0, 2266.0, 2267.0, 2266.0, 2265.0, 2266.0, 2265.0, 2266.0, 2266.0, 2266.0, 2265.0, 2265.0, 2265.0, 2265.0, 2265.0, 2265.0, 2265.0, 2265.0, 2265.0, 2265.0, 2265.0, 2265.0, 2265.0, 2265.0, 2265.0, 2265.0, 2265.0, 2264.0, 2265.0, 2266.0, 2265.0, 2265.0, 2265.0, 2265.0, 2265.0, 2265.0, 2265.0, 2265.0, 2265.0, 2265.0, 2265.0, 2266.0, 2265.0, 2264.0, 2264.0, 2265.0, 2264.0, 2265.0, 2265.0, 2266.0, 2264.0, 2265.0, 2265.0, 2265.0, 2264.0, 2264.0, 2265.0, 2266.0, 2265.0, 2265.0, 2265.0, 2265.0, 2265.0, 2264.0, 2265.0, 2265.0, 2265.0, 2265.0, 2265.0, 2265.0, 2264.0, 2265.0, 2265.0, 2266.0, 2264.0, 2264.0, 2264.0, 2264.0, 2265.0, 2265.0, 2264.0, 2264.0, 2264.0, 2264.0, 2265.0, 2264.0, 2265.0, 2264.0, 2264.0, 2264.0, 2265.0, 2265.0, 2265.0, 2264.0, 2264.0, 2265.0, 2264.0, 2264.0, 2264.0, 2264.0, 2264.0, 2264.0, 2264.0, 2264.0, 2264.0, 2264.0, 2264.0, 2264.0, 2265.0, 2264.0, 2264.0, 2264.0, 2264.0, 2264.0, 2265.0, 2264.0, 2264.0, 2264.0, 2265.0, 2264.0, 2264.0, 2264.0, 2264.0, 2264.0, 2264.0, 2264.0, 2264.0, 2264.0, 2264.0]
    },
    "slices": {}
  }
}