{
  "AcquisitionMatrixPE": 82,
  "AcquisitionNumber": 1,
  "AcquisitionTime": "09:49:47.487500",
  "BaseResolution": 82,
  "BodyPartExamined": "BRAIN",
  "CoilCombinationMethod": "Sum of Squares",
  "ConsistencyInfo": "N4_VE11C_LATEST_20160120",
  "ConversionSoftware": "dcm2niix",
  "ConversionSoftwareVersion": "v1.0.20220720",
  "DeviceSerialNumber": "66112",
  "DwellTime": 1.02e-05,
  "EchoNumber": 2,
  "EchoTime": 0.00738,
  "EchoTime1": 0.00492,
  "EchoTime2": 0.00738,
  "FlipAngle": 45,
  "HeudiconvVersion": "0.13.1",
  "ImageOrientationPatientDICOM": [1, 0, 2.834e-12, 0, 1, 4.044e-12],
  "ImageOrientationText": "Tra",
  "ImageType": [
    "ORIGINAL",
    "PRIMARY",
    "P",
    "ND",
    "PHASE"
],
  "ImagingFrequency": 123.252,
  "InPlanePhaseEncodingDirectionDICOM": "COL",
  "InstitutionAddress": "Maynard 3,Hanover,NH,US,03755",
  "InstitutionName": "Dartmouth College - PBS",
  "InstitutionalDepartmentName": "Department",
  "MRAcquisitionType": "2D",
  "MagneticFieldStrength": 3,
  "Manufacturer": "Siemens",
  "ManufacturersModelName": "Prisma",
  "MatrixCoilMode": "SENSE",
  "Modality": "MR",
  "NonlinearGradientCorrection": false,
  "PartialFourier": 1,
  "PatientPosition": "HFS",
  "PercentPhaseFOV": 100,
  "PercentSampling": 100,
  "PhaseEncodingDirection": "j-",
  "PhaseEncodingSteps": 82,
  "PhaseResolution": 1,
  "PixelBandwidth": 600,
  "ProcedureStepDescription": "dbic^QA",
  "ProtocolName": "fmap_dir-AP_acq-3mm",
  "PulseSequenceDetails": "%SiemensSeq%\\gre_field_mapping",
  "ReceiveCoilActiveElements": "HEA;HEP",
  "ReceiveCoilName": "Head_32",
  "ReconMatrixPE": 82,
  "RepetitionTime": 0.52,
  "SAR": 0.114539,
  "ScanningSequence": "GR",
  "SequenceName": "*fm2d2r",
  "SequenceVariant": "SP",
  "SeriesDescription": "fmap_dir-AP_acq-3mm",
  "SeriesNumber": 16,
  "ShimSetting": [4149, -7661, -7238, -1173, -147, -204, -35, 74],
  "SliceThickness": 3,
  "SliceTiming": [0.25781, 0, 0.27344, 0.00781, 0.28125, 0.02344, 0.29688, 0.03125, 0.30469, 0.04688, 0.3125, 0.05469, 0.32812, 0.0625, 0.33594, 0.07812, 0.34375, 0.08594, 0.35938, 0.10156, 0.36719, 0.10938, 0.375, 0.11719, 0.39062, 0.13281, 0.39844, 0.14062, 0.41406, 0.14844, 0.42188, 0.16406, 0.42969, 0.17188, 0.44531, 0.17969, 0.45312, 0.19531, 0.46875, 0.20312, 0.47656, 0.21875, 0.49219, 0.22656, 0.5, 0.24219, 0.50781, 0.25],
  "SoftwareVersions": "syngo MR E11",
  "SpacingBetweenSlices": 3,
  "StationName": "AWP66112",
  "TxRefAmp": 187.553,
  "dcmmeta_affine": [
    [-3.02439022064209, 0.0, 9.990230864787009e-12, 124.0],
    [0.0, 3.02439022064209, 1.000444171950221e-11, -120.9756088256836],
    [8.571122110667684e-12, -1.2230634040266697e-11, 3.0, -70.5],
    [0.0, 0.0, 0.0, 1.0]
],
  "dcmmeta_reorient_transform": [
    [0.0, -1.0, 0.0, 81.0],
    [1.0, 0.0, 0.0, 0.0],
    [0.0, 0.0, -1.0, 47.0],
    [0.0, 0.0, 0.0, 1.0]
],
  "dcmmeta_shape": [82, 82, 48],
  "dcmmeta_slice_dim": 2,
  "dcmmeta_version": 0.6,
  "global": {
    "const": {
      "AccessionNumber": "emmet",
      "AcquisitionMatrix": [82, 0, 0, 82],
      "AcquisitionNumber": 1,
      "AngioFlag": "N",
      "BitsAllocated": 16,
      "BitsStored": 12,
      "BodyPartExamined": "BRAIN",
      "Columns": 82,
      "EchoNumbers": 2,
      "EchoTime": 7.38,
      "EchoTrainLength": 0,
      "FlipAngle": 45.0,
      "HighBit": 11,
      "ImageOrientationPatient": [1.0, 0.0, 2.834e-12, 0.0, 1.0, 4.044e-12],
      "ImageType": [
        "ORIGINAL",
        "PRIMARY",
        "P",
        "ND"
],
      "ImagedNucleus": "1H",
      "ImagingFrequency": 123.252368,
      "InPlanePhaseEncodingDirection": "COL",
      "MRAcquisitionType": "2D",
      "MagneticFieldStrength": 3.0,
      "Manufacturer": "SIEMENS",
      "ManufacturerModelName": "Prisma",
      "Modality": "MR",
      "NumberOfAverages": 1.0,
      "NumberOfPhaseEncodingSteps": 82,
      "PercentPhaseFieldOfView": 100.0,
      "PercentSampling": 100.0,
      "PerformedProcedureStepStartTime": "092558.339000",
      "PhotometricInterpretation": "MONOCHROME2",
      "PixelBandwidth": 600.0,
      "PixelRepresentation": 0,
      "PixelSpacing": [3.0243902206421, 3.0243902206421],
      "ProtocolName": "fmap_dir-AP_acq-3mm",
      "RepetitionTime": 520.0,
      "RescaleIntercept": -4096.0,
      "RescaleSlope": 2.0,
      "RescaleType": "US",
      "Rows": 82,
      "SAR": 0.11453943267166,
      "SamplesPerPixel": 1,
      "ScanningSequence": "GR",
      "SequenceName": "*fm2d2r",
      "SequenceVariant": "SP",
      "SeriesDescription": "fmap_dir-AP_acq-3mm",
      "SeriesNumber": 16,
      "SeriesTime": "095113.176000",
      "SliceThickness": 3.0,
      "SoftwareVersions": "syngo MR E11",
      "SpacingBetweenSlices": 3.0,
      "SpecificCharacterSet": "ISO_IR 100",
      "StudyID": "4",
      "StudyTime": "092558.290000",
      "TransmitCoilName": "Body",
      "VariableFlipAngleFlag": "N",
      "WindowCenterWidthExplanation": "Algo1",
      "dBdt": 0.0},
    "slices": {
      "AcquisitionTime": ["094947.487500", "094947.227500", "094947.497500", "094947.237500", "094947.507500", "094947.247500", "094947.520000", "094947.260000", "094947.530000", "094947.270000", "094947.540000", "094947.280000", "094947.552500", "094947.292500", "094947.562500", "094947.302500", "094947.572500", "094947.312500", "094947.585000", "094947.325000", "094947.595000", "094947.335000", "094947.605000", "094947.345000", "094947.617500", "094947.357500", "094947.627500", "094947.367500", "094947.637500", "094947.377500", "094947.650000", "094947.390000", "094947.660000", "094947.400000", "094947.670000", "094947.410000", "094947.682500", "094947.422500", "094947.692500", "094947.432500", "094947.702500", "094947.442500", "094947.715000", "094947.455000", "094947.725000", "094947.465000", "094947.735000", "094947.475000"],
      "ContentTime": ["095113.226000", "095113.178000", "095113.228000", "095113.180000", "095113.230000", "095113.182000", "095113.232000", "095113.184000", "095113.233000", "095113.186000", "095113.235000", "095113.188000", "095113.237000", "095113.190000", "095113.239000", "095113.192000", "095113.241000", "095113.194000", "095113.243000", "095113.196000", "095113.245000", "095113.198000", "095113.247000", "095113.200000", "095113.249000", "095113.202000", "095113.251000", "095113.204000", "095113.253000", "095113.206000", "095113.255000", "095113.208000", "095113.257000", "095113.210000", "095113.259000", "095113.212000", "095113.261000", "095113.214000", "095113.263000", "095113.216000", "095113.265000", "095113.218000", "095113.267000", "095113.220000", "095113.269000", "095113.222000", "095113.271000", "095113.224000"],
      "CsaImage.ICE_Dims": [
        "X_2_1_1_1_1_1_25_1_1_1_1_49",
        "X_2_1_1_1_1_1_1_1_1_2_1_49",
        "X_2_1_1_1_1_1_26_1_1_3_1_49",
        "X_2_1_1_1_1_1_2_1_1_4_1_49",
        "X_2_1_1_1_1_1_27_1_1_5_1_49",
        "X_2_1_1_1_1_1_3_1_1_6_1_49",
        "X_2_1_1_1_1_1_28_1_1_7_1_49",
        "X_2_1_1_1_1_1_4_1_1_8_1_49",
        "X_2_1_1_1_1_1_29_1_1_9_1_49",
        "X_2_1_1_1_1_1_5_1_1_10_1_49",
        "X_2_1_1_1_1_1_30_1_1_11_1_49",
        "X_2_1_1_1_1_1_6_1_1_12_1_49",
        "X_2_1_1_1_1_1_31_1_1_13_1_49",
        "X_2_1_1_1_1_1_7_1_1_14_1_49",
        "X_2_1_1_1_1_1_32_1_1_15_1_49",
        "X_2_1_1_1_1_1_8_1_1_16_1_49",
        "X_2_1_1_1_1_1_33_1_1_17_1_49",
        "X_2_1_1_1_1_1_9_1_1_18_1_49",
        "X_2_1_1_1_1_1_34_1_1_19_1_49",
        "X_2_1_1_1_1_1_10_1_1_20_1_49",
        "X_2_1_1_1_1_1_35_1_1_21_1_49",
        "X_2_1_1_1_1_1_11_1_1_22_1_49",
        "X_2_1_1_1_1_1_36_1_1_23_1_49",
        "X_2_1_1_1_1_1_12_1_1_24_1_49",
        "X_2_1_1_1_1_1_37_1_1_25_1_49",
        "X_2_1_1_1_1_1_13_1_1_26_1_49",
        "X_2_1_1_1_1_1_38_1_1_27_1_49",
        "X_2_1_1_1_1_1_14_1_1_28_1_49",
        "X_2_1_1_1_1_1_39_1_1_29_1_49",
        "X_2_1_1_1_1_1_15_1_1_30_1_49",
        "X_2_1_1_1_1_1_40_1_1_31_1_49",
        "X_2_1_1_1_1_1_16_1_1_32_1_49",
        "X_2_1_1_1_1_1_41_1_1_33_1_49",
        "X_2_1_1_1_1_1_17_1_1_34_1_49",
        "X_2_1_1_1_1_1_42_1_1_35_1_49",
        "X_2_1_1_1_1_1_18_1_1_36_1_49",
        "X_2_1_1_1_1_1_43_1_1_37_1_49",
        "X_2_1_1_1_1_1_19_1_1_38_1_49",
        "X_2_1_1_1_1_1_44_1_1_39_1_49",
        "X_2_1_1_1_1_1_20_1_1_40_1_49",
        "X_2_1_1_1_1_1_45_1_1_41_1_49",
        "X_2_1_1_1_1_1_21_1_1_42_1_49",
        "X_2_1_1_1_1_1_46_1_1_43_1_49",
        "X_2_1_1_1_1_1_22_1_1_44_1_49",
        "X_2_1_1_1_1_1_47_1_1_45_1_49",
        "X_2_1_1_1_1_1_23_1_1_46_1_49",
        "X_2_1_1_1_1_1_48_1_1_47_1_49",
        "X_2_1_1_1_1_1_24_1_1_48_1_49"
],
      "CsaImage.ProtocolSliceNumber": [0, 1, 2, 3, 4, 5, 6, 7, 8, 9, 10, 11, 12, 13, 14, 15, 16, 17, 18, 19, 20, 21, 22, 23, 24, 25, 26, 27, 28, 29, 30, 31, 32, 33, 34, 35, 36, 37, 38, 39, 40, 41, 42, 43, 44, 45, 46, 47],
      "CsaImage.SlicePosition_PCS": [
        [-123.99999905, -123.99999905, -70.5],
        [-123.99999905, -123.99999905, -67.5],
        [-123.99999905, -123.99999905, -64.5],
        [-123.99999905, -123.99999905, -61.5],
        [-123.99999905, -123.99999905, -58.5],
        [-123.99999905, -123.99999905, -55.5],
        [-123.99999905, -123.99999905, -52.5],
        [-123.99999905, -123.99999905, -49.5],
        [-123.99999905, -123.99999905, -46.5],
        [-123.99999905, -123.99999905, -43.5],
        [-123.99999905, -123.99999905, -40.5],
        [-123.99999905, -123.99999905, -37.5],
        [-123.99999905, -123.99999905, -34.5],
        [-123.99999905, -123.99999905, -31.5],
        [-123.99999905, -123.99999905, -28.5],
        [-123.99999905, -123.99999905, -25.5],
        [-123.99999905, -123.99999905, -22.5],
        [-123.99999905, -123.99999905, -19.5],
        [-123.99999905, -123.99999905, -16.5],
        [-123.99999905, -123.99999905, -13.5],
        [-123.99999905, -123.99999905, -10.5],
        [-123.99999905, -123.99999905, -7.5],
        [-123.99999905, -123.99999905, -4.5],
        [-123.99999905, -123.99999905, -1.5],
        [-123.99999905, -123.99999905, 1.5],
        [-123.99999905, -123.99999905, 4.5],
        [-123.99999905, -123.99999905, 7.5],
        [-123.99999905, -123.99999905, 10.5],
        [-123.99999905, -123.99999905, 13.5],
        [-123.99999905, -123.99999905, 16.5],
        [-123.99999905, -123.99999905, 19.5],
        [-123.99999905, -123.99999905, 22.5],
        [-123.99999905, -123.99999905, 25.5],
        [-123.99999905, -123.99999905, 28.5],
        [-123.99999905, -123.99999905, 31.5],
        [-123.99999905, -123.99999905, 34.5],
        [-123.99999905, -123.99999905, 37.5],
        [-123.99999905, -123.99999905, 40.5],
        [-123.99999905, -123.99999905, 43.5],
        [-123.99999905, -123.99999905, 46.5],
        [-123.99999905, -123.99999905, 49.5],
        [-123.99999905, -123.99999905, 52.5],
        [-123.99999905, -123.99999905, 55.5],
        [-123.99999905, -123.99999905, 58.5],
        [-123.99999905, -123.99999905, 61.5],
        [-123.99999905, -123.99999905, 64.5],
        [-123.99999905, -123.99999905, 67.5],
        [-123.99999905, -123.99999905, 70.5]
],
      "CsaImage.TimeAfterStart": [0.7825, 0.5225, 0.7925, 0.5325, 0.8025, 0.5425, 0.815, 0.555, 0.825, 0.565, 0.835, 0.575, 0.8475, 0.5875, 0.8575, 0.5975, 0.8675, 0.6075, 0.88, 0.62, 0.89, 0.63, 0.9, 0.64, 0.9125, 0.6525, 0.9225, 0.6625, 0.9325, 0.6725, 0.945, 0.685, 0.955, 0.695, 0.965, 0.705, 0.9775, 0.7175, 0.9875, 0.7275, 0.9975, 0.7375, 1.01, 0.75, 1.02, 0.76, 1.03, 0.77],
      "ImagePositionPatient": [
        [-123.99999904613, -123.99999904604, -70.500000000853],
        [-123.99999904613, -123.99999904605, -67.500000000853],
        [-123.99999904614, -123.99999904606, -64.500000000853],
        [-123.99999904615, -123.99999904608, -61.500000000853],
        [-123.99999904616, -123.99999904609, -58.500000000853],
        [-123.99999904617, -123.9999990461, -55.500000000853],
        [-123.99999904618, -123.99999904611, -52.500000000853],
        [-123.99999904619, -123.99999904613, -49.500000000853],
        [-123.99999904619, -123.99999904614, -46.500000000853],
        [-123.9999990462, -123.99999904615, -43.500000000853],
        [-123.99999904621, -123.99999904616, -40.500000000853],
        [-123.99999904622, -123.99999904617, -37.500000000853],
        [-123.99999904623, -123.99999904619, -34.500000000853],
        [-123.99999904624, -123.9999990462, -31.500000000853],
        [-123.99999904624, -123.99999904621, -28.500000000853],
        [-123.99999904625, -123.99999904622, -25.500000000853],
        [-123.99999904626, -123.99999904623, -22.500000000853],
        [-123.99999904627, -123.99999904625, -19.500000000853],
        [-123.99999904628, -123.99999904626, -16.500000000853],
        [-123.99999904629, -123.99999904627, -13.500000000853],
        [-123.9999990463, -123.99999904628, -10.500000000853],
        [-123.9999990463, -123.9999990463, -7.5000000008529],
        [-123.99999904631, -123.99999904631, -4.5000000008529],
        [-123.99999904632, -123.99999904632, -1.5000000008529],
        [-123.99999904633, -123.99999904633, 1.4999999991471],
        [-123.99999904634, -123.99999904634, 4.4999999991471],
        [-123.99999904635, -123.99999904636, 7.4999999991471],
        [-123.99999904636, -123.99999904637, 10.499999999147],
        [-123.99999904636, -123.99999904638, 13.499999999147],
        [-123.99999904637, -123.99999904639, 16.499999999147],
        [-123.99999904638, -123.9999990464, 19.499999999147],
        [-123.99999904639, -123.99999904642, 22.499999999147],
        [-123.9999990464, -123.99999904643, 25.499999999147],
        [-123.99999904641, -123.99999904644, 28.499999999147],
        [-123.99999904641, -123.99999904645, 31.499999999147],
        [-123.99999904642, -123.99999904647, 34.499999999147],
        [-123.99999904643, -123.99999904648, 37.499999999147],
        [-123.99999904644, -123.99999904649, 40.499999999147],
        [-123.99999904645, -123.9999990465, 43.499999999147],
        [-123.99999904646, -123.99999904651, 46.499999999147],
        [-123.99999904647, -123.99999904653, 49.499999999147],
        [-123.99999904647, -123.99999904654, 52.499999999147],
        [-123.99999904648, -123.99999904655, 55.499999999147],
        [-123.99999904649, -123.99999904656, 58.499999999147],
        [-123.9999990465, -123.99999904657, 61.499999999147],
        [-123.99999904651, -123.99999904659, 64.499999999147],
        [-123.99999904652, -123.9999990466, 67.499999999147],
        [-123.99999904653, -123.99999904661, 70.499999999147]
],
      "InstanceCreationTime": ["095113.226000", "095113.178000", "095113.228000", "095113.180000", "095113.230000", "095113.182000", "095113.232000", "095113.184000", "095113.233000", "095113.186000", "095113.235000", "095113.188000", "095113.237000", "095113.190000", "095113.239000", "095113.192000", "095113.241000", "095113.194000", "095113.243000", "095113.196000", "095113.245000", "095113.198000", "095113.247000", "095113.200000", "095113.249000", "095113.202000", "095113.251000", "095113.204000", "095113.253000", "095113.206000", "095113.255000", "095113.208000", "095113.257000", "095113.210000", "095113.259000", "095113.212000", "095113.261000", "095113.214000", "095113.263000", "095113.216000", "095113.265000", "095113.218000", "095113.267000", "095113.220000", "095113.269000", "095113.222000", "095113.271000", "095113.224000"],
      "InstanceNumber": [1, 2, 3, 4, 5, 6, 7, 8, 9, 10, 11, 12, 13, 14, 15, 16, 17, 18, 19, 20, 21, 22, 23, 24, 25, 26, 27, 28, 29, 30, 31, 32, 33, 34, 35, 36, 37, 38, 39, 40, 41, 42, 43, 44, 45, 46, 47, 48],
      "LargestImagePixelValue": [4090, 4093, 4092, 4084, 4081, 4085, 4091, 4083, 4095, 4091, 4093, 4090, 4095, 4094, 4090, 4092, 4094, 4086, 4094, 4091, 4088, 4094, 4091, 4087, 4092, 4094, 4091, 4095, 4088, 4080, 4090, 4092, 4064, 4092, 4089, 4095, 4091, 4094, 4084, 4091, 4082, 4089, 4088, 4094, 4092, 4095, 4095, 4094],
      "SliceLocation": [-70.5, -67.5, -64.5, -61.5, -58.5, -55.5, -52.5, -49.5, -46.5, -43.5, -40.5, -37.5, -34.5, -31.5, -28.5, -25.5, -22.5, -19.5, -16.5, -13.5, -10.5, -7.5, -4.5, -1.5, 1.5, 4.5, 7.5, 10.5, 13.5, 16.5, 19.5, 22.5, 25.5, 28.5, 31.5, 34.5, 37.5, 40.5, 43.5, 46.5, 49.5, 52.5, 55.5, 58.5, 61.5, 64.5, 67.5, 70.5],
      "SmallestImagePixelValue": [1, 12, 0, 0, 4, 0, 16, 0, 10, 0, 2, 8, 3, 8, 0, 4, 11, 1, 7, 0, 10, 1, 23, 0, 3, 6, 3, 0, 5, 3, 0, 3, 13, 10, 0, 1, 2, 0, 3, 9, 8, 14, 0, 6, 0, 0, 1, 0],
      "WindowCenter": [-230.0, -250.0, -142.0, -150.0, -120.0, -140.0, -98.0, -210.0, -202.0, -206.0, -194.0, -180.0, -188.0, -168.0, -166.0, -164.0, -138.0, -154.0, -184.0, -198.0, -204.0, -190.0, -98.0, -88.0, -54.0, -68.0, -66.0, -90.0, -104.0, -130.0, -168.0, -152.0, -224.0, -204.0, -258.0, -278.0, -278.0, -344.0, -350.0, -340.0, -384.0, -360.0, -406.0, -532.0, -600.0, -628.0, -490.0, -502.0],
      "WindowWidth": [5926.0, 5822.0, 5816.0, 5712.0, 5664.0, 5392.0, 5290.0, 4586.0, 4554.0, 4536.0, 4508.0, 4478.0, 4482.0, 4462.0, 4448.0, 4448.0, 4416.0, 4444.0, 4526.0, 4556.0, 4578.0, 4572.0, 5076.0, 5292.0, 5324.0, 5386.0, 5296.0, 5360.0, 5458.0, 5494.0, 5562.0, 5636.0, 5534.0, 5682.0, 5644.0, 5670.0, 5770.0, 5856.0, 5846.0, 5908.0, 5782.0, 5740.0, 5270.0, 4802.0, 4842.0, 4850.0, 4914.0, 5036.0]
    }
  }
}