{
  "AcquisitionMatrixPE": 82,
  "AcquisitionNumber": 1,
  "AcquisitionTime": "09:49:18.475000",
  "BandwidthPerPixelPhaseEncode": 23.452,
  "BaseResolution": 82,
  "BodyPartExamined": "BRAIN",
  "CoilCombinationMethod": "Sum of Squares",
  "ConsistencyInfo": "N4_VE11C_LATEST_20160120",
  "ConversionSoftware": "dcm2niix",
  "ConversionSoftwareVersion": "v1.0.20220720",
  "DerivedVendorReportedEchoSpacing": 0.000520003,
  "DeviceSerialNumber": "66112",
  "DiffusionScheme": "Monopolar",
  "DwellTime": 2.1e-06,
  "EchoTime": 0.073,
  "EchoTrainLength": 82,
  "EffectiveEchoSpacing": 0.000520003,
  "FlipAngle": 90,
  "HeudiconvVersion": "0.13.1",
  "ImageOrientationPatientDICOM": [1, 0, 2.834e-12, 0, 1, 4.044e-12],
  "ImageOrientationText": "Tra",
  "ImageType": [
    "ORIGINAL",
    "PRIMARY",
    "DIFFUSION",
    "NONE",
    "ND",
    "NORM"
],
  "ImagingFrequency": 123.252,
  "InPlanePhaseEncodingDirectionDICOM": "COL",
  "InstitutionAddress": "Maynard 3,Hanover,NH,US,03755",
  "InstitutionName": "Dartmouth College - PBS",
  "InstitutionalDepartmentName": "Department",
  "IntendedFor": [
    "ses-20180531/func/sub-emmet_ses-20180531_task-rest_acq-3mm_bold.nii.gz"
],
  "MRAcquisitionType": "2D",
  "MagneticFieldStrength": 3,
  "Manufacturer": "Siemens",
  "ManufacturersModelName": "Prisma",
  "MatrixCoilMode": "SENSE",
  "Modality": "MR",
  "NonlinearGradientCorrection": false,
  "PartialFourier": 1,
  "PatientPosition": "HFS",
  "PercentPhaseFOV": 100,
  "PercentSampling": 100,
  "PhaseEncodingDirection": "j-",
  "PhaseEncodingSteps": 82,
  "PhaseResolution": 1,
  "PixelBandwidth": 2905,
  "ProcedureStepDescription": "dbic^QA",
  "ProtocolName": "fmap_dir-AP_acq-topup-b0-3mm",
  "PulseSequenceDetails": "%SiemensSeq%\\ep2d_diff",
  "ReceiveCoilActiveElements": "HEA;HEP",
  "ReceiveCoilName": "Head_32",
  "ReconMatrixPE": 82,
  "RepetitionTime": 7.2,
  "SAR": 0.171167,
  "ScanOptions": "FS",
  "ScanningSequence": "EP",
  "SequenceName": "*ep_b0",
  "SequenceVariant": "SK\\SP",
  "SeriesDescription": "fmap_dir-AP_acq-topup-b0-3mm",
  "SeriesNumber": 13,
  "ShimSetting": [4149, -7661, -7238, -1173, -147, -204, -35, 74],
  "SliceThickness": 3,
  "SliceTiming": [3.59375, 0, 3.74219, 0.14844, 3.89062, 0.30469, 4.03906, 0.45312, 4.1875, 0.60156, 4.33594, 0.75, 4.49219, 0.89844, 4.64062, 1.04688, 4.78906, 1.20312, 4.9375, 1.34375, 5.08594, 1.5, 5.23438, 1.64844, 5.39062, 1.79688, 5.53906, 1.94531, 5.6875, 2.09375, 5.83594, 2.24219, 5.98438, 2.39844, 6.13281, 2.54688, 6.28125, 2.69531, 6.4375, 2.84375, 6.58594, 2.99219, 6.73438, 3.14062, 6.88281, 3.28906, 7.03125, 3.44531],
  "SoftwareVersions": "syngo MR E11",
  "SpacingBetweenSlices": 3,
  "SpoilingState": true,
  "StationName": "AWP66112",
  "TotalReadoutTime": 0.0421203,
  "TxRefAmp": 187.553,
  "dcmmeta_affine": [
    [-3.02439022064209, 0.0, 9.990230864787009e-12, 124.0],
    [0.0, 3.02439022064209, 1.000444171950221e-11, -120.9756088256836],
    [8.571122110667684e-12, -1.2230634040266697e-11, 3.0, -70.5],
    [0.0, 0.0, 0.0, 1.0]
],
  "dcmmeta_reorient_transform": [
    [0.0, -1.0, 0.0, 81.0],
    [1.0, 0.0, 0.0, 0.0],
    [0.0, 0.0, -1.0, 47.0],
    [0.0, 0.0, 0.0, 1.0]
],
  "dcmmeta_shape": [82, 82, 48],
  "dcmmeta_slice_dim": 2,
  "dcmmeta_version": 0.6,
  "global": {
    "const": {
      "AccessionNumber": "emmet",
      "AcquisitionMatrix": [82, 0, 0, 82],
      "AcquisitionNumber": 1,
      "AngioFlag": "N",
      "BitsAllocated": 16,
      "BitsStored": 12,
      "BodyPartExamined": "BRAIN",
      "Columns": 82,
      "EchoNumbers": 1,
      "EchoTime": 73.0,
      "EchoTrainLength": 82,
      "FlipAngle": 90.0,
      "HighBit": 11,
      "ImageOrientationPatient": [1.0, 0.0, 2.834e-12, 0.0, 1.0, 4.044e-12],
      "ImageType": [
        "ORIGINAL",
        "PRIMARY",
        "DIFFUSION",
        "NONE",
        "ND",
        "NORM"
],
      "ImagedNucleus": "1H",
      "ImagingFrequency": 123.252368,
      "InPlanePhaseEncodingDirection": "COL",
      "MRAcquisitionType": "2D",
      "MagneticFieldStrength": 3.0,
      "Manufacturer": "SIEMENS",
      "ManufacturerModelName": "Prisma",
      "Modality": "MR",
      "NumberOfAverages": 1.0,
      "NumberOfPhaseEncodingSteps": 82,
      "PercentPhaseFieldOfView": 100.0,
      "PercentSampling": 100.0,
      "PerformedProcedureStepStartTime": "092558.339000",
      "PhotometricInterpretation": "MONOCHROME2",
      "PixelBandwidth": 2905.0,
      "PixelRepresentation": 0,
      "PixelSpacing": [3.0243902206421, 3.0243902206421],
      "ProtocolName": "fmap_dir-AP_acq-topup-b0-3mm",
      "RepetitionTime": 7200.0,
      "Rows": 82,
      "SAR": 0.17116688418896,
      "SamplesPerPixel": 1,
      "ScanOptions": "FS",
      "ScanningSequence": "EP",
      "SequenceName": "*ep_b0",
      "SequenceVariant": [
        "SK",
        "SP"
],
      "SeriesDescription": "fmap_dir-AP_acq-topup-b0-3mm",
      "SeriesNumber": 13,
      "SeriesTime": "094923.415000",
      "SliceThickness": 3.0,
      "SmallestImagePixelValue": 0,
      "SoftwareVersions": "syngo MR E11",
      "SpacingBetweenSlices": 3.0,
      "SpecificCharacterSet": "ISO_IR 100",
      "StudyID": "4",
      "StudyTime": "092558.290000",
      "TransmitCoilName": "Body",
      "VariableFlipAngleFlag": "N",
      "WindowCenterWidthExplanation": "Algo1",
      "dBdt": 0.0},
    "slices": {
      "AcquisitionTime": ["094918.475000", "094914.885000", "094918.625000", "094915.035000", "094918.775000", "094915.185000", "094918.922500", "094915.332500", "094919.072500", "094915.482500", "094919.222500", "094915.632500", "094919.372500", "094915.782500", "094919.522500", "094915.932500", "094919.672500", "094916.082500", "094919.820000", "094916.230000", "094919.970000", "094916.380000", "094920.120000", "094916.530000", "094920.270000", "094916.680000", "094920.420000", "094916.830000", "094920.570000", "094916.980000", "094920.717500", "094917.127500", "094920.867500", "094917.277500", "094921.017500", "094917.427500", "094921.167500", "094917.577500", "094921.317500", "094917.727500", "094921.467500", "094917.877500", "094921.615000", "094918.025000", "094921.765000", "094918.175000", "094921.915000", "094918.325000"],
      "ContentTime": ["094923.475000", "094923.418000", "094923.478000", "094923.421000", "094923.480000", "094923.424000", "094923.482000", "094923.427000", "094923.484000", "094923.429000", "094923.486000", "094923.431000", "094923.488000", "094923.433000", "094923.490000", "094923.435000", "094923.492000", "094923.438000", "094923.494000", "094923.441000", "094923.496000", "094923.443000", "094923.499000", "094923.446000", "094923.501000", "094923.448000", "094923.503000", "094923.451000", "094923.505000", "094923.453000", "094923.515000", "094923.456000", "094923.517000", "094923.458000", "094923.519000", "094923.461000", "094923.522000", "094923.463000", "094923.524000", "094923.465000", "094923.526000", "094923.467000", "094923.528000", "094923.469000", "094923.530000", "094923.471000", "094923.532000", "094923.473000"],
      "CsaImage.GSWDDataType": [
        "measured",
        "predicted",
        "measured",
        "predicted",
        "measured",
        "predicted",
        "measured",
        "predicted",
        "measured",
        "predicted",
        "measured",
        "predicted",
        "measured",
        "predicted",
        "measured",
        "predicted",
        "measured",
        "measured",
        "measured",
        "measured",
        "measured",
        "measured",
        "measured",
        "measured",
        "measured",
        "measured",
        "measured",
        "measured",
        "measured",
        "measured",
        "measured",
        "measured",
        "measured",
        "measured",
        "measured",
        "measured",
        "measured",
        "measured",
        "measured",
        "measured",
        "measured",
        "measured",
        "measured",
        "measured",
        "measured",
        "measured",
        "measured",
        "measured"
],
      "CsaImage.ICE_Dims": [
        "X_1_1_1_1_1_1_25_1_1_1_1_45",
        "X_1_1_1_1_1_1_1_1_1_2_1_45",
        "X_1_1_1_1_1_1_26_1_1_3_1_45",
        "X_1_1_1_1_1_1_2_1_1_4_1_45",
        "X_1_1_1_1_1_1_27_1_1_5_1_45",
        "X_1_1_1_1_1_1_3_1_1_6_1_45",
        "X_1_1_1_1_1_1_28_1_1_7_1_45",
        "X_1_1_1_1_1_1_4_1_1_8_1_45",
        "X_1_1_1_1_1_1_29_1_1_9_1_45",
        "X_1_1_1_1_1_1_5_1_1_10_1_45",
        "X_1_1_1_1_1_1_30_1_1_11_1_45",
        "X_1_1_1_1_1_1_6_1_1_12_1_45",
        "X_1_1_1_1_1_1_31_1_1_13_1_45",
        "X_1_1_1_1_1_1_7_1_1_14_1_45",
        "X_1_1_1_1_1_1_32_1_1_15_1_45",
        "X_1_1_1_1_1_1_8_1_1_16_1_45",
        "X_1_1_1_1_1_1_33_1_1_17_1_45",
        "X_1_1_1_1_1_1_9_1_1_18_1_45",
        "X_1_1_1_1_1_1_34_1_1_19_1_45",
        "X_1_1_1_1_1_1_10_1_1_20_1_45",
        "X_1_1_1_1_1_1_35_1_1_21_1_45",
        "X_1_1_1_1_1_1_11_1_1_22_1_45",
        "X_1_1_1_1_1_1_36_1_1_23_1_45",
        "X_1_1_1_1_1_1_12_1_1_24_1_45",
        "X_1_1_1_1_1_1_37_1_1_25_1_45",
        "X_1_1_1_1_1_1_13_1_1_26_1_45",
        "X_1_1_1_1_1_1_38_1_1_27_1_45",
        "X_1_1_1_1_1_1_14_1_1_28_1_45",
        "X_1_1_1_1_1_1_39_1_1_29_1_45",
        "X_1_1_1_1_1_1_15_1_1_30_1_45",
        "X_1_1_1_1_1_1_40_1_1_31_1_45",
        "X_1_1_1_1_1_1_16_1_1_32_1_45",
        "X_1_1_1_1_1_1_41_1_1_33_1_45",
        "X_1_1_1_1_1_1_17_1_1_34_1_45",
        "X_1_1_1_1_1_1_42_1_1_35_1_45",
        "X_1_1_1_1_1_1_18_1_1_36_1_45",
        "X_1_1_1_1_1_1_43_1_1_37_1_45",
        "X_1_1_1_1_1_1_19_1_1_38_1_45",
        "X_1_1_1_1_1_1_44_1_1_39_1_45",
        "X_1_1_1_1_1_1_20_1_1_40_1_45",
        "X_1_1_1_1_1_1_45_1_1_41_1_45",
        "X_1_1_1_1_1_1_21_1_1_42_1_45",
        "X_1_1_1_1_1_1_46_1_1_43_1_45",
        "X_1_1_1_1_1_1_22_1_1_44_1_45",
        "X_1_1_1_1_1_1_47_1_1_45_1_45",
        "X_1_1_1_1_1_1_23_1_1_46_1_45",
        "X_1_1_1_1_1_1_48_1_1_47_1_45",
        "X_1_1_1_1_1_1_24_1_1_48_1_45"
],
      "CsaImage.ProtocolSliceNumber": [0, 1, 2, 3, 4, 5, 6, 7, 8, 9, 10, 11, 12, 13, 14, 15, 16, 17, 18, 19, 20, 21, 22, 23, 24, 25, 26, 27, 28, 29, 30, 31, 32, 33, 34, 35, 36, 37, 38, 39, 40, 41, 42, 43, 44, 45, 46, 47],
      "CsaImage.SlicePosition_PCS": [
        [-123.99999905, -123.99999905, -70.5],
        [-123.99999905, -123.99999905, -67.5],
        [-123.99999905, -123.99999905, -64.5],
        [-123.99999905, -123.99999905, -61.5],
        [-123.99999905, -123.99999905, -58.5],
        [-123.99999905, -123.99999905, -55.5],
        [-123.99999905, -123.99999905, -52.5],
        [-123.99999905, -123.99999905, -49.5],
        [-123.99999905, -123.99999905, -46.5],
        [-123.99999905, -123.99999905, -43.5],
        [-123.99999905, -123.99999905, -40.5],
        [-123.99999905, -123.99999905, -37.5],
        [-123.99999905, -123.99999905, -34.5],
        [-123.99999905, -123.99999905, -31.5],
        [-123.99999905, -123.99999905, -28.5],
        [-123.99999905, -123.99999905, -25.5],
        [-123.99999905, -123.99999905, -22.5],
        [-123.99999905, -123.99999905, -19.5],
        [-123.99999905, -123.99999905, -16.5],
        [-123.99999905, -123.99999905, -13.5],
        [-123.99999905, -123.99999905, -10.5],
        [-123.99999905, -123.99999905, -7.5],
        [-123.99999905, -123.99999905, -4.5],
        [-123.99999905, -123.99999905, -1.5],
        [-123.99999905, -123.99999905, 1.5],
        [-123.99999905, -123.99999905, 4.5],
        [-123.99999905, -123.99999905, 7.5],
        [-123.99999905, -123.99999905, 10.5],
        [-123.99999905, -123.99999905, 13.5],
        [-123.99999905, -123.99999905, 16.5],
        [-123.99999905, -123.99999905, 19.5],
        [-123.99999905, -123.99999905, 22.5],
        [-123.99999905, -123.99999905, 25.5],
        [-123.99999905, -123.99999905, 28.5],
        [-123.99999905, -123.99999905, 31.5],
        [-123.99999905, -123.99999905, 34.5],
        [-123.99999905, -123.99999905, 37.5],
        [-123.99999905, -123.99999905, 40.5],
        [-123.99999905, -123.99999905, 43.5],
        [-123.99999905, -123.99999905, 46.5],
        [-123.99999905, -123.99999905, 49.5],
        [-123.99999905, -123.99999905, 52.5],
        [-123.99999905, -123.99999905, 55.5],
        [-123.99999905, -123.99999905, 58.5],
        [-123.99999905, -123.99999905, 61.5],
        [-123.99999905, -123.99999905, 64.5],
        [-123.99999905, -123.99999905, 67.5],
        [-123.99999905, -123.99999905, 70.5]
],
      "CsaImage.TimeAfterStart": [3.59, 0.0, 3.7375, 0.1475, 3.8875, 0.2975, 4.0375, 0.4475, 4.1875, 0.5975, 4.3375, 0.7475, 4.4875, 0.8975, 4.635, 1.045, 4.785, 1.195, 4.935, 1.345, 5.085, 1.495, 5.235, 1.645, 5.385, 1.795, 5.5325, 1.9425, 5.6825, 2.0925, 5.8325, 2.2425, 5.9825, 2.3925, 6.1325, 2.5425, 6.2825, 2.6925, 6.43, 2.84, 6.58, 2.99, 6.73, 3.14, 6.88, 3.29, 7.03, 3.44],
      "ImagePositionPatient": [
        [-123.99999904613, -123.99999904604, -70.500000000853],
        [-123.99999904613, -123.99999904605, -67.500000000853],
        [-123.99999904614, -123.99999904606, -64.500000000853],
        [-123.99999904615, -123.99999904608, -61.500000000853],
        [-123.99999904616, -123.99999904609, -58.500000000853],
        [-123.99999904617, -123.9999990461, -55.500000000853],
        [-123.99999904618, -123.99999904611, -52.500000000853],
        [-123.99999904619, -123.99999904613, -49.500000000853],
        [-123.99999904619, -123.99999904614, -46.500000000853],
        [-123.9999990462, -123.99999904615, -43.500000000853],
        [-123.99999904621, -123.99999904616, -40.500000000853],
        [-123.99999904622, -123.99999904617, -37.500000000853],
        [-123.99999904623, -123.99999904619, -34.500000000853],
        [-123.99999904624, -123.9999990462, -31.500000000853],
        [-123.99999904624, -123.99999904621, -28.500000000853],
        [-123.99999904625, -123.99999904622, -25.500000000853],
        [-123.99999904626, -123.99999904623, -22.500000000853],
        [-123.99999904627, -123.99999904625, -19.500000000853],
        [-123.99999904628, -123.99999904626, -16.500000000853],
        [-123.99999904629, -123.99999904627, -13.500000000853],
        [-123.9999990463, -123.99999904628, -10.500000000853],
        [-123.9999990463, -123.9999990463, -7.5000000008529],
        [-123.99999904631, -123.99999904631, -4.5000000008529],
        [-123.99999904632, -123.99999904632, -1.5000000008529],
        [-123.99999904633, -123.99999904633, 1.4999999991471],
        [-123.99999904634, -123.99999904634, 4.4999999991471],
        [-123.99999904635, -123.99999904636, 7.4999999991471],
        [-123.99999904636, -123.99999904637, 10.499999999147],
        [-123.99999904636, -123.99999904638, 13.499999999147],
        [-123.99999904637, -123.99999904639, 16.499999999147],
        [-123.99999904638, -123.9999990464, 19.499999999147],
        [-123.99999904639, -123.99999904642, 22.499999999147],
        [-123.9999990464, -123.99999904643, 25.499999999147],
        [-123.99999904641, -123.99999904644, 28.499999999147],
        [-123.99999904641, -123.99999904645, 31.499999999147],
        [-123.99999904642, -123.99999904647, 34.499999999147],
        [-123.99999904643, -123.99999904648, 37.499999999147],
        [-123.99999904644, -123.99999904649, 40.499999999147],
        [-123.99999904645, -123.9999990465, 43.499999999147],
        [-123.99999904646, -123.99999904651, 46.499999999147],
        [-123.99999904647, -123.99999904653, 49.499999999147],
        [-123.99999904647, -123.99999904654, 52.499999999147],
        [-123.99999904648, -123.99999904655, 55.499999999147],
        [-123.99999904649, -123.99999904656, 58.499999999147],
        [-123.9999990465, -123.99999904657, 61.499999999147],
        [-123.99999904651, -123.99999904659, 64.499999999147],
        [-123.99999904652, -123.9999990466, 67.499999999147],
        [-123.99999904653, -123.99999904661, 70.499999999147]
],
      "InstanceCreationTime": ["094923.475000", "094923.418000", "094923.478000", "094923.421000", "094923.480000", "094923.424000", "094923.482000", "094923.427000", "094923.484000", "094923.429000", "094923.486000", "094923.431000", "094923.488000", "094923.433000", "094923.490000", "094923.435000", "094923.492000", "094923.438000", "094923.494000", "094923.441000", "094923.496000", "094923.443000", "094923.499000", "094923.446000", "094923.501000", "094923.448000", "094923.503000", "094923.451000", "094923.505000", "094923.453000", "094923.515000", "094923.456000", "094923.517000", "094923.458000", "094923.519000", "094923.461000", "094923.522000", "094923.463000", "094923.524000", "094923.465000", "094923.526000", "094923.467000", "094923.528000", "094923.469000", "094923.530000", "094923.471000", "094923.532000", "094923.473000"],
      "InstanceNumber": [1, 2, 3, 4, 5, 6, 7, 8, 9, 10, 11, 12, 13, 14, 15, 16, 17, 18, 19, 20, 21, 22, 23, 24, 25, 26, 27, 28, 29, 30, 31, 32, 33, 34, 35, 36, 37, 38, 39, 40, 41, 42, 43, 44, 45, 46, 47, 48],
      "LargestImagePixelValue": [970, 877, 763, 730, 718, 766, 723, 733, 711, 711, 717, 730, 736, 742, 739, 752, 872, 978, 996, 1059, 791, 923, 1289, 958, 962, 1042, 907, 846, 778, 785, 956, 907, 843, 845, 868, 901, 913, 911, 924, 920, 907, 838, 802, 868, 994, 1096, 538, 155],
      "SliceLocation": [-70.5, -67.5, -64.5, -61.5, -58.5, -55.5, -52.5, -49.5, -46.5, -43.5, -40.5, -37.5, -34.5, -31.5, -28.5, -25.5, -22.5, -19.5, -16.5, -13.5, -10.5, -7.5, -4.5, -1.5, 1.5, 4.5, 7.5, 10.5, 13.5, 16.5, 19.5, 22.5, 25.5, 28.5, 31.5, 34.5, 37.5, 40.5, 43.5, 46.5, 49.5, 52.5, 55.5, 58.5, 61.5, 64.5, 67.5, 70.5],
      "WindowCenter": [511.0, 521.0, 521.0, 526.0, 515.0, 490.0, 524.0, 543.0, 550.0, 562.0, 563.0, 529.0, 539.0, 552.0, 568.0, 571.0, 570.0, 555.0, 531.0, 560.0, 569.0, 577.0, 576.0, 571.0, 558.0, 571.0, 582.0, 578.0, 576.0, 571.0, 542.0, 544.0, 573.0, 574.0, 574.0, 561.0, 537.0, 507.0, 539.0, 550.0, 544.0, 537.0, 527.0, 510.0, 512.0, 453.0, 343.0, 54.0],
      "WindowWidth": [1065.0, 1080.0, 1076.0, 1083.0, 1065.0, 1017.0, 1079.0, 1112.0, 1126.0, 1142.0, 1142.0, 1085.0, 1099.0, 1123.0, 1149.0, 1154.0, 1158.0, 1137.0, 1099.0, 1148.0, 1157.0, 1170.0, 1174.0, 1171.0, 1157.0, 1181.0, 1186.0, 1174.0, 1168.0, 1159.0, 1114.0, 1121.0, 1165.0, 1165.0, 1162.0, 1144.0, 1101.0, 1060.0, 1111.0, 1121.0, 1109.0, 1092.0, 1073.0, 1052.0, 1061.0, 969.0, 749.0, 162.0]
    }
  }
}