{
  "AcquisitionMatrixPE": 80,
  "AcquisitionNumber": 1,
  "AcquisitionTime": "08:45:25.430000",
  "BandwidthPerPixelPhaseEncode": 25,
  "BaseResolution": 80,
  "BodyPartExamined": "BRAIN",
  "CoilCombinationMethod": "Sum of Squares",
  "ConsistencyInfo": "N4_VE11E_LATEST_20181129",
  "ConversionSoftware": "dcm2niix",
  "ConversionSoftwareVersion": "v1.0.20220720",
  "DerivedVendorReportedEchoSpacing": 0.0005,
  "DeviceSerialNumber": "66112",
  "DwellTime": 2.7e-06,
  "EchoTime": 0.03,
  "EchoTrainLength": 80,
  "EffectiveEchoSpacing": 0.0005,
  "FlipAngle": 77,
  "HeudiconvVersion": "0.13.1",
  "ImageOrientationPatientDICOM": [0.999935, 0.011305, -0.00123146, -0.0102971, 0.946055, 0.323842],
  "ImageOrientationText": "Tra>Cor(18.9)>Sag(-0.3)",
  "ImageType": [
    "ORIGINAL",
    "PRIMARY",
    "M",
    "ND",
    "NORM",
    "MOSAIC"
],
  "ImagingFrequency": 123.259,
  "InPlanePhaseEncodingDirectionDICOM": "COL",
  "InstitutionAddress": "Maynard 3,Hanover,NH,US,03755",
  "InstitutionName": "Dartmouth College - PBS",
  "InstitutionalDepartmentName": "Department",
  "MRAcquisitionType": "2D",
  "MagneticFieldStrength": 3,
  "Manufacturer": "Siemens",
  "ManufacturersModelName": "Prisma",
  "MatrixCoilMode": "SENSE",
  "Modality": "MR",
  "NonlinearGradientCorrection": false,
  "PartialFourier": 1,
  "PatientPosition": "HFS",
  "PercentPhaseFOV": 100,
  "PercentSampling": 100,
  "PhaseEncodingDirection": "j-",
  "PhaseEncodingSteps": 80,
  "PhaseResolution": 1,
  "PixelBandwidth": 2315,
  "ProcedureStepDescription": "dbic^QA",
  "ProtocolName": "func-bold_fa-77",
  "PulseSequenceDetails": "%SiemensSeq%\\ep2d_bold",
  "ReceiveCoilActiveElements": "HC1-7;NC1,2",
  "ReceiveCoilName": "HeadNeck_64",
  "ReconMatrixPE": 80,
  "RepetitionTime": 2,
  "SAR": 0.0283628,
  "ScanOptions": "FS",
  "ScanningSequence": "EP",
  "SequenceName": "*epfid2d1_80",
  "SequenceVariant": "SK",
  "SeriesDescription": "func-bold_fa-77",
  "SeriesNumber": 6,
  "ShimSetting": [4218, -7741, -7482, -155, -183, -307, -66, 92],
  "SliceThickness": 3.5,
  "SliceTiming": [0.99, 0, 1.055, 0.065, 1.1225, 0.1325, 1.1875, 0.1975, 1.2525, 0.2625, 1.32, 0.33, 1.385, 0.395, 1.4525, 0.4625, 1.5175, 0.5275, 1.5825, 0.5925, 1.65, 0.66, 1.715, 0.725, 1.7825, 0.7925, 1.8475, 0.8575, 1.9125, 0.9225],
  "SoftwareVersions": "syngo MR E11",
  "SpacingBetweenSlices": 3.99,
  "StationName": "AWP66112",
  "TotalReadoutTime": 0.0395,
  "TxRefAmp": 213.029,
  "dcmmeta_affine": [
    [-2.9998059272766113, -0.030891206115484238, -0.01925603114068508, 121.71498107910156],
    [-0.033915143460035324, 2.838165760040283, 1.2919938564300537, -129.7276153564453],
    [-0.0036943755112588406, -0.9715248346328735, 3.7749810218811035, -24.1085205078125],
    [0.0, 0.0, 0.0, 1.0]
],
  "dcmmeta_reorient_transform": [
    [0.0, -1.0, 0.0, 79.0],
    [1.0, 0.0, 0.0, 0.0],
    [0.0, 0.0, 1.0, 0.0],
    [0.0, 0.0, 0.0, 1.0]
],
  "dcmmeta_shape": [80, 80, 30, 200],
  "dcmmeta_slice_dim": 2,
  "dcmmeta_version": 0.6,
  "global": {
    "const": {
      "AccessionNumber": "qa64",
      "AcquisitionMatrix": [80, 0, 0, 80],
      "AngioFlag": "N",
      "BitsAllocated": 16,
      "BitsStored": 12,
      "BodyPartExamined": "BRAIN",
      "Columns": 480,
      "EchoNumbers": 1,
      "EchoTime": 30.0,
      "EchoTrainLength": 80,
      "FlipAngle": 77.0,
      "HighBit": 11,
      "ImageOrientationPatient": [0.99993533760789, 0.01130504811833, -0.0012314584999, -0.0102970687512, 0.94605527582462, 0.32384160551038],
      "ImagePositionPatient": [-713.05753707303, -668.9036736564, -294.42506924476],
      "ImageType": [
        "ORIGINAL",
        "PRIMARY",
        "M",
        "ND",
        "NORM",
        "MOSAIC"
],
      "ImagedNucleus": "1H",
      "ImagingFrequency": 123.259378,
      "InPlanePhaseEncodingDirection": "COL",
      "LargestImagePixelValue": 4095,
      "MRAcquisitionType": "2D",
      "MagneticFieldStrength": 3.0,
      "Manufacturer": "SIEMENS",
      "ManufacturerModelName": "Prisma",
      "Modality": "MR",
      "NumberOfAverages": 1.0,
      "NumberOfPhaseEncodingSteps": 80,
      "PercentPhaseFieldOfView": 100.0,
      "PercentSampling": 100.0,
      "PerformedProcedureStepStartTime": "082944.689000",
      "PhotometricInterpretation": "MONOCHROME2",
      "PixelBandwidth": 2315.0,
      "PixelRepresentation": 0,
      "PixelSpacing": [3.0, 3.0],
      "ProtocolName": "func-bold_fa-77",
      "RepetitionTime": 2000.0,
      "Rows": 480,
      "SAR": 0.02836277411797,
      "SamplesPerPixel": 1,
      "ScanOptions": "FS",
      "ScanningSequence": "EP",
      "SequenceName": "*epfid2d1_80",
      "SequenceVariant": "SK",
      "SeriesDescription": "func-bold_fa-77",
      "SeriesNumber": 6,
      "SeriesTime": "084608.428000",
      "SliceLocation": -65.403569565606,
      "SliceThickness": 3.5,
      "SmallestImagePixelValue": 0,
      "SoftwareVersions": "syngo MR E11",
      "SpacingBetweenSlices": 3.990000056361,
      "SpecificCharacterSet": "ISO_IR 100",
      "StudyID": "12",
      "StudyTime": "082944.575000",
      "TransmitCoilName": "Body",
      "VariableFlipAngleFlag": "N",
      "WindowCenterWidthExplanation": "Algo1"
    },
    "slices": {}
  },
  "time": {
    "samples": {
      "AcquisitionNumber": [1, 2, 3, 4, 5, 6, 7, 8, 9, 10, 11, 12, 13, 14, 15, 16, 17, 18, 19, 20, 21, 22, 23, 24, 25, 26, 27, 28, 29, 30, 31, 32, 33, 34, 35, 36, 37, 38, 39, 40, 41, 42, 43, 44, 45, 46, 47, 48, 49, 50, 51, 52, 53, 54, 55, 56, 57, 58, 59, 60, 61, 62, 63, 64, 65, 66, 67, 68, 69, 70, 71, 72, 73, 74, 75, 76, 77, 78, 79, 80, 81, 82, 83, 84, 85, 86, 87, 88, 89, 90, 91, 92, 93, 94, 95, 96, 97, 98, 99, 100, 101, 102, 103, 104, 105, 106, 107, 108, 109, 110, 111, 112, 113, 114, 115, 116, 117, 118, 119, 120, 121, 122, 123, 124, 125, 126, 127, 128, 129, 130, 131, 132, 133, 134, 135, 136, 137, 138, 139, 140, 141, 142, 143, 144, 145, 146, 147, 148, 149, 150, 151, 152, 153, 154, 155, 156, 157, 158, 159, 160, 161, 162, 163, 164, 165, 166, 167, 168, 169, 170, 171, 172, 173, 174, 175, 176, 177, 178, 179, 180, 181, 182, 183, 184, 185, 186, 187, 188, 189, 190, 191, 192, 193, 194, 195, 196, 197, 198, 199, 200],
      "AcquisitionTime": ["084525.430000", "084527.430000", "084529.430000", "084531.430000", "084533.430000", "084535.430000", "084537.430000", "084539.430000", "084541.430000", "084543.430000", "084545.430000", "084547.430000", "084549.430000", "084551.430000", "084553.430000", "084555.430000", "084557.430000", "084559.430000", "084601.430000", "084603.430000", "084605.430000", "084607.430000", "084609.430000", "084611.430000", "084613.430000", "084615.430000", "084617.430000", "084619.430000", "084621.430000", "084623.430000", "084625.430000", "084627.430000", "084629.430000", "084631.430000", "084633.430000", "084635.430000", "084637.430000", "084639.430000", "084641.430000", "084643.430000", "084645.430000", "084647.430000", "084649.430000", "084651.430000", "084653.430000", "084655.430000", "084657.430000", "084659.430000", "084701.430000", "084703.430000", "084705.430000", "084707.430000", "084709.430000", "084711.430000", "084713.430000", "084715.430000", "084717.430000", "084719.430000", "084721.430000", "084723.430000", "084725.430000", "084727.430000", "084729.430000", "084731.430000", "084733.430000", "084735.430000", "084737.430000", "084739.430000", "084741.430000", "084743.430000", "084745.430000", "084747.430000", "084749.430000", "084751.430000", "084753.430000", "084755.430000", "084757.430000", "084759.430000", "084801.430000", "084803.430000", "084805.430000", "084807.430000", "084809.430000", "084811.430000", "084813.430000", "084815.430000", "084817.430000", "084819.430000", "084821.430000", "084823.430000", "084825.430000", "084827.430000", "084829.430000", "084831.430000", "084833.430000", "084835.430000", "084837.430000", "084839.430000", "084841.430000", "084843.430000", "084845.430000", "084847.430000", "084849.430000", "084851.430000", "084853.430000", "084855.430000", "084857.430000", "084859.430000", "084901.430000", "084903.430000", "084905.430000", "084907.430000", "084909.430000", "084911.430000", "084913.430000", "084915.430000", "084917.430000", "084919.430000", "084921.430000", "084923.430000", "084925.430000", "084927.430000", "084929.430000", "084931.430000", "084933.430000", "084935.430000", "084937.430000", "084939.430000", "084941.430000", "084943.430000", "084945.430000", "084947.430000", "084949.430000", "084951.430000", "084953.430000", "084955.430000", "084957.430000", "084959.430000", "085001.430000", "085003.430000", "085005.430000", "085007.430000", "085009.430000", "085011.430000", "085013.430000", "085015.430000", "085017.430000", "085019.430000", "085021.430000", "085023.430000", "085025.430000", "085027.430000", "085029.430000", "085031.430000", "085033.430000", "085035.430000", "085037.430000", "085039.430000", "085041.430000", "085043.430000", "085045.430000", "085047.430000", "085049.430000", "085051.430000", "085053.430000", "085055.430000", "085057.430000", "085059.430000", "085101.430000", "085103.430000", "085105.430000", "085107.430000", "085109.430000", "085111.430000", "085113.430000", "085115.430000", "085117.430000", "085119.430000", "085121.430000", "085123.430000", "085125.430000", "085127.430000", "085129.430000", "085131.430000", "085133.430000", "085135.430000", "085137.430000", "085139.430000", "085141.430000", "085143.430000", "085145.430000", "085147.430000", "085149.430000", "085151.430000", "085153.430000", "085155.430000", "085157.430000", "085159.430000", "085201.430000", "085203.430000"],
      "ContentTime": ["084608.431000", "084608.434000", "084608.436000", "084608.438000", "084608.450000", "084608.452000", "084608.455000", "084608.457000", "084608.459000", "084608.461000", "084608.464000", "084608.466000", "084608.468000", "084608.471000", "084608.473000", "084608.475000", "084608.478000", "084608.480000", "084608.482000", "084608.485000", "084608.487000", "084648.426000", "084648.429000", "084648.431000", "084648.433000", "084648.436000", "084648.438000", "084648.440000", "084648.443000", "084648.445000", "084648.448000", "084648.450000", "084648.452000", "084648.454000", "084648.457000", "084648.459000", "084648.461000", "084648.464000", "084648.466000", "084648.468000", "084648.471000", "084728.425000", "084728.428000", "084728.430000", "084728.433000", "084728.435000", "084728.437000", "084728.440000", "084728.442000", "084728.444000", "084728.447000", "084728.449000", "084728.451000", "084728.454000", "084728.456000", "084728.458000", "084728.461000", "084728.463000", "084728.465000", "084728.468000", "084728.470000", "084808.426000", "084808.429000", "084808.431000", "084808.433000", "084808.436000", "084808.438000", "084808.440000", "084808.443000", "084808.445000", "084808.447000", "084808.450000", "084808.452000", "084808.454000", "084808.457000", "084808.459000", "084808.461000", "084808.463000", "084808.466000", "084808.468000", "084808.470000", "084848.426000", "084848.429000", "084848.431000", "084848.434000", "084848.436000", "084848.438000", "084848.441000", "084848.443000", "084848.446000", "084848.448000", "084848.450000", "084848.453000", "084848.455000", "084848.457000", "084848.459000", "084848.462000", "084848.464000", "084848.466000", "084848.469000", "084848.471000", "084928.425000", "084928.428000", "084928.430000", "084928.433000", "084928.435000", "084928.438000", "084928.440000", "084928.442000", "084928.445000", "084928.447000", "084928.449000", "084928.452000", "084928.454000", "084928.456000", "084928.459000", "084928.461000", "084928.463000", "084928.466000", "084928.468000", "084928.470000", "085008.426000", "085008.429000", "085008.431000", "085008.434000", "085008.436000", "085008.438000", "085008.441000", "085008.443000", "085008.445000", "085008.448000", "085008.450000", "085008.452000", "085008.454000", "085008.457000", "085008.459000", "085008.461000", "085008.464000", "085008.466000", "085008.468000", "085008.471000", "085048.426000", "085048.429000", "085048.431000", "085048.433000", "085048.436000", "085048.438000", "085048.440000", "085048.443000", "085048.445000", "085048.447000", "085048.450000", "085048.452000", "085048.454000", "085048.457000", "085048.459000", "085048.461000", "085048.464000", "085048.466000", "085048.469000", "085048.471000", "085128.426000", "085128.429000", "085128.431000", "085128.434000", "085128.436000", "085128.438000", "085128.440000", "085128.443000", "085128.445000", "085128.447000", "085128.450000", "085128.452000", "085128.454000", "085128.457000", "085128.459000", "085128.461000", "085128.464000", "085128.466000", "085128.469000", "085128.471000", "085204.626000", "085204.629000", "085204.631000", "085204.633000", "085204.636000", "085204.638000", "085204.641000", "085204.643000", "085204.645000", "085204.648000", "085204.650000", "085204.653000", "085204.656000", "085204.660000", "085204.663000", "085204.666000", "085204.668000", "085204.671000", "085204.673000"],
      "InstanceCreationTime": ["084608.431000", "084608.434000", "084608.436000", "084608.438000", "084608.450000", "084608.452000", "084608.455000", "084608.457000", "084608.459000", "084608.461000", "084608.464000", "084608.466000", "084608.468000", "084608.471000", "084608.473000", "084608.475000", "084608.478000", "084608.480000", "084608.482000", "084608.485000", "084608.487000", "084648.426000", "084648.429000", "084648.431000", "084648.433000", "084648.436000", "084648.438000", "084648.440000", "084648.443000", "084648.445000", "084648.448000", "084648.450000", "084648.452000", "084648.454000", "084648.457000", "084648.459000", "084648.461000", "084648.464000", "084648.466000", "084648.468000", "084648.471000", "084728.425000", "084728.428000", "084728.430000", "084728.433000", "084728.435000", "084728.437000", "084728.440000", "084728.442000", "084728.444000", "084728.447000", "084728.449000", "084728.451000", "084728.454000", "084728.456000", "084728.458000", "084728.461000", "084728.463000", "084728.465000", "084728.468000", "084728.470000", "084808.426000", "084808.429000", "084808.431000", "084808.433000", "084808.436000", "084808.438000", "084808.440000", "084808.443000", "084808.445000", "084808.447000", "084808.450000", "084808.452000", "084808.454000", "084808.457000", "084808.459000", "084808.461000", "084808.463000", "084808.466000", "084808.468000", "084808.470000", "084848.426000", "084848.429000", "084848.431000", "084848.434000", "084848.436000", "084848.438000", "084848.441000", "084848.443000", "084848.446000", "084848.448000", "084848.450000", "084848.453000", "084848.455000", "084848.457000", "084848.459000", "084848.462000", "084848.464000", "084848.466000", "084848.469000", "084848.471000", "084928.425000", "084928.428000", "084928.430000", "084928.433000", "084928.435000", "084928.438000", "084928.440000", "084928.442000", "084928.445000", "084928.447000", "084928.449000", "084928.452000", "084928.454000", "084928.456000", "084928.459000", "084928.461000", "084928.463000", "084928.466000", "084928.468000", "084928.470000", "085008.426000", "085008.429000", "085008.431000", "085008.434000", "085008.436000", "085008.438000", "085008.441000", "085008.443000", "085008.445000", "085008.448000", "085008.450000", "085008.452000", "085008.454000", "085008.457000", "085008.459000", "085008.461000", "085008.464000", "085008.466000", "085008.468000", "085008.471000", "085048.426000", "085048.429000", "085048.431000", "085048.433000", "085048.436000", "085048.438000", "085048.440000", "085048.443000", "085048.445000", "085048.447000", "085048.450000", "085048.452000", "085048.454000", "085048.457000", "085048.459000", "085048.461000", "085048.464000", "085048.466000", "085048.469000", "085048.471000", "085128.426000", "085128.429000", "085128.431000", "085128.434000", "085128.436000", "085128.438000", "085128.440000", "085128.443000", "085128.445000", "085128.447000", "085128.450000", "085128.452000", "085128.454000", "085128.457000", "085128.459000", "085128.461000", "085128.464000", "085128.466000", "085128.469000", "085128.471000", "085204.626000", "085204.629000", "085204.631000", "085204.633000", "085204.636000", "085204.638000", "085204.641000", "085204.643000", "085204.645000", "085204.648000", "085204.650000", "085204.653000", "085204.656000", "085204.660000", "085204.663000", "085204.666000", "085204.668000", "085204.671000", "085204.673000"],
      "InstanceNumber": [1, 2, 3, 4, 5, 6, 7, 8, 9, 10, 11, 12, 13, 14, 15, 16, 17, 18, 19, 20, 21, 22, 23, 24, 25, 26, 27, 28, 29, 30, 31, 32, 33, 34, 35, 36, 37, 38, 39, 40, 41, 42, 43, 44, 45, 46, 47, 48, 49, 50, 51, 52, 53, 54, 55, 56, 57, 58, 59, 60, 61, 62, 63, 64, 65, 66, 67, 68, 69, 70, 71, 72, 73, 74, 75, 76, 77, 78, 79, 80, 81, 82, 83, 84, 85, 86, 87, 88, 89, 90, 91, 92, 93, 94, 95, 96, 97, 98, 99, 100, 101, 102, 103, 104, 105, 106, 107, 108, 109, 110, 111, 112, 113, 114, 115, 116, 117, 118, 119, 120, 121, 122, 123, 124, 125, 126, 127, 128, 129, 130, 131, 132, 133, 134, 135, 136, 137, 138, 139, 140, 141, 142, 143, 144, 145, 146, 147, 148, 149, 150, 151, 152, 153, 154, 155, 156, 157, 158, 159, 160, 161, 162, 163, 164, 165, 166, 167, 168, 169, 170, 171, 172, 173, 174, 175, 176, 177, 178, 179, 180, 181, 182, 183, 184, 185, 186, 187, 188, 189, 190, 191, 192, 193, 194, 195, 196, 197, 198, 199, 200],
      "WindowCenter": [1460.0, 1459.0, 1459.0, 1460.0, 1460.0, 1459.0, 1460.0, 1459.0, 1459.0, 1459.0, 1459.0, 1458.0, 1459.0, 1460.0, 1458.0, 1459.0, 1459.0, 1458.0, 1458.0, 1458.0, 1458.0, 1458.0, 1458.0, 1458.0, 1459.0, 1458.0, 1459.0, 1458.0, 1458.0, 1458.0, 1458.0, 1458.0, 1457.0, 1458.0, 1458.0, 1458.0, 1458.0, 1458.0, 1457.0, 1458.0, 1458.0, 1457.0, 1458.0, 1457.0, 1458.0, 1457.0, 1457.0, 1457.0, 1457.0, 1458.0, 1457.0, 1457.0, 1457.0, 1457.0, 1457.0, 1458.0, 1457.0, 1457.0, 1457.0, 1457.0, 1457.0, 1457.0, 1457.0, 1457.0, 1457.0, 1456.0, 1456.0, 1456.0, 1456.0, 1456.0, 1456.0, 1456.0, 1456.0, 1456.0, 1457.0, 1456.0, 1456.0, 1457.0, 1455.0, 1456.0, 1456.0, 1456.0, 1455.0, 1456.0, 1455.0, 1455.0, 1455.0, 1456.0, 1455.0, 1456.0, 1455.0, 1456.0, 1456.0, 1455.0, 1456.0, 1455.0, 1455.0, 1455.0, 1455.0, 1455.0, 1455.0, 1455.0, 1455.0, 1456.0, 1456.0, 1455.0, 1455.0, 1455.0, 1454.0, 1455.0, 1454.0, 1455.0, 1455.0, 1455.0, 1455.0, 1455.0, 1455.0, 1455.0, 1455.0, 1455.0, 1455.0, 1454.0, 1455.0, 1454.0, 1455.0, 1454.0, 1454.0, 1454.0, 1454.0, 1454.0, 1454.0, 1454.0, 1454.0, 1454.0, 1454.0, 1454.0, 1454.0, 1454.0, 1454.0, 1453.0, 1454.0, 1453.0, 1453.0, 1454.0, 1453.0, 1454.0, 1454.0, 1454.0, 1454.0, 1454.0, 1453.0, 1454.0, 1453.0, 1454.0, 1454.0, 1454.0, 1454.0, 1453.0, 1453.0, 1453.0, 1453.0, 1453.0, 1453.0, 1453.0, 1453.0, 1453.0, 1453.0, 1453.0, 1453.0, 1454.0, 1453.0, 1453.0, 1454.0, 1452.0, 1453.0, 1453.0, 1452.0, 1453.0, 1453.0, 1453.0, 1453.0, 1453.0, 1452.0, 1453.0, 1452.0, 1453.0, 1453.0, 1452.0, 1453.0, 1453.0, 1452.0, 1452.0, 1452.0, 1452.0, 1452.0, 1452.0, 1452.0, 1452.0, 1452.0, 1452.0],
      "WindowWidth": [3433.0, 3433.0, 3433.0, 3433.0, 3433.0, 3433.0, 3433.0, 3433.0, 3432.0, 3432.0, 3432.0, 3433.0, 3432.0, 3432.0, 3432.0, 3432.0, 3432.0, 3432.0, 3432.0, 3432.0, 3432.0, 3432.0, 3432.0, 3432.0, 3432.0, 3431.0, 3432.0, 3432.0, 3431.0, 3431.0, 3431.0, 3431.0, 3432.0, 3431.0, 3431.0, 3431.0, 3431.0, 3431.0, 3431.0, 3431.0, 3431.0, 3431.0, 3431.0, 3431.0, 3431.0, 3431.0, 3431.0, 3431.0, 3431.0, 3431.0, 3431.0, 3431.0, 3431.0, 3431.0, 3431.0, 3431.0, 3430.0, 3431.0, 3431.0, 3430.0, 3431.0, 3431.0, 3430.0, 3430.0, 3430.0, 3430.0, 3430.0, 3430.0, 3430.0, 3430.0, 3430.0, 3430.0, 3430.0, 3430.0, 3430.0, 3430.0, 3430.0, 3430.0, 3430.0, 3430.0, 3430.0, 3430.0, 3430.0, 3430.0, 3430.0, 3430.0, 3430.0, 3430.0, 3430.0, 3430.0, 3430.0, 3430.0, 3430.0, 3429.0, 3430.0, 3429.0, 3429.0, 3429.0, 3429.0, 3429.0, 3429.0, 3429.0, 3429.0, 3429.0, 3429.0, 3429.0, 3429.0, 3429.0, 3429.0, 3429.0, 3429.0, 3429.0, 3429.0, 3429.0, 3429.0, 3429.0, 3429.0, 3429.0, 3429.0, 3429.0, 3429.0, 3429.0, 3429.0, 3429.0, 3429.0, 3429.0, 3429.0, 3429.0, 3429.0, 3428.0, 3428.0, 3429.0, 3428.0, 3428.0, 3428.0, 3428.0, 3428.0, 3428.0, 3428.0, 3428.0, 3428.0, 3428.0, 3428.0, 3428.0, 3428.0, 3428.0, 3428.0, 3428.0, 3428.0, 3428.0, 3428.0, 3428.0, 3428.0, 3428.0, 3428.0, 3428.0, 3428.0, 3428.0, 3428.0, 3428.0, 3428.0, 3428.0, 3428.0, 3428.0, 3428.0, 3428.0, 3427.0, 3428.0, 3427.0, 3427.0, 3427.0, 3427.0, 3427.0, 3427.0, 3427.0, 3427.0, 3427.0, 3427.0, 3427.0, 3427.0, 3427.0, 3427.0, 3427.0, 3427.0, 3427.0, 3427.0, 3427.0, 3427.0, 3427.0, 3427.0, 3427.0, 3427.0, 3427.0, 3427.0, 3427.0, 3427.0, 3427.0, 3427.0, 3427.0, 3427.0]
    },
    "slices": {}
  }
}