{
  "AcquisitionMatrixPE": 80,
  "AcquisitionNumber": 1,
  "AcquisitionTime": "09:33:13.432500",
  "BandwidthPerPixelPhaseEncode": 25,
  "BaseResolution": 80,
  "BodyPartExamined": "BRAIN",
  "CoilCombinationMethod": "Sum of Squares",
  "ConsistencyInfo": "N4_VE11E_LATEST_20181129",
  "ConversionSoftware": "dcm2niix",
  "ConversionSoftwareVersion": "v1.0.20220720",
  "DerivedVendorReportedEchoSpacing": 0.0005,
  "DeviceSerialNumber": "66112",
  "DwellTime": 2.7e-06,
  "EchoTime": 0.03,
  "EchoTrainLength": 80,
  "EffectiveEchoSpacing": 0.0005,
  "FlipAngle": 77,
  "HeudiconvVersion": "0.13.1",
  "ImageOrientationPatientDICOM": [0.99206, 0.125748, 0.00208336, -0.120404, 0.944854, 0.304555],
  "ImageOrientationText": "Tra>Cor(17.6)>Sag(-2.1)",
  "ImageType": [
    "ORIGINAL",
    "PRIMARY",
    "M",
    "ND",
    "NORM",
    "MOSAIC"
],
  "ImagingFrequency": 123.259,
  "InPlanePhaseEncodingDirectionDICOM": "COL",
  "InstitutionAddress": "Maynard 3,Hanover,NH,US,03755",
  "InstitutionName": "Dartmouth College - PBS",
  "InstitutionalDepartmentName": "Department",
  "MRAcquisitionType": "2D",
  "MagneticFieldStrength": 3,
  "Manufacturer": "Siemens",
  "ManufacturersModelName": "Prisma",
  "MatrixCoilMode": "SENSE",
  "Modality": "MR",
  "NonlinearGradientCorrection": false,
  "PartialFourier": 1,
  "PatientPosition": "HFS",
  "PercentPhaseFOV": 100,
  "PercentSampling": 100,
  "PhaseEncodingDirection": "j-",
  "PhaseEncodingSteps": 80,
  "PhaseResolution": 1,
  "PixelBandwidth": 2315,
  "ProcedureStepDescription": "dbic^QA",
  "ProtocolName": "func-bold_fa-77",
  "PulseSequenceDetails": "%SiemensSeq%\\ep2d_bold",
  "ReceiveCoilActiveElements": "HC1-7;NC1,2",
  "ReceiveCoilName": "HeadNeck_64",
  "ReconMatrixPE": 80,
  "RepetitionTime": 2,
  "SAR": 0.0321279,
  "ScanOptions": "FS",
  "ScanningSequence": "EP",
  "SequenceName": "*epfid2d1_80",
  "SequenceVariant": "SK",
  "SeriesDescription": "func-bold_fa-77",
  "SeriesNumber": 6,
  "ShimSetting": [4220, -7755, -7484, -101, -163, -182, -28, 128],
  "SliceThickness": 3.5,
  "SliceTiming": [0.9875, 0, 1.055, 0.065, 1.12, 0.13, 1.1875, 0.1975, 1.2525, 0.2625, 1.3175, 0.33, 1.385, 0.395, 1.45, 0.46, 1.5175, 0.5275, 1.5825, 0.5925, 1.6475, 0.66, 1.715, 0.725, 1.78, 0.79, 1.8475, 0.8575, 1.9125, 0.9225],
  "SoftwareVersions": "syngo MR E11",
  "SpacingBetweenSlices": 3.99,
  "StationName": "AWP66112",
  "TotalReadoutTime": 0.0395,
  "TxRefAmp": 209.969,
  "dcmmeta_affine": [
    [-2.976180076599121, -0.3612116575241089, -0.1449514925479889, 133.77957153320312],
    [-0.37724363803863525, 2.834562063217163, 1.206527590751648, -111.91854858398438],
    [0.006250091828405857, -0.9136655330657959, 3.8004448413848877, -16.203603744506836],
    [0.0, 0.0, 0.0, 1.0]
],
  "dcmmeta_reorient_transform": [
    [0.0, -1.0, 0.0, 79.0],
    [1.0, 0.0, 0.0, 0.0],
    [0.0, 0.0, 1.0, 0.0],
    [0.0, 0.0, 0.0, 1.0]
],
  "dcmmeta_shape": [80, 80, 30, 200],
  "dcmmeta_slice_dim": 2,
  "dcmmeta_version": 0.6,
  "global": {
    "const": {
      "AccessionNumber": "qa64",
      "AcquisitionMatrix": [80, 0, 0, 80],
      "AngioFlag": "N",
      "BitsAllocated": 16,
      "BitsStored": 12,
      "BodyPartExamined": "BRAIN",
      "Columns": 480,
      "EchoNumbers": 1,
      "EchoTime": 30.0,
      "EchoTrainLength": 80,
      "FlipAngle": 77.0,
      "HighBit": 11,
      "ImageOrientationPatient": [0.99206004365562, 0.12574788020678, 0.00208336398724, -0.1204038862887, 0.94485398246105, 0.30455517725708],
      "ImagePositionPatient": [-628.23755100431, -754.37296056664, -272.36630517687],
      "ImageType": [
        "ORIGINAL",
        "PRIMARY",
        "M",
        "ND",
        "NORM",
        "MOSAIC"
],
      "ImagedNucleus": "1H",
      "ImagingFrequency": 123.259245,
      "InPlanePhaseEncodingDirection": "COL",
      "LargestImagePixelValue": 4095,
      "MRAcquisitionType": "2D",
      "MagneticFieldStrength": 3.0,
      "Manufacturer": "SIEMENS",
      "ManufacturerModelName": "Prisma",
      "Modality": "MR",
      "NumberOfAverages": 1.0,
      "NumberOfPhaseEncodingSteps": 80,
      "PercentPhaseFieldOfView": 100.0,
      "PercentSampling": 100.0,
      "PerformedProcedureStepStartTime": "092444.105000",
      "PhotometricInterpretation": "MONOCHROME2",
      "PixelBandwidth": 2315.0,
      "PixelRepresentation": 0,
      "PixelSpacing": [3.0, 3.0],
      "ProtocolName": "func-bold_fa-77",
      "RepetitionTime": 2000.0,
      "Rows": 480,
      "SAR": 0.03212786578636,
      "SamplesPerPixel": 1,
      "ScanOptions": "FS",
      "ScanningSequence": "EP",
      "SequenceName": "*epfid2d1_80",
      "SequenceVariant": "SK",
      "SeriesDescription": "func-bold_fa-77",
      "SeriesNumber": 6,
      "SeriesTime": "093400.783000",
      "SliceLocation": -54.136658550059,
      "SliceThickness": 3.5,
      "SmallestImagePixelValue": 0,
      "SoftwareVersions": "syngo MR E11",
      "SpacingBetweenSlices": 3.990000018781,
      "SpecificCharacterSet": "ISO_IR 100",
      "StudyID": "21",
      "StudyTime": "092443.946000",
      "TransmitCoilName": "Body",
      "VariableFlipAngleFlag": "N",
      "WindowCenterWidthExplanation": "Algo1"
    },
    "slices": {}
  },
  "time": {
    "samples": {
      "AcquisitionNumber": [1, 2, 3, 4, 5, 6, 7, 8, 9, 10, 11, 12, 13, 14, 15, 16, 17, 18, 19, 20, 21, 22, 23, 24, 25, 26, 27, 28, 29, 30, 31, 32, 33, 34, 35, 36, 37, 38, 39, 40, 41, 42, 43, 44, 45, 46, 47, 48, 49, 50, 51, 52, 53, 54, 55, 56, 57, 58, 59, 60, 61, 62, 63, 64, 65, 66, 67, 68, 69, 70, 71, 72, 73, 74, 75, 76, 77, 78, 79, 80, 81, 82, 83, 84, 85, 86, 87, 88, 89, 90, 91, 92, 93, 94, 95, 96, 97, 98, 99, 100, 101, 102, 103, 104, 105, 106, 107, 108, 109, 110, 111, 112, 113, 114, 115, 116, 117, 118, 119, 120, 121, 122, 123, 124, 125, 126, 127, 128, 129, 130, 131, 132, 133, 134, 135, 136, 137, 138, 139, 140, 141, 142, 143, 144, 145, 146, 147, 148, 149, 150, 151, 152, 153, 154, 155, 156, 157, 158, 159, 160, 161, 162, 163, 164, 165, 166, 167, 168, 169, 170, 171, 172, 173, 174, 175, 176, 177, 178, 179, 180, 181, 182, 183, 184, 185, 186, 187, 188, 189, 190, 191, 192, 193, 194, 195, 196, 197, 198, 199, 200],
      "AcquisitionTime": ["093313.432500", "093315.432500", "093317.432500", "093319.432500", "093321.432500", "093323.432500", "093325.432500", "093327.432500", "093329.432500", "093331.432500", "093333.432500", "093335.432500", "093337.432500", "093339.432500", "093341.432500", "093343.432500", "093345.432500", "093347.432500", "093349.432500", "093351.432500", "093353.432500", "093355.432500", "093357.432500", "093359.432500", "093401.432500", "093403.432500", "093405.432500", "093407.432500", "093409.432500", "093411.432500", "093413.432500", "093415.432500", "093417.432500", "093419.432500", "093421.432500", "093423.432500", "093425.432500", "093427.432500", "093429.432500", "093431.432500", "093433.432500", "093435.432500", "093437.432500", "093439.432500", "093441.432500", "093443.432500", "093445.432500", "093447.432500", "093449.432500", "093451.432500", "093453.432500", "093455.432500", "093457.432500", "093459.432500", "093501.432500", "093503.432500", "093505.432500", "093507.432500", "093509.432500", "093511.432500", "093513.432500", "093515.432500", "093517.432500", "093519.432500", "093521.432500", "093523.432500", "093525.432500", "093527.432500", "093529.432500", "093531.432500", "093533.432500", "093535.432500", "093537.432500", "093539.432500", "093541.432500", "093543.432500", "093545.432500", "093547.432500", "093549.432500", "093551.432500", "093553.432500", "093555.432500", "093557.432500", "093559.432500", "093601.432500", "093603.432500", "093605.432500", "093607.432500", "093609.432500", "093611.432500", "093613.432500", "093615.432500", "093617.432500", "093619.432500", "093621.432500", "093623.432500", "093625.432500", "093627.432500", "093629.432500", "093631.432500", "093633.432500", "093635.432500", "093637.432500", "093639.432500", "093641.432500", "093643.432500", "093645.432500", "093647.432500", "093649.432500", "093651.432500", "093653.432500", "093655.432500", "093657.432500", "093659.432500", "093701.432500", "093703.432500", "093705.432500", "093707.432500", "093709.432500", "093711.432500", "093713.432500", "093715.432500", "093717.432500", "093719.432500", "093721.432500", "093723.432500", "093725.432500", "093727.432500", "093729.432500", "093731.432500", "093733.432500", "093735.432500", "093737.432500", "093739.432500", "093741.432500", "093743.432500", "093745.432500", "093747.432500", "093749.432500", "093751.432500", "093753.432500", "093755.432500", "093757.432500", "093759.432500", "093801.432500", "093803.432500", "093805.432500", "093807.432500", "093809.432500", "093811.432500", "093813.432500", "093815.432500", "093817.432500", "093819.432500", "093821.432500", "093823.432500", "093825.432500", "093827.432500", "093829.432500", "093831.432500", "093833.432500", "093835.432500", "093837.432500", "093839.432500", "093841.432500", "093843.432500", "093845.432500", "093847.432500", "093849.432500", "093851.432500", "093853.432500", "093855.432500", "093857.432500", "093859.432500", "093901.432500", "093903.432500", "093905.432500", "093907.432500", "093909.432500", "093911.432500", "093913.432500", "093915.432500", "093917.432500", "093919.432500", "093921.432500", "093923.432500", "093925.432500", "093927.432500", "093929.432500", "093931.432500", "093933.432500", "093935.432500", "093937.432500", "093939.432500", "093941.432500", "093943.432500", "093945.432500", "093947.432500", "093949.432500", "093951.432500"],
      "ContentTime": ["093400.787000", "093400.790000", "093400.792000", "093400.795000", "093400.797000", "093400.799000", "093400.802000", "093400.804000", "093400.806000", "093400.809000", "093400.811000", "093400.813000", "093400.827000", "093400.830000", "093400.832000", "093400.834000", "093400.837000", "093400.839000", "093400.841000", "093400.844000", "093400.846000", "093400.848000", "093400.851000", "093440.782000", "093440.785000", "093440.787000", "093440.790000", "093440.792000", "093440.794000", "093440.797000", "093440.799000", "093440.814000", "093440.816000", "093440.818000", "093440.821000", "093440.823000", "093440.826000", "093440.828000", "093440.831000", "093440.833000", "093440.835000", "093440.837000", "093440.840000", "093520.782000", "093520.785000", "093520.787000", "093520.790000", "093520.792000", "093520.795000", "093520.797000", "093520.799000", "093520.802000", "093520.804000", "093520.806000", "093520.809000", "093520.811000", "093520.813000", "093520.816000", "093520.818000", "093520.820000", "093520.823000", "093520.825000", "093520.835000", "093600.782000", "093600.785000", "093600.787000", "093600.789000", "093600.792000", "093600.794000", "093600.796000", "093600.799000", "093600.801000", "093600.804000", "093600.806000", "093600.808000", "093600.811000", "093600.813000", "093600.815000", "093600.818000", "093600.820000", "093600.822000", "093600.825000", "093600.827000", "093640.782000", "093640.785000", "093640.787000", "093640.790000", "093640.793000", "093640.795000", "093640.797000", "093640.800000", "093640.802000", "093640.804000", "093640.807000", "093640.809000", "093640.811000", "093640.814000", "093640.816000", "093640.818000", "093640.821000", "093640.823000", "093640.825000", "093640.828000", "093720.781000", "093720.784000", "093720.786000", "093720.789000", "093720.791000", "093720.793000", "093720.796000", "093720.798000", "093720.801000", "093720.803000", "093720.805000", "093720.808000", "093720.810000", "093720.812000", "093720.814000", "093720.817000", "093720.819000", "093720.822000", "093720.824000", "093720.826000", "093800.782000", "093800.785000", "093800.787000", "093800.790000", "093800.792000", "093800.794000", "093800.796000", "093800.799000", "093800.801000", "093800.804000", "093800.806000", "093800.808000", "093800.811000", "093800.813000", "093800.815000", "093800.818000", "093800.820000", "093800.822000", "093800.824000", "093800.827000", "093840.782000", "093840.785000", "093840.787000", "093840.789000", "093840.792000", "093840.794000", "093840.797000", "093840.799000", "093840.801000", "093840.804000", "093840.806000", "093840.808000", "093840.811000", "093840.813000", "093840.815000", "093840.818000", "093840.820000", "093840.822000", "093840.824000", "093840.827000", "093900.782000", "093900.785000", "093900.787000", "093900.790000", "093900.792000", "093900.794000", "093900.796000", "093900.799000", "093900.801000", "093900.804000", "093940.781000", "093940.784000", "093940.786000", "093940.789000", "093940.791000", "093940.793000", "093940.796000", "093940.798000", "093940.815000", "093940.818000", "093940.820000", "093940.823000", "093940.825000", "093940.827000", "093940.830000", "093940.832000", "093940.834000", "093940.837000", "093940.839000", "093940.841000", "093953.118000", "093953.121000", "093953.123000", "093953.126000", "093953.128000", "093953.130000", "093953.133000"],
      "InstanceCreationTime": ["093400.787000", "093400.790000", "093400.792000", "093400.795000", "093400.797000", "093400.799000", "093400.802000", "093400.804000", "093400.806000", "093400.809000", "093400.811000", "093400.813000", "093400.827000", "093400.830000", "093400.832000", "093400.834000", "093400.837000", "093400.839000", "093400.841000", "093400.844000", "093400.846000", "093400.848000", "093400.851000", "093440.782000", "093440.785000", "093440.787000", "093440.790000", "093440.792000", "093440.794000", "093440.797000", "093440.799000", "093440.814000", "093440.816000", "093440.818000", "093440.821000", "093440.823000", "093440.826000", "093440.828000", "093440.831000", "093440.833000", "093440.835000", "093440.837000", "093440.840000", "093520.782000", "093520.785000", "093520.787000", "093520.790000", "093520.792000", "093520.795000", "093520.797000", "093520.799000", "093520.802000", "093520.804000", "093520.806000", "093520.809000", "093520.811000", "093520.813000", "093520.816000", "093520.818000", "093520.820000", "093520.823000", "093520.825000", "093520.835000", "093600.782000", "093600.785000", "093600.787000", "093600.789000", "093600.792000", "093600.794000", "093600.796000", "093600.799000", "093600.801000", "093600.804000", "093600.806000", "093600.808000", "093600.811000", "093600.813000", "093600.815000", "093600.818000", "093600.820000", "093600.822000", "093600.825000", "093600.827000", "093640.782000", "093640.785000", "093640.787000", "093640.790000", "093640.793000", "093640.795000", "093640.797000", "093640.800000", "093640.802000", "093640.804000", "093640.807000", "093640.809000", "093640.811000", "093640.814000", "093640.816000", "093640.818000", "093640.821000", "093640.823000", "093640.825000", "093640.828000", "093720.781000", "093720.784000", "093720.786000", "093720.789000", "093720.791000", "093720.793000", "093720.796000", "093720.798000", "093720.801000", "093720.803000", "093720.805000", "093720.808000", "093720.810000", "093720.812000", "093720.814000", "093720.817000", "093720.819000", "093720.822000", "093720.824000", "093720.826000", "093800.782000", "093800.785000", "093800.787000", "093800.790000", "093800.792000", "093800.794000", "093800.796000", "093800.799000", "093800.801000", "093800.804000", "093800.806000", "093800.808000", "093800.811000", "093800.813000", "093800.815000", "093800.818000", "093800.820000", "093800.822000", "093800.824000", "093800.827000", "093840.782000", "093840.785000", "093840.787000", "093840.789000", "093840.792000", "093840.794000", "093840.797000", "093840.799000", "093840.801000", "093840.804000", "093840.806000", "093840.808000", "093840.811000", "093840.813000", "093840.815000", "093840.818000", "093840.820000", "093840.822000", "093840.824000", "093840.827000", "093900.782000", "093900.785000", "093900.787000", "093900.790000", "093900.792000", "093900.794000", "093900.796000", "093900.799000", "093900.801000", "093900.804000", "093940.781000", "093940.784000", "093940.786000", "093940.789000", "093940.791000", "093940.793000", "093940.796000", "093940.798000", "093940.815000", "093940.818000", "093940.820000", "093940.823000", "093940.825000", "093940.827000", "093940.830000", "093940.832000", "093940.834000", "093940.837000", "093940.839000", "093940.841000", "093953.118000", "093953.121000", "093953.123000", "093953.126000", "093953.128000", "093953.130000", "093953.133000"],
      "InstanceNumber": [1, 2, 3, 4, 5, 6, 7, 8, 9, 10, 11, 12, 13, 14, 15, 16, 17, 18, 19, 20, 21, 22, 23, 24, 25, 26, 27, 28, 29, 30, 31, 32, 33, 34, 35, 36, 37, 38, 39, 40, 41, 42, 43, 44, 45, 46, 47, 48, 49, 50, 51, 52, 53, 54, 55, 56, 57, 58, 59, 60, 61, 62, 63, 64, 65, 66, 67, 68, 69, 70, 71, 72, 73, 74, 75, 76, 77, 78, 79, 80, 81, 82, 83, 84, 85, 86, 87, 88, 89, 90, 91, 92, 93, 94, 95, 96, 97, 98, 99, 100, 101, 102, 103, 104, 105, 106, 107, 108, 109, 110, 111, 112, 113, 114, 115, 116, 117, 118, 119, 120, 121, 122, 123, 124, 125, 126, 127, 128, 129, 130, 131, 132, 133, 134, 135, 136, 137, 138, 139, 140, 141, 142, 143, 144, 145, 146, 147, 148, 149, 150, 151, 152, 153, 154, 155, 156, 157, 158, 159, 160, 161, 162, 163, 164, 165, 166, 167, 168, 169, 170, 171, 172, 173, 174, 175, 176, 177, 178, 179, 180, 181, 182, 183, 184, 185, 186, 187, 188, 189, 190, 191, 192, 193, 194, 195, 196, 197, 198, 199, 200],
      "WindowCenter": [1417.0, 1416.0, 1416.0, 1416.0, 1416.0, 1415.0, 1416.0, 1416.0, 1415.0, 1415.0, 1415.0, 1415.0, 1416.0, 1415.0, 1415.0, 1415.0, 1415.0, 1415.0, 1414.0, 1414.0, 1414.0, 1414.0, 1415.0, 1414.0, 1414.0, 1415.0, 1414.0, 1414.0, 1414.0, 1414.0, 1414.0, 1414.0, 1414.0, 1414.0, 1414.0, 1413.0, 1413.0, 1413.0, 1413.0, 1413.0, 1413.0, 1413.0, 1413.0, 1413.0, 1413.0, 1413.0, 1413.0, 1413.0, 1413.0, 1413.0, 1413.0, 1412.0, 1413.0, 1413.0, 1413.0, 1413.0, 1413.0, 1412.0, 1412.0, 1411.0, 1413.0, 1412.0, 1411.0, 1412.0, 1412.0, 1412.0, 1412.0, 1412.0, 1412.0, 1412.0, 1412.0, 1413.0, 1412.0, 1411.0, 1411.0, 1411.0, 1411.0, 1411.0, 1411.0, 1411.0, 1411.0, 1411.0, 1411.0, 1411.0, 1411.0, 1411.0, 1411.0, 1411.0, 1412.0, 1410.0, 1411.0, 1411.0, 1411.0, 1411.0, 1411.0, 1411.0, 1411.0, 1410.0, 1411.0, 1410.0, 1411.0, 1410.0, 1410.0, 1410.0, 1410.0, 1410.0, 1410.0, 1410.0, 1410.0, 1410.0, 1410.0, 1410.0, 1410.0, 1411.0, 1410.0, 1410.0, 1410.0, 1410.0, 1410.0, 1410.0, 1410.0, 1410.0, 1410.0, 1411.0, 1409.0, 1409.0, 1409.0, 1409.0, 1410.0, 1409.0, 1410.0, 1410.0, 1410.0, 1410.0, 1410.0, 1409.0, 1409.0, 1409.0, 1408.0, 1410.0, 1409.0, 1409.0, 1408.0, 1408.0, 1409.0, 1409.0, 1409.0, 1409.0, 1408.0, 1409.0, 1409.0, 1408.0, 1409.0, 1408.0, 1409.0, 1409.0, 1409.0, 1409.0, 1409.0, 1408.0, 1408.0, 1409.0, 1409.0, 1408.0, 1408.0, 1408.0, 1409.0, 1408.0, 1408.0, 1408.0, 1408.0, 1409.0, 1409.0, 1409.0, 1409.0, 1408.0, 1407.0, 1408.0, 1407.0, 1409.0, 1408.0, 1408.0, 1408.0, 1408.0, 1408.0, 1407.0, 1408.0, 1408.0, 1408.0, 1408.0, 1407.0, 1407.0, 1408.0, 1407.0, 1407.0, 1408.0, 1407.0, 1408.0, 1407.0, 1407.0],
      "WindowWidth": [3363.0, 3363.0, 3362.0, 3363.0, 3363.0, 3363.0, 3363.0, 3363.0, 3363.0, 3363.0, 3363.0, 3363.0, 3362.0, 3362.0, 3363.0, 3362.0, 3362.0, 3362.0, 3363.0, 3363.0, 3363.0, 3363.0, 3362.0, 3363.0, 3363.0, 3362.0, 3363.0, 3362.0, 3362.0, 3362.0, 3363.0, 3363.0, 3363.0, 3362.0, 3362.0, 3363.0, 3363.0, 3363.0, 3363.0, 3363.0, 3363.0, 3362.0, 3363.0, 3363.0, 3362.0, 3363.0, 3362.0, 3362.0, 3362.0, 3362.0, 3362.0, 3362.0, 3362.0, 3362.0, 3363.0, 3363.0, 3362.0, 3362.0, 3363.0, 3363.0, 3362.0, 3363.0, 3363.0, 3362.0, 3363.0, 3362.0, 3363.0, 3363.0, 3363.0, 3363.0, 3363.0, 3362.0, 3363.0, 3363.0, 3363.0, 3363.0, 3363.0, 3363.0, 3363.0, 3363.0, 3363.0, 3363.0, 3363.0, 3363.0, 3363.0, 3363.0, 3363.0, 3363.0, 3363.0, 3363.0, 3363.0, 3363.0, 3363.0, 3363.0, 3363.0, 3363.0, 3363.0, 3363.0, 3363.0, 3363.0, 3363.0, 3363.0, 3363.0, 3363.0, 3363.0, 3363.0, 3363.0, 3363.0, 3363.0, 3363.0, 3363.0, 3363.0, 3363.0, 3363.0, 3363.0, 3363.0, 3363.0, 3363.0, 3363.0, 3363.0, 3363.0, 3363.0, 3363.0, 3363.0, 3363.0, 3363.0, 3363.0, 3363.0, 3363.0, 3363.0, 3363.0, 3363.0, 3363.0, 3363.0, 3363.0, 3363.0, 3363.0, 3363.0, 3363.0, 3363.0, 3364.0, 3363.0, 3364.0, 3364.0, 3363.0, 3363.0, 3363.0, 3363.0, 3364.0, 3363.0, 3363.0, 3364.0, 3363.0, 3364.0, 3363.0, 3363.0, 3363.0, 3363.0, 3363.0, 3363.0, 3364.0, 3363.0, 3363.0, 3364.0, 3364.0, 3364.0, 3363.0, 3364.0, 3364.0, 3363.0, 3363.0, 3363.0, 3363.0, 3363.0, 3363.0, 3363.0, 3363.0, 3363.0, 3363.0, 3363.0, 3363.0, 3363.0, 3363.0, 3364.0, 3364.0, 3363.0, 3364.0, 3363.0, 3363.0, 3363.0, 3363.0, 3363.0, 3363.0, 3363.0, 3363.0, 3363.0, 3363.0, 3363.0, 3363.0, 3363.0]
    },
    "slices": {}
  }
}