{
  "AcquisitionMatrixPE": 80,
  "AcquisitionNumber": 1,
  "AcquisitionTime": "09:40:0.515000",
  "BandwidthPerPixelPhaseEncode": 25,
  "BaseResolution": 80,
  "BodyPartExamined": "BRAIN",
  "CoilCombinationMethod": "Sum of Squares",
  "ConsistencyInfo": "N4_VE11E_LATEST_20181129",
  "ConversionSoftware": "dcm2niix",
  "ConversionSoftwareVersion": "v1.0.20220720",
  "DerivedVendorReportedEchoSpacing": 0.0005,
  "DeviceSerialNumber": "66112",
  "DwellTime": 2.7e-06,
  "EchoTime": 0.03,
  "EchoTrainLength": 80,
  "EffectiveEchoSpacing": 0.0005,
  "FlipAngle": 10,
  "HeudiconvVersion": "0.13.1",
  "ImageOrientationPatientDICOM": [0.99206, 0.125748, 0.00208336, -0.120404, 0.944854, 0.304555],
  "ImageOrientationText": "Tra>Cor(17.6)>Sag(-2.1)",
  "ImageType": [
    "ORIGINAL",
    "PRIMARY",
    "M",
    "ND",
    "NORM",
    "MOSAIC"
],
  "ImagingFrequency": 123.259,
  "InPlanePhaseEncodingDirectionDICOM": "COL",
  "InstitutionAddress": "Maynard 3,Hanover,NH,US,03755",
  "InstitutionName": "Dartmouth College - PBS",
  "InstitutionalDepartmentName": "Department",
  "MRAcquisitionType": "2D",
  "MagneticFieldStrength": 3,
  "Manufacturer": "Siemens",
  "ManufacturersModelName": "Prisma",
  "MatrixCoilMode": "SENSE",
  "Modality": "MR",
  "NonlinearGradientCorrection": false,
  "PartialFourier": 1,
  "PatientPosition": "HFS",
  "PercentPhaseFOV": 100,
  "PercentSampling": 100,
  "PhaseEncodingDirection": "j-",
  "PhaseEncodingSteps": 80,
  "PhaseResolution": 1,
  "PixelBandwidth": 2315,
  "ProcedureStepDescription": "dbic^QA",
  "ProtocolName": "func-bold_fa-10",
  "PulseSequenceDetails": "%SiemensSeq%\\ep2d_bold",
  "ReceiveCoilActiveElements": "HC1-7;NC1,2",
  "ReceiveCoilName": "HeadNeck_64",
  "ReconMatrixPE": 80,
  "RepetitionTime": 2,
  "SAR": 0.00861827,
  "ScanOptions": "FS",
  "ScanningSequence": "EP",
  "SequenceName": "*epfid2d1_80",
  "SequenceVariant": "SK",
  "SeriesDescription": "func-bold_fa-10",
  "SeriesNumber": 7,
  "ShimSetting": [4220, -7755, -7484, -101, -163, -182, -28, 128],
  "SliceThickness": 3.5,
  "SliceTiming": [0.99, 0, 1.055, 0.065, 1.12, 0.13, 1.1875, 0.1975, 1.2525, 0.2625, 1.32, 0.33, 1.385, 0.395, 1.45, 0.46, 1.5175, 0.5275, 1.5825, 0.5925, 1.65, 0.66, 1.715, 0.725, 1.78, 0.79, 1.8475, 0.8575, 1.9125, 0.9225],
  "SoftwareVersions": "syngo MR E11",
  "SpacingBetweenSlices": 3.99,
  "StationName": "AWP66112",
  "TotalReadoutTime": 0.0395,
  "TxRefAmp": 209.969,
  "dcmmeta_affine": [
    [-2.976180076599121, -0.3612116575241089, -0.1449514925479889, 133.77957153320312],
    [-0.37724363803863525, 2.834562063217163, 1.206527590751648, -111.91854858398438],
    [0.006250091828405857, -0.9136655330657959, 3.8004448413848877, -16.203603744506836],
    [0.0, 0.0, 0.0, 1.0]
],
  "dcmmeta_reorient_transform": [
    [0.0, -1.0, 0.0, 79.0],
    [1.0, 0.0, 0.0, 0.0],
    [0.0, 0.0, 1.0, 0.0],
    [0.0, 0.0, 0.0, 1.0]
],
  "dcmmeta_shape": [80, 80, 30, 200],
  "dcmmeta_slice_dim": 2,
  "dcmmeta_version": 0.6,
  "global": {
    "const": {
      "AccessionNumber": "qa64",
      "AcquisitionMatrix": [80, 0, 0, 80],
      "AngioFlag": "N",
      "BitsAllocated": 16,
      "BitsStored": 12,
      "BodyPartExamined": "BRAIN",
      "Columns": 480,
      "EchoNumbers": 1,
      "EchoTime": 30.0,
      "EchoTrainLength": 80,
      "FlipAngle": 10.0,
      "HighBit": 11,
      "ImageOrientationPatient": [0.99206004365562, 0.12574788020678, 0.00208336398724, -0.1204038862887, 0.94485398246105, 0.30455517725708],
      "ImagePositionPatient": [-628.23755100431, -754.37296056664, -272.36630517687],
      "ImageType": [
        "ORIGINAL",
        "PRIMARY",
        "M",
        "ND",
        "NORM",
        "MOSAIC"
],
      "ImagedNucleus": "1H",
      "ImagingFrequency": 123.259245,
      "InPlanePhaseEncodingDirection": "COL",
      "MRAcquisitionType": "2D",
      "MagneticFieldStrength": 3.0,
      "Manufacturer": "SIEMENS",
      "ManufacturerModelName": "Prisma",
      "Modality": "MR",
      "NumberOfAverages": 1.0,
      "NumberOfPhaseEncodingSteps": 80,
      "PercentPhaseFieldOfView": 100.0,
      "PercentSampling": 100.0,
      "PerformedProcedureStepStartTime": "092444.105000",
      "PhotometricInterpretation": "MONOCHROME2",
      "PixelBandwidth": 2315.0,
      "PixelRepresentation": 0,
      "PixelSpacing": [3.0, 3.0],
      "ProtocolName": "func-bold_fa-10",
      "RepetitionTime": 2000.0,
      "Rows": 480,
      "SAR": 0.00861827118797,
      "SamplesPerPixel": 1,
      "ScanOptions": "FS",
      "ScanningSequence": "EP",
      "SequenceName": "*epfid2d1_80",
      "SequenceVariant": "SK",
      "SeriesDescription": "func-bold_fa-10",
      "SeriesNumber": 7,
      "SeriesTime": "094040.870000",
      "SliceLocation": -54.136658550059,
      "SliceThickness": 3.5,
      "SmallestImagePixelValue": 0,
      "SoftwareVersions": "syngo MR E11",
      "SpacingBetweenSlices": 3.990000018781,
      "SpecificCharacterSet": "ISO_IR 100",
      "StudyID": "21",
      "StudyTime": "092443.946000",
      "TransmitCoilName": "Body",
      "VariableFlipAngleFlag": "N",
      "WindowCenterWidthExplanation": "Algo1"
    },
    "slices": {}
  },
  "time": {
    "samples": {
      "AcquisitionNumber": [1, 2, 3, 4, 5, 6, 7, 8, 9, 10, 11, 12, 13, 14, 15, 16, 17, 18, 19, 20, 21, 22, 23, 24, 25, 26, 27, 28, 29, 30, 31, 32, 33, 34, 35, 36, 37, 38, 39, 40, 41, 42, 43, 44, 45, 46, 47, 48, 49, 50, 51, 52, 53, 54, 55, 56, 57, 58, 59, 60, 61, 62, 63, 64, 65, 66, 67, 68, 69, 70, 71, 72, 73, 74, 75, 76, 77, 78, 79, 80, 81, 82, 83, 84, 85, 86, 87, 88, 89, 90, 91, 92, 93, 94, 95, 96, 97, 98, 99, 100, 101, 102, 103, 104, 105, 106, 107, 108, 109, 110, 111, 112, 113, 114, 115, 116, 117, 118, 119, 120, 121, 122, 123, 124, 125, 126, 127, 128, 129, 130, 131, 132, 133, 134, 135, 136, 137, 138, 139, 140, 141, 142, 143, 144, 145, 146, 147, 148, 149, 150, 151, 152, 153, 154, 155, 156, 157, 158, 159, 160, 161, 162, 163, 164, 165, 166, 167, 168, 169, 170, 171, 172, 173, 174, 175, 176, 177, 178, 179, 180, 181, 182, 183, 184, 185, 186, 187, 188, 189, 190, 191, 192, 193, 194, 195, 196, 197, 198, 199, 200],
      "AcquisitionTime": ["094000.515000", "094002.515000", "094004.515000", "094006.515000", "094008.515000", "094010.515000", "094012.515000", "094014.515000", "094016.515000", "094018.515000", "094020.515000", "094022.515000", "094024.515000", "094026.515000", "094028.515000", "094030.515000", "094032.515000", "094034.515000", "094036.515000", "094038.515000", "094040.515000", "094042.515000", "094044.515000", "094046.515000", "094048.515000", "094050.515000", "094052.515000", "094054.515000", "094056.515000", "094058.515000", "094100.515000", "094102.515000", "094104.515000", "094106.515000", "094108.515000", "094110.515000", "094112.515000", "094114.515000", "094116.515000", "094118.515000", "094120.515000", "094122.515000", "094124.515000", "094126.515000", "094128.515000", "094130.515000", "094132.515000", "094134.515000", "094136.515000", "094138.515000", "094140.515000", "094142.515000", "094144.515000", "094146.515000", "094148.515000", "094150.515000", "094152.515000", "094154.515000", "094156.515000", "094158.515000", "094200.515000", "094202.515000", "094204.515000", "094206.515000", "094208.515000", "094210.515000", "094212.515000", "094214.515000", "094216.515000", "094218.515000", "094220.515000", "094222.515000", "094224.515000", "094226.515000", "094228.515000", "094230.515000", "094232.515000", "094234.515000", "094236.515000", "094238.515000", "094240.515000", "094242.515000", "094244.515000", "094246.515000", "094248.515000", "094250.515000", "094252.515000", "094254.515000", "094256.515000", "094258.515000", "094300.515000", "094302.515000", "094304.515000", "094306.515000", "094308.515000", "094310.515000", "094312.515000", "094314.515000", "094316.515000", "094318.515000", "094320.515000", "094322.515000", "094324.515000", "094326.515000", "094328.515000", "094330.515000", "094332.515000", "094334.515000", "094336.515000", "094338.515000", "094340.515000", "094342.515000", "094344.515000", "094346.515000", "094348.515000", "094350.515000", "094352.515000", "094354.515000", "094356.515000", "094358.515000", "094400.515000", "094402.515000", "094404.515000", "094406.515000", "094408.515000", "094410.515000", "094412.515000", "094414.515000", "094416.515000", "094418.515000", "094420.515000", "094422.515000", "094424.515000", "094426.515000", "094428.515000", "094430.515000", "094432.515000", "094434.515000", "094436.515000", "094438.515000", "094440.515000", "094442.515000", "094444.515000", "094446.515000", "094448.515000", "094450.515000", "094452.515000", "094454.515000", "094456.515000", "094458.515000", "094500.515000", "094502.515000", "094504.515000", "094506.515000", "094508.515000", "094510.515000", "094512.515000", "094514.515000", "094516.515000", "094518.515000", "094520.515000", "094522.515000", "094524.515000", "094526.515000", "094528.515000", "094530.515000", "094532.515000", "094534.515000", "094536.515000", "094538.515000", "094540.515000", "094542.515000", "094544.515000", "094546.515000", "094548.515000", "094550.515000", "094552.515000", "094554.515000", "094556.515000", "094558.515000", "094600.515000", "094602.515000", "094604.515000", "094606.515000", "094608.515000", "094610.515000", "094612.515000", "094614.515000", "094616.515000", "094618.515000", "094620.515000", "094622.515000", "094624.515000", "094626.515000", "094628.515000", "094630.515000", "094632.515000", "094634.515000", "094636.515000", "094638.515000"],
      "ContentTime": ["094040.873000", "094040.876000", "094040.878000", "094040.881000", "094040.883000", "094040.898000", "094040.900000", "094040.904000", "094040.906000", "094040.909000", "094040.911000", "094040.913000", "094040.916000", "094040.918000", "094040.920000", "094040.922000", "094040.925000", "094040.927000", "094040.929000", "094040.931000", "094120.868000", "094120.871000", "094120.873000", "094120.875000", "094120.878000", "094120.880000", "094120.882000", "094120.885000", "094120.887000", "094120.889000", "094120.892000", "094120.894000", "094120.896000", "094120.898000", "094120.901000", "094120.903000", "094120.905000", "094120.908000", "094120.910000", "094120.912000", "094200.868000", "094200.871000", "094200.873000", "094200.876000", "094200.878000", "094200.880000", "094200.883000", "094200.885000", "094200.887000", "094200.889000", "094200.892000", "094200.894000", "094200.896000", "094200.899000", "094200.901000", "094200.903000", "094200.915000", "094200.917000", "094200.920000", "094200.922000", "094240.868000", "094240.870000", "094240.873000", "094240.875000", "094240.877000", "094240.880000", "094240.882000", "094240.884000", "094240.887000", "094240.889000", "094240.891000", "094240.893000", "094240.896000", "094240.898000", "094240.900000", "094240.903000", "094240.905000", "094240.907000", "094240.909000", "094240.912000", "094320.868000", "094320.871000", "094320.873000", "094320.879000", "094320.881000", "094320.883000", "094320.886000", "094320.888000", "094320.890000", "094320.893000", "094320.895000", "094320.897000", "094320.900000", "094320.902000", "094320.904000", "094320.907000", "094320.909000", "094320.911000", "094320.913000", "094320.916000", "094400.868000", "094400.871000", "094400.873000", "094400.875000", "094400.878000", "094400.880000", "094400.882000", "094400.884000", "094400.887000", "094400.889000", "094400.892000", "094400.894000", "094400.896000", "094400.898000", "094400.901000", "094400.903000", "094400.905000", "094400.907000", "094400.910000", "094400.912000", "094440.868000", "094440.870000", "094440.873000", "094440.875000", "094440.877000", "094440.880000", "094440.882000", "094440.884000", "094440.886000", "094440.889000", "094440.891000", "094440.893000", "094440.895000", "094440.898000", "094440.900000", "094440.916000", "094440.918000", "094440.921000", "094440.923000", "094440.925000", "094520.868000", "094520.871000", "094520.873000", "094520.875000", "094520.877000", "094520.880000", "094520.882000", "094520.884000", "094520.887000", "094520.889000", "094520.891000", "094520.894000", "094520.896000", "094520.898000", "094520.900000", "094520.903000", "094520.905000", "094520.907000", "094520.910000", "094520.912000", "094600.868000", "094600.871000", "094600.873000", "094600.875000", "094600.878000", "094600.880000", "094600.882000", "094600.884000", "094600.887000", "094600.889000", "094600.891000", "094600.894000", "094600.896000", "094600.898000", "094600.900000", "094600.903000", "094600.905000", "094600.907000", "094600.909000", "094600.912000", "094639.649000", "094639.652000", "094639.654000", "094639.656000", "094639.659000", "094639.661000", "094639.663000", "094639.666000", "094639.668000", "094639.670000", "094639.672000", "094639.675000", "094639.677000", "094639.679000", "094639.685000", "094639.689000", "094639.692000", "094639.694000", "094639.697000", "094639.711000"],
      "InstanceCreationTime": ["094040.873000", "094040.876000", "094040.878000", "094040.881000", "094040.883000", "094040.898000", "094040.900000", "094040.904000", "094040.906000", "094040.909000", "094040.911000", "094040.913000", "094040.916000", "094040.918000", "094040.920000", "094040.922000", "094040.925000", "094040.927000", "094040.929000", "094040.931000", "094120.868000", "094120.871000", "094120.873000", "094120.875000", "094120.878000", "094120.880000", "094120.882000", "094120.885000", "094120.887000", "094120.889000", "094120.892000", "094120.894000", "094120.896000", "094120.898000", "094120.901000", "094120.903000", "094120.905000", "094120.908000", "094120.910000", "094120.912000", "094200.868000", "094200.871000", "094200.873000", "094200.876000", "094200.878000", "094200.880000", "094200.883000", "094200.885000", "094200.887000", "094200.889000", "094200.892000", "094200.894000", "094200.896000", "094200.899000", "094200.901000", "094200.903000", "094200.915000", "094200.917000", "094200.920000", "094200.922000", "094240.868000", "094240.870000", "094240.873000", "094240.875000", "094240.877000", "094240.880000", "094240.882000", "094240.884000", "094240.887000", "094240.889000", "094240.891000", "094240.893000", "094240.896000", "094240.898000", "094240.900000", "094240.903000", "094240.905000", "094240.907000", "094240.909000", "094240.912000", "094320.868000", "094320.871000", "094320.873000", "094320.879000", "094320.881000", "094320.883000", "094320.886000", "094320.888000", "094320.890000", "094320.893000", "094320.895000", "094320.897000", "094320.900000", "094320.902000", "094320.904000", "094320.907000", "094320.909000", "094320.911000", "094320.913000", "094320.916000", "094400.868000", "094400.871000", "094400.873000", "094400.875000", "094400.878000", "094400.880000", "094400.882000", "094400.884000", "094400.887000", "094400.889000", "094400.892000", "094400.894000", "094400.896000", "094400.898000", "094400.901000", "094400.903000", "094400.905000", "094400.907000", "094400.910000", "094400.912000", "094440.868000", "094440.870000", "094440.873000", "094440.875000", "094440.877000", "094440.880000", "094440.882000", "094440.884000", "094440.886000", "094440.889000", "094440.891000", "094440.893000", "094440.895000", "094440.898000", "094440.900000", "094440.916000", "094440.918000", "094440.921000", "094440.923000", "094440.925000", "094520.868000", "094520.871000", "094520.873000", "094520.875000", "094520.877000", "094520.880000", "094520.882000", "094520.884000", "094520.887000", "094520.889000", "094520.891000", "094520.894000", "094520.896000", "094520.898000", "094520.900000", "094520.903000", "094520.905000", "094520.907000", "094520.910000", "094520.912000", "094600.868000", "094600.871000", "094600.873000", "094600.875000", "094600.878000", "094600.880000", "094600.882000", "094600.884000", "094600.887000", "094600.889000", "094600.891000", "094600.894000", "094600.896000", "094600.898000", "094600.900000", "094600.903000", "094600.905000", "094600.907000", "094600.909000", "094600.912000", "094639.649000", "094639.652000", "094639.654000", "094639.656000", "094639.659000", "094639.661000", "094639.663000", "094639.666000", "094639.668000", "094639.670000", "094639.672000", "094639.675000", "094639.677000", "094639.679000", "094639.685000", "094639.689000", "094639.692000", "094639.694000", "094639.697000", "094639.711000"],
      "InstanceNumber": [1, 2, 3, 4, 5, 6, 7, 8, 9, 10, 11, 12, 13, 14, 15, 16, 17, 18, 19, 20, 21, 22, 23, 24, 25, 26, 27, 28, 29, 30, 31, 32, 33, 34, 35, 36, 37, 38, 39, 40, 41, 42, 43, 44, 45, 46, 47, 48, 49, 50, 51, 52, 53, 54, 55, 56, 57, 58, 59, 60, 61, 62, 63, 64, 65, 66, 67, 68, 69, 70, 71, 72, 73, 74, 75, 76, 77, 78, 79, 80, 81, 82, 83, 84, 85, 86, 87, 88, 89, 90, 91, 92, 93, 94, 95, 96, 97, 98, 99, 100, 101, 102, 103, 104, 105, 106, 107, 108, 109, 110, 111, 112, 113, 114, 115, 116, 117, 118, 119, 120, 121, 122, 123, 124, 125, 126, 127, 128, 129, 130, 131, 132, 133, 134, 135, 136, 137, 138, 139, 140, 141, 142, 143, 144, 145, 146, 147, 148, 149, 150, 151, 152, 153, 154, 155, 156, 157, 158, 159, 160, 161, 162, 163, 164, 165, 166, 167, 168, 169, 170, 171, 172, 173, 174, 175, 176, 177, 178, 179, 180, 181, 182, 183, 184, 185, 186, 187, 188, 189, 190, 191, 192, 193, 194, 195, 196, 197, 198, 199, 200],
      "LargestImagePixelValue": [715, 718, 722, 721, 715, 717, 717, 717, 721, 719, 718, 716, 718, 715, 717, 719, 716, 716, 718, 722, 719, 720, 721, 719, 722, 719, 720, 720, 721, 720, 722, 719, 719, 719, 720, 721, 718, 719, 725, 724, 722, 721, 722, 720, 721, 722, 720, 723, 724, 720, 725, 723, 720, 720, 720, 724, 721, 725, 720, 721, 721, 720, 720, 723, 726, 721, 720, 724, 721, 721, 723, 718, 721, 722, 722, 721, 726, 722, 721, 721, 722, 721, 723, 724, 724, 722, 730, 728, 724, 724, 725, 723, 723, 723, 723, 724, 725, 724, 721, 722, 723, 724, 723, 724, 723, 725, 729, 726, 723, 725, 727, 721, 723, 725, 724, 727, 725, 727, 722, 726, 728, 727, 724, 724, 723, 727, 725, 724, 727, 729, 724, 728, 727, 724, 727, 730, 725, 725, 727, 726, 723, 726, 727, 722, 726, 726, 726, 725, 728, 725, 724, 728, 725, 726, 729, 727, 723, 723, 725, 726, 726, 728, 726, 727, 725, 728, 727, 727, 726, 725, 726, 729, 728, 724, 729, 728, 724, 726, 728, 726, 725, 730, 726, 726, 729, 726, 729, 732, 727, 726, 727, 727, 727, 730, 726, 727, 727, 729, 727, 725],
      "WindowCenter": [466.0, 466.0, 466.0, 466.0, 466.0, 467.0, 466.0, 466.0, 466.0, 467.0, 466.0, 466.0, 466.0, 466.0, 466.0, 467.0, 466.0, 466.0, 466.0, 466.0, 466.0, 466.0, 466.0, 466.0, 466.0, 466.0, 466.0, 466.0, 466.0, 466.0, 466.0, 466.0, 466.0, 466.0, 466.0, 466.0, 466.0, 466.0, 466.0, 466.0, 466.0, 466.0, 466.0, 466.0, 466.0, 466.0, 466.0, 466.0, 466.0, 466.0, 466.0, 466.0, 466.0, 466.0, 466.0, 466.0, 466.0, 466.0, 466.0, 466.0, 466.0, 466.0, 466.0, 466.0, 466.0, 466.0, 466.0, 466.0, 466.0, 466.0, 466.0, 466.0, 466.0, 466.0, 466.0, 466.0, 466.0, 466.0, 466.0, 466.0, 466.0, 466.0, 466.0, 466.0, 466.0, 466.0, 467.0, 466.0, 466.0, 466.0, 466.0, 466.0, 466.0, 466.0, 466.0, 466.0, 466.0, 466.0, 466.0, 466.0, 466.0, 466.0, 466.0, 466.0, 466.0, 466.0, 466.0, 466.0, 466.0, 466.0, 466.0, 466.0, 466.0, 466.0, 466.0, 466.0, 466.0, 466.0, 466.0, 466.0, 466.0, 466.0, 466.0, 466.0, 466.0, 466.0, 466.0, 465.0, 466.0, 466.0, 465.0, 466.0, 466.0, 465.0, 465.0, 467.0, 466.0, 465.0, 466.0, 465.0, 465.0, 466.0, 466.0, 465.0, 465.0, 466.0, 465.0, 465.0, 466.0, 465.0, 465.0, 466.0, 465.0, 465.0, 466.0, 465.0, 465.0, 465.0, 466.0, 465.0, 465.0, 466.0, 465.0, 465.0, 466.0, 465.0, 465.0, 466.0, 466.0, 465.0, 465.0, 465.0, 465.0, 465.0, 465.0, 465.0, 465.0, 465.0, 466.0, 465.0, 465.0, 466.0, 465.0, 465.0, 465.0, 465.0, 465.0, 466.0, 465.0, 465.0, 465.0, 465.0, 465.0, 466.0, 465.0, 465.0, 465.0, 465.0, 465.0, 465.0],
      "WindowWidth": [967.0, 967.0, 967.0, 967.0, 967.0, 968.0, 967.0, 967.0, 967.0, 968.0, 967.0, 967.0, 967.0, 967.0, 967.0, 968.0, 967.0, 967.0, 967.0, 967.0, 967.0, 967.0, 967.0, 966.0, 967.0, 967.0, 967.0, 967.0, 967.0, 966.0, 967.0, 967.0, 967.0, 966.0, 967.0, 967.0, 966.0, 967.0, 967.0, 966.0, 967.0, 967.0, 966.0, 966.0, 967.0, 966.0, 966.0, 967.0, 966.0, 966.0, 967.0, 967.0, 966.0, 967.0, 967.0, 966.0, 966.0, 967.0, 966.0, 966.0, 967.0, 966.0, 966.0, 967.0, 967.0, 966.0, 966.0, 967.0, 966.0, 966.0, 967.0, 966.0, 966.0, 967.0, 966.0, 966.0, 967.0, 966.0, 966.0, 966.0, 967.0, 966.0, 966.0, 967.0, 966.0, 966.0, 968.0, 966.0, 965.0, 966.0, 966.0, 966.0, 966.0, 966.0, 966.0, 966.0, 966.0, 966.0, 965.0, 966.0, 966.0, 965.0, 966.0, 966.0, 965.0, 966.0, 966.0, 966.0, 965.0, 966.0, 965.0, 966.0, 966.0, 966.0, 966.0, 966.0, 966.0, 965.0, 966.0, 966.0, 965.0, 966.0, 966.0, 965.0, 966.0, 966.0, 966.0, 965.0, 966.0, 966.0, 965.0, 966.0, 966.0, 965.0, 965.0, 967.0, 965.0, 965.0, 966.0, 965.0, 965.0, 966.0, 966.0, 965.0, 965.0, 966.0, 965.0, 965.0, 966.0, 965.0, 965.0, 966.0, 965.0, 965.0, 966.0, 965.0, 965.0, 965.0, 966.0, 965.0, 965.0, 965.0, 965.0, 965.0, 966.0, 965.0, 965.0, 966.0, 966.0, 965.0, 965.0, 965.0, 965.0, 965.0, 965.0, 965.0, 965.0, 965.0, 966.0, 965.0, 965.0, 967.0, 965.0, 965.0, 965.0, 965.0, 965.0, 967.0, 965.0, 965.0, 965.0, 965.0, 965.0, 967.0, 965.0, 965.0, 965.0, 965.0, 965.0, 965.0]
    },
    "slices": {}
  }
}