{
  "AcquisitionMatrixPE": 80,
  "AcquisitionNumber": 1,
  "AcquisitionTime": "10:11:54.567500",
  "BandwidthPerPixelPhaseEncode": 25,
  "BaseResolution": 80,
  "BodyPartExamined": "BRAIN",
  "CoilCombinationMethod": "Sum of Squares",
  "ConsistencyInfo": "N4_VE11E_LATEST_20181129",
  "ConversionSoftware": "dcm2niix",
  "ConversionSoftwareVersion": "v1.0.20220720",
  "DerivedVendorReportedEchoSpacing": 0.0005,
  "DeviceSerialNumber": "66112",
  "DwellTime": 2.7e-06,
  "EchoTime": 0.03,
  "EchoTrainLength": 80,
  "EffectiveEchoSpacing": 0.0005,
  "FlipAngle": 77,
  "HeudiconvVersion": "0.13.1",
  "ImageOrientationPatientDICOM": [0.988395, 0.15161, 0.00951276, -0.147364, 0.941746, 0.302322],
  "ImageOrientationText": "Tra>Cor(17.5)>Sag(-2.1)",
  "ImageType": [
    "ORIGINAL",
    "PRIMARY",
    "M",
    "ND",
    "NORM",
    "MOSAIC"
],
  "ImagingFrequency": 123.259,
  "InPlanePhaseEncodingDirectionDICOM": "COL",
  "InstitutionAddress": "Maynard 3,Hanover,NH,US,03755",
  "InstitutionName": "Dartmouth College - PBS",
  "InstitutionalDepartmentName": "Department",
  "MRAcquisitionType": "2D",
  "MagneticFieldStrength": 3,
  "Manufacturer": "Siemens",
  "ManufacturersModelName": "Prisma",
  "MatrixCoilMode": "SENSE",
  "Modality": "MR",
  "NonlinearGradientCorrection": false,
  "PartialFourier": 1,
  "PatientPosition": "HFS",
  "PercentPhaseFOV": 100,
  "PercentSampling": 100,
  "PhaseEncodingDirection": "j-",
  "PhaseEncodingSteps": 80,
  "PhaseResolution": 1,
  "PixelBandwidth": 2315,
  "ProcedureStepDescription": "dbic^QA",
  "ProtocolName": "func-bold_fa-77",
  "PulseSequenceDetails": "%SiemensSeq%\\ep2d_bold",
  "ReceiveCoilActiveElements": "HEA;HEP",
  "ReceiveCoilName": "Head_32",
  "ReconMatrixPE": 80,
  "RepetitionTime": 2,
  "SAR": 0.0641457,
  "ScanOptions": "FS",
  "ScanningSequence": "EP",
  "SequenceName": "*epfid2d1_80",
  "SequenceVariant": "SK",
  "SeriesDescription": "func-bold_fa-77",
  "SeriesNumber": 7,
  "ShimSetting": [4219, -7737, -7486, -29, -143, -6, 6, 55],
  "SliceThickness": 3.5,
  "SliceTiming": [0.99, 0, 1.055, 0.065, 1.12, 0.13, 1.1875, 0.1975, 1.2525, 0.2625, 1.3175, 0.33, 1.385, 0.395, 1.45, 0.46, 1.5175, 0.5275, 1.5825, 0.5925, 1.6475, 0.66, 1.715, 0.725, 1.78, 0.79, 1.8475, 0.8575, 1.9125, 0.9225],
  "SoftwareVersions": "syngo MR E11",
  "SpacingBetweenSlices": 3.99,
  "StationName": "AWP66112",
  "TotalReadoutTime": 0.0395,
  "TxRefAmp": 224.71,
  "dcmmeta_affine": [
    [-2.965183973312378, -0.4420914947986603, -0.14713622629642487, 141.0042724609375],
    [-0.45482873916625977, 2.825237989425659, 1.19785737991333, -107.05430603027344],
    [0.02853826805949211, -0.9069647789001465, 3.803102493286133, -12.363277435302734],
    [0.0, 0.0, 0.0, 1.0]
],
  "dcmmeta_reorient_transform": [
    [0.0, -1.0, 0.0, 79.0],
    [1.0, 0.0, 0.0, 0.0],
    [0.0, 0.0, 1.0, 0.0],
    [0.0, 0.0, 0.0, 1.0]
],
  "dcmmeta_shape": [80, 80, 30, 200],
  "dcmmeta_slice_dim": 2,
  "dcmmeta_version": 0.6,
  "global": {
    "const": {
      "AccessionNumber": "qa",
      "AcquisitionMatrix": [80, 0, 0, 80],
      "AngioFlag": "N",
      "BitsAllocated": 16,
      "BitsStored": 12,
      "BodyPartExamined": "BRAIN",
      "Columns": 480,
      "EchoNumbers": 1,
      "EchoTime": 30.0,
      "EchoTrainLength": 80,
      "FlipAngle": 77.0,
      "HighBit": 11,
      "ImageOrientationPatient": [0.988394680094, 0.1516095769891, 0.00951275601869, -0.1473638310165, 0.94174601592539, 0.30232158837371],
      "ImagePositionPatient": [-610.69754771579, -772.15285741906, -271.1141003075],
      "ImageType": [
        "ORIGINAL",
        "PRIMARY",
        "M",
        "ND",
        "NORM",
        "MOSAIC"
],
      "ImagedNucleus": "1H",
      "ImagingFrequency": 123.259228,
      "InPlanePhaseEncodingDirection": "COL",
      "MRAcquisitionType": "2D",
      "MagneticFieldStrength": 3.0,
      "Manufacturer": "SIEMENS",
      "ManufacturerModelName": "Prisma",
      "Modality": "MR",
      "NumberOfAverages": 1.0,
      "NumberOfPhaseEncodingSteps": 80,
      "PercentPhaseFieldOfView": 100.0,
      "PercentSampling": 100.0,
      "PerformedProcedureStepStartTime": "094537.240000",
      "PhotometricInterpretation": "MONOCHROME2",
      "PixelBandwidth": 2315.0,
      "PixelRepresentation": 0,
      "PixelSpacing": [3.0, 3.0],
      "ProtocolName": "func-bold_fa-77",
      "RepetitionTime": 2000.0,
      "Rows": 480,
      "SAR": 0.0641457284957,
      "SamplesPerPixel": 1,
      "ScanOptions": "FS",
      "ScanningSequence": "EP",
      "SequenceName": "*epfid2d1_80",
      "SequenceVariant": "SK",
      "SeriesDescription": "func-bold_fa-77",
      "SeriesNumber": 7,
      "SeriesTime": "101242.709000",
      "SliceLocation": -49.123167004689,
      "SliceThickness": 3.5,
      "SmallestImagePixelValue": 0,
      "SoftwareVersions": "syngo MR E11",
      "SpacingBetweenSlices": 3.9900000725496,
      "SpecificCharacterSet": "ISO_IR 100",
      "StudyID": "13",
      "StudyTime": "094537.183000",
      "TransmitCoilName": "Body",
      "VariableFlipAngleFlag": "N",
      "WindowCenterWidthExplanation": "Algo1"
    },
    "slices": {}
  },
  "time": {
    "samples": {
      "AcquisitionNumber": [1, 2, 3, 4, 5, 6, 7, 8, 9, 10, 11, 12, 13, 14, 15, 16, 17, 18, 19, 20, 21, 22, 23, 24, 25, 26, 27, 28, 29, 30, 31, 32, 33, 34, 35, 36, 37, 38, 39, 40, 41, 42, 43, 44, 45, 46, 47, 48, 49, 50, 51, 52, 53, 54, 55, 56, 57, 58, 59, 60, 61, 62, 63, 64, 65, 66, 67, 68, 69, 70, 71, 72, 73, 74, 75, 76, 77, 78, 79, 80, 81, 82, 83, 84, 85, 86, 87, 88, 89, 90, 91, 92, 93, 94, 95, 96, 97, 98, 99, 100, 101, 102, 103, 104, 105, 106, 107, 108, 109, 110, 111, 112, 113, 114, 115, 116, 117, 118, 119, 120, 121, 122, 123, 124, 125, 126, 127, 128, 129, 130, 131, 132, 133, 134, 135, 136, 137, 138, 139, 140, 141, 142, 143, 144, 145, 146, 147, 148, 149, 150, 151, 152, 153, 154, 155, 156, 157, 158, 159, 160, 161, 162, 163, 164, 165, 166, 167, 168, 169, 170, 171, 172, 173, 174, 175, 176, 177, 178, 179, 180, 181, 182, 183, 184, 185, 186, 187, 188, 189, 190, 191, 192, 193, 194, 195, 196, 197, 198, 199, 200],
      "AcquisitionTime": ["101154.567500", "101156.567500", "101158.567500", "101200.567500", "101202.567500", "101204.567500", "101206.567500", "101208.567500", "101210.567500", "101212.567500", "101214.567500", "101216.567500", "101218.567500", "101220.567500", "101222.567500", "101224.567500", "101226.567500", "101228.567500", "101230.567500", "101232.567500", "101234.567500", "101236.567500", "101238.567500", "101240.567500", "101242.567500", "101244.567500", "101246.567500", "101248.567500", "101250.567500", "101252.567500", "101254.567500", "101256.567500", "101258.567500", "101300.567500", "101302.567500", "101304.567500", "101306.567500", "101308.567500", "101310.567500", "101312.567500", "101314.567500", "101316.567500", "101318.567500", "101320.567500", "101322.567500", "101324.567500", "101326.567500", "101328.567500", "101330.567500", "101332.567500", "101334.567500", "101336.567500", "101338.567500", "101340.567500", "101342.567500", "101344.567500", "101346.567500", "101348.567500", "101350.567500", "101352.567500", "101354.567500", "101356.567500", "101358.567500", "101400.567500", "101402.567500", "101404.567500", "101406.567500", "101408.567500", "101410.567500", "101412.567500", "101414.567500", "101416.567500", "101418.567500", "101420.567500", "101422.567500", "101424.567500", "101426.567500", "101428.567500", "101430.567500", "101432.567500", "101434.567500", "101436.567500", "101438.567500", "101440.567500", "101442.567500", "101444.567500", "101446.567500", "101448.567500", "101450.567500", "101452.567500", "101454.567500", "101456.567500", "101458.567500", "101500.567500", "101502.567500", "101504.567500", "101506.567500", "101508.567500", "101510.567500", "101512.567500", "101514.567500", "101516.567500", "101518.567500", "101520.567500", "101522.567500", "101524.567500", "101526.567500", "101528.567500", "101530.567500", "101532.567500", "101534.567500", "101536.567500", "101538.567500", "101540.567500", "101542.567500", "101544.567500", "101546.567500", "101548.567500", "101550.567500", "101552.567500", "101554.567500", "101556.567500", "101558.567500", "101600.567500", "101602.567500", "101604.567500", "101606.567500", "101608.567500", "101610.567500", "101612.567500", "101614.567500", "101616.567500", "101618.567500", "101620.567500", "101622.567500", "101624.567500", "101626.567500", "101628.567500", "101630.567500", "101632.567500", "101634.567500", "101636.567500", "101638.567500", "101640.567500", "101642.567500", "101644.567500", "101646.567500", "101648.567500", "101650.567500", "101652.567500", "101654.567500", "101656.567500", "101658.567500", "101700.567500", "101702.567500", "101704.567500", "101706.567500", "101708.567500", "101710.567500", "101712.567500", "101714.567500", "101716.567500", "101718.567500", "101720.567500", "101722.567500", "101724.567500", "101726.567500", "101728.567500", "101730.567500", "101732.567500", "101734.567500", "101736.567500", "101738.567500", "101740.567500", "101742.567500", "101744.567500", "101746.567500", "101748.567500", "101750.567500", "101752.567500", "101754.567500", "101756.567500", "101758.567500", "101800.567500", "101802.567500", "101804.567500", "101806.567500", "101808.567500", "101810.567500", "101812.567500", "101814.567500", "101816.567500", "101818.567500", "101820.567500", "101822.567500", "101824.567500", "101826.567500", "101828.567500", "101830.567500", "101832.567500"],
      "ContentTime": ["101242.712000", "101242.715000", "101242.717000", "101242.720000", "101242.722000", "101242.724000", "101242.727000", "101242.729000", "101242.731000", "101242.733000", "101242.736000", "101242.738000", "101242.748000", "101242.750000", "101242.752000", "101242.757000", "101242.769000", "101242.771000", "101242.773000", "101242.775000", "101242.778000", "101242.780000", "101242.782000", "101242.785000", "101302.708000", "101302.711000", "101302.713000", "101302.715000", "101302.717000", "101302.720000", "101302.725000", "101302.727000", "101302.729000", "101302.732000", "101342.708000", "101342.711000", "101342.713000", "101342.715000", "101342.718000", "101342.720000", "101342.722000", "101342.724000", "101342.727000", "101342.729000", "101342.731000", "101342.734000", "101342.736000", "101342.738000", "101342.740000", "101342.743000", "101342.745000", "101342.747000", "101342.750000", "101342.752000", "101422.708000", "101422.716000", "101422.718000", "101422.721000", "101422.723000", "101422.725000", "101422.728000", "101422.730000", "101422.732000", "101422.735000", "101422.737000", "101422.739000", "101422.742000", "101422.744000", "101422.746000", "101422.748000", "101422.751000", "101422.753000", "101422.755000", "101422.758000", "101502.707000", "101502.710000", "101502.712000", "101502.714000", "101502.717000", "101502.719000", "101502.721000", "101502.724000", "101502.726000", "101502.728000", "101502.730000", "101502.733000", "101502.735000", "101502.737000", "101502.739000", "101502.742000", "101502.744000", "101502.746000", "101502.760000", "101502.762000", "101542.708000", "101542.711000", "101542.713000", "101542.715000", "101542.717000", "101542.720000", "101542.722000", "101542.724000", "101542.727000", "101542.729000", "101542.731000", "101542.734000", "101542.736000", "101542.738000", "101542.741000", "101542.743000", "101542.745000", "101542.748000", "101542.750000", "101542.752000", "101622.708000", "101622.711000", "101622.713000", "101622.715000", "101622.718000", "101622.720000", "101622.722000", "101622.724000", "101622.727000", "101622.729000", "101622.731000", "101622.734000", "101622.736000", "101622.738000", "101622.740000", "101622.743000", "101622.745000", "101622.747000", "101622.761000", "101622.763000", "101702.708000", "101702.711000", "101702.713000", "101702.715000", "101702.718000", "101702.720000", "101702.722000", "101702.725000", "101702.727000", "101702.729000", "101702.732000", "101702.734000", "101702.736000", "101702.738000", "101702.741000", "101702.743000", "101702.745000", "101702.748000", "101702.750000", "101702.752000", "101742.708000", "101742.711000", "101742.713000", "101742.715000", "101742.717000", "101742.720000", "101742.722000", "101742.724000", "101742.727000", "101742.729000", "101742.731000", "101742.733000", "101742.736000", "101742.738000", "101742.740000", "101742.743000", "101742.745000", "101742.747000", "101742.750000", "101742.752000", "101822.708000", "101822.711000", "101822.713000", "101822.716000", "101822.718000", "101822.720000", "101822.722000", "101822.725000", "101822.727000", "101822.729000", "101822.732000", "101822.734000", "101822.736000", "101822.739000", "101822.741000", "101822.743000", "101822.746000", "101822.748000", "101822.750000", "101822.753000", "101834.366000", "101834.369000", "101834.371000", "101834.373000", "101834.376000", "101834.378000"],
      "InstanceCreationTime": ["101242.712000", "101242.715000", "101242.717000", "101242.720000", "101242.722000", "101242.724000", "101242.727000", "101242.729000", "101242.731000", "101242.733000", "101242.736000", "101242.738000", "101242.748000", "101242.750000", "101242.752000", "101242.757000", "101242.769000", "101242.771000", "101242.773000", "101242.775000", "101242.778000", "101242.780000", "101242.782000", "101242.785000", "101302.708000", "101302.711000", "101302.713000", "101302.715000", "101302.717000", "101302.720000", "101302.725000", "101302.727000", "101302.729000", "101302.732000", "101342.708000", "101342.711000", "101342.713000", "101342.715000", "101342.718000", "101342.720000", "101342.722000", "101342.724000", "101342.727000", "101342.729000", "101342.731000", "101342.734000", "101342.736000", "101342.738000", "101342.740000", "101342.743000", "101342.745000", "101342.747000", "101342.750000", "101342.752000", "101422.708000", "101422.716000", "101422.718000", "101422.721000", "101422.723000", "101422.725000", "101422.728000", "101422.730000", "101422.732000", "101422.735000", "101422.737000", "101422.739000", "101422.742000", "101422.744000", "101422.746000", "101422.748000", "101422.751000", "101422.753000", "101422.755000", "101422.758000", "101502.707000", "101502.710000", "101502.712000", "101502.714000", "101502.717000", "101502.719000", "101502.721000", "101502.724000", "101502.726000", "101502.728000", "101502.730000", "101502.733000", "101502.735000", "101502.737000", "101502.739000", "101502.742000", "101502.744000", "101502.746000", "101502.760000", "101502.762000", "101542.708000", "101542.711000", "101542.713000", "101542.715000", "101542.717000", "101542.720000", "101542.722000", "101542.724000", "101542.727000", "101542.729000", "101542.731000", "101542.734000", "101542.736000", "101542.738000", "101542.741000", "101542.743000", "101542.745000", "101542.748000", "101542.750000", "101542.752000", "101622.708000", "101622.711000", "101622.713000", "101622.715000", "101622.718000", "101622.720000", "101622.722000", "101622.724000", "101622.727000", "101622.729000", "101622.731000", "101622.734000", "101622.736000", "101622.738000", "101622.740000", "101622.743000", "101622.745000", "101622.747000", "101622.761000", "101622.763000", "101702.708000", "101702.711000", "101702.713000", "101702.715000", "101702.718000", "101702.720000", "101702.722000", "101702.725000", "101702.727000", "101702.729000", "101702.732000", "101702.734000", "101702.736000", "101702.738000", "101702.741000", "101702.743000", "101702.745000", "101702.748000", "101702.750000", "101702.752000", "101742.708000", "101742.711000", "101742.713000", "101742.715000", "101742.717000", "101742.720000", "101742.722000", "101742.724000", "101742.727000", "101742.729000", "101742.731000", "101742.733000", "101742.736000", "101742.738000", "101742.740000", "101742.743000", "101742.745000", "101742.747000", "101742.750000", "101742.752000", "101822.708000", "101822.711000", "101822.713000", "101822.716000", "101822.718000", "101822.720000", "101822.722000", "101822.725000", "101822.727000", "101822.729000", "101822.732000", "101822.734000", "101822.736000", "101822.739000", "101822.741000", "101822.743000", "101822.746000", "101822.748000", "101822.750000", "101822.753000", "101834.366000", "101834.369000", "101834.371000", "101834.373000", "101834.376000", "101834.378000"],
      "InstanceNumber": [1, 2, 3, 4, 5, 6, 7, 8, 9, 10, 11, 12, 13, 14, 15, 16, 17, 18, 19, 20, 21, 22, 23, 24, 25, 26, 27, 28, 29, 30, 31, 32, 33, 34, 35, 36, 37, 38, 39, 40, 41, 42, 43, 44, 45, 46, 47, 48, 49, 50, 51, 52, 53, 54, 55, 56, 57, 58, 59, 60, 61, 62, 63, 64, 65, 66, 67, 68, 69, 70, 71, 72, 73, 74, 75, 76, 77, 78, 79, 80, 81, 82, 83, 84, 85, 86, 87, 88, 89, 90, 91, 92, 93, 94, 95, 96, 97, 98, 99, 100, 101, 102, 103, 104, 105, 106, 107, 108, 109, 110, 111, 112, 113, 114, 115, 116, 117, 118, 119, 120, 121, 122, 123, 124, 125, 126, 127, 128, 129, 130, 131, 132, 133, 134, 135, 136, 137, 138, 139, 140, 141, 142, 143, 144, 145, 146, 147, 148, 149, 150, 151, 152, 153, 154, 155, 156, 157, 158, 159, 160, 161, 162, 163, 164, 165, 166, 167, 168, 169, 170, 171, 172, 173, 174, 175, 176, 177, 178, 179, 180, 181, 182, 183, 184, 185, 186, 187, 188, 189, 190, 191, 192, 193, 194, 195, 196, 197, 198, 199, 200],
      "LargestImagePixelValue": [2214, 2215, 2214, 2215, 2215, 2214, 2214, 2215, 2215, 2215, 2215, 2214, 2214, 2215, 2214, 2214, 2214, 2213, 2214, 2215, 2213, 2214, 2211, 2213, 2215, 2212, 2215, 2212, 2214, 2212, 2216, 2215, 2216, 2213, 2215, 2214, 2214, 2214, 2214, 2214, 2214, 2214, 2213, 2211, 2212, 2214, 2213, 2210, 2213, 2211, 2212, 2213, 2210, 2214, 2213, 2212, 2213, 2211, 2213, 2211, 2213, 2212, 2210, 2211, 2212, 2211, 2211, 2215, 2211, 2210, 2211, 2210, 2213, 2211, 2211, 2212, 2214, 2214, 2212, 2211, 2211, 2210, 2212, 2209, 2212, 2210, 2212, 2208, 2212, 2211, 2209, 2211, 2211, 2212, 2210, 2211, 2208, 2210, 2209, 2209, 2211, 2210, 2210, 2210, 2210, 2211, 2211, 2211, 2212, 2210, 2211, 2211, 2212, 2209, 2210, 2210, 2209, 2211, 2209, 2210, 2212, 2211, 2211, 2210, 2208, 2208, 2210, 2212, 2209, 2209, 2209, 2211, 2211, 2211, 2211, 2210, 2208, 2210, 2211, 2206, 2208, 2209, 2208, 2209, 2208, 2209, 2208, 2208, 2209, 2211, 2209, 2207, 2205, 2207, 2208, 2207, 2207, 2205, 2209, 2206, 2205, 2207, 2205, 2208, 2205, 2208, 2207, 2206, 2207, 2206, 2208, 2205, 2205, 2207, 2208, 2207, 2209, 2206, 2207, 2207, 2207, 2205, 2209, 2207, 2206, 2207, 2208, 2205, 2206, 2208, 2206, 2207, 2205, 2205, 2206, 2206, 2206, 2206, 2208, 2205],
      "WindowCenter": [1031.0, 1032.0, 1032.0, 1032.0, 1031.0, 1032.0, 1032.0, 1033.0, 1032.0, 1032.0, 1033.0, 1032.0, 1032.0, 1032.0, 1032.0, 1032.0, 1032.0, 1032.0, 1032.0, 1031.0, 1032.0, 1031.0, 1032.0, 1031.0, 1032.0, 1031.0, 1031.0, 1032.0, 1030.0, 1031.0, 1031.0, 1031.0, 1031.0, 1031.0, 1031.0, 1031.0, 1031.0, 1031.0, 1031.0, 1030.0, 1031.0, 1031.0, 1031.0, 1030.0, 1031.0, 1031.0, 1031.0, 1030.0, 1032.0, 1031.0, 1031.0, 1031.0, 1030.0, 1031.0, 1029.0, 1031.0, 1030.0, 1031.0, 1031.0, 1030.0, 1031.0, 1031.0, 1031.0, 1030.0, 1033.0, 1030.0, 1031.0, 1031.0, 1031.0, 1031.0, 1031.0, 1031.0, 1031.0, 1031.0, 1031.0, 1031.0, 1031.0, 1031.0, 1031.0, 1032.0, 1031.0, 1031.0, 1031.0, 1031.0, 1031.0, 1029.0, 1030.0, 1031.0, 1031.0, 1031.0, 1031.0, 1030.0, 1030.0, 1032.0, 1031.0, 1030.0, 1030.0, 1031.0, 1030.0, 1031.0, 1030.0, 1031.0, 1031.0, 1030.0, 1030.0, 1030.0, 1030.0, 1030.0, 1030.0, 1030.0, 1030.0, 1029.0, 1030.0, 1030.0, 1029.0, 1029.0, 1030.0, 1029.0, 1030.0, 1030.0, 1030.0, 1030.0, 1029.0, 1031.0, 1031.0, 1030.0, 1030.0, 1030.0, 1030.0, 1030.0, 1029.0, 1030.0, 1030.0, 1030.0, 1030.0, 1029.0, 1030.0, 1031.0, 1030.0, 1029.0, 1030.0, 1030.0, 1029.0, 1030.0, 1032.0, 1031.0, 1030.0, 1030.0, 1030.0, 1030.0, 1030.0, 1030.0, 1029.0, 1030.0, 1030.0, 1029.0, 1031.0, 1030.0, 1030.0, 1031.0, 1029.0, 1029.0, 1030.0, 1029.0, 1030.0, 1030.0, 1030.0, 1030.0, 1029.0, 1030.0, 1031.0, 1030.0, 1029.0, 1030.0, 1030.0, 1030.0, 1029.0, 1030.0, 1030.0, 1030.0, 1029.0, 1030.0, 1030.0, 1030.0, 1030.0, 1030.0, 1029.0, 1030.0, 1031.0, 1029.0, 1030.0, 1030.0, 1030.0, 1030.0, 1029.0, 1030.0, 1030.0, 1030.0, 1030.0, 1031.0],
      "WindowWidth": [2313.0, 2313.0, 2313.0, 2314.0, 2313.0, 2314.0, 2314.0, 2315.0, 2314.0, 2313.0, 2315.0, 2314.0, 2314.0, 2313.0, 2313.0, 2314.0, 2314.0, 2314.0, 2313.0, 2314.0, 2313.0, 2314.0, 2313.0, 2313.0, 2313.0, 2313.0, 2312.0, 2314.0, 2312.0, 2313.0, 2313.0, 2313.0, 2313.0, 2313.0, 2313.0, 2313.0, 2313.0, 2313.0, 2313.0, 2312.0, 2313.0, 2313.0, 2313.0, 2312.0, 2313.0, 2313.0, 2312.0, 2312.0, 2313.0, 2313.0, 2313.0, 2312.0, 2311.0, 2312.0, 2311.0, 2313.0, 2311.0, 2313.0, 2312.0, 2311.0, 2312.0, 2312.0, 2312.0, 2311.0, 2313.0, 2311.0, 2312.0, 2312.0, 2312.0, 2312.0, 2312.0, 2312.0, 2312.0, 2312.0, 2312.0, 2312.0, 2312.0, 2312.0, 2312.0, 2312.0, 2312.0, 2312.0, 2312.0, 2312.0, 2312.0, 2310.0, 2311.0, 2312.0, 2312.0, 2312.0, 2312.0, 2311.0, 2311.0, 2312.0, 2312.0, 2311.0, 2311.0, 2312.0, 2311.0, 2311.0, 2311.0, 2311.0, 2311.0, 2311.0, 2311.0, 2311.0, 2311.0, 2311.0, 2311.0, 2311.0, 2311.0, 2311.0, 2311.0, 2311.0, 2309.0, 2309.0, 2311.0, 2311.0, 2311.0, 2311.0, 2311.0, 2311.0, 2311.0, 2312.0, 2312.0, 2311.0, 2311.0, 2311.0, 2311.0, 2311.0, 2310.0, 2311.0, 2311.0, 2311.0, 2311.0, 2310.0, 2310.0, 2311.0, 2311.0, 2310.0, 2311.0, 2311.0, 2310.0, 2310.0, 2312.0, 2311.0, 2310.0, 2311.0, 2310.0, 2310.0, 2310.0, 2310.0, 2310.0, 2310.0, 2310.0, 2310.0, 2311.0, 2310.0, 2310.0, 2311.0, 2310.0, 2310.0, 2310.0, 2310.0, 2310.0, 2310.0, 2310.0, 2310.0, 2309.0, 2310.0, 2311.0, 2310.0, 2309.0, 2310.0, 2310.0, 2310.0, 2309.0, 2310.0, 2310.0, 2310.0, 2309.0, 2310.0, 2310.0, 2310.0, 2310.0, 2310.0, 2309.0, 2310.0, 2310.0, 2309.0, 2310.0, 2310.0, 2310.0, 2309.0, 2309.0, 2309.0, 2309.0, 2310.0, 2309.0, 2310.0]
    },
    "slices": {}
  }
}