{
  "AcquisitionMatrixPE": 80,
  "AcquisitionNumber": 1,
  "AcquisitionTime": "09:56:51.040000",
  "BandwidthPerPixelPhaseEncode": 48.077,
  "BaseResolution": 80,
  "BodyPartExamined": "BRAIN",
  "CoilCombinationMethod": "Sum of Squares",
  "ConsistencyInfo": "N4_VE11E_LATEST_20181129",
  "ConversionSoftware": "dcm2niix",
  "ConversionSoftwareVersion": "v1.0.20220720",
  "DerivedVendorReportedEchoSpacing": 0.000519999,
  "DeviceSerialNumber": "66112",
  "DwellTime": 2.7e-06,
  "EchoTime": 0.035,
  "EchoTrainLength": 39,
  "EffectiveEchoSpacing": 0.00026,
  "FlipAngle": 90,
  "HeudiconvVersion": "0.13.1",
  "ImageOrientationPatientDICOM": [0.988395, 0.15161, 0.00951276, -0.147364, 0.941746, 0.302322],
  "ImageOrientationText": "Tra>Cor(17.5)>Sag(-2.1)",
  "ImageType": [
    "ORIGINAL",
    "PRIMARY",
    "M",
    "ND",
    "NORM",
    "MOSAIC"
],
  "ImagingFrequency": 123.259,
  "InPlanePhaseEncodingDirectionDICOM": "COL",
  "InstitutionAddress": "Maynard 3,Hanover,NH,US,03755",
  "InstitutionName": "Dartmouth College - PBS",
  "InstitutionalDepartmentName": "Department",
  "MRAcquisitionType": "2D",
  "MagneticFieldStrength": 3,
  "Manufacturer": "Siemens",
  "ManufacturersModelName": "Prisma",
  "MatrixCoilMode": "GRAPPA",
  "Modality": "MR",
  "NonlinearGradientCorrection": false,
  "ParallelReductionFactorInPlane": 2,
  "PartialFourier": 1,
  "PatientPosition": "HFS",
  "PercentPhaseFOV": 100,
  "PercentSampling": 100,
  "PhaseEncodingDirection": "j-",
  "PhaseEncodingSteps": 79,
  "PhaseResolution": 1,
  "PixelBandwidth": 2315,
  "ProcedureStepDescription": "dbic^QA",
  "ProtocolName": "func-bold_task-rest_acq-p2",
  "PulseSequenceDetails": "%SiemensSeq%\\ep2d_bold",
  "ReceiveCoilActiveElements": "HEA;HEP",
  "ReceiveCoilName": "Head_32",
  "ReconMatrixPE": 80,
  "RefLinesPE": 24,
  "RepetitionTime": 2,
  "SAR": 0.0816259,
  "ScanOptions": "FS",
  "ScanningSequence": "EP",
  "SequenceName": "*epfid2d1_80",
  "SequenceVariant": "SK",
  "SeriesDescription": "func-bold_task-rest_acq-p2",
  "SeriesNumber": 5,
  "ShimSetting": [4219, -7737, -7486, -29, -143, -6, 6, 55],
  "SliceThickness": 3.5,
  "SliceTiming": [0.99, 0, 1.055, 0.065, 1.1225, 0.1325, 1.1875, 0.1975, 1.2525, 0.2625, 1.32, 0.33, 1.385, 0.395, 1.4525, 0.4625, 1.5175, 0.5275, 1.5825, 0.5925, 1.65, 0.66, 1.715, 0.725, 1.7825, 0.7925, 1.8475, 0.8575, 1.9125, 0.9225],
  "SoftwareVersions": "syngo MR E11",
  "SpacingBetweenSlices": 3.99,
  "StationName": "AWP66112",
  "TaskName": "rest",
  "TotalReadoutTime": 0.02054,
  "TxRefAmp": 224.71,
  "dcmmeta_affine": [
    [-2.965183973312378, -0.4420914947986603, -0.14713622629642487, 141.09860229492188],
    [-0.45482873916625977, 2.825237989425659, 1.19785737991333, -107.65697479248047],
    [0.02853826805949211, -0.9069647789001465, 3.803102493286133, -12.170185089111328],
    [0.0, 0.0, 0.0, 1.0]
],
  "dcmmeta_reorient_transform": [
    [0.0, -1.0, 0.0, 79.0],
    [1.0, 0.0, 0.0, 0.0],
    [0.0, 0.0, 1.0, 0.0],
    [0.0, 0.0, 0.0, 1.0]
],
  "dcmmeta_shape": [80, 80, 30, 200],
  "dcmmeta_slice_dim": 2,
  "dcmmeta_version": 0.6,
  "global": {
    "const": {
      "AccessionNumber": "qa",
      "AcquisitionMatrix": [80, 0, 0, 80],
      "AngioFlag": "N",
      "BitsAllocated": 16,
      "BitsStored": 12,
      "BodyPartExamined": "BRAIN",
      "Columns": 480,
      "EchoNumbers": 1,
      "EchoTime": 35.0,
      "EchoTrainLength": 39,
      "FlipAngle": 90.0,
      "HighBit": 11,
      "ImageOrientationPatient": [0.988394680094, 0.1516095769891, 0.00951275601869, -0.1473638310165, 0.94174601592539, 0.30232158837371],
      "ImagePositionPatient": [-610.79188279498, -771.55018770318, -270.92100796131],
      "ImageType": [
        "ORIGINAL",
        "PRIMARY",
        "M",
        "ND",
        "NORM",
        "MOSAIC"
],
      "ImagedNucleus": "1H",
      "ImagingFrequency": 123.259228,
      "InPlanePhaseEncodingDirection": "COL",
      "MRAcquisitionType": "2D",
      "MagneticFieldStrength": 3.0,
      "Manufacturer": "SIEMENS",
      "ManufacturerModelName": "Prisma",
      "Modality": "MR",
      "NumberOfAverages": 1.0,
      "NumberOfPhaseEncodingSteps": 79,
      "PercentPhaseFieldOfView": 100.0,
      "PercentSampling": 100.0,
      "PerformedProcedureStepStartTime": "094537.240000",
      "PhotometricInterpretation": "MONOCHROME2",
      "PixelBandwidth": 2315.0,
      "PixelRepresentation": 0,
      "PixelSpacing": [3.0, 3.0],
      "ProtocolName": "func-bold_task-rest_acq-p2",
      "RepetitionTime": 2000.0,
      "Rows": 480,
      "SAR": 0.08162592982783,
      "SamplesPerPixel": 1,
      "ScanOptions": "FS",
      "ScanningSequence": "EP",
      "SequenceName": "*epfid2d1_80",
      "SequenceVariant": "SK",
      "SeriesDescription": "func-bold_task-rest_acq-p2",
      "SeriesNumber": 5,
      "SeriesTime": "095742.796000",
      "SliceLocation": -49.123528533433,
      "SliceThickness": 3.5,
      "SmallestImagePixelValue": 0,
      "SoftwareVersions": "syngo MR E11",
      "SpacingBetweenSlices": 3.9899999367667,
      "SpecificCharacterSet": "ISO_IR 100",
      "StudyID": "13",
      "StudyTime": "094537.183000",
      "TransmitCoilName": "Body",
      "VariableFlipAngleFlag": "N",
      "WindowCenterWidthExplanation": "Algo1"
    },
    "slices": {}
  },
  "time": {
    "samples": {
      "AcquisitionNumber": [1, 2, 3, 4, 5, 6, 7, 8, 9, 10, 11, 12, 13, 14, 15, 16, 17, 18, 19, 20, 21, 22, 23, 24, 25, 26, 27, 28, 29, 30, 31, 32, 33, 34, 35, 36, 37, 38, 39, 40, 41, 42, 43, 44, 45, 46, 47, 48, 49, 50, 51, 52, 53, 54, 55, 56, 57, 58, 59, 60, 61, 62, 63, 64, 65, 66, 67, 68, 69, 70, 71, 72, 73, 74, 75, 76, 77, 78, 79, 80, 81, 82, 83, 84, 85, 86, 87, 88, 89, 90, 91, 92, 93, 94, 95, 96, 97, 98, 99, 100, 101, 102, 103, 104, 105, 106, 107, 108, 109, 110, 111, 112, 113, 114, 115, 116, 117, 118, 119, 120, 121, 122, 123, 124, 125, 126, 127, 128, 129, 130, 131, 132, 133, 134, 135, 136, 137, 138, 139, 140, 141, 142, 143, 144, 145, 146, 147, 148, 149, 150, 151, 152, 153, 154, 155, 156, 157, 158, 159, 160, 161, 162, 163, 164, 165, 166, 167, 168, 169, 170, 171, 172, 173, 174, 175, 176, 177, 178, 179, 180, 181, 182, 183, 184, 185, 186, 187, 188, 189, 190, 191, 192, 193, 194, 195, 196, 197, 198, 199, 200],
      "AcquisitionTime": ["095651.040000", "095653.040000", "095655.040000", "095657.040000", "095659.040000", "095701.040000", "095703.040000", "095705.040000", "095707.040000", "095709.040000", "095711.040000", "095713.040000", "095715.040000", "095717.040000", "095719.040000", "095721.040000", "095723.040000", "095725.040000", "095727.040000", "095729.040000", "095731.040000", "095733.040000", "095735.040000", "095737.040000", "095739.040000", "095741.040000", "095743.040000", "095745.040000", "095747.040000", "095749.040000", "095751.040000", "095753.040000", "095755.040000", "095757.040000", "095759.040000", "095801.040000", "095803.040000", "095805.040000", "095807.040000", "095809.040000", "095811.040000", "095813.040000", "095815.040000", "095817.040000", "095819.040000", "095821.040000", "095823.040000", "095825.040000", "095827.040000", "095829.040000", "095831.040000", "095833.040000", "095835.040000", "095837.040000", "095839.040000", "095841.040000", "095843.040000", "095845.040000", "095847.040000", "095849.040000", "095851.040000", "095853.040000", "095855.040000", "095857.040000", "095859.040000", "095901.040000", "095903.040000", "095905.040000", "095907.040000", "095909.040000", "095911.040000", "095913.040000", "095915.040000", "095917.040000", "095919.040000", "095921.040000", "095923.040000", "095925.040000", "095927.040000", "095929.040000", "095931.040000", "095933.040000", "095935.040000", "095937.040000", "095939.040000", "095941.040000", "095943.040000", "095945.040000", "095947.040000", "095949.040000", "095951.040000", "095953.040000", "095955.040000", "095957.040000", "095959.040000", "100001.040000", "100003.040000", "100005.040000", "100007.040000", "100009.040000", "100011.040000", "100013.040000", "100015.040000", "100017.040000", "100019.040000", "100021.040000", "100023.040000", "100025.040000", "100027.040000", "100029.040000", "100031.040000", "100033.040000", "100035.040000", "100037.040000", "100039.040000", "100041.040000", "100043.040000", "100045.040000", "100047.040000", "100049.040000", "100051.040000", "100053.040000", "100055.040000", "100057.040000", "100059.040000", "100101.040000", "100103.040000", "100105.040000", "100107.040000", "100109.040000", "100111.040000", "100113.040000", "100115.040000", "100117.040000", "100119.040000", "100121.040000", "100123.040000", "100125.040000", "100127.040000", "100129.040000", "100131.040000", "100133.040000", "100135.040000", "100137.040000", "100139.040000", "100141.040000", "100143.040000", "100145.040000", "100147.040000", "100149.040000", "100151.040000", "100153.040000", "100155.040000", "100157.040000", "100159.040000", "100201.040000", "100203.040000", "100205.040000", "100207.040000", "100209.040000", "100211.040000", "100213.040000", "100215.040000", "100217.040000", "100219.040000", "100221.040000", "100223.040000", "100225.040000", "100227.040000", "100229.040000", "100231.040000", "100233.040000", "100235.040000", "100237.040000", "100239.040000", "100241.040000", "100243.040000", "100245.040000", "100247.040000", "100249.040000", "100251.040000", "100253.040000", "100255.040000", "100257.040000", "100259.040000", "100301.040000", "100303.040000", "100305.040000", "100307.040000", "100309.040000", "100311.040000", "100313.040000", "100315.040000", "100317.040000", "100319.040000", "100321.040000", "100323.040000", "100325.040000", "100327.040000", "100329.040000"],
      "ContentTime": ["095742.799000", "095742.802000", "095742.804000", "095742.807000", "095742.813000", "095742.815000", "095742.817000", "095742.820000", "095742.822000", "095742.824000", "095742.827000", "095742.829000", "095742.831000", "095742.844000", "095742.846000", "095742.848000", "095742.850000", "095742.853000", "095742.855000", "095742.857000", "095742.860000", "095742.862000", "095742.864000", "095742.867000", "095742.869000", "095742.871000", "095822.794000", "095822.797000", "095822.799000", "095822.802000", "095822.804000", "095822.806000", "095822.809000", "095822.811000", "095822.813000", "095822.816000", "095822.818000", "095822.820000", "095822.823000", "095822.825000", "095822.827000", "095822.834000", "095822.837000", "095822.839000", "095822.841000", "095822.844000", "095902.793000", "095902.796000", "095902.798000", "095902.800000", "095902.803000", "095902.805000", "095902.807000", "095902.810000", "095902.818000", "095902.820000", "095902.822000", "095902.825000", "095902.827000", "095902.829000", "095902.832000", "095902.834000", "095902.836000", "095902.839000", "095902.841000", "095902.843000", "095942.794000", "095942.797000", "095942.799000", "095942.802000", "095942.804000", "095942.806000", "095942.809000", "095942.811000", "095942.813000", "095942.816000", "095942.818000", "095942.820000", "095942.822000", "095942.825000", "095942.827000", "095942.829000", "095942.832000", "095942.834000", "095942.836000", "095942.839000", "100022.794000", "100022.797000", "100022.799000", "100022.801000", "100022.804000", "100022.806000", "100022.808000", "100022.811000", "100022.813000", "100022.815000", "100022.818000", "100022.820000", "100022.822000", "100022.825000", "100022.827000", "100022.829000", "100022.831000", "100022.834000", "100022.836000", "100022.838000", "100102.794000", "100102.797000", "100102.799000", "100102.802000", "100102.804000", "100102.806000", "100102.809000", "100102.811000", "100102.813000", "100102.816000", "100102.818000", "100102.820000", "100102.822000", "100102.825000", "100102.827000", "100102.829000", "100102.832000", "100102.834000", "100102.836000", "100102.839000", "100142.794000", "100142.797000", "100142.799000", "100142.801000", "100142.804000", "100142.806000", "100142.808000", "100142.811000", "100142.813000", "100142.815000", "100142.818000", "100142.820000", "100142.822000", "100142.825000", "100142.827000", "100142.829000", "100142.832000", "100142.834000", "100142.836000", "100142.838000", "100222.794000", "100222.797000", "100222.799000", "100222.802000", "100222.804000", "100222.806000", "100222.809000", "100222.811000", "100222.813000", "100222.816000", "100222.818000", "100222.820000", "100222.822000", "100222.825000", "100222.827000", "100222.829000", "100222.832000", "100222.834000", "100222.836000", "100222.839000", "100302.794000", "100302.797000", "100302.799000", "100302.801000", "100302.804000", "100302.806000", "100302.809000", "100302.811000", "100302.813000", "100302.816000", "100302.818000", "100302.820000", "100302.823000", "100302.825000", "100302.827000", "100302.830000", "100302.832000", "100302.834000", "100302.837000", "100302.839000", "100322.795000", "100322.797000", "100322.799000", "100322.802000", "100322.804000", "100322.807000", "100322.809000", "100322.811000", "100322.814000", "100322.816000", "100330.660000", "100330.663000", "100330.665000", "100330.668000"],
      "InstanceCreationTime": ["095742.799000", "095742.802000", "095742.804000", "095742.807000", "095742.813000", "095742.815000", "095742.817000", "095742.820000", "095742.822000", "095742.824000", "095742.827000", "095742.829000", "095742.831000", "095742.844000", "095742.846000", "095742.848000", "095742.850000", "095742.853000", "095742.855000", "095742.857000", "095742.860000", "095742.862000", "095742.864000", "095742.867000", "095742.869000", "095742.871000", "095822.794000", "095822.797000", "095822.799000", "095822.802000", "095822.804000", "095822.806000", "095822.809000", "095822.811000", "095822.813000", "095822.816000", "095822.818000", "095822.820000", "095822.823000", "095822.825000", "095822.827000", "095822.834000", "095822.837000", "095822.839000", "095822.841000", "095822.844000", "095902.793000", "095902.796000", "095902.798000", "095902.800000", "095902.803000", "095902.805000", "095902.807000", "095902.810000", "095902.818000", "095902.820000", "095902.822000", "095902.825000", "095902.827000", "095902.829000", "095902.832000", "095902.834000", "095902.836000", "095902.839000", "095902.841000", "095902.843000", "095942.794000", "095942.797000", "095942.799000", "095942.802000", "095942.804000", "095942.806000", "095942.809000", "095942.811000", "095942.813000", "095942.816000", "095942.818000", "095942.820000", "095942.822000", "095942.825000", "095942.827000", "095942.829000", "095942.832000", "095942.834000", "095942.836000", "095942.839000", "100022.794000", "100022.797000", "100022.799000", "100022.801000", "100022.804000", "100022.806000", "100022.808000", "100022.811000", "100022.813000", "100022.815000", "100022.818000", "100022.820000", "100022.822000", "100022.825000", "100022.827000", "100022.829000", "100022.831000", "100022.834000", "100022.836000", "100022.838000", "100102.794000", "100102.797000", "100102.799000", "100102.802000", "100102.804000", "100102.806000", "100102.809000", "100102.811000", "100102.813000", "100102.816000", "100102.818000", "100102.820000", "100102.822000", "100102.825000", "100102.827000", "100102.829000", "100102.832000", "100102.834000", "100102.836000", "100102.839000", "100142.794000", "100142.797000", "100142.799000", "100142.801000", "100142.804000", "100142.806000", "100142.808000", "100142.811000", "100142.813000", "100142.815000", "100142.818000", "100142.820000", "100142.822000", "100142.825000", "100142.827000", "100142.829000", "100142.832000", "100142.834000", "100142.836000", "100142.838000", "100222.794000", "100222.797000", "100222.799000", "100222.802000", "100222.804000", "100222.806000", "100222.809000", "100222.811000", "100222.813000", "100222.816000", "100222.818000", "100222.820000", "100222.822000", "100222.825000", "100222.827000", "100222.829000", "100222.832000", "100222.834000", "100222.836000", "100222.839000", "100302.794000", "100302.797000", "100302.799000", "100302.801000", "100302.804000", "100302.806000", "100302.809000", "100302.811000", "100302.813000", "100302.816000", "100302.818000", "100302.820000", "100302.823000", "100302.825000", "100302.827000", "100302.830000", "100302.832000", "100302.834000", "100302.837000", "100302.839000", "100322.795000", "100322.797000", "100322.799000", "100322.802000", "100322.804000", "100322.807000", "100322.809000", "100322.811000", "100322.814000", "100322.816000", "100330.660000", "100330.663000", "100330.665000", "100330.668000"],
      "InstanceNumber": [1, 2, 3, 4, 5, 6, 7, 8, 9, 10, 11, 12, 13, 14, 15, 16, 17, 18, 19, 20, 21, 22, 23, 24, 25, 26, 27, 28, 29, 30, 31, 32, 33, 34, 35, 36, 37, 38, 39, 40, 41, 42, 43, 44, 45, 46, 47, 48, 49, 50, 51, 52, 53, 54, 55, 56, 57, 58, 59, 60, 61, 62, 63, 64, 65, 66, 67, 68, 69, 70, 71, 72, 73, 74, 75, 76, 77, 78, 79, 80, 81, 82, 83, 84, 85, 86, 87, 88, 89, 90, 91, 92, 93, 94, 95, 96, 97, 98, 99, 100, 101, 102, 103, 104, 105, 106, 107, 108, 109, 110, 111, 112, 113, 114, 115, 116, 117, 118, 119, 120, 121, 122, 123, 124, 125, 126, 127, 128, 129, 130, 131, 132, 133, 134, 135, 136, 137, 138, 139, 140, 141, 142, 143, 144, 145, 146, 147, 148, 149, 150, 151, 152, 153, 154, 155, 156, 157, 158, 159, 160, 161, 162, 163, 164, 165, 166, 167, 168, 169, 170, 171, 172, 173, 174, 175, 176, 177, 178, 179, 180, 181, 182, 183, 184, 185, 186, 187, 188, 189, 190, 191, 192, 193, 194, 195, 196, 197, 198, 199, 200],
      "LargestImagePixelValue": [2306, 2305, 2301, 2295, 2299, 2296, 2298, 2294, 2304, 2312, 2310, 2299, 2301, 2298, 2302, 2306, 2288, 2299, 2308, 2308, 2309, 2306, 2300, 2306, 2307, 2298, 2307, 2299, 2299, 2307, 2313, 2294, 2304, 2295, 2304, 2302, 2298, 2302, 2292, 2309, 2302, 2309, 2303, 2306, 2303, 2291, 2301, 2299, 2301, 2302, 2298, 2304, 2301, 2297, 2296, 2294, 2307, 2297, 2303, 2307, 2301, 2296, 2298, 2294, 2300, 2298, 2305, 2297, 2300, 2292, 2305, 2305, 2309, 2304, 2294, 2300, 2294, 2298, 2294, 2292, 2303, 2290, 2297, 2297, 2304, 2296, 2306, 2292, 2293, 2294, 2302, 2301, 2291, 2294, 2304, 2306, 2297, 2298, 2299, 2294, 2296, 2301, 2295, 2309, 2308, 2304, 2292, 2307, 2297, 2298, 2298, 2296, 2301, 2304, 2298, 2295, 2295, 2312, 2299, 2305, 2299, 2300, 2300, 2303, 2290, 2297, 2297, 2299, 2292, 2300, 2297, 2298, 2294, 2290, 2306, 2296, 2297, 2304, 2305, 2287, 2301, 2294, 2306, 2297, 2289, 2302, 2294, 2294, 2302, 2295, 2293, 2292, 2290, 2292, 2298, 2297, 2303, 2293, 2289, 2297, 2298, 2293, 2302, 2283, 2297, 2296, 2300, 2289, 2286, 2297, 2299, 2296, 2295, 2298, 2296, 2301, 2293, 2292, 2300, 2302, 2295, 2300, 2301, 2294, 2299, 2297, 2297, 2295, 2297, 2303, 2296, 2297, 2298, 2291, 2292, 2295, 2293, 2303, 2290, 2296],
      "WindowCenter": [1046.0, 1046.0, 1046.0, 1046.0, 1046.0, 1046.0, 1046.0, 1046.0, 1046.0, 1046.0, 1046.0, 1046.0, 1046.0, 1046.0, 1046.0, 1046.0, 1046.0, 1046.0, 1046.0, 1046.0, 1046.0, 1047.0, 1046.0, 1046.0, 1046.0, 1046.0, 1046.0, 1046.0, 1046.0, 1046.0, 1046.0, 1046.0, 1046.0, 1046.0, 1046.0, 1046.0, 1046.0, 1046.0, 1046.0, 1046.0, 1046.0, 1046.0, 1046.0, 1046.0, 1046.0, 1046.0, 1046.0, 1046.0, 1046.0, 1046.0, 1046.0, 1046.0, 1046.0, 1046.0, 1046.0, 1046.0, 1046.0, 1046.0, 1045.0, 1046.0, 1046.0, 1046.0, 1045.0, 1046.0, 1046.0, 1046.0, 1046.0, 1045.0, 1045.0, 1046.0, 1046.0, 1046.0, 1046.0, 1045.0, 1045.0, 1045.0, 1045.0, 1045.0, 1045.0, 1045.0, 1045.0, 1045.0, 1045.0, 1045.0, 1045.0, 1045.0, 1045.0, 1045.0, 1045.0, 1045.0, 1045.0, 1045.0, 1045.0, 1045.0, 1045.0, 1045.0, 1045.0, 1045.0, 1045.0, 1045.0, 1045.0, 1045.0, 1045.0, 1045.0, 1045.0, 1045.0, 1045.0, 1045.0, 1045.0, 1045.0, 1045.0, 1045.0, 1045.0, 1045.0, 1045.0, 1045.0, 1045.0, 1045.0, 1045.0, 1045.0, 1045.0, 1045.0, 1045.0, 1045.0, 1045.0, 1045.0, 1045.0, 1045.0, 1045.0, 1045.0, 1045.0, 1045.0, 1045.0, 1045.0, 1045.0, 1045.0, 1045.0, 1045.0, 1045.0, 1045.0, 1045.0, 1045.0, 1045.0, 1045.0, 1045.0, 1045.0, 1045.0, 1045.0, 1045.0, 1045.0, 1045.0, 1045.0, 1045.0, 1045.0, 1045.0, 1045.0, 1045.0, 1045.0, 1045.0, 1045.0, 1045.0, 1045.0, 1045.0, 1045.0, 1045.0, 1045.0, 1045.0, 1045.0, 1045.0, 1045.0, 1045.0, 1045.0, 1045.0, 1045.0, 1045.0, 1045.0, 1045.0, 1045.0, 1045.0, 1045.0, 1045.0, 1045.0, 1045.0, 1045.0, 1046.0, 1045.0, 1045.0, 1045.0, 1045.0, 1045.0, 1045.0, 1045.0, 1045.0, 1045.0, 1045.0, 1045.0, 1045.0, 1045.0, 1045.0, 1045.0],
      "WindowWidth": [2345.0, 2344.0, 2344.0, 2344.0, 2344.0, 2344.0, 2344.0, 2344.0, 2344.0, 2344.0, 2344.0, 2344.0, 2343.0, 2344.0, 2344.0, 2343.0, 2344.0, 2344.0, 2343.0, 2344.0, 2344.0, 2344.0, 2344.0, 2344.0, 2344.0, 2343.0, 2344.0, 2344.0, 2343.0, 2343.0, 2344.0, 2343.0, 2343.0, 2343.0, 2343.0, 2343.0, 2343.0, 2343.0, 2343.0, 2343.0, 2343.0, 2343.0, 2343.0, 2343.0, 2343.0, 2343.0, 2343.0, 2343.0, 2343.0, 2343.0, 2343.0, 2343.0, 2343.0, 2343.0, 2343.0, 2343.0, 2343.0, 2343.0, 2342.0, 2343.0, 2343.0, 2343.0, 2342.0, 2343.0, 2343.0, 2343.0, 2343.0, 2342.0, 2342.0, 2343.0, 2343.0, 2343.0, 2342.0, 2342.0, 2342.0, 2342.0, 2342.0, 2342.0, 2342.0, 2342.0, 2342.0, 2342.0, 2342.0, 2342.0, 2342.0, 2342.0, 2342.0, 2342.0, 2342.0, 2342.0, 2342.0, 2342.0, 2342.0, 2342.0, 2342.0, 2342.0, 2342.0, 2342.0, 2342.0, 2342.0, 2342.0, 2342.0, 2342.0, 2342.0, 2342.0, 2342.0, 2342.0, 2342.0, 2342.0, 2342.0, 2342.0, 2342.0, 2341.0, 2342.0, 2342.0, 2342.0, 2342.0, 2342.0, 2341.0, 2342.0, 2341.0, 2341.0, 2341.0, 2341.0, 2341.0, 2341.0, 2342.0, 2341.0, 2341.0, 2341.0, 2341.0, 2341.0, 2341.0, 2341.0, 2341.0, 2341.0, 2341.0, 2341.0, 2341.0, 2341.0, 2341.0, 2341.0, 2341.0, 2341.0, 2341.0, 2341.0, 2341.0, 2341.0, 2341.0, 2341.0, 2341.0, 2341.0, 2341.0, 2341.0, 2341.0, 2341.0, 2341.0, 2341.0, 2341.0, 2341.0, 2341.0, 2341.0, 2341.0, 2341.0, 2341.0, 2341.0, 2341.0, 2341.0, 2341.0, 2341.0, 2341.0, 2341.0, 2341.0, 2341.0, 2341.0, 2341.0, 2341.0, 2341.0, 2341.0, 2341.0, 2341.0, 2341.0, 2341.0, 2341.0, 2341.0, 2341.0, 2341.0, 2341.0, 2341.0, 2341.0, 2341.0, 2341.0, 2341.0, 2341.0, 2341.0, 2341.0, 2340.0, 2340.0, 2341.0, 2340.0]
    },
    "slices": {}
  }
}