{
  "AcquisitionMatrixPE": 80,
  "AcquisitionNumber": 1,
  "AcquisitionTime": "10:18:41.447500",
  "BandwidthPerPixelPhaseEncode": 25,
  "BaseResolution": 80,
  "BodyPartExamined": "BRAIN",
  "CoilCombinationMethod": "Sum of Squares",
  "ConsistencyInfo": "N4_VE11E_LATEST_20181129",
  "ConversionSoftware": "dcm2niix",
  "ConversionSoftwareVersion": "v1.0.20220720",
  "DerivedVendorReportedEchoSpacing": 0.0005,
  "DeviceSerialNumber": "66112",
  "DwellTime": 2.7e-06,
  "EchoTime": 0.03,
  "EchoTrainLength": 80,
  "EffectiveEchoSpacing": 0.0005,
  "FlipAngle": 10,
  "HeudiconvVersion": "0.13.1",
  "ImageOrientationPatientDICOM": [0.988395, 0.15161, 0.00951276, -0.147364, 0.941746, 0.302322],
  "ImageOrientationText": "Tra>Cor(17.5)>Sag(-2.1)",
  "ImageType": [
    "ORIGINAL",
    "PRIMARY",
    "M",
    "ND",
    "NORM",
    "MOSAIC"
],
  "ImagingFrequency": 123.259,
  "InPlanePhaseEncodingDirectionDICOM": "COL",
  "InstitutionAddress": "Maynard 3,Hanover,NH,US,03755",
  "InstitutionName": "Dartmouth College - PBS",
  "InstitutionalDepartmentName": "Department",
  "MRAcquisitionType": "2D",
  "MagneticFieldStrength": 3,
  "Manufacturer": "Siemens",
  "ManufacturersModelName": "Prisma",
  "MatrixCoilMode": "SENSE",
  "Modality": "MR",
  "NonlinearGradientCorrection": false,
  "PartialFourier": 1,
  "PatientPosition": "HFS",
  "PercentPhaseFOV": 100,
  "PercentSampling": 100,
  "PhaseEncodingDirection": "j-",
  "PhaseEncodingSteps": 80,
  "PhaseResolution": 1,
  "PixelBandwidth": 2315,
  "ProcedureStepDescription": "dbic^QA",
  "ProtocolName": "func-bold_fa-10",
  "PulseSequenceDetails": "%SiemensSeq%\\ep2d_bold",
  "ReceiveCoilActiveElements": "HEA;HEP",
  "ReceiveCoilName": "Head_32",
  "ReconMatrixPE": 80,
  "RepetitionTime": 2,
  "SAR": 0.017207,
  "ScanOptions": "FS",
  "ScanningSequence": "EP",
  "SequenceName": "*epfid2d1_80",
  "SequenceVariant": "SK",
  "SeriesDescription": "func-bold_fa-10",
  "SeriesNumber": 8,
  "ShimSetting": [4219, -7737, -7486, -29, -143, -6, 6, 55],
  "SliceThickness": 3.5,
  "SliceTiming": [0.9875, 0, 1.055, 0.065, 1.12, 0.13, 1.1875, 0.1975, 1.2525, 0.2625, 1.3175, 0.33, 1.385, 0.395, 1.45, 0.46, 1.5175, 0.5275, 1.5825, 0.5925, 1.6475, 0.66, 1.715, 0.725, 1.78, 0.79, 1.8475, 0.8575, 1.9125, 0.9225],
  "SoftwareVersions": "syngo MR E11",
  "SpacingBetweenSlices": 3.99,
  "StationName": "AWP66112",
  "TotalReadoutTime": 0.0395,
  "TxRefAmp": 224.71,
  "dcmmeta_affine": [
    [-2.965183973312378, -0.4420914947986603, -0.14713622629642487, 141.0042724609375],
    [-0.45482873916625977, 2.825237989425659, 1.19785737991333, -107.05430603027344],
    [0.02853826805949211, -0.9069647789001465, 3.803102493286133, -12.363277435302734],
    [0.0, 0.0, 0.0, 1.0]
],
  "dcmmeta_reorient_transform": [
    [0.0, -1.0, 0.0, 79.0],
    [1.0, 0.0, 0.0, 0.0],
    [0.0, 0.0, 1.0, 0.0],
    [0.0, 0.0, 0.0, 1.0]
],
  "dcmmeta_shape": [80, 80, 30, 200],
  "dcmmeta_slice_dim": 2,
  "dcmmeta_version": 0.6,
  "global": {
    "const": {
      "AccessionNumber": "qa",
      "AcquisitionMatrix": [80, 0, 0, 80],
      "AngioFlag": "N",
      "BitsAllocated": 16,
      "BitsStored": 12,
      "BodyPartExamined": "BRAIN",
      "Columns": 480,
      "EchoNumbers": 1,
      "EchoTime": 30.0,
      "EchoTrainLength": 80,
      "FlipAngle": 10.0,
      "HighBit": 11,
      "ImageOrientationPatient": [0.988394680094, 0.1516095769891, 0.00951275601869, -0.1473638310165, 0.94174601592539, 0.30232158837371],
      "ImagePositionPatient": [-610.69754771579, -772.15285741906, -271.1141003075],
      "ImageType": [
        "ORIGINAL",
        "PRIMARY",
        "M",
        "ND",
        "NORM",
        "MOSAIC"
],
      "ImagedNucleus": "1H",
      "ImagingFrequency": 123.259231,
      "InPlanePhaseEncodingDirection": "COL",
      "MRAcquisitionType": "2D",
      "MagneticFieldStrength": 3.0,
      "Manufacturer": "SIEMENS",
      "ManufacturerModelName": "Prisma",
      "Modality": "MR",
      "NumberOfAverages": 1.0,
      "NumberOfPhaseEncodingSteps": 80,
      "PercentPhaseFieldOfView": 100.0,
      "PercentSampling": 100.0,
      "PerformedProcedureStepStartTime": "094537.240000",
      "PhotometricInterpretation": "MONOCHROME2",
      "PixelBandwidth": 2315.0,
      "PixelRepresentation": 0,
      "PixelSpacing": [3.0, 3.0],
      "ProtocolName": "func-bold_fa-10",
      "RepetitionTime": 2000.0,
      "Rows": 480,
      "SAR": 0.01720703314444,
      "SamplesPerPixel": 1,
      "ScanOptions": "FS",
      "ScanningSequence": "EP",
      "SequenceName": "*epfid2d1_80",
      "SequenceVariant": "SK",
      "SeriesDescription": "func-bold_fa-10",
      "SeriesNumber": 8,
      "SeriesTime": "101922.805000",
      "SliceLocation": -49.123167004689,
      "SliceThickness": 3.5,
      "SmallestImagePixelValue": 0,
      "SoftwareVersions": "syngo MR E11",
      "SpacingBetweenSlices": 3.9900000725496,
      "SpecificCharacterSet": "ISO_IR 100",
      "StudyID": "13",
      "StudyTime": "094537.183000",
      "TransmitCoilName": "Body",
      "VariableFlipAngleFlag": "N",
      "WindowCenterWidthExplanation": "Algo1"
    },
    "slices": {}
  },
  "time": {
    "samples": {
      "AcquisitionNumber": [1, 2, 3, 4, 5, 6, 7, 8, 9, 10, 11, 12, 13, 14, 15, 16, 17, 18, 19, 20, 21, 22, 23, 24, 25, 26, 27, 28, 29, 30, 31, 32, 33, 34, 35, 36, 37, 38, 39, 40, 41, 42, 43, 44, 45, 46, 47, 48, 49, 50, 51, 52, 53, 54, 55, 56, 57, 58, 59, 60, 61, 62, 63, 64, 65, 66, 67, 68, 69, 70, 71, 72, 73, 74, 75, 76, 77, 78, 79, 80, 81, 82, 83, 84, 85, 86, 87, 88, 89, 90, 91, 92, 93, 94, 95, 96, 97, 98, 99, 100, 101, 102, 103, 104, 105, 106, 107, 108, 109, 110, 111, 112, 113, 114, 115, 116, 117, 118, 119, 120, 121, 122, 123, 124, 125, 126, 127, 128, 129, 130, 131, 132, 133, 134, 135, 136, 137, 138, 139, 140, 141, 142, 143, 144, 145, 146, 147, 148, 149, 150, 151, 152, 153, 154, 155, 156, 157, 158, 159, 160, 161, 162, 163, 164, 165, 166, 167, 168, 169, 170, 171, 172, 173, 174, 175, 176, 177, 178, 179, 180, 181, 182, 183, 184, 185, 186, 187, 188, 189, 190, 191, 192, 193, 194, 195, 196, 197, 198, 199, 200],
      "AcquisitionTime": ["101841.447500", "101843.447500", "101845.447500", "101847.447500", "101849.447500", "101851.447500", "101853.447500", "101855.447500", "101857.447500", "101859.447500", "101901.447500", "101903.447500", "101905.447500", "101907.447500", "101909.447500", "101911.447500", "101913.447500", "101915.447500", "101917.447500", "101919.447500", "101921.447500", "101923.447500", "101925.447500", "101927.447500", "101929.447500", "101931.447500", "101933.447500", "101935.447500", "101937.447500", "101939.447500", "101941.447500", "101943.447500", "101945.447500", "101947.447500", "101949.447500", "101951.447500", "101953.447500", "101955.447500", "101957.447500", "101959.447500", "102001.447500", "102003.447500", "102005.447500", "102007.447500", "102009.447500", "102011.447500", "102013.447500", "102015.447500", "102017.447500", "102019.447500", "102021.447500", "102023.447500", "102025.447500", "102027.447500", "102029.447500", "102031.447500", "102033.447500", "102035.447500", "102037.447500", "102039.447500", "102041.447500", "102043.447500", "102045.447500", "102047.447500", "102049.447500", "102051.447500", "102053.447500", "102055.447500", "102057.447500", "102059.447500", "102101.447500", "102103.447500", "102105.447500", "102107.447500", "102109.447500", "102111.447500", "102113.447500", "102115.447500", "102117.447500", "102119.447500", "102121.447500", "102123.447500", "102125.447500", "102127.447500", "102129.447500", "102131.447500", "102133.447500", "102135.447500", "102137.447500", "102139.447500", "102141.447500", "102143.447500", "102145.447500", "102147.447500", "102149.447500", "102151.447500", "102153.447500", "102155.447500", "102157.447500", "102159.447500", "102201.447500", "102203.447500", "102205.447500", "102207.447500", "102209.447500", "102211.447500", "102213.447500", "102215.447500", "102217.447500", "102219.447500", "102221.447500", "102223.447500", "102225.447500", "102227.447500", "102229.447500", "102231.447500", "102233.447500", "102235.447500", "102237.447500", "102239.447500", "102241.447500", "102243.447500", "102245.447500", "102247.447500", "102249.447500", "102251.447500", "102253.447500", "102255.447500", "102257.447500", "102259.447500", "102301.447500", "102303.447500", "102305.447500", "102307.447500", "102309.447500", "102311.447500", "102313.447500", "102315.447500", "102317.447500", "102319.447500", "102321.447500", "102323.447500", "102325.447500", "102327.447500", "102329.447500", "102331.447500", "102333.447500", "102335.447500", "102337.447500", "102339.447500", "102341.447500", "102343.447500", "102345.447500", "102347.447500", "102349.447500", "102351.447500", "102353.447500", "102355.447500", "102357.447500", "102359.447500", "102401.447500", "102403.447500", "102405.447500", "102407.447500", "102409.447500", "102411.447500", "102413.447500", "102415.447500", "102417.447500", "102419.447500", "102421.447500", "102423.447500", "102425.447500", "102427.447500", "102429.447500", "102431.447500", "102433.447500", "102435.447500", "102437.447500", "102439.447500", "102441.447500", "102443.447500", "102445.447500", "102447.447500", "102449.447500", "102451.447500", "102453.447500", "102455.447500", "102457.447500", "102459.447500", "102501.447500", "102503.447500", "102505.447500", "102507.447500", "102509.447500", "102511.447500", "102513.447500", "102515.447500", "102517.447500", "102519.447500"],
      "ContentTime": ["101922.808000", "101922.811000", "101922.813000", "101922.816000", "101922.819000", "101922.821000", "101922.823000", "101922.836000", "101922.838000", "101922.840000", "101922.842000", "101922.845000", "101922.847000", "101922.849000", "101922.852000", "101922.854000", "101922.857000", "101922.859000", "101922.865000", "101922.868000", "102002.794000", "102002.797000", "102002.799000", "102002.801000", "102002.804000", "102002.806000", "102002.808000", "102002.811000", "102002.813000", "102002.815000", "102002.818000", "102002.820000", "102002.822000", "102002.825000", "102002.827000", "102002.829000", "102002.831000", "102002.834000", "102002.836000", "102002.838000", "102042.794000", "102042.797000", "102042.799000", "102042.801000", "102042.804000", "102042.806000", "102042.808000", "102042.811000", "102042.813000", "102042.816000", "102042.819000", "102042.821000", "102042.823000", "102042.838000", "102042.840000", "102042.842000", "102042.844000", "102042.847000", "102042.849000", "102042.851000", "102122.794000", "102122.797000", "102122.799000", "102122.802000", "102122.804000", "102122.806000", "102122.809000", "102122.811000", "102122.814000", "102122.816000", "102122.819000", "102122.821000", "102122.823000", "102122.825000", "102122.828000", "102122.830000", "102122.832000", "102122.835000", "102122.837000", "102122.839000", "102202.793000", "102202.796000", "102202.798000", "102202.800000", "102202.802000", "102202.805000", "102202.807000", "102202.809000", "102202.812000", "102202.815000", "102202.818000", "102202.820000", "102202.822000", "102202.825000", "102202.827000", "102202.829000", "102202.832000", "102202.834000", "102202.836000", "102202.839000", "102242.794000", "102242.797000", "102242.799000", "102242.801000", "102242.804000", "102242.806000", "102242.808000", "102242.811000", "102242.813000", "102242.815000", "102242.818000", "102242.820000", "102242.823000", "102242.825000", "102242.827000", "102242.829000", "102242.832000", "102242.834000", "102242.836000", "102242.839000", "102322.794000", "102322.797000", "102322.799000", "102322.801000", "102322.804000", "102322.806000", "102322.808000", "102322.810000", "102322.813000", "102322.815000", "102322.818000", "102322.820000", "102322.823000", "102322.825000", "102322.827000", "102322.844000", "102322.847000", "102322.849000", "102322.851000", "102322.853000", "102402.794000", "102402.797000", "102402.799000", "102402.801000", "102402.804000", "102402.806000", "102402.808000", "102402.811000", "102402.813000", "102402.816000", "102402.818000", "102402.821000", "102402.823000", "102402.825000", "102402.828000", "102402.830000", "102402.832000", "102402.835000", "102402.837000", "102402.839000", "102442.794000", "102442.797000", "102442.799000", "102442.801000", "102442.803000", "102442.806000", "102442.808000", "102442.811000", "102442.813000", "102442.816000", "102442.819000", "102442.821000", "102442.824000", "102442.826000", "102442.828000", "102442.831000", "102442.833000", "102442.835000", "102442.838000", "102442.840000", "102520.962000", "102520.964000", "102520.967000", "102520.969000", "102520.971000", "102520.974000", "102520.976000", "102520.979000", "102520.981000", "102520.984000", "102520.986000", "102520.988000", "102520.991000", "102520.993000", "102520.995000", "102520.998000", "102521.001000", "102521.004000", "102521.006000", "102521.008000"],
      "InstanceCreationTime": ["101922.808000", "101922.811000", "101922.813000", "101922.816000", "101922.819000", "101922.821000", "101922.823000", "101922.836000", "101922.838000", "101922.840000", "101922.842000", "101922.845000", "101922.847000", "101922.849000", "101922.852000", "101922.854000", "101922.857000", "101922.859000", "101922.865000", "101922.868000", "102002.794000", "102002.797000", "102002.799000", "102002.801000", "102002.804000", "102002.806000", "102002.808000", "102002.811000", "102002.813000", "102002.815000", "102002.818000", "102002.820000", "102002.822000", "102002.825000", "102002.827000", "102002.829000", "102002.831000", "102002.834000", "102002.836000", "102002.838000", "102042.794000", "102042.797000", "102042.799000", "102042.801000", "102042.804000", "102042.806000", "102042.808000", "102042.811000", "102042.813000", "102042.816000", "102042.819000", "102042.821000", "102042.823000", "102042.838000", "102042.840000", "102042.842000", "102042.844000", "102042.847000", "102042.849000", "102042.851000", "102122.794000", "102122.797000", "102122.799000", "102122.802000", "102122.804000", "102122.806000", "102122.809000", "102122.811000", "102122.814000", "102122.816000", "102122.819000", "102122.821000", "102122.823000", "102122.825000", "102122.828000", "102122.830000", "102122.832000", "102122.835000", "102122.837000", "102122.839000", "102202.793000", "102202.796000", "102202.798000", "102202.800000", "102202.802000", "102202.805000", "102202.807000", "102202.809000", "102202.812000", "102202.815000", "102202.818000", "102202.820000", "102202.822000", "102202.825000", "102202.827000", "102202.829000", "102202.832000", "102202.834000", "102202.836000", "102202.839000", "102242.794000", "102242.797000", "102242.799000", "102242.801000", "102242.804000", "102242.806000", "102242.808000", "102242.811000", "102242.813000", "102242.815000", "102242.818000", "102242.820000", "102242.823000", "102242.825000", "102242.827000", "102242.829000", "102242.832000", "102242.834000", "102242.836000", "102242.839000", "102322.794000", "102322.797000", "102322.799000", "102322.801000", "102322.804000", "102322.806000", "102322.808000", "102322.810000", "102322.813000", "102322.815000", "102322.818000", "102322.820000", "102322.823000", "102322.825000", "102322.827000", "102322.844000", "102322.847000", "102322.849000", "102322.851000", "102322.853000", "102402.794000", "102402.797000", "102402.799000", "102402.801000", "102402.804000", "102402.806000", "102402.808000", "102402.811000", "102402.813000", "102402.816000", "102402.818000", "102402.821000", "102402.823000", "102402.825000", "102402.828000", "102402.830000", "102402.832000", "102402.835000", "102402.837000", "102402.839000", "102442.794000", "102442.797000", "102442.799000", "102442.801000", "102442.803000", "102442.806000", "102442.808000", "102442.811000", "102442.813000", "102442.816000", "102442.819000", "102442.821000", "102442.824000", "102442.826000", "102442.828000", "102442.831000", "102442.833000", "102442.835000", "102442.838000", "102442.840000", "102520.962000", "102520.964000", "102520.967000", "102520.969000", "102520.971000", "102520.974000", "102520.976000", "102520.979000", "102520.981000", "102520.984000", "102520.986000", "102520.988000", "102520.991000", "102520.993000", "102520.995000", "102520.998000", "102521.001000", "102521.004000", "102521.006000", "102521.008000"],
      "InstanceNumber": [1, 2, 3, 4, 5, 6, 7, 8, 9, 10, 11, 12, 13, 14, 15, 16, 17, 18, 19, 20, 21, 22, 23, 24, 25, 26, 27, 28, 29, 30, 31, 32, 33, 34, 35, 36, 37, 38, 39, 40, 41, 42, 43, 44, 45, 46, 47, 48, 49, 50, 51, 52, 53, 54, 55, 56, 57, 58, 59, 60, 61, 62, 63, 64, 65, 66, 67, 68, 69, 70, 71, 72, 73, 74, 75, 76, 77, 78, 79, 80, 81, 82, 83, 84, 85, 86, 87, 88, 89, 90, 91, 92, 93, 94, 95, 96, 97, 98, 99, 100, 101, 102, 103, 104, 105, 106, 107, 108, 109, 110, 111, 112, 113, 114, 115, 116, 117, 118, 119, 120, 121, 122, 123, 124, 125, 126, 127, 128, 129, 130, 131, 132, 133, 134, 135, 136, 137, 138, 139, 140, 141, 142, 143, 144, 145, 146, 147, 148, 149, 150, 151, 152, 153, 154, 155, 156, 157, 158, 159, 160, 161, 162, 163, 164, 165, 166, 167, 168, 169, 170, 171, 172, 173, 174, 175, 176, 177, 178, 179, 180, 181, 182, 183, 184, 185, 186, 187, 188, 189, 190, 191, 192, 193, 194, 195, 196, 197, 198, 199, 200],
      "LargestImagePixelValue": [379, 381, 377, 377, 378, 376, 378, 376, 378, 376, 377, 377, 378, 377, 377, 378, 379, 379, 380, 377, 377, 378, 377, 377, 379, 378, 378, 377, 378, 378, 378, 377, 376, 379, 377, 376, 377, 380, 378, 378, 376, 378, 377, 376, 379, 377, 376, 379, 381, 376, 377, 377, 376, 378, 377, 377, 377, 376, 378, 378, 378, 380, 379, 376, 378, 377, 376, 376, 379, 376, 378, 378, 374, 383, 377, 380, 376, 376, 377, 378, 379, 376, 378, 377, 378, 378, 375, 376, 376, 376, 377, 378, 377, 377, 378, 376, 375, 377, 375, 377, 377, 379, 378, 376, 376, 376, 378, 376, 381, 377, 376, 376, 378, 377, 375, 375, 376, 376, 377, 376, 376, 377, 374, 375, 376, 377, 378, 375, 376, 376, 375, 377, 376, 376, 376, 376, 376, 376, 377, 376, 379, 378, 377, 377, 379, 377, 375, 376, 375, 378, 376, 375, 376, 377, 374, 378, 377, 374, 377, 375, 374, 377, 376, 377, 376, 378, 376, 375, 375, 376, 376, 376, 379, 378, 377, 376, 377, 376, 376, 375, 377, 376, 376, 377, 374, 376, 376, 377, 376, 376, 377, 378, 376, 377, 377, 376, 377, 376, 376, 377],
      "WindowCenter": [308.0, 308.0, 307.0, 308.0, 308.0, 308.0, 308.0, 308.0, 308.0, 308.0, 308.0, 307.0, 308.0, 308.0, 308.0, 308.0, 308.0, 307.0, 308.0, 308.0, 307.0, 308.0, 308.0, 308.0, 308.0, 307.0, 308.0, 308.0, 308.0, 308.0, 307.0, 308.0, 308.0, 308.0, 308.0, 308.0, 308.0, 307.0, 308.0, 308.0, 308.0, 308.0, 308.0, 307.0, 308.0, 308.0, 307.0, 308.0, 307.0, 307.0, 308.0, 307.0, 307.0, 308.0, 307.0, 307.0, 308.0, 307.0, 307.0, 308.0, 308.0, 307.0, 307.0, 308.0, 308.0, 308.0, 307.0, 307.0, 308.0, 307.0, 307.0, 307.0, 307.0, 307.0, 308.0, 307.0, 307.0, 307.0, 307.0, 307.0, 307.0, 307.0, 307.0, 307.0, 307.0, 307.0, 307.0, 307.0, 307.0, 307.0, 307.0, 307.0, 307.0, 307.0, 307.0, 307.0, 307.0, 307.0, 307.0, 307.0, 307.0, 307.0, 307.0, 307.0, 307.0, 307.0, 307.0, 307.0, 307.0, 307.0, 307.0, 307.0, 307.0, 307.0, 307.0, 307.0, 307.0, 307.0, 307.0, 307.0, 307.0, 307.0, 307.0, 307.0, 307.0, 307.0, 307.0, 307.0, 307.0, 307.0, 307.0, 307.0, 307.0, 307.0, 307.0, 307.0, 307.0, 307.0, 307.0, 307.0, 307.0, 307.0, 307.0, 307.0, 307.0, 307.0, 307.0, 307.0, 307.0, 307.0, 307.0, 307.0, 307.0, 307.0, 307.0, 307.0, 307.0, 307.0, 307.0, 306.0, 307.0, 307.0, 307.0, 306.0, 307.0, 307.0, 307.0, 307.0, 307.0, 307.0, 307.0, 307.0, 307.0, 307.0, 307.0, 307.0, 307.0, 307.0, 307.0, 307.0, 307.0, 307.0, 307.0, 307.0, 307.0, 307.0, 307.0, 307.0, 307.0, 307.0, 307.0, 307.0, 307.0, 307.0, 307.0, 307.0, 307.0, 307.0, 307.0, 306.0],
      "WindowWidth": [665.0, 665.0, 665.0, 665.0, 665.0, 665.0, 665.0, 665.0, 665.0, 665.0, 665.0, 664.0, 665.0, 665.0, 665.0, 665.0, 665.0, 664.0, 665.0, 665.0, 664.0, 665.0, 665.0, 665.0, 665.0, 664.0, 665.0, 665.0, 665.0, 665.0, 664.0, 665.0, 665.0, 665.0, 665.0, 665.0, 665.0, 664.0, 665.0, 665.0, 664.0, 665.0, 665.0, 664.0, 665.0, 665.0, 663.0, 665.0, 664.0, 664.0, 665.0, 664.0, 663.0, 665.0, 664.0, 664.0, 665.0, 664.0, 664.0, 665.0, 665.0, 664.0, 664.0, 665.0, 665.0, 665.0, 664.0, 664.0, 665.0, 664.0, 664.0, 664.0, 664.0, 664.0, 665.0, 664.0, 664.0, 664.0, 663.0, 664.0, 664.0, 663.0, 664.0, 664.0, 664.0, 664.0, 664.0, 663.0, 664.0, 664.0, 663.0, 664.0, 663.0, 663.0, 663.0, 663.0, 663.0, 664.0, 663.0, 663.0, 664.0, 663.0, 664.0, 664.0, 664.0, 663.0, 664.0, 663.0, 663.0, 664.0, 663.0, 663.0, 664.0, 663.0, 663.0, 664.0, 663.0, 664.0, 664.0, 663.0, 664.0, 664.0, 663.0, 663.0, 663.0, 663.0, 664.0, 663.0, 663.0, 663.0, 663.0, 663.0, 663.0, 664.0, 663.0, 664.0, 663.0, 663.0, 664.0, 664.0, 663.0, 664.0, 664.0, 663.0, 664.0, 663.0, 663.0, 663.0, 663.0, 663.0, 664.0, 663.0, 663.0, 663.0, 663.0, 663.0, 663.0, 663.0, 663.0, 663.0, 663.0, 664.0, 664.0, 663.0, 663.0, 664.0, 663.0, 663.0, 663.0, 663.0, 664.0, 663.0, 664.0, 663.0, 663.0, 663.0, 664.0, 664.0, 663.0, 663.0, 663.0, 663.0, 663.0, 663.0, 663.0, 663.0, 664.0, 663.0, 664.0, 663.0, 663.0, 663.0, 663.0, 663.0, 663.0, 663.0, 663.0, 663.0, 663.0, 663.0]
    },
    "slices": {}
  }
}