{
  "AcquisitionMatrixPE": 80,
  "AcquisitionNumber": 1,
  "AcquisitionTime": "10:03:45.060000",
  "BandwidthPerPixelPhaseEncode": 46.296,
  "BaseResolution": 80,
  "BodyPartExamined": "BRAIN",
  "CoilCombinationMethod": "Sum of Squares",
  "ConsistencyInfo": "N4_VE11E_LATEST_20181129",
  "ConversionSoftware": "dcm2niix",
  "ConversionSoftwareVersion": "v1.0.20220720",
  "DerivedVendorReportedEchoSpacing": 0.000540003,
  "DeviceSerialNumber": "66112",
  "DwellTime": 2.7e-06,
  "EchoTime": 0.035,
  "EchoTrainLength": 39,
  "EffectiveEchoSpacing": 0.000270002,
  "FlipAngle": 90,
  "HeudiconvVersion": "0.13.1",
  "ImageOrientationPatientDICOM": [0.988395, 0.15161, 0.00951276, -0.147364, 0.941746, 0.302322],
  "ImageOrientationText": "Tra>Cor(17.5)>Sag(-2.1)",
  "ImageType": [
    "ORIGINAL",
    "PRIMARY",
    "M",
    "ND",
    "NORM",
    "MOSAIC"
],
  "ImagingFrequency": 123.259,
  "InPlanePhaseEncodingDirectionDICOM": "COL",
  "InstitutionAddress": "Maynard 3,Hanover,NH,US,03755",
  "InstitutionName": "Dartmouth College - PBS",
  "InstitutionalDepartmentName": "Department",
  "MRAcquisitionType": "2D",
  "MagneticFieldStrength": 3,
  "Manufacturer": "Siemens",
  "ManufacturersModelName": "Prisma",
  "Modality": "MR",
  "MultibandAccelerationFactor": 4,
  "NonlinearGradientCorrection": false,
  "ParallelReductionFactorInPlane": 2,
  "PartialFourier": 1,
  "PatientPosition": "HFS",
  "PercentPhaseFOV": 100,
  "PercentSampling": 100,
  "PhaseEncodingDirection": "j-",
  "PhaseEncodingSteps": 79,
  "PhaseResolution": 1,
  "PixelBandwidth": 2315,
  "ProcedureStepDescription": "dbic^QA",
  "ProtocolName": "func-bold_task-rest_acq-p2-s4-3.5mm",
  "PulseSequenceDetails": "%SiemensSeq%\\ep2d_bold",
  "ReceiveCoilActiveElements": "HEA;HEP",
  "ReceiveCoilName": "Head_32",
  "ReconMatrixPE": 80,
  "RefLinesPE": 24,
  "RepetitionTime": 2,
  "SAR": 0.0306957,
  "ScanOptions": "FS",
  "ScanningSequence": "EP",
  "SequenceName": "*epfid2d1_80",
  "SequenceVariant": "SK",
  "SeriesDescription": "func-bold_task-rest_acq-p2-s4-3.5mm",
  "SeriesNumber": 6,
  "ShimSetting": [4219, -7738, -7487, -28, -141, -10, 6, 55],
  "SliceThickness": 3.5,
  "SliceTiming": [1.485, 0, 0.99, 0.2475, 1.2375, 0.7425, 1.7325, 0.495, 1.485, 0, 0.99, 0.2475, 1.2375, 0.7425, 1.7325, 0.495, 1.485, 0, 0.99, 0.2475, 1.2375, 0.7425, 1.7325, 0.495, 1.485, 0, 0.99, 0.2475, 1.2375, 0.7425, 1.7325, 0.495],
  "SoftwareVersions": "syngo MR E11",
  "SpacingBetweenSlices": 3.99,
  "StationName": "AWP66112",
  "TaskName": "rest",
  "TotalReadoutTime": 0.0213301,
  "TxRefAmp": 224.71,
  "dcmmeta_affine": [
    [-2.965183973312378, -0.4420914947986603, -0.14713622629642487, 141.24574279785156],
    [-0.45482873916625977, 2.825237989425659, 1.19785737991333, -108.85482788085938],
    [0.02853826805949211, -0.9069647789001465, 3.803102493286133, -15.973285675048828],
    [0.0, 0.0, 0.0, 1.0]
],
  "dcmmeta_reorient_transform": [
    [0.0, -1.0, 0.0, 79.0],
    [1.0, 0.0, 0.0, 0.0],
    [0.0, 0.0, 1.0, 0.0],
    [0.0, 0.0, 0.0, 1.0]
],
  "dcmmeta_shape": [80, 80, 32, 200],
  "dcmmeta_slice_dim": 2,
  "dcmmeta_version": 0.6,
  "global": {
    "const": {
      "AccessionNumber": "qa",
      "AcquisitionMatrix": [80, 0, 0, 80],
      "AngioFlag": "N",
      "BitsAllocated": 16,
      "BitsStored": 12,
      "BodyPartExamined": "BRAIN",
      "Columns": 480,
      "EchoNumbers": 1,
      "EchoTime": 35.0,
      "EchoTrainLength": 39,
      "FlipAngle": 90.0,
      "HighBit": 11,
      "ImageOrientationPatient": [0.988394680094, 0.1516095769891, 0.00951275601869, -0.1473638310165, 0.94174601592539, 0.30232158837371],
      "ImagePositionPatient": [-610.93901948322, -770.35232984643, -274.72410854724],
      "ImageType": [
        "ORIGINAL",
        "PRIMARY",
        "M",
        "ND",
        "NORM",
        "MOSAIC"
],
      "ImagedNucleus": "1H",
      "ImagingFrequency": 123.259229,
      "InPlanePhaseEncodingDirection": "COL",
      "MRAcquisitionType": "2D",
      "MagneticFieldStrength": 3.0,
      "Manufacturer": "SIEMENS",
      "ManufacturerModelName": "Prisma",
      "Modality": "MR",
      "NumberOfAverages": 1.0,
      "NumberOfPhaseEncodingSteps": 79,
      "PercentPhaseFieldOfView": 100.0,
      "PercentSampling": 100.0,
      "PerformedProcedureStepStartTime": "094537.240000",
      "PhotometricInterpretation": "MONOCHROME2",
      "PixelBandwidth": 2315.0,
      "PixelRepresentation": 0,
      "PixelSpacing": [3.0, 3.0],
      "ProtocolName": "func-bold_task-rest_acq-p2-s4-3.5mm",
      "RepetitionTime": 2000.0,
      "Rows": 480,
      "SAR": 0.03069570091519,
      "SamplesPerPixel": 1,
      "ScanOptions": "FS",
      "ScanningSequence": "EP",
      "SequenceName": "*epfid2d1_80",
      "SequenceVariant": "SK",
      "SeriesDescription": "func-bold_task-rest_acq-p2-s4-3.5mm",
      "SeriesNumber": 6,
      "SeriesTime": "100442.625000",
      "SliceLocation": -53.113526868866,
      "SliceThickness": 3.5,
      "SmallestImagePixelValue": 0,
      "SoftwareVersions": "syngo MR E11",
      "SpacingBetweenSlices": 3.989999959485,
      "SpecificCharacterSet": "ISO_IR 100",
      "StudyID": "13",
      "StudyTime": "094537.183000",
      "TransmitCoilName": "Body",
      "VariableFlipAngleFlag": "N",
      "WindowCenterWidthExplanation": "Algo1"
    },
    "slices": {}
  },
  "time": {
    "samples": {
      "AcquisitionNumber": [1, 2, 3, 4, 5, 6, 7, 8, 9, 10, 11, 12, 13, 14, 15, 16, 17, 18, 19, 20, 21, 22, 23, 24, 25, 26, 27, 28, 29, 30, 31, 32, 33, 34, 35, 36, 37, 38, 39, 40, 41, 42, 43, 44, 45, 46, 47, 48, 49, 50, 51, 52, 53, 54, 55, 56, 57, 58, 59, 60, 61, 62, 63, 64, 65, 66, 67, 68, 69, 70, 71, 72, 73, 74, 75, 76, 77, 78, 79, 80, 81, 82, 83, 84, 85, 86, 87, 88, 89, 90, 91, 92, 93, 94, 95, 96, 97, 98, 99, 100, 101, 102, 103, 104, 105, 106, 107, 108, 109, 110, 111, 112, 113, 114, 115, 116, 117, 118, 119, 120, 121, 122, 123, 124, 125, 126, 127, 128, 129, 130, 131, 132, 133, 134, 135, 136, 137, 138, 139, 140, 141, 142, 143, 144, 145, 146, 147, 148, 149, 150, 151, 152, 153, 154, 155, 156, 157, 158, 159, 160, 161, 162, 163, 164, 165, 166, 167, 168, 169, 170, 171, 172, 173, 174, 175, 176, 177, 178, 179, 180, 181, 182, 183, 184, 185, 186, 187, 188, 189, 190, 191, 192, 193, 194, 195, 196, 197, 198, 199, 200],
      "AcquisitionTime": ["100345.060000", "100347.060000", "100349.060000", "100351.060000", "100353.060000", "100355.060000", "100357.060000", "100359.060000", "100401.060000", "100403.060000", "100405.060000", "100407.060000", "100409.060000", "100411.060000", "100413.060000", "100415.060000", "100417.060000", "100419.060000", "100421.060000", "100423.060000", "100425.060000", "100427.060000", "100429.060000", "100431.060000", "100433.060000", "100435.060000", "100437.060000", "100439.060000", "100441.060000", "100443.060000", "100445.060000", "100447.060000", "100449.060000", "100451.060000", "100453.060000", "100455.060000", "100457.060000", "100459.060000", "100501.060000", "100503.060000", "100505.060000", "100507.060000", "100509.060000", "100511.060000", "100513.060000", "100515.060000", "100517.060000", "100519.060000", "100521.060000", "100523.060000", "100525.060000", "100527.060000", "100529.060000", "100531.060000", "100533.060000", "100535.060000", "100537.060000", "100539.060000", "100541.060000", "100543.060000", "100545.060000", "100547.060000", "100549.060000", "100551.060000", "100553.060000", "100555.060000", "100557.060000", "100559.060000", "100601.060000", "100603.060000", "100605.060000", "100607.060000", "100609.060000", "100611.060000", "100613.060000", "100615.060000", "100617.060000", "100619.060000", "100621.060000", "100623.060000", "100625.060000", "100627.060000", "100629.060000", "100631.060000", "100633.060000", "100635.060000", "100637.060000", "100639.060000", "100641.060000", "100643.060000", "100645.060000", "100647.060000", "100649.060000", "100651.060000", "100653.060000", "100655.060000", "100657.060000", "100659.060000", "100701.060000", "100703.060000", "100705.060000", "100707.060000", "100709.060000", "100711.060000", "100713.060000", "100715.060000", "100717.060000", "100719.060000", "100721.060000", "100723.060000", "100725.060000", "100727.060000", "100729.060000", "100731.060000", "100733.060000", "100735.060000", "100737.060000", "100739.060000", "100741.060000", "100743.060000", "100745.060000", "100747.060000", "100749.060000", "100751.060000", "100753.060000", "100755.060000", "100757.060000", "100759.060000", "100801.060000", "100803.060000", "100805.060000", "100807.060000", "100809.060000", "100811.060000", "100813.060000", "100815.060000", "100817.060000", "100819.060000", "100821.060000", "100823.060000", "100825.060000", "100827.060000", "100829.060000", "100831.060000", "100833.060000", "100835.060000", "100837.060000", "100839.060000", "100841.060000", "100843.060000", "100845.060000", "100847.060000", "100849.060000", "100851.060000", "100853.060000", "100855.060000", "100857.060000", "100859.060000", "100901.060000", "100903.060000", "100905.060000", "100907.060000", "100909.060000", "100911.060000", "100913.060000", "100915.060000", "100917.060000", "100919.060000", "100921.060000", "100923.060000", "100925.060000", "100927.060000", "100929.060000", "100931.060000", "100933.060000", "100935.060000", "100937.060000", "100939.060000", "100941.060000", "100943.060000", "100945.060000", "100947.060000", "100949.060000", "100951.060000", "100953.060000", "100955.060000", "100957.060000", "100959.060000", "101001.060000", "101003.060000", "101005.060000", "101007.060000", "101009.060000", "101011.060000", "101013.060000", "101015.060000", "101017.060000", "101019.060000", "101021.060000", "101023.060000"],
      "ContentTime": ["100442.628000", "100442.631000", "100442.634000", "100442.636000", "100442.638000", "100442.641000", "100442.650000", "100442.656000", "100442.658000", "100442.660000", "100442.663000", "100442.665000", "100442.668000", "100442.670000", "100442.672000", "100442.675000", "100442.677000", "100442.685000", "100442.688000", "100442.690000", "100442.692000", "100442.695000", "100442.697000", "100442.699000", "100442.702000", "100442.704000", "100442.706000", "100442.709000", "100442.711000", "100522.623000", "100522.626000", "100522.628000", "100522.630000", "100522.633000", "100522.635000", "100522.637000", "100522.640000", "100522.642000", "100522.644000", "100522.647000", "100522.649000", "100522.651000", "100522.654000", "100522.656000", "100522.658000", "100522.661000", "100522.663000", "100522.665000", "100522.668000", "100602.622000", "100602.625000", "100602.627000", "100602.629000", "100602.632000", "100602.634000", "100602.636000", "100602.639000", "100602.641000", "100602.643000", "100602.645000", "100602.648000", "100602.650000", "100602.652000", "100602.655000", "100602.657000", "100602.659000", "100602.662000", "100602.664000", "100602.666000", "100642.623000", "100642.626000", "100642.628000", "100642.631000", "100642.633000", "100642.635000", "100642.637000", "100642.640000", "100642.642000", "100642.644000", "100642.647000", "100642.649000", "100642.652000", "100642.654000", "100642.656000", "100642.664000", "100642.667000", "100642.669000", "100642.671000", "100642.674000", "100722.623000", "100722.626000", "100722.628000", "100722.631000", "100722.633000", "100722.635000", "100722.638000", "100722.640000", "100722.642000", "100722.645000", "100722.647000", "100722.649000", "100722.652000", "100722.654000", "100722.656000", "100722.659000", "100722.661000", "100722.663000", "100722.666000", "100722.668000", "100802.623000", "100802.626000", "100802.628000", "100802.630000", "100802.633000", "100802.635000", "100802.637000", "100802.640000", "100802.642000", "100802.644000", "100802.647000", "100802.649000", "100802.651000", "100802.654000", "100802.656000", "100802.658000", "100802.661000", "100802.663000", "100802.665000", "100802.668000", "100842.623000", "100842.626000", "100842.628000", "100842.630000", "100842.633000", "100842.635000", "100842.637000", "100842.640000", "100842.642000", "100842.644000", "100842.646000", "100842.649000", "100842.651000", "100842.653000", "100842.656000", "100842.658000", "100842.660000", "100842.663000", "100842.665000", "100842.668000", "100922.623000", "100922.626000", "100922.629000", "100922.632000", "100922.634000", "100922.636000", "100922.639000", "100922.641000", "100922.643000", "100922.646000", "100922.648000", "100922.650000", "100922.653000", "100922.655000", "100922.657000", "100922.660000", "100922.662000", "100922.665000", "100922.667000", "100922.669000", "101002.623000", "101002.626000", "101002.628000", "101002.631000", "101002.633000", "101002.635000", "101002.638000", "101002.640000", "101002.642000", "101002.645000", "101002.647000", "101002.649000", "101002.651000", "101002.654000", "101002.656000", "101002.658000", "101002.661000", "101002.663000", "101002.665000", "101002.668000", "101024.530000", "101024.532000", "101024.535000", "101024.537000", "101024.540000", "101024.542000", "101024.544000", "101024.547000", "101024.549000", "101024.551000", "101024.554000"],
      "InstanceCreationTime": ["100442.628000", "100442.631000", "100442.634000", "100442.636000", "100442.638000", "100442.641000", "100442.650000", "100442.656000", "100442.658000", "100442.660000", "100442.663000", "100442.665000", "100442.668000", "100442.670000", "100442.672000", "100442.675000", "100442.677000", "100442.685000", "100442.688000", "100442.690000", "100442.692000", "100442.695000", "100442.697000", "100442.699000", "100442.702000", "100442.704000", "100442.706000", "100442.709000", "100442.711000", "100522.623000", "100522.626000", "100522.628000", "100522.630000", "100522.633000", "100522.635000", "100522.637000", "100522.640000", "100522.642000", "100522.644000", "100522.647000", "100522.649000", "100522.651000", "100522.654000", "100522.656000", "100522.658000", "100522.661000", "100522.663000", "100522.665000", "100522.668000", "100602.622000", "100602.625000", "100602.627000", "100602.629000", "100602.632000", "100602.634000", "100602.636000", "100602.639000", "100602.641000", "100602.643000", "100602.645000", "100602.648000", "100602.650000", "100602.652000", "100602.655000", "100602.657000", "100602.659000", "100602.662000", "100602.664000", "100602.666000", "100642.623000", "100642.626000", "100642.628000", "100642.631000", "100642.633000", "100642.635000", "100642.637000", "100642.640000", "100642.642000", "100642.644000", "100642.647000", "100642.649000", "100642.652000", "100642.654000", "100642.656000", "100642.664000", "100642.667000", "100642.669000", "100642.671000", "100642.674000", "100722.623000", "100722.626000", "100722.628000", "100722.631000", "100722.633000", "100722.635000", "100722.638000", "100722.640000", "100722.642000", "100722.645000", "100722.647000", "100722.649000", "100722.652000", "100722.654000", "100722.656000", "100722.659000", "100722.661000", "100722.663000", "100722.666000", "100722.668000", "100802.623000", "100802.626000", "100802.628000", "100802.630000", "100802.633000", "100802.635000", "100802.637000", "100802.640000", "100802.642000", "100802.644000", "100802.647000", "100802.649000", "100802.651000", "100802.654000", "100802.656000", "100802.658000", "100802.661000", "100802.663000", "100802.665000", "100802.668000", "100842.623000", "100842.626000", "100842.628000", "100842.630000", "100842.633000", "100842.635000", "100842.637000", "100842.640000", "100842.642000", "100842.644000", "100842.646000", "100842.649000", "100842.651000", "100842.653000", "100842.656000", "100842.658000", "100842.660000", "100842.663000", "100842.665000", "100842.668000", "100922.623000", "100922.626000", "100922.629000", "100922.632000", "100922.634000", "100922.636000", "100922.639000", "100922.641000", "100922.643000", "100922.646000", "100922.648000", "100922.650000", "100922.653000", "100922.655000", "100922.657000", "100922.660000", "100922.662000", "100922.665000", "100922.667000", "100922.669000", "101002.623000", "101002.626000", "101002.628000", "101002.631000", "101002.633000", "101002.635000", "101002.638000", "101002.640000", "101002.642000", "101002.645000", "101002.647000", "101002.649000", "101002.651000", "101002.654000", "101002.656000", "101002.658000", "101002.661000", "101002.663000", "101002.665000", "101002.668000", "101024.530000", "101024.532000", "101024.535000", "101024.537000", "101024.540000", "101024.542000", "101024.544000", "101024.547000", "101024.549000", "101024.551000", "101024.554000"],
      "InstanceNumber": [1, 2, 3, 4, 5, 6, 7, 8, 9, 10, 11, 12, 13, 14, 15, 16, 17, 18, 19, 20, 21, 22, 23, 24, 25, 26, 27, 28, 29, 30, 31, 32, 33, 34, 35, 36, 37, 38, 39, 40, 41, 42, 43, 44, 45, 46, 47, 48, 49, 50, 51, 52, 53, 54, 55, 56, 57, 58, 59, 60, 61, 62, 63, 64, 65, 66, 67, 68, 69, 70, 71, 72, 73, 74, 75, 76, 77, 78, 79, 80, 81, 82, 83, 84, 85, 86, 87, 88, 89, 90, 91, 92, 93, 94, 95, 96, 97, 98, 99, 100, 101, 102, 103, 104, 105, 106, 107, 108, 109, 110, 111, 112, 113, 114, 115, 116, 117, 118, 119, 120, 121, 122, 123, 124, 125, 126, 127, 128, 129, 130, 131, 132, 133, 134, 135, 136, 137, 138, 139, 140, 141, 142, 143, 144, 145, 146, 147, 148, 149, 150, 151, 152, 153, 154, 155, 156, 157, 158, 159, 160, 161, 162, 163, 164, 165, 166, 167, 168, 169, 170, 171, 172, 173, 174, 175, 176, 177, 178, 179, 180, 181, 182, 183, 184, 185, 186, 187, 188, 189, 190, 191, 192, 193, 194, 195, 196, 197, 198, 199, 200],
      "LargestImagePixelValue": [2319, 2324, 2322, 2322, 2321, 2322, 2319, 2322, 2322, 2320, 2325, 2322, 2321, 2323, 2317, 2322, 2323, 2322, 2323, 2320, 2320, 2320, 2320, 2323, 2320, 2322, 2321, 2324, 2325, 2320, 2325, 2318, 2319, 2323, 2322, 2326, 2321, 2324, 2319, 2320, 2321, 2321, 2321, 2326, 2327, 2321, 2321, 2321, 2321, 2322, 2320, 2321, 2320, 2323, 2322, 2321, 2320, 2320, 2319, 2321, 2320, 2323, 2319, 2323, 2316, 2321, 2318, 2322, 2324, 2323, 2318, 2321, 2323, 2317, 2318, 2321, 2319, 2325, 2325, 2321, 2321, 2320, 2320, 2319, 2317, 2323, 2322, 2321, 2319, 2318, 2317, 2318, 2326, 2320, 2320, 2321, 2321, 2319, 2321, 2320, 2317, 2321, 2320, 2321, 2322, 2319, 2321, 2319, 2324, 2320, 2319, 2322, 2321, 2322, 2319, 2322, 2322, 2321, 2322, 2321, 2318, 2321, 2319, 2314, 2320, 2317, 2319, 2319, 2325, 2320, 2318, 2322, 2318, 2320, 2321, 2320, 2323, 2321, 2319, 2319, 2315, 2319, 2323, 2320, 2319, 2322, 2321, 2322, 2320, 2319, 2321, 2322, 2319, 2324, 2321, 2324, 2320, 2318, 2321, 2320, 2322, 2324, 2324, 2319, 2319, 2319, 2318, 2316, 2322, 2321, 2319, 2323, 2322, 2319, 2317, 2320, 2322, 2320, 2319, 2318, 2323, 2322, 2319, 2318, 2322, 2320, 2323, 2326, 2321, 2317, 2318, 2317, 2320, 2322, 2321, 2320, 2316, 2320, 2319, 2317],
      "WindowCenter": [977.0, 975.0, 976.0, 976.0, 975.0, 976.0, 976.0, 975.0, 976.0, 975.0, 976.0, 976.0, 976.0, 976.0, 975.0, 975.0, 975.0, 975.0, 976.0, 975.0, 977.0, 976.0, 975.0, 976.0, 977.0, 976.0, 976.0, 976.0, 975.0, 975.0, 976.0, 975.0, 975.0, 975.0, 975.0, 976.0, 976.0, 975.0, 975.0, 976.0, 975.0, 975.0, 976.0, 976.0, 976.0, 975.0, 976.0, 974.0, 976.0, 974.0, 976.0, 976.0, 976.0, 976.0, 976.0, 976.0, 977.0, 975.0, 976.0, 976.0, 976.0, 975.0, 975.0, 975.0, 976.0, 977.0, 976.0, 976.0, 975.0, 976.0, 977.0, 976.0, 976.0, 975.0, 976.0, 976.0, 975.0, 977.0, 975.0, 975.0, 976.0, 975.0, 975.0, 975.0, 976.0, 976.0, 976.0, 976.0, 976.0, 976.0, 976.0, 975.0, 976.0, 976.0, 975.0, 976.0, 975.0, 976.0, 975.0, 976.0, 975.0, 976.0, 975.0, 976.0, 975.0, 975.0, 975.0, 977.0, 977.0, 976.0, 975.0, 976.0, 976.0, 976.0, 976.0, 975.0, 975.0, 975.0, 976.0, 976.0, 976.0, 975.0, 977.0, 975.0, 976.0, 975.0, 976.0, 975.0, 976.0, 976.0, 976.0, 976.0, 976.0, 976.0, 975.0, 976.0, 976.0, 975.0, 976.0, 976.0, 976.0, 976.0, 976.0, 976.0, 976.0, 975.0, 976.0, 975.0, 975.0, 976.0, 975.0, 976.0, 976.0, 976.0, 975.0, 976.0, 975.0, 975.0, 975.0, 976.0, 974.0, 976.0, 975.0, 976.0, 976.0, 976.0, 977.0, 976.0, 975.0, 975.0, 976.0, 975.0, 976.0, 975.0, 974.0, 976.0, 975.0, 976.0, 976.0, 977.0, 977.0, 975.0, 975.0, 976.0, 977.0, 976.0, 976.0, 975.0, 976.0, 975.0, 977.0, 975.0, 976.0, 976.0, 976.0, 975.0, 976.0, 976.0, 975.0, 975.0],
      "WindowWidth": [2319.0, 2317.0, 2319.0, 2318.0, 2317.0, 2318.0, 2318.0, 2317.0, 2318.0, 2317.0, 2319.0, 2319.0, 2318.0, 2318.0, 2317.0, 2317.0, 2317.0, 2317.0, 2319.0, 2317.0, 2319.0, 2318.0, 2317.0, 2318.0, 2319.0, 2318.0, 2318.0, 2318.0, 2318.0, 2318.0, 2318.0, 2317.0, 2317.0, 2317.0, 2318.0, 2318.0, 2318.0, 2318.0, 2318.0, 2319.0, 2317.0, 2317.0, 2319.0, 2319.0, 2318.0, 2317.0, 2318.0, 2317.0, 2318.0, 2317.0, 2318.0, 2318.0, 2318.0, 2318.0, 2318.0, 2318.0, 2319.0, 2318.0, 2319.0, 2319.0, 2318.0, 2318.0, 2318.0, 2317.0, 2318.0, 2319.0, 2318.0, 2318.0, 2318.0, 2319.0, 2320.0, 2318.0, 2318.0, 2317.0, 2318.0, 2318.0, 2318.0, 2321.0, 2318.0, 2317.0, 2318.0, 2317.0, 2317.0, 2318.0, 2318.0, 2319.0, 2319.0, 2318.0, 2318.0, 2318.0, 2318.0, 2317.0, 2318.0, 2319.0, 2318.0, 2318.0, 2317.0, 2318.0, 2317.0, 2318.0, 2317.0, 2319.0, 2317.0, 2319.0, 2317.0, 2317.0, 2317.0, 2319.0, 2319.0, 2318.0, 2318.0, 2319.0, 2318.0, 2318.0, 2318.0, 2317.0, 2317.0, 2318.0, 2318.0, 2318.0, 2319.0, 2318.0, 2320.0, 2317.0, 2318.0, 2317.0, 2318.0, 2317.0, 2318.0, 2318.0, 2318.0, 2319.0, 2318.0, 2318.0, 2318.0, 2318.0, 2318.0, 2318.0, 2318.0, 2318.0, 2318.0, 2318.0, 2318.0, 2318.0, 2319.0, 2318.0, 2318.0, 2317.0, 2317.0, 2318.0, 2317.0, 2318.0, 2318.0, 2318.0, 2317.0, 2318.0, 2317.0, 2317.0, 2317.0, 2318.0, 2317.0, 2318.0, 2317.0, 2319.0, 2318.0, 2319.0, 2319.0, 2318.0, 2317.0, 2317.0, 2318.0, 2317.0, 2319.0, 2318.0, 2316.0, 2318.0, 2317.0, 2318.0, 2318.0, 2319.0, 2319.0, 2318.0, 2317.0, 2318.0, 2319.0, 2318.0, 2318.0, 2317.0, 2318.0, 2317.0, 2318.0, 2317.0, 2318.0, 2318.0, 2318.0, 2317.0, 2318.0, 2318.0, 2317.0, 2318.0]
    },
    "slices": {}
  }
}