{
  "AcquisitionMatrixPE": 122,
  "AcquisitionNumber": 1,
  "AcquisitionTime": "10:27:23.247500",
  "BandwidthPerPixelPhaseEncode": 28.76,
  "BaseResolution": 122,
  "BodyPartExamined": "BRAIN",
  "CoilCombinationMethod": "Adaptive Combine",
  "ConsistencyInfo": "N4_VE11C_LATEST_20160120",
  "ConversionSoftware": "dcm2niix",
  "ConversionSoftwareVersion": "v1.0.20220720",
  "DerivedVendorReportedEchoSpacing": 0.000570008,
  "DeviceSerialNumber": "66112",
  "DiffusionScheme": "Monopolar",
  "DwellTime": 2e-06,
  "EchoTime": 0.075,
  "EchoTrainLength": 61,
  "EffectiveEchoSpacing": 0.000285004,
  "FlipAngle": 90,
  "HeudiconvVersion": "0.13.1",
  "ImageOrientationPatientDICOM": [0.984442, -0.175709, -0.000732662, 0.167743, 0.938553, 0.30163],
  "ImageOrientationText": "Tra>Cor(17.3)>Sag(3.0)",
  "ImageType": [
    "ORIGINAL",
    "PRIMARY",
    "DIFFUSION",
    "NONE",
    "ND",
    "NORM"
],
  "ImagingFrequency": 123.252,
  "InPlanePhaseEncodingDirectionDICOM": "COL",
  "InstitutionAddress": "Maynard 3,Hanover,NH,US,03755",
  "InstitutionName": "Dartmouth College - PBS",
  "InstitutionalDepartmentName": "Department",
  "MRAcquisitionType": "2D",
  "MagneticFieldStrength": 3,
  "Manufacturer": "Siemens",
  "ManufacturersModelName": "Prisma",
  "MatrixCoilMode": "GRAPPA",
  "Modality": "MR",
  "NonlinearGradientCorrection": false,
  "ParallelReductionFactorInPlane": 2,
  "PartialFourier": 1,
  "PatientPosition": "HFS",
  "PercentPhaseFOV": 100,
  "PercentSampling": 100,
  "PhaseEncodingDirection": "j-",
  "PhaseEncodingSteps": 122,
  "PhaseResolution": 1,
  "PixelBandwidth": 2050,
  "ProcedureStepDescription": "dbic^QA",
  "ProtocolName": "dwi_acq-DTI-30-p2",
  "PulseSequenceDetails": "%SiemensSeq%\\ep2d_diff",
  "ReceiveCoilActiveElements": "HEA;HEP",
  "ReceiveCoilName": "Head_32",
  "ReconMatrixPE": 122,
  "RefLinesPE": 38,
  "RepetitionTime": 7.7,
  "SAR": 0.101991,
  "ScanOptions": "FS",
  "ScanningSequence": "EP",
  "SequenceName": "*ep_b0",
  "SequenceVariant": "SK\\SP",
  "SeriesDescription": "dwi_acq-DTI-30-p2",
  "SeriesNumber": 12,
  "ShimSetting": [4142, -7695, -7521, 253, -97, -79, 20, 83],
  "SliceThickness": 2,
  "SliceTiming": [3.84375, 0, 3.95312, 0.10938, 4.0625, 0.21875, 4.17188, 0.32812, 4.28125, 0.4375, 4.39062, 0.55469, 4.5, 0.66406, 4.60938, 0.77344, 4.71875, 0.875, 4.82812, 0.99219, 4.9375, 1.10156, 5.04688, 1.21094, 5.15625, 1.32031, 5.26562, 1.42969, 5.375, 1.53906, 5.49219, 1.64844, 5.59375, 1.75781, 5.70312, 1.86719, 5.8125, 1.97656, 5.92969, 2.08594, 6.03906, 2.19531, 6.14844, 2.30469, 6.25781, 2.41406, 6.36719, 2.52344, 6.47656, 2.63281, 6.58594, 2.74219, 6.69531, 2.85156, 6.80469, 2.96094, 6.91406, 3.07031, 7.02344, 3.1875, 7.13281, 3.29688, 7.24219, 3.40625, 7.35156, 3.51562, 7.46094, 3.625, 7.57031, 3.73438],
  "SoftwareVersions": "syngo MR E11",
  "SpacingBetweenSlices": 2,
  "SpoilingState": true,
  "StationName": "AWP66112",
  "TotalReadoutTime": 0.0344855,
  "TxRefAmp": 227.776,
  "dcmmeta_affine": [
    [-1.9366068840026855, 0.32998669147491455, 0.10462296009063721, 93.10759735107422],
    [0.3456575870513916, 1.8463337421417236, 0.5941200256347656, -144.96939086914062],
    [-0.0014413018943741918, -0.5933700203895569, 1.9068450927734375, -18.078594207763672],
    [0.0, 0.0, 0.0, 1.0]
],
  "dcmmeta_reorient_transform": [
    [0.0, -1.0, 0.0, 121.0],
    [1.0, 0.0, 0.0, 0.0],
    [0.0, 0.0, -1.0, 69.0],
    [0.0, 0.0, 0.0, 1.0]
],
  "dcmmeta_shape": [122, 122, 70, 31],
  "dcmmeta_slice_dim": 2,
  "dcmmeta_version": 0.6,
  "global": {
    "const": {
      "AccessionNumber": "qa",
      "AcquisitionMatrix": [122, 0, 0, 122],
      "AngioFlag": "N",
      "BitsAllocated": 16,
      "BitsStored": 12,
      "BodyPartExamined": "BRAIN",
      "Columns": 122,
      "EchoNumbers": 1,
      "EchoTime": 75.0,
      "EchoTrainLength": 61,
      "FlipAngle": 90.0,
      "HighBit": 11,
      "ImageOrientationPatient": [0.9844418289417, -0.1757092730525, -0.0007326617888, 0.16774323229382, 0.9385529797452, 0.30162976018793],
      "ImageType": [
        "ORIGINAL",
        "PRIMARY",
        "DIFFUSION",
        "NONE",
        "ND",
        "NORM"
],
      "ImagedNucleus": "1H",
      "ImagingFrequency": 123.252348,
      "InPlanePhaseEncodingDirection": "COL",
      "MRAcquisitionType": "2D",
      "MagneticFieldStrength": 3.0,
      "Manufacturer": "SIEMENS",
      "ManufacturerModelName": "Prisma",
      "Modality": "MR",
      "NumberOfAverages": 1.0,
      "NumberOfPhaseEncodingSteps": 122,
      "PercentPhaseFieldOfView": 100.0,
      "PercentSampling": 100.0,
      "PerformedProcedureStepStartTime": "095807.490000",
      "PhotometricInterpretation": "MONOCHROME2",
      "PixelBandwidth": 2050.0,
      "PixelRepresentation": 0,
      "PixelSpacing": [1.9672131538391, 1.9672131538391],
      "ProtocolName": "dwi_acq-DTI-30-p2",
      "RepetitionTime": 7700.0,
      "Rows": 122,
      "SAR": 0.10199065806972,
      "SamplesPerPixel": 1,
      "ScanOptions": "FS",
      "ScanningSequence": "EP",
      "SequenceVariant": [
        "SK",
        "SP"
],
      "SeriesDescription": "dwi_acq-DTI-30-p2",
      "SeriesNumber": 12,
      "SeriesTime": "102732.167000",
      "SliceThickness": 2.0,
      "SmallestImagePixelValue": 0,
      "SoftwareVersions": "syngo MR E11",
      "SpacingBetweenSlices": 2.0,
      "SpecificCharacterSet": "ISO_IR 100",
      "StudyID": "2",
      "StudyTime": "095807.428000",
      "TransmitCoilName": "Body",
      "VariableFlipAngleFlag": "N",
      "WindowCenterWidthExplanation": "Algo1",
      "dBdt": 0.0},
    "slices": {
      "AcquisitionTime": ["102723.247500", "102719.407500", "102723.357500", "102719.517500", "102723.467500", "102719.627500", "102723.577500", "102719.737500", "102723.687500", "102719.847500", "102723.797500", "102719.957500", "102723.907500", "102720.067500", "102724.017500", "102720.177500", "102724.125000", "102720.285000", "102724.235000", "102720.395000", "102724.345000", "102720.505000", "102724.455000", "102720.615000", "102724.565000", "102720.725000", "102724.675000", "102720.835000", "102724.785000", "102720.945000", "102724.895000", "102721.055000", "102725.002500", "102721.165000", "102725.112500", "102721.272500", "102725.222500", "102721.382500", "102725.332500", "102721.492500", "102725.442500", "102721.602500", "102725.552500", "102721.712500", "102725.662500", "102721.822500", "102725.772500", "102721.932500", "102725.882500", "102722.042500", "102725.990000", "102722.150000", "102726.100000", "102722.260000", "102726.210000", "102722.370000", "102726.320000", "102722.480000", "102726.430000", "102722.590000", "102726.540000", "102722.700000", "102726.650000", "102722.810000", "102726.760000", "102722.920000", "102726.870000", "102723.030000", "102726.977500", "102723.137500", "102730.947500", "102727.107500", "102731.057500", "102727.217500", "102731.167500", "102727.327500", "102731.277500", "102727.437500", "102731.387500", "102727.547500", "102731.497500", "102727.657500", "102731.607500", "102727.767500", "102731.717500", "102727.877500", "102731.825000", "102727.985000", "102731.935000", "102728.095000", "102732.045000", "102728.205000", "102732.155000", "102728.315000", "102732.265000", "102728.425000", "102732.375000", "102728.535000", "102732.485000", "102728.645000", "102732.595000", "102728.755000", "102732.702500", "102728.865000", "102732.812500", "102728.972500", "102732.922500", "102729.082500", "102733.032500", "102729.192500", "102733.142500", "102729.302500", "102733.252500", "102729.412500", "102733.362500", "102729.522500", "102733.472500", "102729.632500", "102733.582500", "102729.742500", "102733.690000", "102729.850000", "102733.800000", "102729.960000", "102733.910000", "102730.070000", "102734.020000", "102730.180000", "102734.130000", "102730.290000", "102734.240000", "102730.400000", "102734.350000", "102730.510000", "102734.460000", "102730.620000", "102734.570000", "102730.730000", "102734.677500", "102730.837500", "102738.647500", "102734.807500", "102738.757500", "102734.917500", "102738.867500", "102735.027500", "102738.977500", "102735.137500", "102739.087500", "102735.247500", "102739.197500", "102735.357500", "102739.307500", "102735.467500", "102739.417500", "102735.577500", "102739.525000", "102735.685000", "102739.635000", "102735.795000", "102739.745000", "102735.905000", "102739.855000", "102736.015000", "102739.965000", "102736.125000", "102740.075000", "102736.235000", "102740.185000", "102736.345000", "102740.295000", "102736.455000", "102740.402500", "102736.565000", "102740.512500", "102736.672500", "102740.622500", "102736.782500", "102740.732500", "102736.892500", "102740.842500", "102737.002500", "102740.952500", "102737.112500", "102741.062500", "102737.222500", "102741.172500", "102737.332500", "102741.282500", "102737.442500", "102741.390000", "102737.550000", "102741.500000", "102737.660000", "102741.610000", "102737.770000", "102741.720000", "102737.880000", "102741.830000", "102737.990000", "102741.940000", "102738.100000", "102742.050000", "102738.210000", "102742.160000", "102738.320000", "102742.270000", "102738.430000", "102742.377500", "102738.537500", "102746.347500", "102742.507500", "102746.457500", "102742.617500", "102746.567500", "102742.727500", "102746.677500", "102742.837500", "102746.787500", "102742.947500", "102746.897500", "102743.057500", "102747.007500", "102743.167500", "102747.117500", "102743.277500", "102747.225000", "102743.385000", "102747.335000", "102743.495000", "102747.445000", "102743.605000", "102747.555000", "102743.715000", "102747.665000", "102743.825000", "102747.775000", "102743.935000", "102747.885000", "102744.045000", "102747.995000", "102744.155000", "102748.102500", "102744.265000", "102748.212500", "102744.372500", "102748.322500", "102744.482500", "102748.432500", "102744.592500", "102748.542500", "102744.702500", "102748.652500", "102744.812500", "102748.762500", "102744.922500", "102748.872500", "102745.032500", "102748.982500", "102745.142500", "102749.090000", "102745.250000", "102749.200000", "102745.360000", "102749.310000", "102745.470000", "102749.420000", "102745.580000", "102749.530000", "102745.690000", "102749.640000", "102745.800000", "102749.750000", "102745.910000", "102749.860000", "102746.020000", "102749.970000", "102746.130000", "102750.077500", "102746.237500", "102754.047500", "102750.207500", "102754.157500", "102750.317500", "102754.267500", "102750.427500", "102754.377500", "102750.537500", "102754.487500", "102750.647500", "102754.597500", "102750.757500", "102754.707500", "102750.867500", "102754.817500", "102750.977500", "102754.925000", "102751.085000", "102755.035000", "102751.195000", "102755.145000", "102751.305000", "102755.255000", "102751.415000", "102755.365000", "102751.525000", "102755.475000", "102751.635000", "102755.585000", "102751.745000", "102755.695000", "102751.855000", "102755.802500", "102751.965000", "102755.912500", "102752.072500", "102756.022500", "102752.182500", "102756.132500", "102752.292500", "102756.242500", "102752.402500", "102756.352500", "102752.512500", "102756.462500", "102752.622500", "102756.572500", "102752.732500", "102756.682500", "102752.842500", "102756.790000", "102752.950000", "102756.900000", "102753.060000", "102757.010000", "102753.170000", "102757.120000", "102753.280000", "102757.230000", "102753.390000", "102757.340000", "102753.500000", "102757.450000", "102753.610000", "102757.560000", "102753.720000", "102757.670000", "102753.830000", "102757.777500", "102753.937500", "102801.747500", "102757.907500", "102801.857500", "102758.017500", "102801.967500", "102758.127500", "102802.077500", "102758.237500", "102802.187500", "102758.347500", "102802.297500", "102758.457500", "102802.407500", "102758.567500", "102802.517500", "102758.677500", "102802.625000", "102758.785000", "102802.735000", "102758.895000", "102802.845000", "102759.005000", "102802.955000", "102759.115000", "102803.065000", "102759.225000", "102803.175000", "102759.335000", "102803.285000", "102759.445000", "102803.395000", "102759.555000", "102803.502500", "102759.665000", "102803.612500", "102759.772500", "102803.722500", "102759.882500", "102803.832500", "102759.992500", "102803.942500", "102800.102500", "102804.052500", "102800.212500", "102804.162500", "102800.322500", "102804.272500", "102800.432500", "102804.382500", "102800.542500", "102804.490000", "102800.650000", "102804.600000", "102800.760000", "102804.710000", "102800.870000", "102804.820000", "102800.980000", "102804.930000", "102801.090000", "102805.040000", "102801.200000", "102805.150000", "102801.310000", "102805.260000", "102801.420000", "102805.370000", "102801.530000", "102805.477500", "102801.637500", "102809.447500", "102805.607500", "102809.557500", "102805.717500", "102809.667500", "102805.827500", "102809.777500", "102805.937500", "102809.887500", "102806.047500", "102809.997500", "102806.157500", "102810.107500", "102806.267500", "102810.217500", "102806.377500", "102810.325000", "102806.485000", "102810.435000", "102806.595000", "102810.545000", "102806.705000", "102810.655000", "102806.815000", "102810.765000", "102806.925000", "102810.875000", "102807.035000", "102810.985000", "102807.145000", "102811.095000", "102807.255000", "102811.202500", "102807.365000", "102811.312500", "102807.472500", "102811.422500", "102807.582500", "102811.532500", "102807.692500", "102811.642500", "102807.802500", "102811.752500", "102807.912500", "102811.862500", "102808.022500", "102811.972500", "102808.132500", "102812.082500", "102808.242500", "102812.190000", "102808.350000", "102812.300000", "102808.460000", "102812.410000", "102808.570000", "102812.520000", "102808.680000", "102812.630000", "102808.790000", "102812.740000", "102808.900000", "102812.850000", "102809.010000", "102812.960000", "102809.120000", "102813.070000", "102809.230000", "102813.177500", "102809.337500", "102817.147500", "102813.307500", "102817.257500", "102813.417500", "102817.367500", "102813.527500", "102817.477500", "102813.637500", "102817.587500", "102813.747500", "102817.697500", "102813.857500", "102817.807500", "102813.967500", "102817.917500", "102814.077500", "102818.025000", "102814.185000", "102818.135000", "102814.295000", "102818.245000", "102814.405000", "102818.355000", "102814.515000", "102818.465000", "102814.625000", "102818.575000", "102814.735000", "102818.685000", "102814.845000", "102818.795000", "102814.955000", "102818.902500", "102815.065000", "102819.012500", "102815.172500", "102819.122500", "102815.282500", "102819.232500", "102815.392500", "102819.342500", "102815.502500", "102819.452500", "102815.612500", "102819.562500", "102815.722500", "102819.672500", "102815.832500", "102819.782500", "102815.942500", "102819.890000", "102816.050000", "102820.000000", "102816.160000", "102820.110000", "102816.270000", "102820.220000", "102816.380000", "102820.330000", "102816.490000", "102820.440000", "102816.600000", "102820.550000", "102816.710000", "102820.660000", "102816.820000", "102820.770000", "102816.930000", "102820.877500", "102817.037500", "102824.847500", "102821.007500", "102824.957500", "102821.117500", "102825.067500", "102821.227500", "102825.177500", "102821.337500", "102825.287500", "102821.447500", "102825.397500", "102821.557500", "102825.507500", "102821.667500", "102825.617500", "102821.777500", "102825.725000", "102821.885000", "102825.835000", "102821.995000", "102825.945000", "102822.105000", "102826.055000", "102822.215000", "102826.165000", "102822.325000", "102826.275000", "102822.435000", "102826.385000", "102822.545000", "102826.495000", "102822.655000", "102826.602500", "102822.765000", "102826.712500", "102822.872500", "102826.822500", "102822.982500", "102826.932500", "102823.092500", "102827.042500", "102823.202500", "102827.152500", "102823.312500", "102827.262500", "102823.422500", "102827.372500", "102823.532500", "102827.482500", "102823.642500", "102827.590000", "102823.750000", "102827.700000", "102823.860000", "102827.810000", "102823.970000", "102827.920000", "102824.080000", "102828.030000", "102824.190000", "102828.140000", "102824.300000", "102828.250000", "102824.410000", "102828.360000", "102824.520000", "102828.470000", "102824.630000", "102828.577500", "102824.737500", "102832.547500", "102828.707500", "102832.657500", "102828.817500", "102832.767500", "102828.927500", "102832.877500", "102829.037500", "102832.987500", "102829.147500", "102833.097500", "102829.257500", "102833.207500", "102829.367500", "102833.317500", "102829.477500", "102833.425000", "102829.585000", "102833.535000", "102829.695000", "102833.645000", "102829.805000", "102833.755000", "102829.915000", "102833.865000", "102830.025000", "102833.975000", "102830.135000", "102834.085000", "102830.245000", "102834.195000", "102830.355000", "102834.302500", "102830.465000", "102834.412500", "102830.572500", "102834.522500", "102830.682500", "102834.632500", "102830.792500", "102834.742500", "102830.902500", "102834.852500", "102831.012500", "102834.962500", "102831.122500", "102835.072500", "102831.232500", "102835.182500", "102831.342500", "102835.290000", "102831.450000", "102835.400000", "102831.560000", "102835.510000", "102831.670000", "102835.620000", "102831.780000", "102835.730000", "102831.890000", "102835.840000", "102832.000000", "102835.950000", "102832.110000", "102836.060000", "102832.220000", "102836.170000", "102832.330000", "102836.277500", "102832.437500", "102840.247500", "102836.407500", "102840.357500", "102836.517500", "102840.467500", "102836.627500", "102840.577500", "102836.737500", "102840.687500", "102836.847500", "102840.797500", "102836.957500", "102840.907500", "102837.067500", "102841.017500", "102837.177500", "102841.125000", "102837.285000", "102841.235000", "102837.395000", "102841.345000", "102837.505000", "102841.455000", "102837.615000", "102841.565000", "102837.725000", "102841.675000", "102837.835000", "102841.785000", "102837.945000", "102841.895000", "102838.055000", "102842.002500", "102838.165000", "102842.112500", "102838.272500", "102842.222500", "102838.382500", "102842.332500", "102838.492500", "102842.442500", "102838.602500", "102842.552500", "102838.712500", "102842.662500", "102838.822500", "102842.772500", "102838.932500", "102842.882500", "102839.042500", "102842.990000", "102839.150000", "102843.100000", "102839.260000", "102843.210000", "102839.370000", "102843.320000", "102839.480000", "102843.430000", "102839.590000", "102843.540000", "102839.700000", "102843.650000", "102839.810000", "102843.760000", "102839.920000", "102843.870000", "102840.030000", "102843.977500", "102840.137500", "102847.947500", "102844.107500", "102848.057500", "102844.217500", "102848.167500", "102844.327500", "102848.277500", "102844.437500", "102848.387500", "102844.547500", "102848.497500", "102844.657500", "102848.607500", "102844.767500", "102848.717500", "102844.877500", "102848.825000", "102844.985000", "102848.935000", "102845.095000", "102849.045000", "102845.205000", "102849.155000", "102845.315000", "102849.265000", "102845.425000", "102849.375000", "102845.535000", "102849.485000", "102845.645000", "102849.595000", "102845.755000", "102849.702500", "102845.865000", "102849.812500", "102845.972500", "102849.922500", "102846.082500", "102850.032500", "102846.192500", "102850.142500", "102846.302500", "102850.252500", "102846.412500", "102850.362500", "102846.522500", "102850.472500", "102846.632500", "102850.582500", "102846.742500", "102850.690000", "102846.850000", "102850.800000", "102846.960000", "102850.910000", "102847.070000", "102851.020000", "102847.180000", "102851.130000", "102847.290000", "102851.240000", "102847.400000", "102851.350000", "102847.510000", "102851.460000", "102847.620000", "102851.570000", "102847.730000", "102851.677500", "102847.837500", "102855.647500", "102851.807500", "102855.757500", "102851.917500", "102855.867500", "102852.027500", "102855.977500", "102852.137500", "102856.087500", "102852.247500", "102856.197500", "102852.357500", "102856.307500", "102852.467500", "102856.417500", "102852.577500", "102856.525000", "102852.685000", "102856.635000", "102852.795000", "102856.745000", "102852.905000", "102856.855000", "102853.015000", "102856.965000", "102853.125000", "102857.075000", "102853.235000", "102857.185000", "102853.345000", "102857.295000", "102853.455000", "102857.402500", "102853.565000", "102857.512500", "102853.672500", "102857.622500", "102853.782500", "102857.732500", "102853.892500", "102857.842500", "102854.002500", "102857.952500", "102854.112500", "102858.062500", "102854.222500", "102858.172500", "102854.332500", "102858.282500", "102854.442500", "102858.390000", "102854.550000", "102858.500000", "102854.660000", "102858.610000", "102854.770000", "102858.720000", "102854.880000", "102858.830000", "102854.990000", "102858.940000", "102855.100000", "102859.050000", "102855.210000", "102859.160000", "102855.320000", "102859.270000", "102855.430000", "102859.377500", "102855.537500", "102903.347500", "102859.507500", "102903.457500", "102859.617500", "102903.567500", "102859.727500", "102903.677500", "102859.837500", "102903.787500", "102859.947500", "102903.897500", "102900.057500", "102904.007500", "102900.167500", "102904.117500", "102900.277500", "102904.225000", "102900.385000", "102904.335000", "102900.495000", "102904.445000", "102900.605000", "102904.555000", "102900.715000", "102904.665000", "102900.825000", "102904.775000", "102900.935000", "102904.885000", "102901.045000", "102904.995000", "102901.155000", "102905.102500", "102901.265000", "102905.212500", "102901.372500", "102905.322500", "102901.482500", "102905.432500", "102901.592500", "102905.542500", "102901.702500", "102905.652500", "102901.812500", "102905.762500", "102901.922500", "102905.872500", "102902.032500", "102905.982500", "102902.142500", "102906.090000", "102902.250000", "102906.200000", "102902.360000", "102906.310000", "102902.470000", "102906.420000", "102902.580000", "102906.530000", "102902.690000", "102906.640000", "102902.800000", "102906.750000", "102902.910000", "102906.860000", "102903.020000", "102906.970000", "102903.130000", "102907.077500", "102903.237500", "102911.047500", "102907.207500", "102911.157500", "102907.317500", "102911.267500", "102907.427500", "102911.377500", "102907.537500", "102911.487500", "102907.647500", "102911.597500", "102907.757500", "102911.707500", "102907.867500", "102911.817500", "102907.977500", "102911.925000", "102908.085000", "102912.035000", "102908.195000", "102912.145000", "102908.305000", "102912.255000", "102908.415000", "102912.365000", "102908.525000", "102912.475000", "102908.635000", "102912.585000", "102908.745000", "102912.695000", "102908.855000", "102912.802500", "102908.965000", "102912.912500", "102909.072500", "102913.022500", "102909.182500", "102913.132500", "102909.292500", "102913.242500", "102909.402500", "102913.352500", "102909.512500", "102913.462500", "102909.622500", "102913.572500", "102909.732500", "102913.682500", "102909.842500", "102913.790000", "102909.950000", "102913.900000", "102910.060000", "102914.010000", "102910.170000", "102914.120000", "102910.280000", "102914.230000", "102910.390000", "102914.340000", "102910.500000", "102914.450000", "102910.610000", "102914.560000", "102910.720000", "102914.670000", "102910.830000", "102914.777500", "102910.937500", "102918.747500", "102914.907500", "102918.857500", "102915.017500", "102918.967500", "102915.127500", "102919.077500", "102915.237500", "102919.187500", "102915.347500", "102919.297500", "102915.457500", "102919.407500", "102915.567500", "102919.517500", "102915.677500", "102919.625000", "102915.785000", "102919.735000", "102915.895000", "102919.845000", "102916.005000", "102919.955000", "102916.115000", "102920.065000", "102916.225000", "102920.175000", "102916.335000", "102920.285000", "102916.445000", "102920.395000", "102916.555000", "102920.502500", "102916.665000", "102920.612500", "102916.772500", "102920.722500", "102916.882500", "102920.832500", "102916.992500", "102920.942500", "102917.102500", "102921.052500", "102917.212500", "102921.162500", "102917.322500", "102921.272500", "102917.432500", "102921.382500", "102917.542500", "102921.490000", "102917.650000", "102921.600000", "102917.760000", "102921.710000", "102917.870000", "102921.820000", "102917.980000", "102921.930000", "102918.090000", "102922.040000", "102918.200000", "102922.150000", "102918.310000", "102922.260000", "102918.420000", "102922.370000", "102918.530000", "102922.477500", "102918.637500", "102926.447500", "102922.607500", "102926.557500", "102922.717500", "102926.667500", "102922.827500", "102926.777500", "102922.937500", "102926.887500", "102923.047500", "102926.997500", "102923.157500", "102927.107500", "102923.267500", "102927.217500", "102923.377500", "102927.325000", "102923.485000", "102927.435000", "102923.595000", "102927.545000", "102923.705000", "102927.655000", "102923.815000", "102927.765000", "102923.925000", "102927.875000", "102924.035000", "102927.985000", "102924.145000", "102928.095000", "102924.255000", "102928.202500", "102924.365000", "102928.312500", "102924.472500", "102928.422500", "102924.582500", "102928.532500", "102924.692500", "102928.642500", "102924.802500", "102928.752500", "102924.912500", "102928.862500", "102925.022500", "102928.972500", "102925.132500", "102929.082500", "102925.242500", "102929.190000", "102925.350000", "102929.300000", "102925.460000", "102929.410000", "102925.570000", "102929.520000", "102925.680000", "102929.630000", "102925.790000", "102929.740000", "102925.900000", "102929.850000", "102926.010000", "102929.960000", "102926.120000", "102930.070000", "102926.230000", "102930.177500", "102926.337500", "102934.147500", "102930.307500", "102934.257500", "102930.417500", "102934.367500", "102930.527500", "102934.477500", "102930.637500", "102934.587500", "102930.747500", "102934.697500", "102930.857500", "102934.807500", "102930.967500", "102934.917500", "102931.077500", "102935.025000", "102931.185000", "102935.135000", "102931.295000", "102935.245000", "102931.405000", "102935.355000", "102931.515000", "102935.465000", "102931.625000", "102935.575000", "102931.735000", "102935.685000", "102931.845000", "102935.795000", "102931.955000", "102935.902500", "102932.065000", "102936.012500", "102932.172500", "102936.122500", "102932.282500", "102936.232500", "102932.392500", "102936.342500", "102932.502500", "102936.452500", "102932.612500", "102936.562500", "102932.722500", "102936.672500", "102932.832500", "102936.782500", "102932.942500", "102936.890000", "102933.050000", "102937.000000", "102933.160000", "102937.110000", "102933.270000", "102937.220000", "102933.380000", "102937.330000", "102933.490000", "102937.440000", "102933.600000", "102937.550000", "102933.710000", "102937.660000", "102933.820000", "102937.770000", "102933.930000", "102937.877500", "102934.037500", "102941.847500", "102938.007500", "102941.957500", "102938.117500", "102942.067500", "102938.227500", "102942.177500", "102938.337500", "102942.287500", "102938.447500", "102942.397500", "102938.557500", "102942.507500", "102938.667500", "102942.617500", "102938.777500", "102942.725000", "102938.885000", "102942.835000", "102938.995000", "102942.945000", "102939.105000", "102943.055000", "102939.215000", "102943.165000", "102939.325000", "102943.275000", "102939.435000", "102943.385000", "102939.545000", "102943.495000", "102939.655000", "102943.602500", "102939.765000", "102943.712500", "102939.872500", "102943.822500", "102939.982500", "102943.932500", "102940.092500", "102944.042500", "102940.202500", "102944.152500", "102940.312500", "102944.262500", "102940.422500", "102944.372500", "102940.532500", "102944.482500", "102940.642500", "102944.590000", "102940.750000", "102944.700000", "102940.860000", "102944.810000", "102940.970000", "102944.920000", "102941.080000", "102945.030000", "102941.190000", "102945.140000", "102941.300000", "102945.250000", "102941.410000", "102945.360000", "102941.520000", "102945.470000", "102941.630000", "102945.577500", "102941.737500", "102949.547500", "102945.707500", "102949.657500", "102945.817500", "102949.767500", "102945.927500", "102949.877500", "102946.037500", "102949.987500", "102946.147500", "102950.097500", "102946.257500", "102950.207500", "102946.367500", "102950.317500", "102946.477500", "102950.425000", "102946.585000", "102950.535000", "102946.695000", "102950.645000", "102946.805000", "102950.755000", "102946.915000", "102950.865000", "102947.025000", "102950.975000", "102947.135000", "102951.085000", "102947.245000", "102951.195000", "102947.355000", "102951.302500", "102947.465000", "102951.412500", "102947.572500", "102951.522500", "102947.682500", "102951.632500", "102947.792500", "102951.742500", "102947.902500", "102951.852500", "102948.012500", "102951.962500", "102948.122500", "102952.072500", "102948.232500", "102952.182500", "102948.342500", "102952.290000", "102948.450000", "102952.400000", "102948.560000", "102952.510000", "102948.670000", "102952.620000", "102948.780000", "102952.730000", "102948.890000", "102952.840000", "102949.000000", "102952.950000", "102949.110000", "102953.060000", "102949.220000", "102953.170000", "102949.330000", "102953.277500", "102949.437500", "102957.247500", "102953.407500", "102957.357500", "102953.517500", "102957.467500", "102953.627500", "102957.577500", "102953.737500", "102957.687500", "102953.847500", "102957.797500", "102953.957500", "102957.907500", "102954.067500", "102958.017500", "102954.177500", "102958.125000", "102954.285000", "102958.235000", "102954.395000", "102958.345000", "102954.505000", "102958.455000", "102954.615000", "102958.565000", "102954.725000", "102958.675000", "102954.835000", "102958.785000", "102954.945000", "102958.895000", "102955.055000", "102959.002500", "102955.165000", "102959.112500",