{
  "AcquisitionMatrixPE": 122,
  "AcquisitionNumber": 1,
  "AcquisitionTime": "09:54:38.460000",
  "BandwidthPerPixelPhaseEncode": 27.785,
  "BaseResolution": 122,
  "BodyPartExamined": "BRAIN",
  "CoilCombinationMethod": "Adaptive Combine",
  "ConsistencyInfo": "N4_VE11C_LATEST_20160120",
  "ConversionSoftware": "dcm2niix",
  "ConversionSoftwareVersion": "v1.0.20220720",
  "DerivedVendorReportedEchoSpacing": 0.000590011,
  "DeviceSerialNumber": "66112",
  "DiffusionScheme": "Monopolar",
  "DwellTime": 2e-06,
  "EchoTime": 0.068,
  "EchoTrainLength": 61,
  "EffectiveEchoSpacing": 0.000295005,
  "FlipAngle": 90,
  "HeudiconvVersion": "0.13.1",
  "ImageOrientationPatientDICOM": [0.991369, -0.127409, -0.0308878, 0.126997, 0.874841, 0.467466],
  "ImageOrientationText": "Tra>Cor(27.9)>Sag(1.9)",
  "ImageType": [
    "ORIGINAL",
    "PRIMARY",
    "DIFFUSION",
    "NONE",
    "ND",
    "NORM"
],
  "ImagingFrequency": 123.253,
  "InPlanePhaseEncodingDirectionDICOM": "COL",
  "InstitutionAddress": "Maynard 3,Hanover,NH,US,03755",
  "InstitutionName": "Dartmouth College - PBS",
  "InstitutionalDepartmentName": "Department",
  "MRAcquisitionType": "2D",
  "MagneticFieldStrength": 3,
  "Manufacturer": "Siemens",
  "ManufacturersModelName": "Prisma",
  "Modality": "MR",
  "MultibandAccelerationFactor": 4,
  "NonlinearGradientCorrection": false,
  "ParallelReductionFactorInPlane": 2,
  "PartialFourier": 1,
  "PatientPosition": "HFS",
  "PercentPhaseFOV": 100,
  "PercentSampling": 100,
  "PhaseEncodingDirection": "j-",
  "PhaseEncodingSteps": 122,
  "PhaseResolution": 1,
  "PixelBandwidth": 2050,
  "ProcedureStepDescription": "dbic^QA",
  "ProtocolName": "dwi_acq-DTI-30-p2-s4",
  "PulseSequenceDetails": "%SiemensSeq%\\ep2d_diff",
  "ReceiveCoilActiveElements": "HEA;HEP",
  "ReceiveCoilName": "Head_32",
  "ReconMatrixPE": 122,
  "RefLinesPE": 38,
  "RepetitionTime": 3.6,
  "SAR": 0.161605,
  "ScanOptions": "FS",
  "ScanningSequence": "EP",
  "SequenceName": "*ep_b0",
  "SequenceVariant": "SK\\SP",
  "SeriesDescription": "dwi_acq-DTI-30-p2-s4",
  "SeriesNumber": 9,
  "ShimSetting": [4152, -7702, -7513, 261, -62, -154, 9, 78],
  "SliceThickness": 2,
  "SliceTiming": [2.58594, 0, 1.78906, 0.19531, 1.98438, 0.39844, 2.1875, 0.59375, 2.38281, 0.99219, 2.78125, 1.19531, 2.98438, 1.39062, 3.17969, 1.59375, 3.38281, 0.79688, 2.58594, 0, 1.78906, 0.19531, 1.98438, 0.39844, 2.1875, 0.59375, 2.38281, 0.99219, 2.78125, 1.19531, 2.98438, 1.39062, 3.17969, 1.59375, 3.38281, 0.79688, 2.58594, 0, 1.78906, 0.19531, 1.98438, 0.39844, 2.1875, 0.59375, 2.38281, 0.99219, 2.78125, 1.19531, 2.98438, 1.39062, 3.17969, 1.59375, 3.38281, 0.79688, 2.58594, 0, 1.78906, 0.19531, 1.98438, 0.39844, 2.1875, 0.59375, 2.38281, 0.99219, 2.78125, 1.19531, 2.98438, 1.39062, 3.17969, 1.59375, 3.38281, 0.79688],
  "SoftwareVersions": "syngo MR E11",
  "SpacingBetweenSlices": 2,
  "SpoilingState": true,
  "StationName": "AWP66112",
  "TotalReadoutTime": 0.0356956,
  "TxRefAmp": 234.317,
  "dcmmeta_affine": [
    [-1.9502346515655518, 0.24983090162277222, 0.06507444381713867, 98.23102569580078],
    [0.2506398558616638, 1.7209995985031128, 0.9347038269042969, -141.333984375],
    [-0.06076284870505333, -0.9196045994758606, 1.7669448852539062, 12.906942367553711],
    [0.0, 0.0, 0.0, 1.0]
],
  "dcmmeta_reorient_transform": [
    [0.0, -1.0, 0.0, 121.0],
    [1.0, 0.0, 0.0, 0.0],
    [0.0, 0.0, -1.0, 71.0],
    [0.0, 0.0, 0.0, 1.0]
],
  "dcmmeta_shape": [122, 122, 72, 31],
  "dcmmeta_slice_dim": 2,
  "dcmmeta_version": 0.6,
  "global": {
    "const": {
      "AccessionNumber": "qa",
      "AcquisitionMatrix": [122, 0, 0, 122],
      "AngioFlag": "N",
      "BitsAllocated": 16,
      "BitsStored": 12,
      "BodyPartExamined": "BRAIN",
      "Columns": 122,
      "EchoNumbers": 1,
      "EchoTime": 68.0,
      "EchoTrainLength": 61,
      "FlipAngle": 90.0,
      "HighBit": 11,
      "ImageOrientationPatient": [0.99136925309425, -0.1274085908113, -0.0308877808658, 0.12699737228321, 0.87484142385971, 0.46746566775784],
      "ImageType": [
        "ORIGINAL",
        "PRIMARY",
        "DIFFUSION",
        "NONE",
        "ND",
        "NORM"
],
      "ImagedNucleus": "1H",
      "ImagingFrequency": 123.252519,
      "InPlanePhaseEncodingDirection": "COL",
      "MRAcquisitionType": "2D",
      "MagneticFieldStrength": 3.0,
      "Manufacturer": "SIEMENS",
      "ManufacturerModelName": "Prisma",
      "Modality": "MR",
      "NumberOfAverages": 1.0,
      "NumberOfPhaseEncodingSteps": 122,
      "PercentPhaseFieldOfView": 100.0,
      "PercentSampling": 100.0,
      "PerformedProcedureStepStartTime": "093423.698000",
      "PhotometricInterpretation": "MONOCHROME2",
      "PixelBandwidth": 2050.0,
      "PixelRepresentation": 0,
      "PixelSpacing": [1.9672131538391, 1.9672131538391],
      "ProtocolName": "dwi_acq-DTI-30-p2-s4",
      "RepetitionTime": 3600.0,
      "Rows": 122,
      "SAR": 0.16160520646239,
      "SamplesPerPixel": 1,
      "ScanOptions": "FS",
      "ScanningSequence": "EP",
      "SequenceVariant": [
        "SK",
        "SP"
],
      "SeriesDescription": "dwi_acq-DTI-30-p2-s4",
      "SeriesNumber": 9,
      "SeriesTime": "095447.436000",
      "SliceThickness": 2.0,
      "SmallestImagePixelValue": 0,
      "SoftwareVersions": "syngo MR E11",
      "SpacingBetweenSlices": 2.0,
      "SpecificCharacterSet": "ISO_IR 100",
      "StudyID": "62",
      "StudyTime": "093423.531000",
      "TransmitCoilName": "Body",
      "VariableFlipAngleFlag": "N",
      "WindowCenterWidthExplanation": "Algo1",
      "dBdt": 0.0},
    "slices": {
      "AcquisitionTime": ["095438.460000", "095435.875000", "095437.665000", "095436.072500", "095437.862500", "095436.272500", "095438.062500", "095436.470000", "095438.260000", "095436.870000", "095438.660000", "095437.067500", "095438.857500", "095437.267500", "095439.057500", "095437.465000", "095439.255000", "095436.670000", "095438.460000", "095435.875000", "095437.665000", "095436.072500", "095437.862500", "095436.272500", "095438.062500", "095436.470000", "095438.260000", "095436.870000", "095438.660000", "095437.067500", "095438.857500", "095437.267500", "095439.057500", "095437.465000", "095439.255000", "095436.670000", "095438.460000", "095435.875000", "095437.665000", "095436.072500", "095437.862500", "095436.272500", "095438.062500", "095436.470000", "095438.260000", "095436.870000", "095438.660000", "095437.067500", "095438.857500", "095437.267500", "095439.057500", "095437.465000", "095439.255000", "095436.670000", "095438.460000", "095435.875000", "095437.665000", "095436.072500", "095437.862500", "095436.272500", "095438.062500", "095436.470000", "095438.260000", "095436.870000", "095438.660000", "095437.067500", "095438.857500", "095437.267500", "095439.057500", "095437.465000", "095439.255000", "095436.670000", "095442.060000", "095439.475000", "095441.265000", "095439.672500", "095441.462500", "095439.872500", "095441.662500", "095440.070000", "095441.860000", "095440.470000", "095442.260000", "095440.667500", "095442.457500", "095440.867500", "095442.657500", "095441.065000", "095442.855000", "095440.270000", "095442.060000", "095439.475000", "095441.265000", "095439.672500", "095441.462500", "095439.872500", "095441.662500", "095440.070000", "095441.860000", "095440.470000", "095442.260000", "095440.667500", "095442.457500", "095440.867500", "095442.657500", "095441.065000", "095442.855000", "095440.270000", "095442.060000", "095439.475000", "095441.265000", "095439.672500", "095441.462500", "095439.872500", "095441.662500", "095440.070000", "095441.860000", "095440.470000", "095442.260000", "095440.667500", "095442.457500", "095440.867500", "095442.657500", "095441.065000", "095442.855000", "095440.270000", "095442.060000", "095439.475000", "095441.265000", "095439.672500", "095441.462500", "095439.872500", "095441.662500", "095440.070000", "095441.860000", "095440.470000", "095442.260000", "095440.667500", "095442.457500", "095440.867500", "095442.657500", "095441.065000", "095442.855000", "095440.270000", "095445.660000", "095443.075000", "095444.865000", "095443.272500", "095445.062500", "095443.472500", "095445.262500", "095443.670000", "095445.460000", "095444.070000", "095445.860000", "095444.267500", "095446.057500", "095444.467500", "095446.257500", "095444.665000", "095446.455000", "095443.870000", "095445.660000", "095443.075000", "095444.865000", "095443.272500", "095445.062500", "095443.472500", "095445.262500", "095443.670000", "095445.460000", "095444.070000", "095445.860000", "095444.267500", "095446.057500", "095444.467500", "095446.257500", "095444.665000", "095446.455000", "095443.870000", "095445.660000", "095443.075000", "095444.865000", "095443.272500", "095445.062500", "095443.472500", "095445.262500", "095443.670000", "095445.460000", "095444.070000", "095445.860000", "095444.267500", "095446.057500", "095444.467500", "095446.257500", "095444.665000", "095446.455000", "095443.870000", "095445.660000", "095443.075000", "095444.865000", "095443.272500", "095445.062500", "095443.472500", "095445.262500", "095443.670000", "095445.460000", "095444.070000", "095445.860000", "095444.267500", "095446.057500", "095444.467500", "095446.257500", "095444.665000", "095446.455000", "095443.870000", "095449.260000", "095446.675000", "095448.465000", "095446.872500", "095448.662500", "095447.072500", "095448.862500", "095447.270000", "095449.060000", "095447.670000", "095449.460000", "095447.867500", "095449.657500", "095448.067500", "095449.857500", "095448.265000", "095450.055000", "095447.470000", "095449.260000", "095446.675000", "095448.465000", "095446.872500", "095448.662500", "095447.072500", "095448.862500", "095447.270000", "095449.060000", "095447.670000", "095449.460000", "095447.867500", "095449.657500", "095448.067500", "095449.857500", "095448.265000", "095450.055000", "095447.470000", "095449.260000", "095446.675000", "095448.465000", "095446.872500", "095448.662500", "095447.072500", "095448.862500", "095447.270000", "095449.060000", "095447.670000", "095449.460000", "095447.867500", "095449.657500", "095448.067500", "095449.857500", "095448.265000", "095450.055000", "095447.470000", "095449.260000", "095446.675000", "095448.465000", "095446.872500", "095448.662500", "095447.072500", "095448.862500", "095447.270000", "095449.060000", "095447.670000", "095449.460000", "095447.867500", "095449.657500", "095448.067500", "095449.857500", "095448.265000", "095450.055000", "095447.470000", "095452.860000", "095450.275000", "095452.065000", "095450.472500", "095452.262500", "095450.672500", "095452.462500", "095450.870000", "095452.660000", "095451.270000", "095453.060000", "095451.467500", "095453.257500", "095451.667500", "095453.457500", "095451.865000", "095453.655000", "095451.070000", "095452.860000", "095450.275000", "095452.065000", "095450.472500", "095452.262500", "095450.672500", "095452.462500", "095450.870000", "095452.660000", "095451.270000", "095453.060000", "095451.467500", "095453.257500", "095451.667500", "095453.457500", "095451.865000", "095453.655000", "095451.070000", "095452.860000", "095450.275000", "095452.065000", "095450.472500", "095452.262500", "095450.672500", "095452.462500", "095450.870000", "095452.660000", "095451.270000", "095453.060000", "095451.467500", "095453.257500", "095451.667500", "095453.457500", "095451.865000", "095453.655000", "095451.070000", "095452.860000", "095450.275000", "095452.065000", "095450.472500", "095452.262500", "095450.672500", "095452.462500", "095450.870000", "095452.660000", "095451.270000", "095453.060000", "095451.467500", "095453.257500", "095451.667500", "095453.457500", "095451.865000", "095453.655000", "095451.070000", "095456.460000", "095453.875000", "095455.665000", "095454.072500", "095455.862500", "095454.272500", "095456.062500", "095454.470000", "095456.260000", "095454.870000", "095456.660000", "095455.067500", "095456.857500", "095455.267500", "095457.057500", "095455.465000", "095457.255000", "095454.670000", "095456.460000", "095453.875000", "095455.665000", "095454.072500", "095455.862500", "095454.272500", "095456.062500", "095454.470000", "095456.260000", "095454.870000", "095456.660000", "095455.067500", "095456.857500", "095455.267500", "095457.057500", "095455.465000", "095457.255000", "095454.670000", "095456.460000", "095453.875000", "095455.665000", "095454.072500", "095455.862500", "095454.272500", "095456.062500", "095454.470000", "095456.260000", "095454.870000", "095456.660000", "095455.067500", "095456.857500", "095455.267500", "095457.057500", "095455.465000", "095457.255000", "095454.670000", "095456.460000", "095453.875000", "095455.665000", "095454.072500", "095455.862500", "095454.272500", "095456.062500", "095454.470000", "095456.260000", "095454.870000", "095456.660000", "095455.067500", "095456.857500", "095455.267500", "095457.057500", "095455.465000", "095457.255000", "095454.670000", "095500.060000", "095457.475000", "095459.265000", "095457.672500", "095459.462500", "095457.872500", "095459.662500", "095458.070000", "095459.860000", "095458.470000", "095500.260000", "095458.667500", "095500.457500", "095458.867500", "095500.657500", "095459.065000", "095500.855000", "095458.270000", "095500.060000", "095457.475000", "095459.265000", "095457.672500", "095459.462500", "095457.872500", "095459.662500", "095458.070000", "095459.860000", "095458.470000", "095500.260000", "095458.667500", "095500.457500", "095458.867500", "095500.657500", "095459.065000", "095500.855000", "095458.270000", "095500.060000", "095457.475000", "095459.265000", "095457.672500", "095459.462500", "095457.872500", "095459.662500", "095458.070000", "095459.860000", "095458.470000", "095500.260000", "095458.667500", "095500.457500", "095458.867500", "095500.657500", "095459.065000", "095500.855000", "095458.270000", "095500.060000", "095457.475000", "095459.265000", "095457.672500", "095459.462500", "095457.872500", "095459.662500", "095458.070000", "095459.860000", "095458.470000", "095500.260000", "095458.667500", "095500.457500", "095458.867500", "095500.657500", "095459.065000", "095500.855000", "095458.270000", "095503.660000", "095501.075000", "095502.865000", "095501.272500", "095503.062500", "095501.472500", "095503.262500", "095501.670000", "095503.460000", "095502.070000", "095503.860000", "095502.267500", "095504.057500", "095502.467500", "095504.257500", "095502.665000", "095504.455000", "095501.870000", "095503.660000", "095501.075000", "095502.865000", "095501.272500", "095503.062500", "095501.472500", "095503.262500", "095501.670000", "095503.460000", "095502.070000", "095503.860000", "095502.267500", "095504.057500", "095502.467500", "095504.257500", "095502.665000", "095504.455000", "095501.870000", "095503.660000", "095501.075000", "095502.865000", "095501.272500", "095503.062500", "095501.472500", "095503.262500", "095501.670000", "095503.460000", "095502.070000", "095503.860000", "095502.267500", "095504.057500", "095502.467500", "095504.257500", "095502.665000", "095504.455000", "095501.870000", "095503.660000", "095501.075000", "095502.865000", "095501.272500", "095503.062500", "095501.472500", "095503.262500", "095501.670000", "095503.460000", "095502.070000", "095503.860000", "095502.267500", "095504.057500", "095502.467500", "095504.257500", "095502.665000", "095504.455000", "095501.870000", "095507.260000", "095504.675000", "095506.465000", "095504.872500", "095506.662500", "095505.072500", "095506.862500", "095505.270000", "095507.060000", "095505.670000", "095507.460000", "095505.867500", "095507.657500", "095506.067500", "095507.857500", "095506.265000", "095508.055000", "095505.470000", "095507.260000", "095504.675000", "095506.465000", "095504.872500", "095506.662500", "095505.072500", "095506.862500", "095505.270000", "095507.060000", "095505.670000", "095507.460000", "095505.867500", "095507.657500", "095506.067500", "095507.857500", "095506.265000", "095508.055000", "095505.470000", "095507.260000", "095504.675000", "095506.465000", "095504.872500", "095506.662500", "095505.072500", "095506.862500", "095505.270000", "095507.060000", "095505.670000", "095507.460000", "095505.867500", "095507.657500", "095506.067500", "095507.857500", "095506.265000", "095508.055000", "095505.470000", "095507.260000", "095504.675000", "095506.465000", "095504.872500", "095506.662500", "095505.072500", "095506.862500", "095505.270000", "095507.060000", "095505.670000", "095507.460000", "095505.867500", "095507.657500", "095506.067500", "095507.857500", "095506.265000", "095508.055000", "095505.470000", "095510.860000", "095508.275000", "095510.065000", "095508.472500", "095510.262500", "095508.672500", "095510.462500", "095508.870000", "095510.660000", "095509.270000", "095511.060000", "095509.467500", "095511.257500", "095509.667500", "095511.457500", "095509.865000", "095511.655000", "095509.070000", "095510.860000", "095508.275000", "095510.065000", "095508.472500", "095510.262500", "095508.672500", "095510.462500", "095508.870000", "095510.660000", "095509.270000", "095511.060000", "095509.467500", "095511.257500", "095509.667500", "095511.457500", "095509.865000", "095511.655000", "095509.070000", "095510.860000", "095508.275000", "095510.065000", "095508.472500", "095510.262500", "095508.672500", "095510.462500", "095508.870000", "095510.660000", "095509.270000", "095511.060000", "095509.467500", "095511.257500", "095509.667500", "095511.457500", "095509.865000", "095511.655000", "095509.070000", "095510.860000", "095508.275000", "095510.065000", "095508.472500", "095510.262500", "095508.672500", "095510.462500", "095508.870000", "095510.660000", "095509.270000", "095511.060000", "095509.467500", "095511.257500", "095509.667500", "095511.457500", "095509.865000", "095511.655000", "095509.070000", "095514.460000", "095511.875000", "095513.665000", "095512.072500", "095513.862500", "095512.272500", "095514.062500", "095512.470000", "095514.260000", "095512.870000", "095514.660000", "095513.067500", "095514.857500", "095513.267500", "095515.057500", "095513.465000", "095515.255000", "095512.670000", "095514.460000", "095511.875000", "095513.665000", "095512.072500", "095513.862500", "095512.272500", "095514.062500", "095512.470000", "095514.260000", "095512.870000", "095514.660000", "095513.067500", "095514.857500", "095513.267500", "095515.057500", "095513.465000", "095515.255000", "095512.670000", "095514.460000", "095511.875000", "095513.665000", "095512.072500", "095513.862500", "095512.272500", "095514.062500", "095512.470000", "095514.260000", "095512.870000", "095514.660000", "095513.067500", "095514.857500", "095513.267500", "095515.057500", "095513.465000", "095515.255000", "095512.670000", "095514.460000", "095511.875000", "095513.665000", "095512.072500", "095513.862500", "095512.272500", "095514.062500", "095512.470000", "095514.260000", "095512.870000", "095514.660000", "095513.067500", "095514.857500", "095513.267500", "095515.057500", "095513.465000", "095515.255000", "095512.670000", "095518.060000", "095515.475000", "095517.265000", "095515.672500", "095517.462500", "095515.872500", "095517.662500", "095516.070000", "095517.860000", "095516.470000", "095518.260000", "095516.667500", "095518.457500", "095516.867500", "095518.657500", "095517.065000", "095518.855000", "095516.270000", "095518.060000", "095515.475000", "095517.265000", "095515.672500", "095517.462500", "095515.872500", "095517.662500", "095516.070000", "095517.860000", "095516.470000", "095518.260000", "095516.667500", "095518.457500", "095516.867500", "095518.657500", "095517.065000", "095518.855000", "095516.270000", "095518.060000", "095515.475000", "095517.265000", "095515.672500", "095517.462500", "095515.872500", "095517.662500", "095516.070000", "095517.860000", "095516.470000", "095518.260000", "095516.667500", "095518.457500", "095516.867500", "095518.657500", "095517.065000", "095518.855000", "095516.270000", "095518.060000", "095515.475000", "095517.265000", "095515.672500", "095517.462500", "095515.872500", "095517.662500", "095516.070000", "095517.860000", "095516.470000", "095518.260000", "095516.667500", "095518.457500", "095516.867500", "095518.657500", "095517.065000", "095518.855000", "095516.270000", "095521.660000", "095519.075000", "095520.865000", "095519.272500", "095521.062500", "095519.472500", "095521.262500", "095519.670000", "095521.460000", "095520.070000", "095521.860000", "095520.267500", "095522.057500", "095520.467500", "095522.257500", "095520.665000", "095522.455000", "095519.870000", "095521.660000", "095519.075000", "095520.865000", "095519.272500", "095521.062500", "095519.472500", "095521.262500", "095519.670000", "095521.460000", "095520.070000", "095521.860000", "095520.267500", "095522.057500", "095520.467500", "095522.257500", "095520.665000", "095522.455000", "095519.870000", "095521.660000", "095519.075000", "095520.865000", "095519.272500", "095521.062500", "095519.472500", "095521.262500", "095519.670000", "095521.460000", "095520.070000", "095521.860000", "095520.267500", "095522.057500", "095520.467500", "095522.257500", "095520.665000", "095522.455000", "095519.870000", "095521.660000", "095519.075000", "095520.865000", "095519.272500", "095521.062500", "095519.472500", "095521.262500", "095519.670000", "095521.460000", "095520.070000", "095521.860000", "095520.267500", "095522.057500", "095520.467500", "095522.257500", "095520.665000", "095522.455000", "095519.870000", "095525.260000", "095522.675000", "095524.465000", "095522.872500", "095524.662500", "095523.072500", "095524.862500", "095523.270000", "095525.060000", "095523.670000", "095525.460000", "095523.867500", "095525.657500", "095524.067500", "095525.857500", "095524.265000", "095526.055000", "095523.470000", "095525.260000", "095522.675000", "095524.465000", "095522.872500", "095524.662500", "095523.072500", "095524.862500", "095523.270000", "095525.060000", "095523.670000", "095525.460000", "095523.867500", "095525.657500", "095524.067500", "095525.857500", "095524.265000", "095526.055000", "095523.470000", "095525.260000", "095522.675000", "095524.465000", "095522.872500", "095524.662500", "095523.072500", "095524.862500", "095523.270000", "095525.060000", "095523.670000", "095525.460000", "095523.867500", "095525.657500", "095524.067500", "095525.857500", "095524.265000", "095526.055000", "095523.470000", "095525.260000", "095522.675000", "095524.465000", "095522.872500", "095524.662500", "095523.072500", "095524.862500", "095523.270000", "095525.060000", "095523.670000", "095525.460000", "095523.867500", "095525.657500", "095524.067500", "095525.857500", "095524.265000", "095526.055000", "095523.470000", "095528.860000", "095526.275000", "095528.065000", "095526.472500", "095528.262500", "095526.672500", "095528.462500", "095526.870000", "095528.660000", "095527.270000", "095529.060000", "095527.467500", "095529.257500", "095527.667500", "095529.457500", "095527.865000", "095529.655000", "095527.070000", "095528.860000", "095526.275000", "095528.065000", "095526.472500", "095528.262500", "095526.672500", "095528.462500", "095526.870000", "095528.660000", "095527.270000", "095529.060000", "095527.467500", "095529.257500", "095527.667500", "095529.457500", "095527.865000", "095529.655000", "095527.070000", "095528.860000", "095526.275000", "095528.065000", "095526.472500", "095528.262500", "095526.672500", "095528.462500", "095526.870000", "095528.660000", "095527.270000", "095529.060000", "095527.467500", "095529.257500", "095527.667500", "095529.457500", "095527.865000", "095529.655000", "095527.070000", "095528.860000", "095526.275000", "095528.065000", "095526.472500", "095528.262500", "095526.672500", "095528.462500", "095526.870000", "095528.660000", "095527.270000", "095529.060000", "095527.467500", "095529.257500", "095527.667500", "095529.457500", "095527.865000", "095529.655000", "095527.070000", "095532.460000", "095529.875000", "095531.665000", "095530.072500", "095531.862500", "095530.272500", "095532.062500", "095530.470000", "095532.260000", "095530.870000", "095532.660000", "095531.067500", "095532.857500", "095531.267500", "095533.057500", "095531.465000", "095533.255000", "095530.670000", "095532.460000", "095529.875000", "095531.665000", "095530.072500", "095531.862500", "095530.272500", "095532.062500", "095530.470000", "095532.260000", "095530.870000", "095532.660000", "095531.067500", "095532.857500", "095531.267500", "095533.057500", "095531.465000", "095533.255000", "095530.670000", "095532.460000", "095529.875000", "095531.665000", "095530.072500", "095531.862500", "095530.272500", "095532.062500", "095530.470000", "095532.260000", "095530.870000", "095532.660000", "095531.067500", "095532.857500", "095531.267500", "095533.057500", "095531.465000", "095533.255000", "095530.670000", "095532.460000", "095529.875000", "095531.665000", "095530.072500", "095531.862500", "095530.272500", "095532.062500", "095530.470000", "095532.260000", "095530.870000", "095532.660000", "095531.067500", "095532.857500", "095531.267500", "095533.057500", "095531.465000", "095533.255000", "095530.670000", "095536.060000", "095533.475000", "095535.265000", "095533.672500", "095535.462500", "095533.872500", "095535.662500", "095534.070000", "095535.860000", "095534.470000", "095536.260000", "095534.667500", "095536.457500", "095534.867500", "095536.657500", "095535.065000", "095536.855000", "095534.270000", "095536.060000", "095533.475000", "095535.265000", "095533.672500", "095535.462500", "095533.872500", "095535.662500", "095534.070000", "095535.860000", "095534.470000", "095536.260000", "095534.667500", "095536.457500", "095534.867500", "095536.657500", "095535.065000", "095536.855000", "095534.270000", "095536.060000", "095533.475000", "095535.265000", "095533.672500", "095535.462500", "095533.872500", "095535.662500", "095534.070000", "095535.860000", "095534.470000", "095536.260000", "095534.667500", "095536.457500", "095534.867500", "095536.657500", "095535.065000", "095536.855000", "095534.270000", "095536.060000", "095533.475000", "095535.265000", "095533.672500", "095535.462500", "095533.872500", "095535.662500", "095534.070000", "095535.860000", "095534.470000", "095536.260000", "095534.667500", "095536.457500", "095534.867500", "095536.657500", "095535.065000", "095536.855000", "095534.270000", "095539.660000", "095537.075000", "095538.865000", "095537.272500", "095539.062500", "095537.472500", "095539.262500", "095537.670000", "095539.460000", "095538.070000", "095539.860000", "095538.267500", "095540.057500", "095538.467500", "095540.257500", "095538.665000", "095540.455000", "095537.870000", "095539.660000", "095537.075000", "095538.865000", "095537.272500", "095539.062500", "095537.472500", "095539.262500", "095537.670000", "095539.460000", "095538.070000", "095539.860000", "095538.267500", "095540.057500", "095538.467500", "095540.257500", "095538.665000", "095540.455000", "095537.870000", "095539.660000", "095537.075000", "095538.865000", "095537.272500", "095539.062500", "095537.472500", "095539.262500", "095537.670000", "095539.460000", "095538.070000", "095539.860000", "095538.267500", "095540.057500", "095538.467500", "095540.257500", "095538.665000", "095540.455000", "095537.870000", "095539.660000", "095537.075000", "095538.865000", "095537.272500", "095539.062500", "095537.472500", "095539.262500", "095537.670000", "095539.460000", "095538.070000", "095539.860000", "095538.267500", "095540.057500", "095538.467500", "095540.257500", "095538.665000", "095540.455000", "095537.870000", "095543.260000", "095540.675000", "095542.465000", "095540.872500", "095542.662500", "095541.072500", "095542.862500", "095541.270000", "095543.060000", "095541.670000", "095543.460000", "095541.867500", "095543.657500", "095542.067500", "095543.857500", "095542.265000", "095544.055000", "095541.470000", "095543.260000", "095540.675000", "095542.465000", "095540.872500", "095542.662500", "095541.072500", "095542.862500", "095541.270000", "095543.060000", "095541.670000", "095543.460000", "095541.867500", "095543.657500", "095542.067500", "095543.857500", "095542.265000", "095544.055000", "095541.470000", "095543.260000", "095540.675000", "095542.465000", "095540.872500", "095542.662500", "095541.072500", "095542.862500", "095541.270000", "095543.060000", "095541.670000", "095543.460000", "095541.867500", "095543.657500", "095542.067500", "095543.857500", "095542.265000", "095544.055000", "095541.470000", "095543.260000", "095540.675000", "095542.465000", "095540.872500", "095542.662500", "095541.072500", "095542.862500", "095541.270000", "095543.060000", "095541.670000", "095543.460000", "095541.867500", "095543.657500", "095542.067500", "095543.857500", "095542.265000", "095544.055000", "095541.470000", "095546.860000", "095544.275000", "095546.065000", "095544.472500", "095546.262500", "095544.672500", "095546.462500", "095544.870000", "095546.660000", "095545.270000", "095547.060000", "095545.467500", "095547.257500", "095545.667500", "095547.457500", "095545.865000", "095547.655000", "095545.070000", "095546.860000", "095544.275000", "095546.065000", "095544.472500", "095546.262500", "095544.672500", "095546.462500", "095544.870000", "095546.660000", "095545.270000", "095547.060000", "095545.467500", "095547.257500", "095545.667500", "095547.457500", "095545.865000", "095547.655000", "095545.070000", "095546.860000", "095544.275000", "095546.065000", "095544.472500", "095546.262500", "095544.672500", "095546.462500", "095544.870000", "095546.660000", "095545.270000", "095547.060000", "095545.467500", "095547.257500", "095545.667500", "095547.457500", "095545.865000", "095547.655000", "095545.070000", "095546.860000", "095544.275000", "095546.065000", "095544.472500", "095546.262500", "095544.672500", "095546.462500", "095544.870000", "095546.660000", "095545.270000", "095547.060000", "095545.467