{
  "AcquisitionMatrixPE": 80,
  "AcquisitionNumber": 1,
  "AcquisitionTime": "09:45:16.502500",
  "BandwidthPerPixelPhaseEncode": 25,
  "BaseResolution": 80,
  "BodyPartExamined": "BRAIN",
  "CoilCombinationMethod": "Sum of Squares",
  "ConsistencyInfo": "N4_VE11C_LATEST_20160120",
  "ConversionSoftware": "dcm2niix",
  "ConversionSoftwareVersion": "v1.0.20220720",
  "DerivedVendorReportedEchoSpacing": 0.0005,
  "DeviceSerialNumber": "66112",
  "DwellTime": 2.7e-06,
  "EchoTime": 0.03,
  "EchoTrainLength": 80,
  "EffectiveEchoSpacing": 0.0005,
  "FlipAngle": 10,
  "HeudiconvVersion": "0.13.1",
  "ImageOrientationPatientDICOM": [0.983005, 0.183135, 0.0127991, -0.178111, 0.934496, 0.30821],
  "ImageOrientationText": "Tra>Cor(17.8)>Sag(-2.5)",
  "ImageType": [
    "ORIGINAL",
    "PRIMARY",
    "M",
    "ND",
    "NORM",
    "MOSAIC"
],
  "ImagingFrequency": 123.252,
  "InPlanePhaseEncodingDirectionDICOM": "COL",
  "InstitutionAddress": "Maynard 3,Hanover,NH,US,03755",
  "InstitutionName": "Dartmouth College - PBS",
  "InstitutionalDepartmentName": "Department",
  "MRAcquisitionType": "2D",
  "MagneticFieldStrength": 3,
  "Manufacturer": "Siemens",
  "ManufacturersModelName": "Prisma",
  "MatrixCoilMode": "SENSE",
  "Modality": "MR",
  "NonlinearGradientCorrection": false,
  "PartialFourier": 1,
  "PatientPosition": "HFS",
  "PercentPhaseFOV": 100,
  "PercentSampling": 100,
  "PhaseEncodingDirection": "j-",
  "PhaseEncodingSteps": 80,
  "PhaseResolution": 1,
  "PixelBandwidth": 2315,
  "ProcedureStepDescription": "dbic^QA",
  "ProtocolName": "func-bold_acq-32ch-10flip",
  "PulseSequenceDetails": "%SiemensSeq%\\ep2d_bold",
  "ReceiveCoilActiveElements": "HEA;HEP",
  "ReceiveCoilName": "Head_32",
  "ReconMatrixPE": 80,
  "RepetitionTime": 2,
  "SAR": 0.011739,
  "ScanOptions": "FS",
  "ScanningSequence": "EP",
  "SequenceName": "*epfid2d1_80",
  "SequenceVariant": "SK",
  "SeriesDescription": "func-bold_acq-32ch-10flip",
  "SeriesNumber": 10,
  "ShimSetting": [4144, -7689, -7513, 246, -40, -131, -29, 66],
  "SliceThickness": 3.5,
  "SliceTiming": [0.99, 0, 1.055, 0.065, 1.1225, 0.1325, 1.1875, 0.1975, 1.255, 0.265, 1.32, 0.33, 1.385, 0.395, 1.4525, 0.4625, 1.5175, 0.5275, 1.5825, 0.595, 1.65, 0.66, 1.715, 0.725, 1.7825, 0.7925, 1.8475, 0.8575, 1.9125, 0.925],
  "SoftwareVersions": "syngo MR E11",
  "SpacingBetweenSlices": 3.99,
  "StationName": "AWP66112",
  "TotalReadoutTime": 0.0395,
  "TxRefAmp": 232.099,
  "dcmmeta_affine": [
    [-2.9490134716033936, -0.5343318581581116, -0.17748786509037018, 144.66270446777344],
    [-0.5494041442871094, 2.8034889698028564, 1.2179518938064575, -95.57154083251953],
    [0.03839729726314545, -0.9246289134025574, 3.795417070388794, -15.524089813232422],
    [0.0, 0.0, 0.0, 1.0]
],
  "dcmmeta_reorient_transform": [
    [0.0, -1.0, 0.0, 79.0],
    [1.0, 0.0, 0.0, 0.0],
    [0.0, 0.0, 1.0, 0.0],
    [0.0, 0.0, 0.0, 1.0]
],
  "dcmmeta_shape": [80, 80, 30, 200],
  "dcmmeta_slice_dim": 2,
  "dcmmeta_version": 0.6,
  "global": {
    "const": {
      "AccessionNumber": "qa",
      "AcquisitionMatrix": [80, 0, 0, 80],
      "AngioFlag": "N",
      "BitsAllocated": 16,
      "BitsStored": 12,
      "BodyPartExamined": "BRAIN",
      "Columns": 480,
      "EchoNumbers": 1,
      "EchoTime": 30.0,
      "EchoTrainLength": 80,
      "FlipAngle": 10.0,
      "HighBit": 11,
      "ImageOrientationPatient": [0.98300450517802, 0.18313472054034, 0.01279909888767, -0.1781106117687, 0.93449635161287, 0.30820963449835],
      "ImagePositionPatient": [-585.38682251587, -796.48273922173, -281.17501316611],
      "ImageType": [
        "ORIGINAL",
        "PRIMARY",
        "M",
        "ND",
        "NORM",
        "MOSAIC"
],
      "ImagedNucleus": "1H",
      "ImagingFrequency": 123.252414,
      "InPlanePhaseEncodingDirection": "COL",
      "MRAcquisitionType": "2D",
      "MagneticFieldStrength": 3.0,
      "Manufacturer": "SIEMENS",
      "ManufacturerModelName": "Prisma",
      "Modality": "MR",
      "NumberOfAverages": 1.0,
      "NumberOfPhaseEncodingSteps": 80,
      "PercentPhaseFieldOfView": 100.0,
      "PercentSampling": 100.0,
      "PerformedProcedureStepStartTime": "091601.650000",
      "PhotometricInterpretation": "MONOCHROME2",
      "PixelBandwidth": 2315.0,
      "PixelRepresentation": 0,
      "PixelSpacing": [3.0, 3.0],
      "ProtocolName": "func-bold_acq-32ch-10flip",
      "RepetitionTime": 2000.0,
      "Rows": 480,
      "SAR": 0.01173903246799,
      "SamplesPerPixel": 1,
      "ScanOptions": "FS",
      "ScanningSequence": "EP",
      "SequenceName": "*epfid2d1_80",
      "SequenceVariant": "SK",
      "SeriesDescription": "func-bold_acq-32ch-10flip",
      "SeriesNumber": 10,
      "SeriesTime": "094613.512000",
      "SliceLocation": -50.375391605617,
      "SliceThickness": 3.5,
      "SmallestImagePixelValue": 0,
      "SoftwareVersions": "syngo MR E11",
      "SpacingBetweenSlices": 3.9900000136758,
      "SpecificCharacterSet": "ISO_IR 100",
      "StudyID": "9",
      "StudyTime": "091601.574000",
      "TransmitCoilName": "Body",
      "VariableFlipAngleFlag": "N",
      "WindowCenterWidthExplanation": "Algo1",
      "dBdt": 0.0},
    "slices": {}
  },
  "time": {
    "samples": {
      "AcquisitionNumber": [1, 2, 3, 4, 5, 6, 7, 8, 9, 10, 11, 12, 13, 14, 15, 16, 17, 18, 19, 20, 21, 22, 23, 24, 25, 26, 27, 28, 29, 30, 31, 32, 33, 34, 35, 36, 37, 38, 39, 40, 41, 42, 43, 44, 45, 46, 47, 48, 49, 50, 51, 52, 53, 54, 55, 56, 57, 58, 59, 60, 61, 62, 63, 64, 65, 66, 67, 68, 69, 70, 71, 72, 73, 74, 75, 76, 77, 78, 79, 80, 81, 82, 83, 84, 85, 86, 87, 88, 89, 90, 91, 92, 93, 94, 95, 96, 97, 98, 99, 100, 101, 102, 103, 104, 105, 106, 107, 108, 109, 110, 111, 112, 113, 114, 115, 116, 117, 118, 119, 120, 121, 122, 123, 124, 125, 126, 127, 128, 129, 130, 131, 132, 133, 134, 135, 136, 137, 138, 139, 140, 141, 142, 143, 144, 145, 146, 147, 148, 149, 150, 151, 152, 153, 154, 155, 156, 157, 158, 159, 160, 161, 162, 163, 164, 165, 166, 167, 168, 169, 170, 171, 172, 173, 174, 175, 176, 177, 178, 179, 180, 181, 182, 183, 184, 185, 186, 187, 188, 189, 190, 191, 192, 193, 194, 195, 196, 197, 198, 199, 200],
      "AcquisitionTime": ["094516.502500", "094518.502500", "094520.502500", "094522.502500", "094524.502500", "094526.502500", "094528.502500", "094530.502500", "094532.502500", "094534.502500", "094536.502500", "094538.502500", "094540.502500", "094542.502500", "094544.502500", "094546.502500", "094548.502500", "094550.502500", "094552.502500", "094554.502500", "094556.502500", "094558.502500", "094600.502500", "094602.502500", "094604.502500", "094606.502500", "094608.502500", "094610.502500", "094612.502500", "094614.502500", "094616.502500", "094618.502500", "094620.502500", "094622.502500", "094624.502500", "094626.502500", "094628.502500", "094630.502500", "094632.502500", "094634.502500", "094636.502500", "094638.502500", "094640.502500", "094642.502500", "094644.502500", "094646.502500", "094648.502500", "094650.502500", "094652.502500", "094654.502500", "094656.502500", "094658.502500", "094700.502500", "094702.502500", "094704.502500", "094706.502500", "094708.502500", "094710.502500", "094712.502500", "094714.502500", "094716.502500", "094718.502500", "094720.502500", "094722.502500", "094724.502500", "094726.502500", "094728.502500", "094730.502500", "094732.502500", "094734.502500", "094736.502500", "094738.502500", "094740.502500", "094742.502500", "094744.502500", "094746.502500", "094748.502500", "094750.502500", "094752.502500", "094754.502500", "094756.502500", "094758.502500", "094800.502500", "094802.502500", "094804.502500", "094806.502500", "094808.502500", "094810.502500", "094812.502500", "094814.502500", "094816.502500", "094818.502500", "094820.502500", "094822.502500", "094824.502500", "094826.502500", "094828.502500", "094830.502500", "094832.502500", "094834.502500", "094836.502500", "094838.502500", "094840.502500", "094842.502500", "094844.502500", "094846.502500", "094848.502500", "094850.502500", "094852.502500", "094854.502500", "094856.502500", "094858.502500", "094900.502500", "094902.502500", "094904.502500", "094906.502500", "094908.502500", "094910.502500", "094912.502500", "094914.502500", "094916.502500", "094918.502500", "094920.502500", "094922.502500", "094924.502500", "094926.502500", "094928.502500", "094930.502500", "094932.502500", "094934.502500", "094936.502500", "094938.502500", "094940.502500", "094942.502500", "094944.502500", "094946.502500", "094948.502500", "094950.502500", "094952.502500", "094954.502500", "094956.502500", "094958.502500", "095000.502500", "095002.502500", "095004.502500", "095006.502500", "095008.502500", "095010.502500", "095012.502500", "095014.502500", "095016.502500", "095018.502500", "095020.502500", "095022.502500", "095024.502500", "095026.502500", "095028.502500", "095030.502500", "095032.502500", "095034.502500", "095036.502500", "095038.502500", "095040.502500", "095042.502500", "095044.502500", "095046.502500", "095048.502500", "095050.502500", "095052.502500", "095054.502500", "095056.502500", "095058.502500", "095100.502500", "095102.502500", "095104.502500", "095106.502500", "095108.502500", "095110.502500", "095112.502500", "095114.502500", "095116.502500", "095118.502500", "095120.502500", "095122.502500", "095124.502500", "095126.502500", "095128.502500", "095130.502500", "095132.502500", "095134.502500", "095136.502500", "095138.502500", "095140.502500", "095142.502500", "095144.502500", "095146.502500", "095148.502500", "095150.502500", "095152.502500", "095154.502500"],
      "ContentTime": ["094613.521000", "094613.524000", "094613.527000", "094613.529000", "094613.532000", "094613.534000", "094613.537000", "094613.540000", "094613.542000", "094613.545000", "094613.547000", "094613.549000", "094613.552000", "094613.554000", "094613.557000", "094613.559000", "094613.562000", "094613.564000", "094613.567000", "094613.569000", "094613.572000", "094613.574000", "094613.588000", "094613.590000", "094613.593000", "094613.595000", "094613.598000", "094613.600000", "094653.509000", "094653.512000", "094653.515000", "094653.517000", "094653.519000", "094653.522000", "094653.525000", "094653.527000", "094653.529000", "094653.532000", "094653.535000", "094653.538000", "094653.540000", "094653.543000", "094653.555000", "094653.557000", "094653.560000", "094653.562000", "094653.565000", "094653.567000", "094733.509000", "094733.512000", "094733.515000", "094733.517000", "094733.520000", "094733.522000", "094733.524000", "094733.527000", "094733.529000", "094733.532000", "094733.535000", "094733.537000", "094733.540000", "094733.542000", "094733.545000", "094733.547000", "094733.550000", "094733.552000", "094733.554000", "094733.557000", "094813.510000", "094813.513000", "094813.516000", "094813.518000", "094813.521000", "094813.523000", "094813.525000", "094813.528000", "094813.530000", "094813.533000", "094813.536000", "094813.538000", "094813.541000", "094813.543000", "094813.546000", "094813.548000", "094813.550000", "094813.553000", "094813.555000", "094813.558000", "094853.509000", "094853.512000", "094853.515000", "094853.517000", "094853.520000", "094853.522000", "094853.524000", "094853.527000", "094853.529000", "094853.533000", "094853.535000", "094853.538000", "094853.540000", "094853.543000", "094853.545000", "094853.548000", "094853.550000", "094853.553000", "094853.555000", "094853.558000", "094933.509000", "094933.512000", "094933.515000", "094933.517000", "094933.520000", "094933.523000", "094933.525000", "094933.528000", "094933.530000", "094933.533000", "094933.535000", "094933.538000", "094933.541000", "094933.543000", "094933.546000", "094933.548000", "094933.551000", "094933.553000", "094933.556000", "094933.558000", "095013.511000", "095013.513000", "095013.516000", "095013.518000", "095013.521000", "095013.523000", "095013.526000", "095013.528000", "095013.532000", "095013.535000", "095013.537000", "095013.540000", "095013.542000", "095013.545000", "095013.547000", "095013.550000", "095013.552000", "095013.554000", "095013.557000", "095013.559000", "095053.510000", "095053.513000", "095053.516000", "095053.518000", "095053.521000", "095053.523000", "095053.526000", "095053.528000", "095053.531000", "095053.533000", "095053.536000", "095053.538000", "095053.541000", "095053.543000", "095053.557000", "095053.560000", "095053.562000", "095053.565000", "095053.568000", "095053.570000", "095133.509000", "095133.512000", "095133.515000", "095133.517000", "095133.520000", "095133.522000", "095133.525000", "095133.527000", "095133.530000", "095133.533000", "095133.535000", "095133.538000", "095133.540000", "095133.542000", "095133.545000", "095133.547000", "095133.550000", "095133.552000", "095133.555000", "095133.557000", "095156.527000", "095156.530000", "095156.533000", "095156.535000", "095156.545000", "095156.548000", "095156.550000", "095156.553000", "095156.555000", "095156.558000", "095156.562000", "095156.569000"],
      "InstanceCreationTime": ["094613.521000", "094613.524000", "094613.527000", "094613.529000", "094613.532000", "094613.534000", "094613.537000", "094613.540000", "094613.542000", "094613.545000", "094613.547000", "094613.549000", "094613.552000", "094613.554000", "094613.557000", "094613.559000", "094613.562000", "094613.564000", "094613.567000", "094613.569000", "094613.572000", "094613.574000", "094613.588000", "094613.590000", "094613.593000", "094613.595000", "094613.598000", "094613.600000", "094653.509000", "094653.512000", "094653.515000", "094653.517000", "094653.519000", "094653.522000", "094653.525000", "094653.527000", "094653.529000", "094653.532000", "094653.535000", "094653.538000", "094653.540000", "094653.543000", "094653.555000", "094653.557000", "094653.560000", "094653.562000", "094653.565000", "094653.567000", "094733.509000", "094733.512000", "094733.515000", "094733.517000", "094733.520000", "094733.522000", "094733.524000", "094733.527000", "094733.529000", "094733.532000", "094733.535000", "094733.537000", "094733.540000", "094733.542000", "094733.545000", "094733.547000", "094733.550000", "094733.552000", "094733.554000", "094733.557000", "094813.510000", "094813.513000", "094813.516000", "094813.518000", "094813.521000", "094813.523000", "094813.525000", "094813.528000", "094813.530000", "094813.533000", "094813.536000", "094813.538000", "094813.541000", "094813.543000", "094813.546000", "094813.548000", "094813.550000", "094813.553000", "094813.555000", "094813.558000", "094853.509000", "094853.512000", "094853.515000", "094853.517000", "094853.520000", "094853.522000", "094853.524000", "094853.527000", "094853.529000", "094853.533000", "094853.535000", "094853.538000", "094853.540000", "094853.543000", "094853.545000", "094853.548000", "094853.550000", "094853.553000", "094853.555000", "094853.558000", "094933.509000", "094933.512000", "094933.515000", "094933.517000", "094933.520000", "094933.523000", "094933.525000", "094933.528000", "094933.530000", "094933.533000", "094933.535000", "094933.538000", "094933.541000", "094933.543000", "094933.546000", "094933.548000", "094933.551000", "094933.553000", "094933.556000", "094933.558000", "095013.511000", "095013.513000", "095013.516000", "095013.518000", "095013.521000", "095013.523000", "095013.526000", "095013.528000", "095013.532000", "095013.535000", "095013.537000", "095013.540000", "095013.542000", "095013.545000", "095013.547000", "095013.550000", "095013.552000", "095013.554000", "095013.557000", "095013.559000", "095053.510000", "095053.513000", "095053.516000", "095053.518000", "095053.521000", "095053.523000", "095053.526000", "095053.528000", "095053.531000", "095053.533000", "095053.536000", "095053.538000", "095053.541000", "095053.543000", "095053.557000", "095053.560000", "095053.562000", "095053.565000", "095053.568000", "095053.570000", "095133.509000", "095133.512000", "095133.515000", "095133.517000", "095133.520000", "095133.522000", "095133.525000", "095133.527000", "095133.530000", "095133.533000", "095133.535000", "095133.538000", "095133.540000", "095133.542000", "095133.545000", "095133.547000", "095133.550000", "095133.552000", "095133.555000", "095133.557000", "095156.527000", "095156.530000", "095156.533000", "095156.535000", "095156.545000", "095156.548000", "095156.550000", "095156.553000", "095156.555000", "095156.558000", "095156.562000", "095156.569000"],
      "InstanceNumber": [1, 2, 3, 4, 5, 6, 7, 8, 9, 10, 11, 12, 13, 14, 15, 16, 17, 18, 19, 20, 21, 22, 23, 24, 25, 26, 27, 28, 29, 30, 31, 32, 33, 34, 35, 36, 37, 38, 39, 40, 41, 42, 43, 44, 45, 46, 47, 48, 49, 50, 51, 52, 53, 54, 55, 56, 57, 58, 59, 60, 61, 62, 63, 64, 65, 66, 67, 68, 69, 70, 71, 72, 73, 74, 75, 76, 77, 78, 79, 80, 81, 82, 83, 84, 85, 86, 87, 88, 89, 90, 91, 92, 93, 94, 95, 96, 97, 98, 99, 100, 101, 102, 103, 104, 105, 106, 107, 108, 109, 110, 111, 112, 113, 114, 115, 116, 117, 118, 119, 120, 121, 122, 123, 124, 125, 126, 127, 128, 129, 130, 131, 132, 133, 134, 135, 136, 137, 138, 139, 140, 141, 142, 143, 144, 145, 146, 147, 148, 149, 150, 151, 152, 153, 154, 155, 156, 157, 158, 159, 160, 161, 162, 163, 164, 165, 166, 167, 168, 169, 170, 171, 172, 173, 174, 175, 176, 177, 178, 179, 180, 181, 182, 183, 184, 185, 186, 187, 188, 189, 190, 191, 192, 193, 194, 195, 196, 197, 198, 199, 200],
      "LargestImagePixelValue": [343, 341, 343, 342, 343, 342, 343, 341, 342, 341, 343, 343, 342, 339, 342, 341, 343, 342, 343, 342, 342, 341, 342, 340, 344, 342, 342, 341, 341, 341, 343, 342, 342, 343, 339, 343, 340, 341, 341, 342, 344, 342, 342, 340, 341, 342, 340, 341, 343, 341, 342, 341, 342, 341, 342, 340, 341, 341, 344, 341, 344, 340, 342, 342, 341, 342, 342, 342, 341, 341, 341, 343, 340, 340, 342, 342, 341, 341, 342, 341, 343, 342, 341, 341, 341, 342, 343, 340, 342, 341, 342, 342, 342, 342, 341, 340, 341, 340, 340, 339, 342, 342, 340, 341, 342, 343, 340, 341, 341, 340, 342, 341, 340, 343, 342, 343, 339, 344, 342, 341, 342, 341, 343, 341, 343, 341, 343, 341, 344, 340, 341, 343, 342, 341, 341, 341, 338, 339, 343, 341, 339, 342, 343, 340, 342, 342, 342, 341, 341, 341, 341, 343, 342, 342, 341, 341, 342, 340, 341, 341, 341, 340, 342, 342, 340, 341, 340, 342, 341, 341, 342, 342, 343, 340, 341, 341, 340, 341, 342, 342, 341, 340, 341, 343, 342, 343, 339, 341, 343, 341, 342, 341, 343, 339, 340, 341, 342, 341, 340, 341],
      "WindowCenter": [278.0, 279.0, 279.0, 279.0, 279.0, 279.0, 279.0, 279.0, 279.0, 279.0, 279.0, 279.0, 279.0, 279.0, 279.0, 279.0, 279.0, 279.0, 279.0, 279.0, 279.0, 279.0, 279.0, 279.0, 279.0, 279.0, 279.0, 279.0, 279.0, 279.0, 279.0, 279.0, 279.0, 279.0, 279.0, 279.0, 279.0, 279.0, 279.0, 279.0, 279.0, 279.0, 279.0, 279.0, 279.0, 279.0, 279.0, 279.0, 279.0, 279.0, 279.0, 279.0, 279.0, 279.0, 279.0, 279.0, 279.0, 279.0, 279.0, 279.0, 279.0, 279.0, 279.0, 279.0, 279.0, 279.0, 279.0, 279.0, 278.0, 278.0, 278.0, 278.0, 278.0, 278.0, 278.0, 278.0, 277.0, 278.0, 278.0, 278.0, 277.0, 278.0, 278.0, 278.0, 278.0, 278.0, 278.0, 278.0, 278.0, 278.0, 278.0, 278.0, 278.0, 278.0, 278.0, 278.0, 278.0, 278.0, 278.0, 278.0, 278.0, 278.0, 278.0, 278.0, 278.0, 278.0, 278.0, 278.0, 278.0, 278.0, 278.0, 278.0, 278.0, 278.0, 278.0, 278.0, 278.0, 278.0, 278.0, 278.0, 278.0, 278.0, 278.0, 278.0, 278.0, 278.0, 278.0, 278.0, 277.0, 278.0, 278.0, 278.0, 278.0, 278.0, 278.0, 278.0, 278.0, 278.0, 278.0, 278.0, 278.0, 278.0, 278.0, 278.0, 278.0, 278.0, 278.0, 278.0, 278.0, 278.0, 278.0, 278.0, 278.0, 278.0, 278.0, 278.0, 278.0, 278.0, 278.0, 278.0, 278.0, 278.0, 278.0, 278.0, 278.0, 278.0, 278.0, 278.0, 278.0, 278.0, 278.0, 278.0, 278.0, 278.0, 278.0, 278.0, 278.0, 278.0, 278.0, 278.0, 278.0, 278.0, 278.0, 278.0, 278.0, 278.0, 278.0, 278.0, 278.0, 278.0, 278.0, 278.0, 278.0, 278.0, 278.0, 278.0, 277.0, 278.0, 278.0, 278.0],
      "WindowWidth": [609.0, 610.0, 609.0, 610.0, 610.0, 610.0, 610.0, 610.0, 610.0, 610.0, 610.0, 610.0, 610.0, 610.0, 609.0, 610.0, 610.0, 610.0, 610.0, 610.0, 610.0, 610.0, 610.0, 610.0, 610.0, 610.0, 610.0, 610.0, 610.0, 610.0, 610.0, 610.0, 610.0, 610.0, 610.0, 610.0, 610.0, 609.0, 610.0, 610.0, 610.0, 609.0, 610.0, 609.0, 610.0, 610.0, 609.0, 610.0, 610.0, 610.0, 610.0, 609.0, 610.0, 610.0, 610.0, 610.0, 610.0, 610.0, 610.0, 610.0, 609.0, 610.0, 610.0, 610.0, 610.0, 610.0, 609.0, 610.0, 608.0, 608.0, 608.0, 609.0, 608.0, 608.0, 608.0, 608.0, 607.0, 608.0, 608.0, 608.0, 608.0, 608.0, 608.0, 608.0, 608.0, 608.0, 608.0, 608.0, 608.0, 608.0, 608.0, 608.0, 608.0, 608.0, 608.0, 608.0, 608.0, 608.0, 608.0, 608.0, 608.0, 608.0, 608.0, 608.0, 608.0, 608.0, 608.0, 608.0, 608.0, 608.0, 608.0, 608.0, 608.0, 608.0, 608.0, 608.0, 608.0, 608.0, 608.0, 608.0, 608.0, 608.0, 608.0, 608.0, 608.0, 608.0, 608.0, 608.0, 607.0, 608.0, 608.0, 608.0, 608.0, 608.0, 608.0, 608.0, 608.0, 608.0, 608.0, 608.0, 608.0, 607.0, 608.0, 608.0, 608.0, 608.0, 608.0, 608.0, 608.0, 608.0, 608.0, 608.0, 608.0, 608.0, 608.0, 608.0, 608.0, 608.0, 608.0, 608.0, 608.0, 608.0, 608.0, 608.0, 608.0, 608.0, 608.0, 608.0, 608.0, 608.0, 608.0, 608.0, 608.0, 608.0, 608.0, 608.0, 608.0, 608.0, 608.0, 608.0, 608.0, 608.0, 608.0, 608.0, 608.0, 608.0, 608.0, 608.0, 608.0, 608.0, 608.0, 608.0, 608.0, 608.0, 608.0, 608.0, 607.0, 608.0, 608.0, 607.0]
    },
    "slices": {}
  }
}