{
  "AcquisitionMatrixPE": 80,
  "AcquisitionNumber": 1,
  "AcquisitionTime": "09:24:46.202500",
  "BandwidthPerPixelPhaseEncode": 48.077,
  "BaseResolution": 80,
  "BodyPartExamined": "BRAIN",
  "CoilCombinationMethod": "Sum of Squares",
  "ConsistencyInfo": "N4_VE11C_LATEST_20160120",
  "ConversionSoftware": "dcm2niix",
  "ConversionSoftwareVersion": "v1.0.20220720",
  "DerivedVendorReportedEchoSpacing": 0.000519999,
  "DeviceSerialNumber": "66112",
  "DwellTime": 2.7e-06,
  "EchoTime": 0.035,
  "EchoTrainLength": 39,
  "EffectiveEchoSpacing": 0.00026,
  "FlipAngle": 90,
  "HeudiconvVersion": "0.13.1",
  "ImageOrientationPatientDICOM": [0.983005, 0.183135, 0.0127991, -0.178111, 0.934496, 0.30821],
  "ImageOrientationText": "Tra>Cor(17.8)>Sag(-2.5)",
  "ImageType": [
    "ORIGINAL",
    "PRIMARY",
    "M",
    "ND",
    "NORM",
    "MOSAIC"
],
  "ImagingFrequency": 123.252,
  "InPlanePhaseEncodingDirectionDICOM": "COL",
  "InstitutionAddress": "Maynard 3,Hanover,NH,US,03755",
  "InstitutionName": "Dartmouth College - PBS",
  "InstitutionalDepartmentName": "Department",
  "MRAcquisitionType": "2D",
  "MagneticFieldStrength": 3,
  "Manufacturer": "Siemens",
  "ManufacturersModelName": "Prisma",
  "MatrixCoilMode": "GRAPPA",
  "Modality": "MR",
  "NonlinearGradientCorrection": false,
  "ParallelReductionFactorInPlane": 2,
  "PartialFourier": 1,
  "PatientPosition": "HFS",
  "PercentPhaseFOV": 100,
  "PercentSampling": 100,
  "PhaseEncodingDirection": "j-",
  "PhaseEncodingSteps": 79,
  "PhaseResolution": 1,
  "PixelBandwidth": 2315,
  "ProcedureStepDescription": "dbic^QA",
  "ProtocolName": "func-bold_task-rest_acq-p2",
  "PulseSequenceDetails": "%SiemensSeq%\\ep2d_bold",
  "ReceiveCoilActiveElements": "HEA;HEP",
  "ReceiveCoilName": "Head_32",
  "ReconMatrixPE": 80,
  "RefLinesPE": 24,
  "RepetitionTime": 2,
  "SAR": 0.0556871,
  "ScanOptions": "FS",
  "ScanningSequence": "EP",
  "SequenceName": "*epfid2d1_80",
  "SequenceVariant": "SK",
  "SeriesDescription": "func-bold_task-rest_acq-p2",
  "SeriesNumber": 5,
  "ShimSetting": [4144, -7689, -7513, 246, -40, -130, -31, 66],
  "SliceThickness": 3.5,
  "SliceTiming": [0.99, 0, 1.055, 0.0675, 1.1225, 0.1325, 1.1875, 0.1975, 1.255, 0.265, 1.32, 0.33, 1.385, 0.395, 1.4525, 0.4625, 1.5175, 0.5275, 1.585, 0.595, 1.65, 0.66, 1.715, 0.725, 1.7825, 0.7925, 1.8475, 0.8575, 1.915, 0.925],
  "SoftwareVersions": "syngo MR E11",
  "SpacingBetweenSlices": 3.99,
  "StationName": "AWP66112",
  "TaskName": "rest",
  "TotalReadoutTime": 0.02054,
  "TxRefAmp": 232.099,
  "dcmmeta_affine": [
    [-2.9490134716033936, -0.5343318581581116, -0.17748786509037018, 145.574462890625],
    [-0.5494041442871094, 2.8034889698028564, 1.2179518938064575, -100.53936004638672],
    [0.03839729726314545, -0.9246289134025574, 3.795417070388794, -16.580123901367188],
    [0.0, 0.0, 0.0, 1.0]
],
  "dcmmeta_reorient_transform": [
    [0.0, -1.0, 0.0, 79.0],
    [1.0, 0.0, 0.0, 0.0],
    [0.0, 0.0, 1.0, 0.0],
    [0.0, 0.0, 0.0, 1.0]
],
  "dcmmeta_shape": [80, 80, 30, 200],
  "dcmmeta_slice_dim": 2,
  "dcmmeta_version": 0.6,
  "global": {
    "const": {
      "AccessionNumber": "qa",
      "AcquisitionMatrix": [80, 0, 0, 80],
      "AngioFlag": "N",
      "BitsAllocated": 16,
      "BitsStored": 12,
      "BodyPartExamined": "BRAIN",
      "Columns": 480,
      "EchoNumbers": 1,
      "EchoTime": 35.0,
      "EchoTrainLength": 39,
      "FlipAngle": 90.0,
      "HighBit": 11,
      "ImageOrientationPatient": [0.98300450517802, 0.18313472054034, 0.01279909888767, -0.1781106117687, 0.93449635161287, 0.30820963449835],
      "ImagePositionPatient": [-586.29858809127, -791.51492191522, -282.23104725424],
      "ImageType": [
        "ORIGINAL",
        "PRIMARY",
        "M",
        "ND",
        "NORM",
        "MOSAIC"
],
      "ImagedNucleus": "1H",
      "ImagingFrequency": 123.252414,
      "InPlanePhaseEncodingDirection": "COL",
      "MRAcquisitionType": "2D",
      "MagneticFieldStrength": 3.0,
      "Manufacturer": "SIEMENS",
      "ManufacturerModelName": "Prisma",
      "Modality": "MR",
      "NumberOfAverages": 1.0,
      "NumberOfPhaseEncodingSteps": 79,
      "PercentPhaseFieldOfView": 100.0,
      "PercentSampling": 100.0,
      "PerformedProcedureStepStartTime": "091601.650000",
      "PhotometricInterpretation": "MONOCHROME2",
      "PixelBandwidth": 2315.0,
      "PixelRepresentation": 0,
      "PixelSpacing": [3.0, 3.0],
      "ProtocolName": "func-bold_task-rest_acq-p2",
      "RepetitionTime": 2000.0,
      "Rows": 480,
      "SAR": 0.05568708015596,
      "SamplesPerPixel": 1,
      "ScanOptions": "FS",
      "ScanningSequence": "EP",
      "SequenceName": "*epfid2d1_80",
      "SequenceVariant": "SK",
      "SeriesDescription": "func-bold_task-rest_acq-p2",
      "SeriesNumber": 5,
      "SeriesTime": "092533.511000",
      "SliceLocation": -52.936915401043,
      "SliceThickness": 3.5,
      "SmallestImagePixelValue": 0,
      "SoftwareVersions": "syngo MR E11",
      "SpacingBetweenSlices": 3.9899999932335,
      "SpecificCharacterSet": "ISO_IR 100",
      "StudyID": "9",
      "StudyTime": "091601.574000",
      "TransmitCoilName": "Body",
      "VariableFlipAngleFlag": "N",
      "WindowCenterWidthExplanation": "Algo1",
      "dBdt": 0.0},
    "slices": {}
  },
  "time": {
    "samples": {
      "AcquisitionNumber": [1, 2, 3, 4, 5, 6, 7, 8, 9, 10, 11, 12, 13, 14, 15, 16, 17, 18, 19, 20, 21, 22, 23, 24, 25, 26, 27, 28, 29, 30, 31, 32, 33, 34, 35, 36, 37, 38, 39, 40, 41, 42, 43, 44, 45, 46, 47, 48, 49, 50, 51, 52, 53, 54, 55, 56, 57, 58, 59, 60, 61, 62, 63, 64, 65, 66, 67, 68, 69, 70, 71, 72, 73, 74, 75, 76, 77, 78, 79, 80, 81, 82, 83, 84, 85, 86, 87, 88, 89, 90, 91, 92, 93, 94, 95, 96, 97, 98, 99, 100, 101, 102, 103, 104, 105, 106, 107, 108, 109, 110, 111, 112, 113, 114, 115, 116, 117, 118, 119, 120, 121, 122, 123, 124, 125, 126, 127, 128, 129, 130, 131, 132, 133, 134, 135, 136, 137, 138, 139, 140, 141, 142, 143, 144, 145, 146, 147, 148, 149, 150, 151, 152, 153, 154, 155, 156, 157, 158, 159, 160, 161, 162, 163, 164, 165, 166, 167, 168, 169, 170, 171, 172, 173, 174, 175, 176, 177, 178, 179, 180, 181, 182, 183, 184, 185, 186, 187, 188, 189, 190, 191, 192, 193, 194, 195, 196, 197, 198, 199, 200],
      "AcquisitionTime": ["092446.202500", "092448.202500", "092450.202500", "092452.202500", "092454.202500", "092456.202500", "092458.202500", "092500.202500", "092502.202500", "092504.202500", "092506.202500", "092508.202500", "092510.202500", "092512.202500", "092514.202500", "092516.202500", "092518.202500", "092520.202500", "092522.202500", "092524.202500", "092526.202500", "092528.202500", "092530.202500", "092532.202500", "092534.202500", "092536.202500", "092538.202500", "092540.202500", "092542.202500", "092544.202500", "092546.202500", "092548.202500", "092550.202500", "092552.202500", "092554.202500", "092556.202500", "092558.202500", "092600.202500", "092602.202500", "092604.202500", "092606.202500", "092608.202500", "092610.202500", "092612.202500", "092614.202500", "092616.202500", "092618.202500", "092620.202500", "092622.202500", "092624.202500", "092626.202500", "092628.202500", "092630.202500", "092632.202500", "092634.202500", "092636.202500", "092638.202500", "092640.202500", "092642.202500", "092644.202500", "092646.202500", "092648.202500", "092650.202500", "092652.202500", "092654.202500", "092656.202500", "092658.202500", "092700.202500", "092702.202500", "092704.202500", "092706.202500", "092708.202500", "092710.202500", "092712.202500", "092714.202500", "092716.202500", "092718.202500", "092720.202500", "092722.202500", "092724.202500", "092726.202500", "092728.202500", "092730.202500", "092732.202500", "092734.202500", "092736.202500", "092738.202500", "092740.202500", "092742.202500", "092744.202500", "092746.202500", "092748.202500", "092750.202500", "092752.202500", "092754.202500", "092756.202500", "092758.202500", "092800.202500", "092802.202500", "092804.202500", "092806.202500", "092808.202500", "092810.202500", "092812.202500", "092814.202500", "092816.202500", "092818.202500", "092820.202500", "092822.202500", "092824.202500", "092826.202500", "092828.202500", "092830.202500", "092832.202500", "092834.202500", "092836.202500", "092838.202500", "092840.202500", "092842.202500", "092844.202500", "092846.202500", "092848.202500", "092850.202500", "092852.202500", "092854.202500", "092856.202500", "092858.202500", "092900.202500", "092902.202500", "092904.202500", "092906.202500", "092908.202500", "092910.202500", "092912.202500", "092914.202500", "092916.202500", "092918.202500", "092920.202500", "092922.202500", "092924.202500", "092926.202500", "092928.202500", "092930.202500", "092932.202500", "092934.202500", "092936.202500", "092938.202500", "092940.202500", "092942.202500", "092944.202500", "092946.202500", "092948.202500", "092950.202500", "092952.202500", "092954.202500", "092956.202500", "092958.202500", "093000.202500", "093002.202500", "093004.202500", "093006.202500", "093008.202500", "093010.202500", "093012.202500", "093014.202500", "093016.202500", "093018.202500", "093020.202500", "093022.202500", "093024.202500", "093026.202500", "093028.202500", "093030.202500", "093032.202500", "093034.202500", "093036.202500", "093038.202500", "093040.202500", "093042.202500", "093044.202500", "093046.202500", "093048.202500", "093050.202500", "093052.202500", "093054.202500", "093056.202500", "093058.202500", "093100.202500", "093102.202500", "093104.202500", "093106.202500", "093108.202500", "093110.202500", "093112.202500", "093114.202500", "093116.202500", "093118.202500", "093120.202500", "093122.202500", "093124.202500"],
      "ContentTime": ["092533.515000", "092533.518000", "092533.521000", "092533.523000", "092533.526000", "092533.528000", "092533.531000", "092533.533000", "092533.535000", "092533.538000", "092533.541000", "092533.543000", "092533.554000", "092533.557000", "092533.559000", "092533.562000", "092533.564000", "092533.567000", "092533.570000", "092533.572000", "092533.575000", "092533.577000", "092533.580000", "092613.509000", "092613.512000", "092613.515000", "092613.517000", "092613.520000", "092613.523000", "092613.525000", "092613.528000", "092613.530000", "092613.533000", "092613.535000", "092613.538000", "092613.540000", "092613.543000", "092613.546000", "092613.548000", "092613.551000", "092613.553000", "092613.556000", "092613.558000", "092653.510000", "092653.513000", "092653.516000", "092653.518000", "092653.521000", "092653.523000", "092653.526000", "092653.528000", "092653.531000", "092653.533000", "092653.536000", "092653.538000", "092653.541000", "092653.543000", "092653.546000", "092653.549000", "092653.551000", "092653.554000", "092653.563000", "092653.565000", "092733.510000", "092733.513000", "092733.516000", "092733.518000", "092733.521000", "092733.523000", "092733.526000", "092733.528000", "092733.531000", "092733.533000", "092733.536000", "092733.538000", "092733.541000", "092733.543000", "092733.546000", "092733.548000", "092733.551000", "092733.553000", "092733.556000", "092733.558000", "092813.509000", "092813.512000", "092813.515000", "092813.518000", "092813.520000", "092813.523000", "092813.525000", "092813.528000", "092813.530000", "092813.533000", "092813.536000", "092813.538000", "092813.541000", "092813.543000", "092813.546000", "092813.548000", "092813.551000", "092813.553000", "092813.556000", "092813.558000", "092853.510000", "092853.512000", "092853.515000", "092853.518000", "092853.520000", "092853.523000", "092853.536000", "092853.539000", "092853.541000", "092853.544000", "092853.546000", "092853.549000", "092853.551000", "092853.554000", "092853.557000", "092853.559000", "092853.562000", "092853.564000", "092853.567000", "092853.570000", "092933.510000", "092933.513000", "092933.516000", "092933.518000", "092933.521000", "092933.524000", "092933.526000", "092933.529000", "092933.532000", "092933.534000", "092933.537000", "092933.539000", "092933.542000", "092933.544000", "092933.547000", "092933.549000", "092933.552000", "092933.555000", "092933.557000", "092933.560000", "093013.510000", "093013.512000", "093013.515000", "093013.518000", "093013.520000", "093013.523000", "093013.526000", "093013.528000", "093013.531000", "093013.533000", "093013.536000", "093013.538000", "093013.541000", "093013.543000", "093013.546000", "093013.548000", "093013.551000", "093013.553000", "093013.556000", "093013.558000", "093053.509000", "093053.512000", "093053.515000", "093053.517000", "093053.520000", "093053.522000", "093053.525000", "093053.527000", "093053.530000", "093053.532000", "093053.535000", "093053.537000", "093053.540000", "093053.542000", "093053.545000", "093053.548000", "093053.550000", "093053.553000", "093053.555000", "093053.558000", "093125.840000", "093125.843000", "093125.846000", "093125.849000", "093125.852000", "093125.854000", "093125.857000", "093125.859000", "093125.862000", "093125.865000", "093125.867000", "093125.872000", "093125.875000", "093125.879000", "093125.882000", "093125.884000", "093125.887000"],
      "InstanceCreationTime": ["092533.515000", "092533.518000", "092533.521000", "092533.523000", "092533.526000", "092533.528000", "092533.531000", "092533.533000", "092533.535000", "092533.538000", "092533.541000", "092533.543000", "092533.554000", "092533.557000", "092533.559000", "092533.562000", "092533.564000", "092533.567000", "092533.570000", "092533.572000", "092533.575000", "092533.577000", "092533.580000", "092613.509000", "092613.512000", "092613.515000", "092613.517000", "092613.520000", "092613.523000", "092613.525000", "092613.528000", "092613.530000", "092613.533000", "092613.535000", "092613.538000", "092613.540000", "092613.543000", "092613.546000", "092613.548000", "092613.551000", "092613.553000", "092613.556000", "092613.558000", "092653.510000", "092653.513000", "092653.516000", "092653.518000", "092653.521000", "092653.523000", "092653.526000", "092653.528000", "092653.531000", "092653.533000", "092653.536000", "092653.538000", "092653.541000", "092653.543000", "092653.546000", "092653.549000", "092653.551000", "092653.554000", "092653.563000", "092653.565000", "092733.510000", "092733.513000", "092733.516000", "092733.518000", "092733.521000", "092733.523000", "092733.526000", "092733.528000", "092733.531000", "092733.533000", "092733.536000", "092733.538000", "092733.541000", "092733.543000", "092733.546000", "092733.548000", "092733.551000", "092733.553000", "092733.556000", "092733.558000", "092813.509000", "092813.512000", "092813.515000", "092813.518000", "092813.520000", "092813.523000", "092813.525000", "092813.528000", "092813.530000", "092813.533000", "092813.536000", "092813.538000", "092813.541000", "092813.543000", "092813.546000", "092813.548000", "092813.551000", "092813.553000", "092813.556000", "092813.558000", "092853.510000", "092853.512000", "092853.515000", "092853.518000", "092853.520000", "092853.523000", "092853.536000", "092853.539000", "092853.541000", "092853.544000", "092853.546000", "092853.549000", "092853.551000", "092853.554000", "092853.557000", "092853.559000", "092853.562000", "092853.564000", "092853.567000", "092853.570000", "092933.510000", "092933.513000", "092933.516000", "092933.518000", "092933.521000", "092933.524000", "092933.526000", "092933.529000", "092933.532000", "092933.534000", "092933.537000", "092933.539000", "092933.542000", "092933.544000", "092933.547000", "092933.549000", "092933.552000", "092933.555000", "092933.557000", "092933.560000", "093013.510000", "093013.512000", "093013.515000", "093013.518000", "093013.520000", "093013.523000", "093013.526000", "093013.528000", "093013.531000", "093013.533000", "093013.536000", "093013.538000", "093013.541000", "093013.543000", "093013.546000", "093013.548000", "093013.551000", "093013.553000", "093013.556000", "093013.558000", "093053.509000", "093053.512000", "093053.515000", "093053.517000", "093053.520000", "093053.522000", "093053.525000", "093053.527000", "093053.530000", "093053.532000", "093053.535000", "093053.537000", "093053.540000", "093053.542000", "093053.545000", "093053.548000", "093053.550000", "093053.553000", "093053.555000", "093053.558000", "093125.840000", "093125.843000", "093125.846000", "093125.849000", "093125.852000", "093125.854000", "093125.857000", "093125.859000", "093125.862000", "093125.865000", "093125.867000", "093125.872000", "093125.875000", "093125.879000", "093125.882000", "093125.884000", "093125.887000"],
      "InstanceNumber": [1, 2, 3, 4, 5, 6, 7, 8, 9, 10, 11, 12, 13, 14, 15, 16, 17, 18, 19, 20, 21, 22, 23, 24, 25, 26, 27, 28, 29, 30, 31, 32, 33, 34, 35, 36, 37, 38, 39, 40, 41, 42, 43, 44, 45, 46, 47, 48, 49, 50, 51, 52, 53, 54, 55, 56, 57, 58, 59, 60, 61, 62, 63, 64, 65, 66, 67, 68, 69, 70, 71, 72, 73, 74, 75, 76, 77, 78, 79, 80, 81, 82, 83, 84, 85, 86, 87, 88, 89, 90, 91, 92, 93, 94, 95, 96, 97, 98, 99, 100, 101, 102, 103, 104, 105, 106, 107, 108, 109, 110, 111, 112, 113, 114, 115, 116, 117, 118, 119, 120, 121, 122, 123, 124, 125, 126, 127, 128, 129, 130, 131, 132, 133, 134, 135, 136, 137, 138, 139, 140, 141, 142, 143, 144, 145, 146, 147, 148, 149, 150, 151, 152, 153, 154, 155, 156, 157, 158, 159, 160, 161, 162, 163, 164, 165, 166, 167, 168, 169, 170, 171, 172, 173, 174, 175, 176, 177, 178, 179, 180, 181, 182, 183, 184, 185, 186, 187, 188, 189, 190, 191, 192, 193, 194, 195, 196, 197, 198, 199, 200],
      "LargestImagePixelValue": [2049, 2051, 2052, 2050, 2053, 2041, 2048, 2062, 2050, 2050, 2056, 2058, 2052, 2052, 2060, 2054, 2047, 2053, 2054, 2050, 2055, 2045, 2046, 2051, 2049, 2047, 2058, 2046, 2052, 2054, 2046, 2049, 2053, 2048, 2056, 2046, 2050, 2051, 2049, 2049, 2044, 2053, 2054, 2052, 2054, 2050, 2043, 2054, 2042, 2053, 2052, 2055, 2057, 2051, 2050, 2051, 2057, 2050, 2052, 2049, 2049, 2051, 2058, 2043, 2057, 2048, 2052, 2046, 2050, 2052, 2045, 2052, 2058, 2056, 2050, 2040, 2047, 2043, 2043, 2049, 2046, 2047, 2048, 2054, 2053, 2055, 2053, 2051, 2048, 2046, 2045, 2051, 2048, 2050, 2047, 2051, 2047, 2049, 2043, 2048, 2050, 2040, 2049, 2046, 2047, 2049, 2055, 2055, 2044, 2051, 2052, 2045, 2057, 2055, 2054, 2048, 2047, 2049, 2054, 2061, 2052, 2051, 2051, 2053, 2050, 2044, 2049, 2047, 2044, 2046, 2055, 2046, 2049, 2046, 2049, 2052, 2045, 2050, 2049, 2054, 2057, 2053, 2053, 2051, 2054, 2055, 2049, 2052, 2047, 2049, 2050, 2042, 2046, 2038, 2044, 2038, 2041, 2037, 2032, 2047, 2038, 2049, 2043, 2051, 2047, 2044, 2037, 2036, 2035, 2052, 2045, 2049, 2042, 2049, 2053, 2043, 2049, 2040, 2038, 2046, 2044, 2045, 2048, 2057, 2050, 2049, 2052, 2045, 2047, 2050, 2049, 2049, 2040, 2049, 2034, 2048, 2046, 2047, 2042, 2040],
      "WindowCenter": [982.0, 982.0, 983.0, 983.0, 982.0, 982.0, 982.0, 982.0, 982.0, 982.0, 982.0, 982.0, 982.0, 982.0, 982.0, 982.0, 983.0, 982.0, 982.0, 982.0, 982.0, 982.0, 982.0, 982.0, 984.0, 982.0, 982.0, 983.0, 982.0, 982.0, 982.0, 982.0, 982.0, 982.0, 982.0, 982.0, 982.0, 982.0, 982.0, 983.0, 982.0, 982.0, 982.0, 982.0, 983.0, 982.0, 982.0, 982.0, 982.0, 983.0, 983.0, 983.0, 983.0, 982.0, 982.0, 983.0, 982.0, 982.0, 982.0, 982.0, 983.0, 982.0, 982.0, 982.0, 982.0, 984.0, 982.0, 982.0, 983.0, 982.0, 982.0, 982.0, 982.0, 982.0, 982.0, 982.0, 982.0, 982.0, 983.0, 982.0, 982.0, 982.0, 982.0, 982.0, 982.0, 982.0, 982.0, 982.0, 982.0, 982.0, 982.0, 982.0, 982.0, 983.0, 982.0, 982.0, 982.0, 982.0, 982.0, 982.0, 981.0, 982.0, 982.0, 982.0, 982.0, 982.0, 981.0, 982.0, 982.0, 981.0, 982.0, 982.0, 982.0, 982.0, 982.0, 982.0, 982.0, 982.0, 982.0, 982.0, 982.0, 982.0, 982.0, 983.0, 982.0, 982.0, 982.0, 982.0, 982.0, 982.0, 982.0, 981.0, 981.0, 982.0, 981.0, 982.0, 982.0, 981.0, 981.0, 981.0, 981.0, 981.0, 982.0, 981.0, 981.0, 981.0, 981.0, 981.0, 982.0, 982.0, 981.0, 981.0, 981.0, 981.0, 981.0, 981.0, 981.0, 981.0, 981.0, 981.0, 981.0, 981.0, 981.0, 981.0, 981.0, 981.0, 981.0, 981.0, 981.0, 981.0, 981.0, 982.0, 981.0, 982.0, 981.0, 982.0, 982.0, 981.0, 982.0, 981.0, 982.0, 982.0, 981.0, 981.0, 981.0, 981.0, 982.0, 981.0, 981.0, 982.0, 982.0, 982.0, 982.0, 981.0, 981.0, 982.0, 981.0, 982.0, 982.0, 981.0],
      "WindowWidth": [2147.0, 2147.0, 2147.0, 2147.0, 2146.0, 2146.0, 2146.0, 2147.0, 2147.0, 2147.0, 2147.0, 2146.0, 2146.0, 2146.0, 2146.0, 2146.0, 2147.0, 2146.0, 2146.0, 2146.0, 2146.0, 2146.0, 2146.0, 2146.0, 2148.0, 2146.0, 2146.0, 2147.0, 2146.0, 2146.0, 2146.0, 2146.0, 2146.0, 2146.0, 2146.0, 2146.0, 2146.0, 2146.0, 2146.0, 2147.0, 2146.0, 2146.0, 2146.0, 2146.0, 2147.0, 2146.0, 2146.0, 2146.0, 2146.0, 2147.0, 2147.0, 2147.0, 2147.0, 2146.0, 2146.0, 2147.0, 2146.0, 2146.0, 2146.0, 2146.0, 2147.0, 2146.0, 2146.0, 2146.0, 2146.0, 2147.0, 2146.0, 2146.0, 2147.0, 2146.0, 2146.0, 2146.0, 2146.0, 2146.0, 2146.0, 2146.0, 2146.0, 2146.0, 2147.0, 2145.0, 2146.0, 2146.0, 2146.0, 2145.0, 2146.0, 2146.0, 2146.0, 2146.0, 2145.0, 2145.0, 2145.0, 2146.0, 2146.0, 2146.0, 2145.0, 2146.0, 2145.0, 2146.0, 2146.0, 2146.0, 2146.0, 2145.0, 2146.0, 2146.0, 2146.0, 2145.0, 2146.0, 2145.0, 2146.0, 2146.0, 2145.0, 2146.0, 2146.0, 2146.0, 2146.0, 2146.0, 2145.0, 2145.0, 2145.0, 2145.0, 2145.0, 2145.0, 2145.0, 2146.0, 2145.0, 2146.0, 2145.0, 2145.0, 2145.0, 2145.0, 2146.0, 2145.0, 2145.0, 2146.0, 2145.0, 2146.0, 2146.0, 2145.0, 2145.0, 2145.0, 2145.0, 2145.0, 2146.0, 2145.0, 2145.0, 2145.0, 2145.0, 2145.0, 2146.0, 2146.0, 2145.0, 2145.0, 2145.0, 2145.0, 2145.0, 2145.0, 2145.0, 2145.0, 2145.0, 2145.0, 2145.0, 2145.0, 2145.0, 2145.0, 2145.0, 2145.0, 2145.0, 2145.0, 2145.0, 2145.0, 2145.0, 2145.0, 2145.0, 2145.0, 2145.0, 2145.0, 2145.0, 2145.0, 2145.0, 2145.0, 2145.0, 2145.0, 2145.0, 2145.0, 2145.0, 2145.0, 2145.0, 2145.0, 2145.0, 2145.0, 2145.0, 2145.0, 2145.0, 2145.0, 2145.0, 2145.0, 2145.0, 2145.0, 2145.0, 2144.0]
    },
    "slices": {}
  }
}