{
  "AcquisitionMatrixPE": 80,
  "AcquisitionNumber": 1,
  "AcquisitionTime": "09:31:41.155000",
  "BandwidthPerPixelPhaseEncode": 44.643,
  "BaseResolution": 80,
  "BodyPartExamined": "BRAIN",
  "CoilCombinationMethod": "Sum of Squares",
  "ConsistencyInfo": "N4_VE11C_LATEST_20160120",
  "ConversionSoftware": "dcm2niix",
  "ConversionSoftwareVersion": "v1.0.20220720",
  "DerivedVendorReportedEchoSpacing": 0.000559998,
  "DeviceSerialNumber": "66112",
  "DwellTime": 2.7e-06,
  "EchoTime": 0.035,
  "EchoTrainLength": 39,
  "EffectiveEchoSpacing": 0.000279999,
  "FlipAngle": 90,
  "HeudiconvVersion": "0.13.1",
  "ImageOrientationPatientDICOM": [0.983005, 0.183135, 0.0127991, -0.178111, 0.934496, 0.30821],
  "ImageOrientationText": "Tra>Cor(17.8)>Sag(-2.5)",
  "ImageType": [
    "ORIGINAL",
    "PRIMARY",
    "M",
    "ND",
    "NORM",
    "MOSAIC"
],
  "ImagingFrequency": 123.252,
  "InPlanePhaseEncodingDirectionDICOM": "COL",
  "InstitutionAddress": "Maynard 3,Hanover,NH,US,03755",
  "InstitutionName": "Dartmouth College - PBS",
  "InstitutionalDepartmentName": "Department",
  "MRAcquisitionType": "2D",
  "MagneticFieldStrength": 3,
  "Manufacturer": "Siemens",
  "ManufacturersModelName": "Prisma",
  "Modality": "MR",
  "MultibandAccelerationFactor": 4,
  "NonlinearGradientCorrection": false,
  "ParallelReductionFactorInPlane": 2,
  "PartialFourier": 1,
  "PatientPosition": "HFS",
  "PercentPhaseFOV": 100,
  "PercentSampling": 100,
  "PhaseEncodingDirection": "j-",
  "PhaseEncodingSteps": 79,
  "PhaseResolution": 1,
  "PixelBandwidth": 2315,
  "ProcedureStepDescription": "dbic^QA",
  "ProtocolName": "func-bold_task-rest_acq-p2-s4-3.5mm",
  "PulseSequenceDetails": "%SiemensSeq%\\ep2d_bold",
  "ReceiveCoilActiveElements": "HEA;HEP",
  "ReceiveCoilName": "Head_32",
  "ReconMatrixPE": 80,
  "RefLinesPE": 24,
  "RepetitionTime": 2,
  "SAR": 0.02094,
  "ScanOptions": "FS",
  "ScanningSequence": "EP",
  "SequenceName": "*epfid2d1_80",
  "SequenceVariant": "SK",
  "SeriesDescription": "func-bold_task-rest_acq-p2-s4-3.5mm",
  "SeriesNumber": 7,
  "ShimSetting": [4144, -7690, -7513, 248, -40, -137, -30, 66],
  "SliceThickness": 3.5,
  "SliceTiming": [1.485, 0, 0.99, 0.2475, 1.2375, 0.7425, 1.7325, 0.495, 1.485, 0, 0.99, 0.2475, 1.2375, 0.7425, 1.7325, 0.495, 1.485, 0, 0.99, 0.2475, 1.2375, 0.7425, 1.7325, 0.495, 1.485, 0, 0.99, 0.2475, 1.2375, 0.7425, 1.7325, 0.495],
  "SoftwareVersions": "syngo MR E11",
  "SpacingBetweenSlices": 3.99,
  "StationName": "AWP66112",
  "TaskName": "rest",
  "TotalReadoutTime": 0.0221199,
  "TxRefAmp": 232.099,
  "dcmmeta_affine": [
    [-2.9490134716033936, -0.5343318581581116, -0.17748786509037018, 145.751953125],
    [-0.5494041442871094, 2.8034889698028564, 1.217952013015747, -101.75730895996094],
    [0.03839729726314545, -0.9246289134025574, 3.795417070388794, -20.37554168701172],
    [0.0, 0.0, 0.0, 1.0]
],
  "dcmmeta_reorient_transform": [
    [0.0, -1.0, 0.0, 79.0],
    [1.0, 0.0, 0.0, 0.0],
    [0.0, 0.0, 1.0, 0.0],
    [0.0, 0.0, 0.0, 1.0]
],
  "dcmmeta_shape": [80, 80, 32, 200],
  "dcmmeta_slice_dim": 2,
  "dcmmeta_version": 0.6,
  "global": {
    "const": {
      "AccessionNumber": "qa",
      "AcquisitionMatrix": [80, 0, 0, 80],
      "AngioFlag": "N",
      "BitsAllocated": 16,
      "BitsStored": 12,
      "BodyPartExamined": "BRAIN",
      "Columns": 480,
      "EchoNumbers": 1,
      "EchoTime": 35.0,
      "EchoTrainLength": 39,
      "FlipAngle": 90.0,
      "HighBit": 11,
      "ImageOrientationPatient": [0.98300450517802, 0.18313472054034, 0.01279909888767, -0.1781106117687, 0.93449635161287, 0.30820963449835],
      "ImagePositionPatient": [-586.47607594146, -790.29697014062, -286.02646503989],
      "ImageType": [
        "ORIGINAL",
        "PRIMARY",
        "M",
        "ND",
        "NORM",
        "MOSAIC"
],
      "ImagedNucleus": "1H",
      "ImagingFrequency": 123.252414,
      "InPlanePhaseEncodingDirection": "COL",
      "MRAcquisitionType": "2D",
      "MagneticFieldStrength": 3.0,
      "Manufacturer": "SIEMENS",
      "ManufacturerModelName": "Prisma",
      "Modality": "MR",
      "NumberOfAverages": 1.0,
      "NumberOfPhaseEncodingSteps": 79,
      "PercentPhaseFieldOfView": 100.0,
      "PercentSampling": 100.0,
      "PerformedProcedureStepStartTime": "091601.650000",
      "PhotometricInterpretation": "MONOCHROME2",
      "PixelBandwidth": 2315.0,
      "PixelRepresentation": 0,
      "PixelSpacing": [3.0, 3.0],
      "ProtocolName": "func-bold_task-rest_acq-p2-s4-3.5mm",
      "RepetitionTime": 2000.0,
      "Rows": 480,
      "SAR": 0.02093996355738,
      "SamplesPerPixel": 1,
      "ScanOptions": "FS",
      "ScanningSequence": "EP",
      "SequenceName": "*epfid2d1_80",
      "SequenceVariant": "SK",
      "SeriesDescription": "func-bold_task-rest_acq-p2-s4-3.5mm",
      "SeriesNumber": 7,
      "SeriesTime": "093233.369000",
      "SliceLocation": -56.926915981218,
      "SliceThickness": 3.5,
      "SmallestImagePixelValue": 0,
      "SoftwareVersions": "syngo MR E11",
      "SpacingBetweenSlices": 3.9900000403203,
      "SpecificCharacterSet": "ISO_IR 100",
      "StudyID": "9",
      "StudyTime": "091601.574000",
      "TransmitCoilName": "Body",
      "VariableFlipAngleFlag": "N",
      "WindowCenter": 916.0,
      "WindowCenterWidthExplanation": "Algo1",
      "dBdt": 0.0},
    "slices": {}
  },
  "time": {
    "samples": {
      "AcquisitionNumber": [1, 2, 3, 4, 5, 6, 7, 8, 9, 10, 11, 12, 13, 14, 15, 16, 17, 18, 19, 20, 21, 22, 23, 24, 25, 26, 27, 28, 29, 30, 31, 32, 33, 34, 35, 36, 37, 38, 39, 40, 41, 42, 43, 44, 45, 46, 47, 48, 49, 50, 51, 52, 53, 54, 55, 56, 57, 58, 59, 60, 61, 62, 63, 64, 65, 66, 67, 68, 69, 70, 71, 72, 73, 74, 75, 76, 77, 78, 79, 80, 81, 82, 83, 84, 85, 86, 87, 88, 89, 90, 91, 92, 93, 94, 95, 96, 97, 98, 99, 100, 101, 102, 103, 104, 105, 106, 107, 108, 109, 110, 111, 112, 113, 114, 115, 116, 117, 118, 119, 120, 121, 122, 123, 124, 125, 126, 127, 128, 129, 130, 131, 132, 133, 134, 135, 136, 137, 138, 139, 140, 141, 142, 143, 144, 145, 146, 147, 148, 149, 150, 151, 152, 153, 154, 155, 156, 157, 158, 159, 160, 161, 162, 163, 164, 165, 166, 167, 168, 169, 170, 171, 172, 173, 174, 175, 176, 177, 178, 179, 180, 181, 182, 183, 184, 185, 186, 187, 188, 189, 190, 191, 192, 193, 194, 195, 196, 197, 198, 199, 200],
      "AcquisitionTime": ["093141.155000", "093143.155000", "093145.155000", "093147.155000", "093149.155000", "093151.155000", "093153.155000", "093155.155000", "093157.155000", "093159.155000", "093201.155000", "093203.155000", "093205.155000", "093207.155000", "093209.155000", "093211.155000", "093213.155000", "093215.155000", "093217.155000", "093219.155000", "093221.155000", "093223.155000", "093225.155000", "093227.155000", "093229.155000", "093231.155000", "093233.155000", "093235.155000", "093237.155000", "093239.155000", "093241.155000", "093243.155000", "093245.155000", "093247.155000", "093249.155000", "093251.155000", "093253.155000", "093255.155000", "093257.155000", "093259.155000", "093301.155000", "093303.155000", "093305.155000", "093307.155000", "093309.155000", "093311.155000", "093313.155000", "093315.155000", "093317.155000", "093319.155000", "093321.155000", "093323.155000", "093325.155000", "093327.155000", "093329.155000", "093331.155000", "093333.155000", "093335.155000", "093337.155000", "093339.155000", "093341.155000", "093343.155000", "093345.155000", "093347.155000", "093349.155000", "093351.155000", "093353.155000", "093355.155000", "093357.155000", "093359.155000", "093401.155000", "093403.155000", "093405.155000", "093407.155000", "093409.155000", "093411.155000", "093413.155000", "093415.155000", "093417.155000", "093419.155000", "093421.155000", "093423.155000", "093425.155000", "093427.155000", "093429.155000", "093431.155000", "093433.155000", "093435.155000", "093437.155000", "093439.155000", "093441.155000", "093443.155000", "093445.155000", "093447.155000", "093449.155000", "093451.155000", "093453.155000", "093455.155000", "093457.155000", "093459.155000", "093501.155000", "093503.155000", "093505.155000", "093507.155000", "093509.155000", "093511.155000", "093513.155000", "093515.155000", "093517.155000", "093519.155000", "093521.155000", "093523.155000", "093525.155000", "093527.155000", "093529.155000", "093531.155000", "093533.155000", "093535.155000", "093537.155000", "093539.155000", "093541.155000", "093543.155000", "093545.155000", "093547.155000", "093549.155000", "093551.155000", "093553.155000", "093555.155000", "093557.155000", "093559.155000", "093601.155000", "093603.155000", "093605.155000", "093607.155000", "093609.155000", "093611.155000", "093613.155000", "093615.155000", "093617.155000", "093619.155000", "093621.155000", "093623.155000", "093625.155000", "093627.155000", "093629.155000", "093631.155000", "093633.155000", "093635.155000", "093637.155000", "093639.155000", "093641.155000", "093643.155000", "093645.155000", "093647.155000", "093649.155000", "093651.155000", "093653.155000", "093655.155000", "093657.155000", "093659.155000", "093701.155000", "093703.155000", "093705.155000", "093707.155000", "093709.155000", "093711.155000", "093713.155000", "093715.155000", "093717.155000", "093719.155000", "093721.155000", "093723.155000", "093725.155000", "093727.155000", "093729.155000", "093731.155000", "093733.155000", "093735.155000", "093737.155000", "093739.155000", "093741.155000", "093743.155000", "093745.155000", "093747.155000", "093749.155000", "093751.155000", "093753.155000", "093755.155000", "093757.155000", "093759.155000", "093801.155000", "093803.155000", "093805.155000", "093807.155000", "093809.155000", "093811.155000", "093813.155000", "093815.155000", "093817.155000", "093819.155000"],
      "ContentTime": ["093233.372000", "093233.376000", "093233.378000", "093233.381000", "093233.384000", "093233.396000", "093233.401000", "093233.404000", "093233.406000", "093233.409000", "093233.411000", "093233.414000", "093233.416000", "093233.428000", "093233.430000", "093233.433000", "093233.436000", "093233.438000", "093233.441000", "093233.443000", "093233.446000", "093233.448000", "093233.451000", "093233.461000", "093233.463000", "093233.465000", "093313.367000", "093313.370000", "093313.373000", "093313.375000", "093313.378000", "093313.380000", "093313.383000", "093313.385000", "093313.388000", "093313.390000", "093313.393000", "093313.396000", "093313.398000", "093313.411000", "093313.413000", "093313.416000", "093313.418000", "093313.421000", "093313.423000", "093313.426000", "093353.368000", "093353.371000", "093353.374000", "093353.376000", "093353.379000", "093353.382000", "093353.384000", "093353.387000", "093353.389000", "093353.392000", "093353.394000", "093353.397000", "093353.400000", "093353.402000", "093353.405000", "093353.407000", "093353.410000", "093353.412000", "093353.415000", "093353.417000", "093433.368000", "093433.371000", "093433.374000", "093433.376000", "093433.379000", "093433.382000", "093433.384000", "093433.387000", "093433.389000", "093433.392000", "093433.394000", "093433.397000", "093433.400000", "093433.402000", "093433.405000", "093433.407000", "093433.410000", "093433.412000", "093433.415000", "093433.417000", "093513.368000", "093513.370000", "093513.373000", "093513.376000", "093513.378000", "093513.381000", "093513.383000", "093513.386000", "093513.388000", "093513.391000", "093513.394000", "093513.396000", "093513.399000", "093513.401000", "093513.404000", "093513.406000", "093513.409000", "093513.411000", "093513.414000", "093513.416000", "093553.367000", "093553.370000", "093553.373000", "093553.375000", "093553.378000", "093553.380000", "093553.383000", "093553.385000", "093553.388000", "093553.390000", "093553.393000", "093553.395000", "093553.398000", "093553.400000", "093553.403000", "093553.405000", "093553.408000", "093553.410000", "093553.413000", "093553.415000", "093633.369000", "093633.371000", "093633.374000", "093633.377000", "093633.379000", "093633.382000", "093633.384000", "093633.387000", "093633.389000", "093633.392000", "093633.394000", "093633.397000", "093633.399000", "093633.402000", "093633.404000", "093633.407000", "093633.409000", "093633.412000", "093633.414000", "093633.417000", "093713.368000", "093713.370000", "093713.373000", "093713.376000", "093713.378000", "093713.381000", "093713.383000", "093713.386000", "093713.388000", "093713.391000", "093713.393000", "093713.396000", "093713.398000", "093713.401000", "093713.403000", "093713.406000", "093713.408000", "093713.411000", "093713.413000", "093713.416000", "093753.367000", "093753.370000", "093753.373000", "093753.375000", "093753.378000", "093753.380000", "093753.383000", "093753.386000", "093753.392000", "093753.395000", "093753.397000", "093753.400000", "093753.402000", "093753.405000", "093753.407000", "093753.410000", "093753.412000", "093753.415000", "093753.417000", "093753.420000", "093819.863000", "093819.866000", "093819.868000", "093819.871000", "093819.873000", "093819.891000", "093819.895000", "093819.902000", "093819.905000", "093819.910000", "093819.913000", "093819.917000", "093819.920000", "093819.923000"],
      "InstanceCreationTime": ["093233.372000", "093233.376000", "093233.378000", "093233.381000", "093233.384000", "093233.396000", "093233.401000", "093233.404000", "093233.406000", "093233.409000", "093233.411000", "093233.414000", "093233.416000", "093233.428000", "093233.430000", "093233.433000", "093233.436000", "093233.438000", "093233.441000", "093233.443000", "093233.446000", "093233.448000", "093233.451000", "093233.461000", "093233.463000", "093233.465000", "093313.367000", "093313.370000", "093313.373000", "093313.375000", "093313.378000", "093313.380000", "093313.383000", "093313.385000", "093313.388000", "093313.390000", "093313.393000", "093313.396000", "093313.398000", "093313.411000", "093313.413000", "093313.416000", "093313.418000", "093313.421000", "093313.423000", "093313.426000", "093353.368000", "093353.371000", "093353.374000", "093353.376000", "093353.379000", "093353.382000", "093353.384000", "093353.387000", "093353.389000", "093353.392000", "093353.394000", "093353.397000", "093353.400000", "093353.402000", "093353.405000", "093353.407000", "093353.410000", "093353.412000", "093353.415000", "093353.417000", "093433.368000", "093433.371000", "093433.374000", "093433.376000", "093433.379000", "093433.382000", "093433.384000", "093433.387000", "093433.389000", "093433.392000", "093433.394000", "093433.397000", "093433.400000", "093433.402000", "093433.405000", "093433.407000", "093433.410000", "093433.412000", "093433.415000", "093433.417000", "093513.368000", "093513.370000", "093513.373000", "093513.376000", "093513.378000", "093513.381000", "093513.383000", "093513.386000", "093513.388000", "093513.391000", "093513.394000", "093513.396000", "093513.399000", "093513.401000", "093513.404000", "093513.406000", "093513.409000", "093513.411000", "093513.414000", "093513.416000", "093553.367000", "093553.370000", "093553.373000", "093553.375000", "093553.378000", "093553.380000", "093553.383000", "093553.385000", "093553.388000", "093553.390000", "093553.393000", "093553.395000", "093553.398000", "093553.400000", "093553.403000", "093553.405000", "093553.408000", "093553.410000", "093553.413000", "093553.415000", "093633.369000", "093633.371000", "093633.374000", "093633.377000", "093633.379000", "093633.382000", "093633.384000", "093633.387000", "093633.389000", "093633.392000", "093633.394000", "093633.397000", "093633.399000", "093633.402000", "093633.404000", "093633.407000", "093633.409000", "093633.412000", "093633.414000", "093633.417000", "093713.368000", "093713.370000", "093713.373000", "093713.376000", "093713.378000", "093713.381000", "093713.383000", "093713.386000", "093713.388000", "093713.391000", "093713.393000", "093713.396000", "093713.398000", "093713.401000", "093713.403000", "093713.406000", "093713.408000", "093713.411000", "093713.413000", "093713.416000", "093753.367000", "093753.370000", "093753.373000", "093753.375000", "093753.378000", "093753.380000", "093753.383000", "093753.386000", "093753.392000", "093753.395000", "093753.397000", "093753.400000", "093753.402000", "093753.405000", "093753.407000", "093753.410000", "093753.412000", "093753.415000", "093753.417000", "093753.420000", "093819.863000", "093819.866000", "093819.868000", "093819.871000", "093819.873000", "093819.891000", "093819.895000", "093819.902000", "093819.905000", "093819.910000", "093819.913000", "093819.917000", "093819.920000", "093819.923000"],
      "InstanceNumber": [1, 2, 3, 4, 5, 6, 7, 8, 9, 10, 11, 12, 13, 14, 15, 16, 17, 18, 19, 20, 21, 22, 23, 24, 25, 26, 27, 28, 29, 30, 31, 32, 33, 34, 35, 36, 37, 38, 39, 40, 41, 42, 43, 44, 45, 46, 47, 48, 49, 50, 51, 52, 53, 54, 55, 56, 57, 58, 59, 60, 61, 62, 63, 64, 65, 66, 67, 68, 69, 70, 71, 72, 73, 74, 75, 76, 77, 78, 79, 80, 81, 82, 83, 84, 85, 86, 87, 88, 89, 90, 91, 92, 93, 94, 95, 96, 97, 98, 99, 100, 101, 102, 103, 104, 105, 106, 107, 108, 109, 110, 111, 112, 113, 114, 115, 116, 117, 118, 119, 120, 121, 122, 123, 124, 125, 126, 127, 128, 129, 130, 131, 132, 133, 134, 135, 136, 137, 138, 139, 140, 141, 142, 143, 144, 145, 146, 147, 148, 149, 150, 151, 152, 153, 154, 155, 156, 157, 158, 159, 160, 161, 162, 163, 164, 165, 166, 167, 168, 169, 170, 171, 172, 173, 174, 175, 176, 177, 178, 179, 180, 181, 182, 183, 184, 185, 186, 187, 188, 189, 190, 191, 192, 193, 194, 195, 196, 197, 198, 199, 200],
      "LargestImagePixelValue": [2060, 2063, 2059, 2064, 2064, 2063, 2063, 2067, 2064, 2064, 2063, 2062, 2063, 2065, 2069, 2069, 2071, 2069, 2066, 2070, 2061, 2059, 2068, 2067, 2062, 2062, 2069, 2063, 2064, 2065, 2061, 2062, 2061, 2061, 2064, 2064, 2065, 2067, 2068, 2064, 2064, 2067, 2063, 2062, 2068, 2064, 2067, 2063, 2066, 2068, 2069, 2066, 2064, 2064, 2064, 2067, 2068, 2063, 2063, 2066, 2071, 2071, 2066, 2073, 2071, 2072, 2069, 2069, 2066, 2067, 2066, 2065, 2070, 2069, 2064, 2066, 2066, 2060, 2066, 2071, 2068, 2068, 2067, 2065, 2068, 2066, 2068, 2068, 2072, 2067, 2076, 2070, 2071, 2069, 2073, 2074, 2070, 2073, 2071, 2069, 2067, 2069, 2068, 2064, 2068, 2069, 2069, 2070, 2073, 2069, 2066, 2067, 2067, 2065, 2067, 2068, 2067, 2071, 2070, 2069, 2073, 2069, 2072, 2071, 2067, 2070, 2072, 2068, 2066, 2066, 2068, 2065, 2070, 2070, 2072, 2074, 2070, 2070, 2071, 2068, 2071, 2076, 2077, 2070, 2070, 2070, 2074, 2072, 2071, 2070, 2065, 2069, 2070, 2066, 2069, 2071, 2068, 2071, 2073, 2069, 2067, 2073, 2073, 2068, 2075, 2069, 2072, 2072, 2070, 2067, 2070, 2071, 2074, 2068, 2069, 2071, 2071, 2068, 2067, 2068, 2072, 2067, 2074, 2070, 2066, 2069, 2068, 2066, 2068, 2071, 2069, 2071, 2067, 2072, 2071, 2075, 2072, 2067, 2069, 2069],
      "WindowWidth": [2080.0, 2080.0, 2080.0, 2080.0, 2080.0, 2080.0, 2080.0, 2080.0, 2080.0, 2080.0, 2080.0, 2080.0, 2080.0, 2080.0, 2080.0, 2080.0, 2080.0, 2080.0, 2080.0, 2080.0, 2080.0, 2080.0, 2080.0, 2080.0, 2080.0, 2080.0, 2080.0, 2080.0, 2080.0, 2080.0, 2080.0, 2080.0, 2080.0, 2080.0, 2080.0, 2080.0, 2080.0, 2080.0, 2080.0, 2080.0, 2080.0, 2080.0, 2080.0, 2080.0, 2080.0, 2080.0, 2080.0, 2080.0, 2080.0, 2080.0, 2080.0, 2080.0, 2080.0, 2080.0, 2080.0, 2081.0, 2080.0, 2080.0, 2080.0, 2080.0, 2080.0, 2080.0, 2080.0, 2080.0, 2080.0, 2081.0, 2080.0, 2080.0, 2080.0, 2080.0, 2080.0, 2080.0, 2081.0, 2080.0, 2080.0, 2080.0, 2080.0, 2080.0, 2080.0, 2080.0, 2080.0, 2080.0, 2080.0, 2080.0, 2080.0, 2080.0, 2080.0, 2080.0, 2080.0, 2080.0, 2080.0, 2080.0, 2080.0, 2080.0, 2080.0, 2080.0, 2080.0, 2081.0, 2080.0, 2080.0, 2080.0, 2080.0, 2080.0, 2080.0, 2080.0, 2080.0, 2080.0, 2080.0, 2080.0, 2080.0, 2080.0, 2080.0, 2080.0, 2080.0, 2080.0, 2080.0, 2080.0, 2080.0, 2080.0, 2080.0, 2080.0, 2080.0, 2080.0, 2080.0, 2080.0, 2080.0, 2080.0, 2080.0, 2080.0, 2080.0, 2080.0, 2080.0, 2081.0, 2080.0, 2080.0, 2080.0, 2080.0, 2080.0, 2080.0, 2080.0, 2080.0, 2080.0, 2080.0, 2080.0, 2080.0, 2080.0, 2080.0, 2080.0, 2080.0, 2080.0, 2080.0, 2080.0, 2080.0, 2080.0, 2080.0, 2080.0, 2080.0, 2080.0, 2080.0, 2080.0, 2080.0, 2080.0, 2080.0, 2080.0, 2080.0, 2080.0, 2080.0, 2080.0, 2080.0, 2080.0, 2080.0, 2080.0, 2080.0, 2080.0, 2080.0, 2080.0, 2080.0, 2080.0, 2080.0, 2080.0, 2080.0, 2080.0, 2080.0, 2080.0, 2080.0, 2080.0, 2080.0, 2080.0, 2080.0, 2080.0, 2080.0, 2080.0, 2080.0, 2080.0, 2080.0, 2080.0, 2080.0, 2080.0, 2080.0, 2080.0]
    },
    "slices": {}
  }
}