{
  "AcquisitionMatrixPE": 122,
  "AcquisitionNumber": 1,
  "AcquisitionTime": "10:08:22.532500",
  "BandwidthPerPixelPhaseEncode": 28.76,
  "BaseResolution": 122,
  "BodyPartExamined": "BRAIN",
  "CoilCombinationMethod": "Adaptive Combine",
  "ConsistencyInfo": "N4_VE11C_LATEST_20160120",
  "ConversionSoftware": "dcm2niix",
  "ConversionSoftwareVersion": "v1.0.20220720",
  "DerivedVendorReportedEchoSpacing": 0.000570008,
  "DeviceSerialNumber": "66112",
  "DiffusionScheme": "Monopolar",
  "DwellTime": 2e-06,
  "EchoTime": 0.075,
  "EchoTrainLength": 61,
  "EffectiveEchoSpacing": 0.000285004,
  "FlipAngle": 90,
  "HeudiconvVersion": "0.13.1",
  "ImageOrientationPatientDICOM": [0.980083, -0.198584, 0.000974884, 0.189267, 0.935565, 0.298156],
  "ImageOrientationText": "Tra>Cor(17.0)>Sag(3.4)",
  "ImageType": [
    "ORIGINAL",
    "PRIMARY",
    "DIFFUSION",
    "NONE",
    "ND",
    "NORM"
],
  "ImagingFrequency": 123.253,
  "InPlanePhaseEncodingDirectionDICOM": "COL",
  "InstitutionAddress": "Maynard 3,Hanover,NH,US,03755",
  "InstitutionName": "Dartmouth College - PBS",
  "InstitutionalDepartmentName": "Department",
  "MRAcquisitionType": "2D",
  "MagneticFieldStrength": 3,
  "Manufacturer": "Siemens",
  "ManufacturersModelName": "Prisma",
  "MatrixCoilMode": "GRAPPA",
  "Modality": "MR",
  "NonlinearGradientCorrection": false,
  "ParallelReductionFactorInPlane": 2,
  "PartialFourier": 1,
  "PatientPosition": "HFS",
  "PercentPhaseFOV": 100,
  "PercentSampling": 100,
  "PhaseEncodingDirection": "j-",
  "PhaseEncodingSteps": 122,
  "PhaseResolution": 1,
  "PixelBandwidth": 2050,
  "ProcedureStepDescription": "dbic^QA",
  "ProtocolName": "dwi_acq-DTI-30-p2",
  "PulseSequenceDetails": "%SiemensSeq%\\ep2d_diff",
  "ReceiveCoilActiveElements": "HEA;HEP",
  "ReceiveCoilName": "Head_32",
  "ReconMatrixPE": 122,
  "RefLinesPE": 38,
  "RepetitionTime": 7.7,
  "SAR": 0.0876844,
  "ScanOptions": "FS",
  "ScanningSequence": "EP",
  "SequenceName": "*ep_b0",
  "SequenceVariant": "SK\\SP",
  "SeriesDescription": "dwi_acq-DTI-30-p2",
  "SeriesNumber": 8,
  "ShimSetting": [4145, -7690, -7518, 267, -99, -211, -27, 99],
  "SliceThickness": 2,
  "SliceTiming": [3.83594, 0, 3.94531, 0.10938, 4.05469, 0.21875, 4.16406, 0.32812, 4.27344, 0.4375, 4.39062, 0.54688, 4.5, 0.65625, 4.60156, 0.76562, 4.71094, 0.875, 4.82812, 0.98438, 4.9375, 1.09375, 5.04688, 1.20312, 5.15625, 1.3125, 5.26562, 1.42188, 5.375, 1.53125, 5.48438, 1.64844, 5.59375, 1.75, 5.70312, 1.85938, 5.8125, 1.96875, 5.92188, 2.08594, 6.03125, 2.19531, 6.14062, 2.30469, 6.25, 2.41406, 6.35938, 2.52344, 6.46875, 2.63281, 6.57812, 2.74219, 6.6875, 2.85156, 6.79688, 2.96094, 6.90625, 3.07031, 7.02344, 3.17969, 7.13281, 3.28906, 7.24219, 3.39844, 7.34375, 3.50781, 7.46094, 3.61719, 7.57031, 3.72656],
  "SoftwareVersions": "syngo MR E11",
  "SpacingBetweenSlices": 2,
  "SpoilingState": true,
  "StationName": "AWP66112",
  "TotalReadoutTime": 0.0344855,
  "TxRefAmp": 230.304,
  "dcmmeta_affine": [
    [-1.9280331134796143, 0.37232765555381775, 0.12024188041687012, 85.29810333251953],
    [0.39065608382225037, 1.8404549360275269, 0.5840663909912109, -145.06680297851562],
    [0.001917805289849639, -0.5865367650985718, 1.9090347290039062, -44.53998947143555],
    [0.0, 0.0, 0.0, 1.0]
],
  "dcmmeta_reorient_transform": [
    [0.0, -1.0, 0.0, 121.0],
    [1.0, 0.0, 0.0, 0.0],
    [0.0, 0.0, -1.0, 69.0],
    [0.0, 0.0, 0.0, 1.0]
],
  "dcmmeta_shape": [122, 122, 70, 31],
  "dcmmeta_slice_dim": 2,
  "dcmmeta_version": 0.6,
  "global": {
    "const": {
      "AccessionNumber": "qa",
      "AcquisitionMatrix": [122, 0, 0, 122],
      "AngioFlag": "N",
      "BitsAllocated": 16,
      "BitsStored": 12,
      "BodyPartExamined": "BRAIN",
      "Columns": 122,
      "EchoNumbers": 1,
      "EchoTime": 75.0,
      "EchoTrainLength": 61,
      "FlipAngle": 90.0,
      "HighBit": 11,
      "ImageOrientationPatient": [0.98008348561315, -0.1985835109693, 0.0009748843426, 0.18926655932164, 0.93556456954292, 0.29815617675729],
      "ImageType": [
        "ORIGINAL",
        "PRIMARY",
        "DIFFUSION",
        "NONE",
        "ND",
        "NORM"
],
      "ImagedNucleus": "1H",
      "ImagingFrequency": 123.252514,
      "InPlanePhaseEncodingDirection": "COL",
      "MRAcquisitionType": "2D",
      "MagneticFieldStrength": 3.0,
      "Manufacturer": "SIEMENS",
      "ManufacturerModelName": "Prisma",
      "Modality": "MR",
      "NumberOfAverages": 1.0,
      "NumberOfPhaseEncodingSteps": 122,
      "PercentPhaseFieldOfView": 100.0,
      "PercentSampling": 100.0,
      "PerformedProcedureStepStartTime": "093416.750000",
      "PhotometricInterpretation": "MONOCHROME2",
      "PixelBandwidth": 2050.0,
      "PixelRepresentation": 0,
      "PixelSpacing": [1.9672131538391, 1.9672131538391],
      "ProtocolName": "dwi_acq-DTI-30-p2",
      "RepetitionTime": 7700.0,
      "Rows": 122,
      "SAR": 0.08768441709891,
      "SamplesPerPixel": 1,
      "ScanOptions": "FS",
      "ScanningSequence": "EP",
      "SequenceVariant": [
        "SK",
        "SP"
],
      "SeriesDescription": "dwi_acq-DTI-30-p2",
      "SeriesNumber": 8,
      "SeriesTime": "100832.073000",
      "SliceThickness": 2.0,
      "SmallestImagePixelValue": 0,
      "SoftwareVersions": "syngo MR E11",
      "SpacingBetweenSlices": 2.0,
      "SpecificCharacterSet": "ISO_IR 100",
      "StudyID": "64",
      "StudyTime": "093416.691000",
      "TransmitCoilName": "Body",
      "VariableFlipAngleFlag": "N",
      "WindowCenterWidthExplanation": "Algo1",
      "dBdt": 0.0},
    "slices": {
      "AcquisitionTime": ["100822.532500", "100818.692500", "100822.642500", "100818.802500", "100822.752500", "100818.912500", "100822.862500", "100819.022500", "100822.972500", "100819.132500", "100823.082500", "100819.242500", "100823.192500", "100819.352500", "100823.300000", "100819.460000", "100823.410000", "100819.570000", "100823.520000", "100819.680000", "100823.630000", "100819.790000", "100823.740000", "100819.900000", "100823.850000", "100820.010000", "100823.960000", "100820.120000", "100824.070000", "100820.230000", "100824.177500", "100820.340000", "100824.287500", "100820.447500", "100824.397500", "100820.557500", "100824.507500", "100820.667500", "100824.617500", "100820.777500", "100824.727500", "100820.887500", "100824.837500", "100820.997500", "100824.947500", "100821.107500", "100825.057500", "100821.217500", "100825.165000", "100821.325000", "100825.275000", "100821.435000", "100825.385000", "100821.545000", "100825.495000", "100821.655000", "100825.605000", "100821.765000", "100825.715000", "100821.875000", "100825.825000", "100821.985000", "100825.935000", "100822.095000", "100826.042500", "100822.205000", "100826.152500", "100822.312500", "100826.262500", "100822.422500", "100830.232500", "100826.392500", "100830.342500", "100826.502500", "100830.452500", "100826.612500", "100830.562500", "100826.722500", "100830.672500", "100826.832500", "100830.782500", "100826.942500", "100830.892500", "100827.052500", "100831.000000", "100827.160000", "100831.110000", "100827.270000", "100831.220000", "100827.380000", "100831.330000", "100827.490000", "100831.440000", "100827.600000", "100831.550000", "100827.710000", "100831.660000", "100827.820000", "100831.770000", "100827.930000", "100831.877500", "100828.040000", "100831.987500", "100828.147500", "100832.097500", "100828.257500", "100832.207500", "100828.367500", "100832.317500", "100828.477500", "100832.427500", "100828.587500", "100832.537500", "100828.697500", "100832.647500", "100828.807500", "100832.757500", "100828.917500", "100832.865000", "100829.025000", "100832.975000", "100829.135000", "100833.085000", "100829.245000", "100833.195000", "100829.355000", "100833.305000", "100829.465000", "100833.415000", "100829.575000", "100833.525000", "100829.685000", "100833.635000", "100829.795000", "100833.742500", "100829.905000", "100833.852500", "100830.012500", "100833.962500", "100830.122500", "100837.932500", "100834.092500", "100838.042500", "100834.202500", "100838.152500", "100834.312500", "100838.262500", "100834.422500", "100838.372500", "100834.532500", "100838.482500", "100834.642500", "100838.592500", "100834.752500", "100838.700000", "100834.860000", "100838.810000", "100834.970000", "100838.920000", "100835.080000", "100839.030000", "100835.190000", "100839.140000", "100835.300000", "100839.250000", "100835.410000", "100839.360000", "100835.520000", "100839.470000", "100835.630000", "100839.577500", "100835.740000", "100839.687500", "100835.847500", "100839.797500", "100835.957500", "100839.907500", "100836.067500", "100840.017500", "100836.177500", "100840.127500", "100836.287500", "100840.237500", "100836.397500", "100840.347500", "100836.507500", "100840.457500", "100836.617500", "100840.565000", "100836.725000", "100840.675000", "100836.835000", "100840.785000", "100836.945000", "100840.895000", "100837.055000", "100841.005000", "100837.165000", "100841.115000", "100837.275000", "100841.225000", "100837.385000", "100841.335000", "100837.495000", "100841.442500", "100837.605000", "100841.552500", "100837.712500", "100841.662500", "100837.822500", "100845.632500", "100841.792500", "100845.742500", "100841.902500", "100845.852500", "100842.012500", "100845.962500", "100842.122500", "100846.072500", "100842.232500", "100846.182500", "100842.342500", "100846.292500", "100842.452500", "100846.400000", "100842.560000", "100846.510000", "100842.670000", "100846.620000", "100842.780000", "100846.730000", "100842.890000", "100846.840000", "100843.000000", "100846.950000", "100843.110000", "100847.060000", "100843.220000", "100847.170000", "100843.330000", "100847.277500", "100843.440000", "100847.387500", "100843.547500", "100847.497500", "100843.657500", "100847.607500", "100843.767500", "100847.717500", "100843.877500", "100847.827500", "100843.987500", "100847.937500", "100844.097500", "100848.047500", "100844.207500", "100848.157500", "100844.317500", "100848.265000", "100844.425000", "100848.375000", "100844.535000", "100848.485000", "100844.645000", "100848.595000", "100844.755000", "100848.705000", "100844.865000", "100848.815000", "100844.975000", "100848.925000", "100845.085000", "100849.035000", "100845.195000", "100849.142500", "100845.305000", "100849.252500", "100845.412500", "100849.362500", "100845.522500", "100853.332500", "100849.492500", "100853.442500", "100849.602500", "100853.552500", "100849.712500", "100853.662500", "100849.822500", "100853.772500", "100849.932500", "100853.882500", "100850.042500", "100853.992500", "100850.152500", "100854.100000", "100850.260000", "100854.210000", "100850.370000", "100854.320000", "100850.480000", "100854.430000", "100850.590000", "100854.540000", "100850.700000", "100854.650000", "100850.810000", "100854.760000", "100850.920000", "100854.870000", "100851.030000", "100854.977500", "100851.140000", "100855.087500", "100851.247500", "100855.197500", "100851.357500", "100855.307500", "100851.467500", "100855.417500", "100851.577500", "100855.527500", "100851.687500", "100855.637500", "100851.797500", "100855.747500", "100851.907500", "100855.857500", "100852.017500", "100855.965000", "100852.125000", "100856.075000", "100852.235000", "100856.185000", "100852.345000", "100856.295000", "100852.455000", "100856.405000", "100852.565000", "100856.515000", "100852.675000", "100856.625000", "100852.785000", "100856.735000", "100852.895000", "100856.842500", "100853.005000", "100856.952500", "100853.112500", "100857.062500", "100853.222500", "100901.032500", "100857.192500", "100901.142500", "100857.302500", "100901.252500", "100857.412500", "100901.362500", "100857.522500", "100901.472500", "100857.632500", "100901.582500", "100857.742500", "100901.692500", "100857.852500", "100901.800000", "100857.960000", "100901.910000", "100858.070000", "100902.020000", "100858.180000", "100902.130000", "100858.290000", "100902.240000", "100858.400000", "100902.350000", "100858.510000", "100902.460000", "100858.620000", "100902.570000", "100858.730000", "100902.677500", "100858.840000", "100902.787500", "100858.947500", "100902.897500", "100859.057500", "100903.007500", "100859.167500", "100903.117500", "100859.277500", "100903.227500", "100859.387500", "100903.337500", "100859.497500", "100903.447500", "100859.607500", "100903.557500", "100859.717500", "100903.665000", "100859.825000", "100903.775000", "100859.935000", "100903.885000", "100900.045000", "100903.995000", "100900.155000", "100904.105000", "100900.265000", "100904.215000", "100900.375000", "100904.325000", "100900.485000", "100904.435000", "100900.595000", "100904.542500", "100900.705000", "100904.652500", "100900.812500", "100904.762500", "100900.922500", "100908.732500", "100904.892500", "100908.842500", "100905.002500", "100908.952500", "100905.112500", "100909.062500", "100905.222500", "100909.172500", "100905.332500", "100909.282500", "100905.442500", "100909.392500", "100905.552500", "100909.500000", "100905.660000", "100909.610000", "100905.770000", "100909.720000", "100905.880000", "100909.830000", "100905.990000", "100909.940000", "100906.100000", "100910.050000", "100906.210000", "100910.160000", "100906.320000", "100910.270000", "100906.430000", "100910.377500", "100906.540000", "100910.487500", "100906.647500", "100910.597500", "100906.757500", "100910.707500", "100906.867500", "100910.817500", "100906.977500", "100910.927500", "100907.087500", "100911.037500", "100907.197500", "100911.147500", "100907.307500", "100911.257500", "100907.417500", "100911.365000", "100907.525000", "100911.475000", "100907.635000", "100911.585000", "100907.745000", "100911.695000", "100907.855000", "100911.805000", "100907.965000", "100911.915000", "100908.075000", "100912.025000", "100908.185000", "100912.135000", "100908.295000", "100912.242500", "100908.405000", "100912.352500", "100908.512500", "100912.462500", "100908.622500", "100916.432500", "100912.592500", "100916.542500", "100912.702500", "100916.652500", "100912.812500", "100916.762500", "100912.922500", "100916.872500", "100913.032500", "100916.982500", "100913.142500", "100917.092500", "100913.252500", "100917.200000", "100913.360000", "100917.310000", "100913.470000", "100917.420000", "100913.580000", "100917.530000", "100913.690000", "100917.640000", "100913.800000", "100917.750000", "100913.910000", "100917.860000", "100914.020000", "100917.970000", "100914.130000", "100918.077500", "100914.240000", "100918.187500", "100914.347500", "100918.297500", "100914.457500", "100918.407500", "100914.567500", "100918.517500", "100914.677500", "100918.627500", "100914.787500", "100918.737500", "100914.897500", "100918.847500", "100915.007500", "100918.957500", "100915.117500", "100919.065000", "100915.225000", "100919.175000", "100915.335000", "100919.285000", "100915.445000", "100919.395000", "100915.555000", "100919.505000", "100915.665000", "100919.615000", "100915.775000", "100919.725000", "100915.885000", "100919.835000", "100915.995000", "100919.942500", "100916.105000", "100920.052500", "100916.212500", "100920.162500", "100916.322500", "100924.132500", "100920.292500", "100924.242500", "100920.402500", "100924.352500", "100920.512500", "100924.462500", "100920.622500", "100924.572500", "100920.732500", "100924.682500", "100920.842500", "100924.792500", "100920.952500", "100924.900000", "100921.060000", "100925.010000", "100921.170000", "100925.120000", "100921.280000", "100925.230000", "100921.390000", "100925.340000", "100921.500000", "100925.450000", "100921.610000", "100925.560000", "100921.720000", "100925.670000", "100921.830000", "100925.777500", "100921.940000", "100925.887500", "100922.047500", "100925.997500", "100922.157500", "100926.107500", "100922.267500", "100926.217500", "100922.377500", "100926.327500", "100922.487500", "100926.437500", "100922.597500", "100926.547500", "100922.707500", "100926.657500", "100922.817500", "100926.765000", "100922.925000", "100926.875000", "100923.035000", "100926.985000", "100923.145000", "100927.095000", "100923.255000", "100927.205000", "100923.365000", "100927.315000", "100923.475000", "100927.425000", "100923.585000", "100927.535000", "100923.695000", "100927.642500", "100923.805000", "100927.752500", "100923.912500", "100927.862500", "100924.022500", "100931.832500", "100927.992500", "100931.942500", "100928.102500", "100932.052500", "100928.212500", "100932.162500", "100928.322500", "100932.272500", "100928.432500", "100932.382500", "100928.542500", "100932.492500", "100928.652500", "100932.600000", "100928.760000", "100932.710000", "100928.870000", "100932.820000", "100928.980000", "100932.930000", "100929.090000", "100933.040000", "100929.200000", "100933.150000", "100929.310000", "100933.260000", "100929.420000", "100933.370000", "100929.530000", "100933.477500", "100929.640000", "100933.587500", "100929.747500", "100933.697500", "100929.857500", "100933.807500", "100929.967500", "100933.917500", "100930.077500", "100934.027500", "100930.187500", "100934.137500", "100930.297500", "100934.247500", "100930.407500", "100934.357500", "100930.517500", "100934.465000", "100930.625000", "100934.575000", "100930.735000", "100934.685000", "100930.845000", "100934.795000", "100930.955000", "100934.905000", "100931.065000", "100935.015000", "100931.175000", "100935.125000", "100931.285000", "100935.235000", "100931.395000", "100935.342500", "100931.505000", "100935.452500", "100931.612500", "100935.562500", "100931.722500", "100939.532500", "100935.692500", "100939.642500", "100935.802500", "100939.752500", "100935.912500", "100939.862500", "100936.022500", "100939.972500", "100936.132500", "100940.082500", "100936.242500", "100940.192500", "100936.352500", "100940.300000", "100936.460000", "100940.410000", "100936.570000", "100940.520000", "100936.680000", "100940.630000", "100936.790000", "100940.740000", "100936.900000", "100940.850000", "100937.010000", "100940.960000", "100937.120000", "100941.070000", "100937.230000", "100941.177500", "100937.340000", "100941.287500", "100937.447500", "100941.397500", "100937.557500", "100941.507500", "100937.667500", "100941.617500", "100937.777500", "100941.727500", "100937.887500", "100941.837500", "100937.997500", "100941.947500", "100938.107500", "100942.057500", "100938.217500", "100942.165000", "100938.325000", "100942.275000", "100938.435000", "100942.385000", "100938.545000", "100942.495000", "100938.655000", "100942.605000", "100938.765000", "100942.715000", "100938.875000", "100942.825000", "100938.985000", "100942.935000", "100939.095000", "100943.042500", "100939.205000", "100943.152500", "100939.312500", "100943.262500", "100939.422500", "100947.232500", "100943.392500", "100947.342500", "100943.502500", "100947.452500", "100943.612500", "100947.562500", "100943.722500", "100947.672500", "100943.832500", "100947.782500", "100943.942500", "100947.892500", "100944.052500", "100948.000000", "100944.160000", "100948.110000", "100944.270000", "100948.220000", "100944.380000", "100948.330000", "100944.490000", "100948.440000", "100944.600000", "100948.550000", "100944.710000", "100948.660000", "100944.820000", "100948.770000", "100944.930000", "100948.877500", "100945.040000", "100948.987500", "100945.147500", "100949.097500", "100945.257500", "100949.207500", "100945.367500", "100949.317500", "100945.477500", "100949.427500", "100945.587500", "100949.537500", "100945.697500", "100949.647500", "100945.807500", "100949.757500", "100945.917500", "100949.865000", "100946.025000", "100949.975000", "100946.135000", "100950.085000", "100946.245000", "100950.195000", "100946.355000", "100950.305000", "100946.465000", "100950.415000", "100946.575000", "100950.525000", "100946.685000", "100950.635000", "100946.795000", "100950.742500", "100946.905000", "100950.852500", "100947.012500", "100950.962500", "100947.122500", "100954.932500", "100951.092500", "100955.042500", "100951.202500", "100955.152500", "100951.312500", "100955.262500", "100951.422500", "100955.372500", "100951.532500", "100955.482500", "100951.642500", "100955.592500", "100951.752500", "100955.700000", "100951.860000", "100955.810000", "100951.970000", "100955.920000", "100952.080000", "100956.030000", "100952.190000", "100956.140000", "100952.300000", "100956.250000", "100952.410000", "100956.360000", "100952.520000", "100956.470000", "100952.630000", "100956.577500", "100952.740000", "100956.687500", "100952.847500", "100956.797500", "100952.957500", "100956.907500", "100953.067500", "100957.017500", "100953.177500", "100957.127500", "100953.287500", "100957.237500", "100953.397500", "100957.347500", "100953.507500", "100957.457500", "100953.617500", "100957.565000", "100953.725000", "100957.675000", "100953.835000", "100957.785000", "100953.945000", "100957.895000", "100954.055000", "100958.005000", "100954.165000", "100958.115000", "100954.275000", "100958.225000", "100954.385000", "100958.335000", "100954.495000", "100958.442500", "100954.605000", "100958.552500", "100954.712500", "100958.662500", "100954.822500", "101002.632500", "100958.792500", "101002.742500", "100958.902500", "101002.852500", "100959.012500", "101002.962500", "100959.122500", "101003.072500", "100959.232500", "101003.182500", "100959.342500", "101003.292500", "100959.452500", "101003.400000", "100959.560000", "101003.510000", "100959.670000", "101003.620000", "100959.780000", "101003.730000", "100959.890000", "101003.840000", "101000.000000", "101003.950000", "101000.110000", "101004.060000", "101000.220000", "101004.170000", "101000.330000", "101004.277500", "101000.440000", "101004.387500", "101000.547500", "101004.497500", "101000.657500", "101004.607500", "101000.767500", "101004.717500", "101000.877500", "101004.827500", "101000.987500", "101004.937500", "101001.097500", "101005.047500", "101001.207500", "101005.157500", "101001.317500", "101005.265000", "101001.425000", "101005.375000", "101001.535000", "101005.485000", "101001.645000", "101005.595000", "101001.755000", "101005.705000", "101001.865000", "101005.815000", "101001.975000", "101005.925000", "101002.085000", "101006.035000", "101002.195000", "101006.142500", "101002.305000", "101006.252500", "101002.412500", "101006.362500", "101002.522500", "101010.332500", "101006.492500", "101010.442500", "101006.602500", "101010.552500", "101006.712500", "101010.662500", "101006.822500", "101010.772500", "101006.932500", "101010.882500", "101007.042500", "101010.992500", "101007.152500", "101011.100000", "101007.260000", "101011.210000", "101007.370000", "101011.320000", "101007.480000", "101011.430000", "101007.590000", "101011.540000", "101007.700000", "101011.650000", "101007.810000", "101011.760000", "101007.920000", "101011.870000", "101008.030000", "101011.977500", "101008.140000", "101012.087500", "101008.247500", "101012.197500", "101008.357500", "101012.307500", "101008.467500", "101012.417500", "101008.577500", "101012.527500", "101008.687500", "101012.637500", "101008.797500", "101012.747500", "101008.907500", "101012.857500", "101009.017500", "101012.965000", "101009.125000", "101013.075000", "101009.235000", "101013.185000", "101009.345000", "101013.295000", "101009.455000", "101013.405000", "101009.565000", "101013.515000", "101009.675000", "101013.625000", "101009.785000", "101013.735000", "101009.895000", "101013.842500", "101010.005000", "101013.952500", "101010.112500", "101014.062500", "101010.222500", "101018.032500", "101014.192500", "101018.142500", "101014.302500", "101018.252500", "101014.412500", "101018.362500", "101014.522500", "101018.472500", "101014.632500", "101018.582500", "101014.742500", "101018.692500", "101014.852500", "101018.800000", "101014.960000", "101018.910000", "101015.070000", "101019.020000", "101015.180000", "101019.130000", "101015.290000", "101019.240000", "101015.400000", "101019.350000", "101015.510000", "101019.460000", "101015.620000", "101019.570000", "101015.730000", "101019.677500", "101015.840000", "101019.787500", "101015.947500", "101019.897500", "101016.057500", "101020.007500", "101016.167500", "101020.117500", "101016.277500", "101020.227500", "101016.387500", "101020.337500", "101016.497500", "101020.447500", "101016.607500", "101020.557500", "101016.717500", "101020.665000", "101016.825000", "101020.775000", "101016.935000", "101020.885000", "101017.045000", "101020.995000", "101017.155000", "101021.105000", "101017.265000", "101021.215000", "101017.375000", "101021.325000", "101017.485000", "101021.435000", "101017.595000", "101021.542500", "101017.705000", "101021.652500", "101017.812500", "101021.762500", "101017.922500", "101025.732500", "101021.892500", "101025.842500", "101022.002500", "101025.952500", "101022.112500", "101026.062500", "101022.222500", "101026.172500", "101022.332500", "101026.282500", "101022.442500", "101026.392500", "101022.552500", "101026.500000", "101022.660000", "101026.610000", "101022.770000", "101026.720000", "101022.880000", "101026.830000", "101022.990000", "101026.940000", "101023.100000", "101027.050000", "101023.210000", "101027.160000", "101023.320000", "101027.270000", "101023.430000", "101027.377500", "101023.540000", "101027.487500", "101023.647500", "101027.597500", "101023.757500", "101027.707500", "101023.867500", "101027.817500", "101023.977500", "101027.927500", "101024.087500", "101028.037500", "101024.197500", "101028.147500", "101024.307500", "101028.257500", "101024.417500", "101028.365000", "101024.525000", "101028.475000", "101024.635000", "101028.585000", "101024.745000", "101028.695000", "101024.855000", "101028.805000", "101024.965000", "101028.915000", "101025.075000", "101029.025000", "101025.185000", "101029.135000", "101025.295000", "101029.242500", "101025.405000", "101029.352500", "101025.512500", "101029.462500", "101025.622500", "101033.432500", "101029.592500", "101033.542500", "101029.702500", "101033.652500", "101029.812500", "101033.762500", "101029.922500", "101033.872500", "101030.032500", "101033.982500", "101030.142500", "101034.092500", "101030.252500", "101034.200000", "101030.360000", "101034.310000", "101030.470000", "101034.420000", "101030.580000", "101034.530000", "101030.690000", "101034.640000", "101030.800000", "101034.750000", "101030.910000", "101034.860000", "101031.020000", "101034.970000", "101031.130000", "101035.077500", "101031.240000", "101035.187500", "101031.347500", "101035.297500", "101031.457500", "101035.407500", "101031.567500", "101035.517500", "101031.677500", "101035.627500", "101031.787500", "101035.737500", "101031.897500", "101035.847500", "101032.007500", "101035.957500", "101032.117500", "101036.065000", "101032.225000", "101036.175000", "101032.335000", "101036.285000", "101032.445000", "101036.395000", "101032.555000", "101036.505000", "101032.665000", "101036.615000", "101032.775000", "101036.725000", "101032.885000", "101036.835000", "101032.995000", "101036.942500", "101033.105000", "101037.052500", "101033.212500", "101037.162500", "101033.322500", "101041.132500", "101037.292500", "101041.242500", "101037.402500", "101041.352500", "101037.512500", "101041.462500", "101037.622500", "101041.572500", "101037.732500", "101041.682500", "101037.842500", "101041.792500", "101037.952500", "101041.900000", "101038.060000", "101042.010000", "101038.170000", "101042.120000", "101038.280000", "101042.230000", "101038.390000", "101042.340000", "101038.500000", "101042.450000", "101038.610000", "101042.560000", "101038.720000", "101042.670000", "101038.830000", "101042.777500", "101038.940000", "101042.887500", "101039.047500", "101042.997500", "101039.157500", "101043.107500", "101039.267500", "101043.217500", "101039.377500", "101043.327500", "101039.487500", "101043.437500", "101039.597500", "101043.547500", "101039.707500", "101043.657500", "101039.817500", "101043.765000", "101039.925000", "101043.875000", "101040.035000", "101043.985000", "101040.145000", "101044.095000", "101040.255000", "101044.205000", "101040.365000", "101044.315000", "101040.475000", "101044.425000", "101040.585000", "101044.535000", "101040.695000", "101044.642500", "101040.805000", "101044.752500", "101040.912500", "101044.862500", "101041.022500", "101048.832500", "101044.992500", "101048.942500", "101045.102500", "101049.052500", "101045.212500", "101049.162500", "101045.322500", "101049.272500", "101045.432500", "101049.382500", "101045.542500", "101049.492500", "101045.652500", "101049.600000", "101045.760000", "101049.710000", "101045.870000", "101049.820000", "101045.980000", "101049.930000", "101046.090000", "101050.040000", "101046.200000", "101050.150000", "101046.310000", "101050.260000", "101046.420000", "101050.370000", "101046.530000", "101050.477500", "101046.640000", "101050.587500", "101046.747500", "101050.697500", "101046.857500", "101050.807500", "101046.967500", "101050.917500", "101047.077500", "101051.027500", "101047.187500", "101051.137500", "101047.297500", "101051.247500", "101047.407500", "101051.357500", "101047.517500", "101051.465000", "101047.625000", "101051.575000", "101047.735000", "101051.685000", "101047.845000", "101051.795000", "101047.955000", "101051.905000", "101048.065000", "101052.015000", "101048.175000", "101052.125000", "101048.285000", "101052.235000", "101048.395000", "101052.342500", "101048.505000", "101052.452500", "101048.612500", "101052.562500", "101048.722500", "101056.532500", "101052.692500", "101056.642500", "101052.802500", "101056.752500", "101052.912500", "101056.862500", "101053.022500", "101056.972500", "101053.132500", "101057.082500", "101053.242500", "101057.192500", "101053.352500", "101057.300000", "101053.460000", "101057.410000", "101053.570000", "101057.520000", "101053.680000", "101057.630000", "101053.790000", "101057.740000", "101053.900000", "101057.850000", "101054.010000", "101057.960000", "101054.120000", "101058.070000", "101054.230000", "101058.177500", "101054.340000", "101058.287500", "101054.447500", "101058.397500", "1