{
  "AcquisitionMatrixPE": 80,
  "AcquisitionNumber": 1,
  "AcquisitionTime": "09:33:36.090000",
  "BandwidthPerPixelPhaseEncode": 46.296,
  "BaseResolution": 80,
  "BodyPartExamined": "BRAIN",
  "CoilCombinationMethod": "Sum of Squares",
  "ConsistencyInfo": "N4_VE11E_LATEST_20181129",
  "ConversionSoftware": "dcm2niix",
  "ConversionSoftwareVersion": "v1.0.20220720",
  "DerivedVendorReportedEchoSpacing": 0.000540003,
  "DeviceSerialNumber": "66112",
  "DwellTime": 2.7e-06,
  "EchoTime": 0.035,
  "EchoTrainLength": 39,
  "EffectiveEchoSpacing": 0.000270002,
  "FlipAngle": 90,
  "HeudiconvVersion": "0.13.1",
  "ImageOrientationPatientDICOM": [0.992643, 0.12086, 0.00728974, -0.117311, 0.9451, 0.304998],
  "ImageOrientationText": "Tra>Cor(17.7)>Sag(-1.7)",
  "ImageType": [
    "ORIGINAL",
    "PRIMARY",
    "M",
    "ND",
    "NORM",
    "MOSAIC"
],
  "ImagingFrequency": 123.259,
  "InPlanePhaseEncodingDirectionDICOM": "COL",
  "InstitutionAddress": "Maynard 3,Hanover,NH,US,03755",
  "InstitutionName": "Dartmouth College - PBS",
  "InstitutionalDepartmentName": "Department",
  "MRAcquisitionType": "2D",
  "MagneticFieldStrength": 3,
  "Manufacturer": "Siemens",
  "ManufacturersModelName": "Prisma",
  "Modality": "MR",
  "MultibandAccelerationFactor": 4,
  "NonlinearGradientCorrection": false,
  "ParallelReductionFactorInPlane": 2,
  "PartialFourier": 1,
  "PatientPosition": "HFS",
  "PercentPhaseFOV": 100,
  "PercentSampling": 100,
  "PhaseEncodingDirection": "j-",
  "PhaseEncodingSteps": 79,
  "PhaseResolution": 1,
  "PixelBandwidth": 2315,
  "ProcedureStepDescription": "dbic^QA",
  "ProtocolName": "func-bold_task-rest_acq-p2-s4-3.5mm",
  "PulseSequenceDetails": "%SiemensSeq%\\ep2d_bold",
  "ReceiveCoilActiveElements": "HEA;HEP",
  "ReceiveCoilName": "Head_32",
  "ReconMatrixPE": 80,
  "RefLinesPE": 24,
  "RepetitionTime": 2,
  "SAR": 0.017743,
  "ScanOptions": "FS",
  "ScanningSequence": "EP",
  "SequenceName": "*epfid2d1_80",
  "SequenceVariant": "SK",
  "SeriesDescription": "func-bold_task-rest_acq-p2-s4-3.5mm",
  "SeriesNumber": 6,
  "ShimSetting": [4223, -7746, -7496, -21, -148, -62, -2, 76],
  "SliceThickness": 3.5,
  "SliceTiming": [1.485, 0, 0.99, 0.2475, 1.2375, 0.7425, 1.7325, 0.495, 1.485, 0, 0.99, 0.2475, 1.2375, 0.7425, 1.7325, 0.495, 1.485, 0, 0.99, 0.2475, 1.2375, 0.7425, 1.7325, 0.495, 1.485, 0, 0.99, 0.2475, 1.2375, 0.7425, 1.7325, 0.495],
  "SoftwareVersions": "syngo MR E11",
  "SpacingBetweenSlices": 3.99,
  "StationName": "AWP66112",
  "TaskName": "rest",
  "TotalReadoutTime": 0.0213301,
  "TxRefAmp": 227.202,
  "dcmmeta_affine": [
    [-2.977928400039673, -0.35193413496017456, -0.11959078162908554, 135.4735565185547],
    [-0.36258044838905334, 2.8352999687194824, 1.2114026546478271, -112.05564880371094],
    [0.021869223564863205, -0.9149953722953796, 3.799776554107666, -27.767257690429688],
    [0.0, 0.0, 0.0, 1.0]
],
  "dcmmeta_reorient_transform": [
    [0.0, -1.0, 0.0, 79.0],
    [1.0, 0.0, 0.0, 0.0],
    [0.0, 0.0, 1.0, 0.0],
    [0.0, 0.0, 0.0, 1.0]
],
  "dcmmeta_shape": [80, 80, 32, 200],
  "dcmmeta_slice_dim": 2,
  "dcmmeta_version": 0.6,
  "global": {
    "const": {
      "AccessionNumber": "qa",
      "AcquisitionMatrix": [80, 0, 0, 80],
      "AngioFlag": "N",
      "BitsAllocated": 16,
      "BitsStored": 12,
      "BodyPartExamined": "BRAIN",
      "Columns": 480,
      "EchoNumbers": 1,
      "EchoTime": 35.0,
      "EchoTrainLength": 39,
      "FlipAngle": 90.0,
      "HighBit": 11,
      "ImageOrientationPatient": [0.99264277704723, 0.12086015410806, 0.00728974107515, -0.1173113756542, 0.94509998587006, 0.30499845548878],
      "ImagePositionPatient": [-632.86959807769, -751.50913258661, -287.42481018082],
      "ImageType": [
        "ORIGINAL",
        "PRIMARY",
        "M",
        "ND",
        "NORM",
        "MOSAIC"
],
      "ImagedNucleus": "1H",
      "ImagingFrequency": 123.259133,
      "InPlanePhaseEncodingDirection": "COL",
      "MRAcquisitionType": "2D",
      "MagneticFieldStrength": 3.0,
      "Manufacturer": "SIEMENS",
      "ManufacturerModelName": "Prisma",
      "Modality": "MR",
      "NumberOfAverages": 1.0,
      "NumberOfPhaseEncodingSteps": 79,
      "PercentPhaseFieldOfView": 100.0,
      "PercentSampling": 100.0,
      "PerformedProcedureStepStartTime": "092202.408000",
      "PhotometricInterpretation": "MONOCHROME2",
      "PixelBandwidth": 2315.0,
      "PixelRepresentation": 0,
      "PixelSpacing": [3.0, 3.0],
      "ProtocolName": "func-bold_task-rest_acq-p2-s4-3.5mm",
      "RepetitionTime": 2000.0,
      "Rows": 480,
      "SAR": 0.0177430422129,
      "SamplesPerPixel": 1,
      "ScanOptions": "FS",
      "ScanningSequence": "EP",
      "SequenceName": "*epfid2d1_80",
      "SequenceVariant": "SK",
      "SeriesDescription": "func-bold_task-rest_acq-p2-s4-3.5mm",
      "SeriesNumber": 6,
      "SeriesTime": "093411.963000",
      "SliceLocation": -64.525130732843,
      "SliceThickness": 3.5,
      "SmallestImagePixelValue": 0,
      "SoftwareVersions": "syngo MR E11",
      "SpacingBetweenSlices": 3.9900000778385,
      "SpecificCharacterSet": "ISO_IR 100",
      "StudyID": "17",
      "StudyTime": "092202.341000",
      "TransmitCoilName": "Body",
      "VariableFlipAngleFlag": "N",
      "WindowCenterWidthExplanation": "Algo1"
    },
    "slices": {}
  },
  "time": {
    "samples": {
      "AcquisitionNumber": [1, 2, 3, 4, 5, 6, 7, 8, 9, 10, 11, 12, 13, 14, 15, 16, 17, 18, 19, 20, 21, 22, 23, 24, 25, 26, 27, 28, 29, 30, 31, 32, 33, 34, 35, 36, 37, 38, 39, 40, 41, 42, 43, 44, 45, 46, 47, 48, 49, 50, 51, 52, 53, 54, 55, 56, 57, 58, 59, 60, 61, 62, 63, 64, 65, 66, 67, 68, 69, 70, 71, 72, 73, 74, 75, 76, 77, 78, 79, 80, 81, 82, 83, 84, 85, 86, 87, 88, 89, 90, 91, 92, 93, 94, 95, 96, 97, 98, 99, 100, 101, 102, 103, 104, 105, 106, 107, 108, 109, 110, 111, 112, 113, 114, 115, 116, 117, 118, 119, 120, 121, 122, 123, 124, 125, 126, 127, 128, 129, 130, 131, 132, 133, 134, 135, 136, 137, 138, 139, 140, 141, 142, 143, 144, 145, 146, 147, 148, 149, 150, 151, 152, 153, 154, 155, 156, 157, 158, 159, 160, 161, 162, 163, 164, 165, 166, 167, 168, 169, 170, 171, 172, 173, 174, 175, 176, 177, 178, 179, 180, 181, 182, 183, 184, 185, 186, 187, 188, 189, 190, 191, 192, 193, 194, 195, 196, 197, 198, 199, 200],
      "AcquisitionTime": ["093336.090000", "093338.090000", "093340.090000", "093342.090000", "093344.090000", "093346.090000", "093348.090000", "093350.090000", "093352.090000", "093354.090000", "093356.090000", "093358.090000", "093400.090000", "093402.090000", "093404.090000", "093406.090000", "093408.090000", "093410.090000", "093412.090000", "093414.090000", "093416.090000", "093418.090000", "093420.090000", "093422.090000", "093424.090000", "093426.090000", "093428.090000", "093430.090000", "093432.090000", "093434.090000", "093436.090000", "093438.090000", "093440.090000", "093442.090000", "093444.090000", "093446.090000", "093448.090000", "093450.090000", "093452.090000", "093454.090000", "093456.090000", "093458.090000", "093500.090000", "093502.090000", "093504.090000", "093506.090000", "093508.090000", "093510.090000", "093512.090000", "093514.090000", "093516.090000", "093518.090000", "093520.090000", "093522.090000", "093524.090000", "093526.090000", "093528.090000", "093530.090000", "093532.090000", "093534.090000", "093536.090000", "093538.090000", "093540.090000", "093542.090000", "093544.090000", "093546.090000", "093548.090000", "093550.090000", "093552.090000", "093554.090000", "093556.090000", "093558.090000", "093600.090000", "093602.090000", "093604.090000", "093606.090000", "093608.090000", "093610.090000", "093612.090000", "093614.090000", "093616.090000", "093618.090000", "093620.090000", "093622.090000", "093624.090000", "093626.090000", "093628.090000", "093630.090000", "093632.090000", "093634.090000", "093636.090000", "093638.090000", "093640.090000", "093642.090000", "093644.090000", "093646.090000", "093648.090000", "093650.090000", "093652.090000", "093654.090000", "093656.090000", "093658.090000", "093700.090000", "093702.090000", "093704.090000", "093706.090000", "093708.090000", "093710.090000", "093712.090000", "093714.090000", "093716.090000", "093718.090000", "093720.090000", "093722.090000", "093724.090000", "093726.090000", "093728.090000", "093730.090000", "093732.090000", "093734.090000", "093736.090000", "093738.090000", "093740.090000", "093742.090000", "093744.090000", "093746.090000", "093748.090000", "093750.090000", "093752.090000", "093754.090000", "093756.090000", "093758.090000", "093800.090000", "093802.090000", "093804.090000", "093806.090000", "093808.090000", "093810.090000", "093812.090000", "093814.090000", "093816.090000", "093818.090000", "093820.090000", "093822.090000", "093824.090000", "093826.090000", "093828.090000", "093830.090000", "093832.090000", "093834.090000", "093836.090000", "093838.090000", "093840.090000", "093842.090000", "093844.090000", "093846.090000", "093848.090000", "093850.090000", "093852.090000", "093854.090000", "093856.090000", "093858.090000", "093900.090000", "093902.090000", "093904.090000", "093906.090000", "093908.090000", "093910.090000", "093912.090000", "093914.090000", "093916.090000", "093918.090000", "093920.090000", "093922.090000", "093924.090000", "093926.090000", "093928.090000", "093930.090000", "093932.090000", "093934.090000", "093936.090000", "093938.090000", "093940.090000", "093942.090000", "093944.090000", "093946.090000", "093948.090000", "093950.090000", "093952.090000", "093954.090000", "093956.090000", "093958.090000", "094000.090000", "094002.090000", "094004.090000", "094006.090000", "094008.090000", "094010.090000", "094012.090000", "094014.090000"],
      "ContentTime": ["093411.966000", "093411.969000", "093411.972000", "093411.974000", "093411.976000", "093411.979000", "093411.981000", "093411.983000", "093411.986000", "093411.988000", "093411.990000", "093412.024000", "093412.027000", "093412.031000", "093412.033000", "093412.035000", "093412.038000", "093412.040000", "093451.961000", "093451.964000", "093451.966000", "093451.977000", "093451.979000", "093451.982000", "093451.984000", "093451.986000", "093451.989000", "093451.991000", "093451.993000", "093451.996000", "093451.998000", "093452.001000", "093452.004000", "093452.006000", "093452.008000", "093452.011000", "093452.013000", "093452.015000", "093531.960000", "093531.963000", "093531.965000", "093531.967000", "093531.970000", "093531.972000", "093531.974000", "093531.977000", "093531.979000", "093531.990000", "093531.993000", "093531.995000", "093531.997000", "093532.001000", "093532.003000", "093532.005000", "093532.008000", "093532.010000", "093532.012000", "093532.015000", "093611.961000", "093611.964000", "093611.966000", "093611.969000", "093611.971000", "093611.973000", "093611.976000", "093611.978000", "093611.980000", "093611.983000", "093611.985000", "093611.987000", "093611.989000", "093611.992000", "093611.994000", "093611.996000", "093611.999000", "093612.001000", "093612.003000", "093612.006000", "093651.961000", "093651.964000", "093651.966000", "093651.968000", "093651.971000", "093651.973000", "093651.975000", "093651.978000", "093651.980000", "093651.982000", "093651.985000", "093651.987000", "093651.989000", "093651.992000", "093651.994000", "093651.996000", "093652.000000", "093652.002000", "093652.004000", "093652.006000", "093731.961000", "093731.964000", "093731.966000", "093731.968000", "093731.971000", "093731.973000", "093731.975000", "093731.978000", "093731.980000", "093731.985000", "093731.987000", "093731.990000", "093731.992000", "093731.994000", "093731.997000", "093732.000000", "093732.002000", "093732.005000", "093732.007000", "093732.009000", "093811.960000", "093811.963000", "093811.965000", "093811.967000", "093811.970000", "093811.972000", "093811.974000", "093811.977000", "093811.979000", "093811.981000", "093811.984000", "093811.986000", "093811.988000", "093811.991000", "093811.993000", "093811.995000", "093811.998000", "093812.000000", "093812.002000", "093812.005000", "093851.961000", "093851.964000", "093851.966000", "093851.968000", "093851.971000", "093851.973000", "093851.975000", "093851.978000", "093851.980000", "093851.982000", "093851.985000", "093851.987000", "093851.989000", "093851.992000", "093851.994000", "093851.996000", "093852.000000", "093852.002000", "093852.004000", "093852.007000", "093931.961000", "093931.964000", "093931.966000", "093931.969000", "093931.971000", "093931.973000", "093931.976000", "093931.978000", "093931.980000", "093931.983000", "093931.985000", "093931.987000", "093931.996000", "093931.998000", "093932.002000", "093932.004000", "093932.006000", "093932.009000", "093932.011000", "093932.013000", "094011.960000", "094011.963000", "094011.965000", "094011.967000", "094011.970000", "094011.972000", "094011.974000", "094011.977000", "094011.979000", "094011.981000", "094011.984000", "094011.986000", "094011.988000", "094011.991000", "094011.993000", "094011.995000", "094011.998000", "094012.001000", "094012.004000", "094012.006000", "094015.134000", "094015.136000"],
      "InstanceCreationTime": ["093411.966000", "093411.969000", "093411.972000", "093411.974000", "093411.976000", "093411.979000", "093411.981000", "093411.983000", "093411.986000", "093411.988000", "093411.990000", "093412.024000", "093412.027000", "093412.031000", "093412.033000", "093412.035000", "093412.038000", "093412.040000", "093451.961000", "093451.964000", "093451.966000", "093451.977000", "093451.979000", "093451.982000", "093451.984000", "093451.986000", "093451.989000", "093451.991000", "093451.993000", "093451.996000", "093451.998000", "093452.001000", "093452.004000", "093452.006000", "093452.008000", "093452.011000", "093452.013000", "093452.015000", "093531.960000", "093531.963000", "093531.965000", "093531.967000", "093531.970000", "093531.972000", "093531.974000", "093531.977000", "093531.979000", "093531.990000", "093531.993000", "093531.995000", "093531.997000", "093532.001000", "093532.003000", "093532.005000", "093532.008000", "093532.010000", "093532.012000", "093532.015000", "093611.961000", "093611.964000", "093611.966000", "093611.969000", "093611.971000", "093611.973000", "093611.976000", "093611.978000", "093611.980000", "093611.983000", "093611.985000", "093611.987000", "093611.989000", "093611.992000", "093611.994000", "093611.996000", "093611.999000", "093612.001000", "093612.003000", "093612.006000", "093651.961000", "093651.964000", "093651.966000", "093651.968000", "093651.971000", "093651.973000", "093651.975000", "093651.978000", "093651.980000", "093651.982000", "093651.985000", "093651.987000", "093651.989000", "093651.992000", "093651.994000", "093651.996000", "093652.000000", "093652.002000", "093652.004000", "093652.006000", "093731.961000", "093731.964000", "093731.966000", "093731.968000", "093731.971000", "093731.973000", "093731.975000", "093731.978000", "093731.980000", "093731.985000", "093731.987000", "093731.990000", "093731.992000", "093731.994000", "093731.997000", "093732.000000", "093732.002000", "093732.005000", "093732.007000", "093732.009000", "093811.960000", "093811.963000", "093811.965000", "093811.967000", "093811.970000", "093811.972000", "093811.974000", "093811.977000", "093811.979000", "093811.981000", "093811.984000", "093811.986000", "093811.988000", "093811.991000", "093811.993000", "093811.995000", "093811.998000", "093812.000000", "093812.002000", "093812.005000", "093851.961000", "093851.964000", "093851.966000", "093851.968000", "093851.971000", "093851.973000", "093851.975000", "093851.978000", "093851.980000", "093851.982000", "093851.985000", "093851.987000", "093851.989000", "093851.992000", "093851.994000", "093851.996000", "093852.000000", "093852.002000", "093852.004000", "093852.007000", "093931.961000", "093931.964000", "093931.966000", "093931.969000", "093931.971000", "093931.973000", "093931.976000", "093931.978000", "093931.980000", "093931.983000", "093931.985000", "093931.987000", "093931.996000", "093931.998000", "093932.002000", "093932.004000", "093932.006000", "093932.009000", "093932.011000", "093932.013000", "094011.960000", "094011.963000", "094011.965000", "094011.967000", "094011.970000", "094011.972000", "094011.974000", "094011.977000", "094011.979000", "094011.981000", "094011.984000", "094011.986000", "094011.988000", "094011.991000", "094011.993000", "094011.995000", "094011.998000", "094012.001000", "094012.004000", "094012.006000", "094015.134000", "094015.136000"],
      "InstanceNumber": [1, 2, 3, 4, 5, 6, 7, 8, 9, 10, 11, 12, 13, 14, 15, 16, 17, 18, 19, 20, 21, 22, 23, 24, 25, 26, 27, 28, 29, 30, 31, 32, 33, 34, 35, 36, 37, 38, 39, 40, 41, 42, 43, 44, 45, 46, 47, 48, 49, 50, 51, 52, 53, 54, 55, 56, 57, 58, 59, 60, 61, 62, 63, 64, 65, 66, 67, 68, 69, 70, 71, 72, 73, 74, 75, 76, 77, 78, 79, 80, 81, 82, 83, 84, 85, 86, 87, 88, 89, 90, 91, 92, 93, 94, 95, 96, 97, 98, 99, 100, 101, 102, 103, 104, 105, 106, 107, 108, 109, 110, 111, 112, 113, 114, 115, 116, 117, 118, 119, 120, 121, 122, 123, 124, 125, 126, 127, 128, 129, 130, 131, 132, 133, 134, 135, 136, 137, 138, 139, 140, 141, 142, 143, 144, 145, 146, 147, 148, 149, 150, 151, 152, 153, 154, 155, 156, 157, 158, 159, 160, 161, 162, 163, 164, 165, 166, 167, 168, 169, 170, 171, 172, 173, 174, 175, 176, 177, 178, 179, 180, 181, 182, 183, 184, 185, 186, 187, 188, 189, 190, 191, 192, 193, 194, 195, 196, 197, 198, 199, 200],
      "LargestImagePixelValue": [2181, 2184, 2181, 2184, 2180, 2184, 2183, 2186, 2179, 2184, 2181, 2184, 2182, 2185, 2183, 2185, 2183, 2182, 2178, 2184, 2184, 2181, 2180, 2188, 2185, 2182, 2186, 2184, 2185, 2184, 2187, 2180, 2185, 2178, 2182, 2179, 2188, 2184, 2190, 2178, 2186, 2183, 2185, 2180, 2185, 2185, 2187, 2178, 2187, 2187, 2187, 2186, 2185, 2189, 2183, 2183, 2185, 2187, 2184, 2183, 2187, 2186, 2183, 2189, 2186, 2187, 2183, 2184, 2185, 2187, 2187, 2187, 2182, 2188, 2182, 2182, 2182, 2182, 2182, 2187, 2185, 2186, 2180, 2189, 2190, 2185, 2183, 2187, 2185, 2185, 2188, 2186, 2188, 2182, 2183, 2185, 2187, 2183, 2184, 2184, 2186, 2184, 2188, 2184, 2190, 2182, 2183, 2184, 2184, 2184, 2185, 2188, 2186, 2191, 2184, 2186, 2187, 2184, 2187, 2189, 2186, 2187, 2182, 2189, 2185, 2188, 2181, 2187, 2182, 2192, 2182, 2189, 2186, 2191, 2186, 2189, 2182, 2192, 2185, 2188, 2188, 2186, 2181, 2189, 2185, 2192, 2184, 2186, 2191, 2189, 2186, 2184, 2186, 2183, 2188, 2184, 2187, 2188, 2186, 2185, 2190, 2186, 2189, 2183, 2188, 2184, 2185, 2184, 2189, 2185, 2190, 2185, 2187, 2183, 2192, 2188, 2184, 2188, 2186, 2187, 2189, 2188, 2187, 2186, 2188, 2186, 2186, 2190, 2185, 2185, 2188, 2185, 2187, 2188, 2184, 2187, 2182, 2188, 2184, 2189],
      "WindowCenter": [960.0, 959.0, 961.0, 958.0, 960.0, 960.0, 959.0, 959.0, 957.0, 957.0, 958.0, 960.0, 958.0, 958.0, 959.0, 959.0, 958.0, 958.0, 960.0, 959.0, 957.0, 959.0, 960.0, 957.0, 959.0, 958.0, 959.0, 959.0, 959.0, 958.0, 960.0, 959.0, 959.0, 960.0, 958.0, 959.0, 959.0, 960.0, 960.0, 958.0, 959.0, 957.0, 959.0, 959.0, 959.0, 959.0, 959.0, 958.0, 958.0, 959.0, 960.0, 960.0, 959.0, 959.0, 959.0, 957.0, 957.0, 957.0, 957.0, 958.0, 959.0, 960.0, 958.0, 958.0, 959.0, 959.0, 958.0, 959.0, 958.0, 960.0, 960.0, 958.0, 958.0, 960.0, 958.0, 959.0, 959.0, 959.0, 959.0, 959.0, 960.0, 958.0, 959.0, 959.0, 957.0, 959.0, 958.0, 958.0, 958.0, 958.0, 960.0, 958.0, 957.0, 960.0, 960.0, 959.0, 960.0, 959.0, 960.0, 960.0, 958.0, 959.0, 959.0, 959.0, 958.0, 960.0, 959.0, 957.0, 959.0, 960.0, 958.0, 959.0, 958.0, 958.0, 960.0, 957.0, 958.0, 957.0, 958.0, 960.0, 957.0, 960.0, 959.0, 957.0, 960.0, 958.0, 959.0, 960.0, 958.0, 959.0, 957.0, 959.0, 957.0, 961.0, 959.0, 959.0, 959.0, 958.0, 958.0, 959.0, 960.0, 960.0, 959.0, 959.0, 960.0, 957.0, 958.0, 958.0, 958.0, 959.0, 959.0, 958.0, 960.0, 959.0, 958.0, 958.0, 959.0, 959.0, 960.0, 959.0, 960.0, 958.0, 959.0, 958.0, 959.0, 958.0, 960.0, 957.0, 959.0, 959.0, 960.0, 958.0, 959.0, 958.0, 957.0, 957.0, 959.0, 960.0, 957.0, 959.0, 959.0, 959.0, 959.0, 960.0, 958.0, 959.0, 960.0, 960.0, 959.0, 957.0, 958.0, 959.0, 958.0, 959.0, 960.0, 957.0, 960.0, 959.0, 957.0, 959.0],
      "WindowWidth": [2247.0, 2247.0, 2248.0, 2247.0, 2248.0, 2248.0, 2247.0, 2247.0, 2245.0, 2246.0, 2246.0, 2247.0, 2246.0, 2246.0, 2247.0, 2247.0, 2246.0, 2247.0, 2248.0, 2247.0, 2246.0, 2247.0, 2248.0, 2246.0, 2247.0, 2246.0, 2247.0, 2247.0, 2247.0, 2246.0, 2248.0, 2247.0, 2247.0, 2248.0, 2246.0, 2247.0, 2248.0, 2248.0, 2248.0, 2246.0, 2247.0, 2246.0, 2247.0, 2247.0, 2247.0, 2247.0, 2247.0, 2246.0, 2247.0, 2247.0, 2248.0, 2248.0, 2247.0, 2247.0, 2247.0, 2246.0, 2246.0, 2246.0, 2246.0, 2247.0, 2247.0, 2248.0, 2247.0, 2246.0, 2247.0, 2247.0, 2246.0, 2247.0, 2247.0, 2248.0, 2248.0, 2247.0, 2247.0, 2248.0, 2247.0, 2247.0, 2248.0, 2247.0, 2247.0, 2247.0, 2248.0, 2247.0, 2247.0, 2247.0, 2246.0, 2247.0, 2247.0, 2247.0, 2247.0, 2246.0, 2249.0, 2246.0, 2246.0, 2248.0, 2248.0, 2247.0, 2248.0, 2247.0, 2248.0, 2248.0, 2247.0, 2247.0, 2247.0, 2247.0, 2247.0, 2248.0, 2247.0, 2246.0, 2247.0, 2248.0, 2247.0, 2247.0, 2247.0, 2247.0, 2248.0, 2246.0, 2246.0, 2246.0, 2246.0, 2248.0, 2246.0, 2248.0, 2248.0, 2246.0, 2248.0, 2246.0, 2247.0, 2248.0, 2246.0, 2247.0, 2246.0, 2247.0, 2246.0, 2249.0, 2247.0, 2247.0, 2247.0, 2247.0, 2246.0, 2247.0, 2248.0, 2248.0, 2247.0, 2247.0, 2248.0, 2246.0, 2246.0, 2246.0, 2246.0, 2247.0, 2247.0, 2246.0, 2248.0, 2247.0, 2246.0, 2247.0, 2247.0, 2247.0, 2248.0, 2247.0, 2248.0, 2246.0, 2247.0, 2246.0, 2247.0, 2246.0, 2248.0, 2246.0, 2247.0, 2247.0, 2248.0, 2246.0, 2247.0, 2246.0, 2246.0, 2245.0, 2247.0, 2248.0, 2246.0, 2247.0, 2247.0, 2247.0, 2247.0, 2248.0, 2246.0, 2247.0, 2248.0, 2248.0, 2247.0, 2246.0, 2246.0, 2247.0, 2246.0, 2247.0, 2248.0, 2246.0, 2248.0, 2247.0, 2245.0, 2247.0]
    },
    "slices": {}
  }
}