{
  "AcquisitionMatrixPE": 80,
  "AcquisitionNumber": 1,
  "AcquisitionTime": "09:40:25.402500",
  "BandwidthPerPixelPhaseEncode": 25,
  "BaseResolution": 80,
  "BodyPartExamined": "BRAIN",
  "CoilCombinationMethod": "Sum of Squares",
  "ConsistencyInfo": "N4_VE11E_LATEST_20181129",
  "ConversionSoftware": "dcm2niix",
  "ConversionSoftwareVersion": "v1.0.20220720",
  "DerivedVendorReportedEchoSpacing": 0.0005,
  "DeviceSerialNumber": "66112",
  "DwellTime": 2.7e-06,
  "EchoTime": 0.03,
  "EchoTrainLength": 80,
  "EffectiveEchoSpacing": 0.0005,
  "FlipAngle": 77,
  "HeudiconvVersion": "0.13.1",
  "ImageOrientationPatientDICOM": [0.992643, 0.12086, 0.00728974, -0.117311, 0.9451, 0.304998],
  "ImageOrientationText": "Tra>Cor(17.7)>Sag(-1.7)",
  "ImageType": [
    "ORIGINAL",
    "PRIMARY",
    "M",
    "ND",
    "NORM",
    "MOSAIC"
],
  "ImagingFrequency": 123.259,
  "InPlanePhaseEncodingDirectionDICOM": "COL",
  "InstitutionAddress": "Maynard 3,Hanover,NH,US,03755",
  "InstitutionName": "Dartmouth College - PBS",
  "InstitutionalDepartmentName": "Department",
  "MRAcquisitionType": "2D",
  "MagneticFieldStrength": 3,
  "Manufacturer": "Siemens",
  "ManufacturersModelName": "Prisma",
  "MatrixCoilMode": "SENSE",
  "Modality": "MR",
  "NonlinearGradientCorrection": false,
  "PartialFourier": 1,
  "PatientPosition": "HFS",
  "PercentPhaseFOV": 100,
  "PercentSampling": 100,
  "PhaseEncodingDirection": "j-",
  "PhaseEncodingSteps": 80,
  "PhaseResolution": 1,
  "PixelBandwidth": 2315,
  "ProcedureStepDescription": "dbic^QA",
  "ProtocolName": "func-bold_fa-77",
  "PulseSequenceDetails": "%SiemensSeq%\\ep2d_bold",
  "ReceiveCoilActiveElements": "HEA;HEP",
  "ReceiveCoilName": "Head_32",
  "ReconMatrixPE": 80,
  "RepetitionTime": 2,
  "SAR": 0.0370782,
  "ScanOptions": "FS",
  "ScanningSequence": "EP",
  "SequenceName": "*epfid2d1_80",
  "SequenceVariant": "SK",
  "SeriesDescription": "func-bold_fa-77",
  "SeriesNumber": 7,
  "ShimSetting": [4223, -7746, -7496, -22, -150, -62, -3, 76],
  "SliceThickness": 3.5,
  "SliceTiming": [0.99, 0, 1.0575, 0.0675, 1.1225, 0.1325, 1.19, 0.2, 1.255, 0.265, 1.32, 0.33, 1.3875, 0.3975, 1.4525, 0.4625, 1.52, 0.53, 1.585, 0.595, 1.65, 0.66, 1.7175, 0.7275, 1.7825, 0.7925, 1.85, 0.86, 1.915, 0.925],
  "SoftwareVersions": "syngo MR E11",
  "SpacingBetweenSlices": 3.99,
  "StationName": "AWP66112",
  "TotalReadoutTime": 0.0395,
  "TxRefAmp": 227.202,
  "dcmmeta_affine": [
    [-2.977928400039673, -0.35193413496017456, -0.11959078162908554, 135.2405548095703],
    [-0.36258044838905334, 2.8352999687194824, 1.2114026546478271, -109.85115814208984],
    [0.021869223564863205, -0.9149953722953796, 3.799776554107666, -22.940074920654297],
    [0.0, 0.0, 0.0, 1.0]
],
  "dcmmeta_reorient_transform": [
    [0.0, -1.0, 0.0, 79.0],
    [1.0, 0.0, 0.0, 0.0],
    [0.0, 0.0, 1.0, 0.0],
    [0.0, 0.0, 0.0, 1.0]
],
  "dcmmeta_shape": [80, 80, 30, 200],
  "dcmmeta_slice_dim": 2,
  "dcmmeta_version": 0.6,
  "global": {
    "const": {
      "AccessionNumber": "qa",
      "AcquisitionMatrix": [80, 0, 0, 80],
      "AngioFlag": "N",
      "BitsAllocated": 16,
      "BitsStored": 12,
      "BodyPartExamined": "BRAIN",
      "Columns": 480,
      "EchoNumbers": 1,
      "EchoTime": 30.0,
      "EchoTrainLength": 80,
      "FlipAngle": 77.0,
      "HighBit": 11,
      "ImageOrientationPatient": [0.99264277704723, 0.12086015410806, 0.00728974107515, -0.1173113756542, 0.94509998587006, 0.30499845548878],
      "ImagePositionPatient": [-632.63659589187, -753.71362610926, -282.59762741104],
      "ImageType": [
        "ORIGINAL",
        "PRIMARY",
        "M",
        "ND",
        "NORM",
        "MOSAIC"
],
      "ImagedNucleus": "1H",
      "ImagingFrequency": 123.25913,
      "InPlanePhaseEncodingDirection": "COL",
      "MRAcquisitionType": "2D",
      "MagneticFieldStrength": 3.0,
      "Manufacturer": "SIEMENS",
      "ManufacturerModelName": "Prisma",
      "Modality": "MR",
      "NumberOfAverages": 1.0,
      "NumberOfPhaseEncodingSteps": 80,
      "PercentPhaseFieldOfView": 100.0,
      "PercentSampling": 100.0,
      "PerformedProcedureStepStartTime": "092202.408000",
      "PhotometricInterpretation": "MONOCHROME2",
      "PixelBandwidth": 2315.0,
      "PixelRepresentation": 0,
      "PixelSpacing": [3.0, 3.0],
      "ProtocolName": "func-bold_fa-77",
      "RepetitionTime": 2000.0,
      "Rows": 480,
      "SAR": 0.03707816880703,
      "SamplesPerPixel": 1,
      "ScanOptions": "FS",
      "ScanningSequence": "EP",
      "SequenceName": "*epfid2d1_80",
      "SequenceVariant": "SK",
      "SeriesDescription": "func-bold_fa-77",
      "SeriesNumber": 7,
      "SeriesTime": "094112.048000",
      "SliceLocation": -59.251794896805,
      "SliceThickness": 3.5,
      "SmallestImagePixelValue": 0,
      "SoftwareVersions": "syngo MR E11",
      "SpacingBetweenSlices": 3.9899999923727,
      "SpecificCharacterSet": "ISO_IR 100",
      "StudyID": "17",
      "StudyTime": "092202.341000",
      "TransmitCoilName": "Body",
      "VariableFlipAngleFlag": "N",
      "WindowCenterWidthExplanation": "Algo1"
    },
    "slices": {}
  },
  "time": {
    "samples": {
      "AcquisitionNumber": [1, 2, 3, 4, 5, 6, 7, 8, 9, 10, 11, 12, 13, 14, 15, 16, 17, 18, 19, 20, 21, 22, 23, 24, 25, 26, 27, 28, 29, 30, 31, 32, 33, 34, 35, 36, 37, 38, 39, 40, 41, 42, 43, 44, 45, 46, 47, 48, 49, 50, 51, 52, 53, 54, 55, 56, 57, 58, 59, 60, 61, 62, 63, 64, 65, 66, 67, 68, 69, 70, 71, 72, 73, 74, 75, 76, 77, 78, 79, 80, 81, 82, 83, 84, 85, 86, 87, 88, 89, 90, 91, 92, 93, 94, 95, 96, 97, 98, 99, 100, 101, 102, 103, 104, 105, 106, 107, 108, 109, 110, 111, 112, 113, 114, 115, 116, 117, 118, 119, 120, 121, 122, 123, 124, 125, 126, 127, 128, 129, 130, 131, 132, 133, 134, 135, 136, 137, 138, 139, 140, 141, 142, 143, 144, 145, 146, 147, 148, 149, 150, 151, 152, 153, 154, 155, 156, 157, 158, 159, 160, 161, 162, 163, 164, 165, 166, 167, 168, 169, 170, 171, 172, 173, 174, 175, 176, 177, 178, 179, 180, 181, 182, 183, 184, 185, 186, 187, 188, 189, 190, 191, 192, 193, 194, 195, 196, 197, 198, 199, 200],
      "AcquisitionTime": ["094025.402500", "094027.402500", "094029.402500", "094031.402500", "094033.402500", "094035.402500", "094037.402500", "094039.402500", "094041.402500", "094043.402500", "094045.402500", "094047.402500", "094049.402500", "094051.402500", "094053.402500", "094055.402500", "094057.402500", "094059.402500", "094101.402500", "094103.402500", "094105.402500", "094107.402500", "094109.402500", "094111.402500", "094113.402500", "094115.402500", "094117.402500", "094119.402500", "094121.402500", "094123.402500", "094125.402500", "094127.402500", "094129.402500", "094131.402500", "094133.402500", "094135.402500", "094137.402500", "094139.402500", "094141.402500", "094143.402500", "094145.402500", "094147.402500", "094149.402500", "094151.402500", "094153.402500", "094155.402500", "094157.402500", "094159.402500", "094201.402500", "094203.402500", "094205.402500", "094207.402500", "094209.402500", "094211.402500", "094213.402500", "094215.402500", "094217.402500", "094219.402500", "094221.402500", "094223.402500", "094225.402500", "094227.402500", "094229.402500", "094231.402500", "094233.402500", "094235.402500", "094237.402500", "094239.402500", "094241.402500", "094243.402500", "094245.402500", "094247.402500", "094249.402500", "094251.402500", "094253.402500", "094255.402500", "094257.402500", "094259.402500", "094301.402500", "094303.402500", "094305.402500", "094307.402500", "094309.402500", "094311.402500", "094313.402500", "094315.402500", "094317.402500", "094319.402500", "094321.402500", "094323.402500", "094325.402500", "094327.402500", "094329.402500", "094331.402500", "094333.402500", "094335.402500", "094337.402500", "094339.402500", "094341.402500", "094343.402500", "094345.402500", "094347.402500", "094349.402500", "094351.402500", "094353.402500", "094355.402500", "094357.402500", "094359.402500", "094401.402500", "094403.402500", "094405.402500", "094407.402500", "094409.402500", "094411.402500", "094413.402500", "094415.402500", "094417.402500", "094419.402500", "094421.402500", "094423.402500", "094425.402500", "094427.402500", "094429.402500", "094431.402500", "094433.402500", "094435.402500", "094437.402500", "094439.402500", "094441.402500", "094443.402500", "094445.402500", "094447.402500", "094449.402500", "094451.402500", "094453.402500", "094455.402500", "094457.402500", "094459.402500", "094501.402500", "094503.402500", "094505.402500", "094507.402500", "094509.402500", "094511.402500", "094513.402500", "094515.402500", "094517.402500", "094519.402500", "094521.402500", "094523.402500", "094525.402500", "094527.402500", "094529.402500", "094531.402500", "094533.402500", "094535.402500", "094537.402500", "094539.402500", "094541.402500", "094543.402500", "094545.402500", "094547.402500", "094549.402500", "094551.402500", "094553.402500", "094555.402500", "094557.402500", "094559.402500", "094601.402500", "094603.402500", "094605.402500", "094607.402500", "094609.402500", "094611.402500", "094613.402500", "094615.402500", "094617.402500", "094619.402500", "094621.402500", "094623.402500", "094625.402500", "094627.402500", "094629.402500", "094631.402500", "094633.402500", "094635.402500", "094637.402500", "094639.402500", "094641.402500", "094643.402500", "094645.402500", "094647.402500", "094649.402500", "094651.402500", "094653.402500", "094655.402500", "094657.402500", "094659.402500", "094701.402500", "094703.402500"],
      "ContentTime": ["094112.051000", "094112.054000", "094112.057000", "094112.059000", "094112.061000", "094112.072000", "094112.075000", "094112.088000", "094112.091000", "094112.093000", "094112.095000", "094112.098000", "094112.100000", "094112.102000", "094112.104000", "094112.107000", "094112.109000", "094112.111000", "094112.113000", "094112.116000", "094112.118000", "094112.120000", "094112.123000", "094152.046000", "094152.049000", "094152.051000", "094152.053000", "094152.055000", "094152.058000", "094152.060000", "094152.062000", "094152.065000", "094152.067000", "094152.069000", "094152.071000", "094152.074000", "094152.076000", "094152.078000", "094152.081000", "094152.083000", "094152.085000", "094152.087000", "094152.097000", "094232.045000", "094232.048000", "094232.050000", "094232.052000", "094232.054000", "094232.057000", "094232.059000", "094232.061000", "094232.063000", "094232.073000", "094232.076000", "094232.078000", "094232.080000", "094232.082000", "094232.085000", "094232.087000", "094232.089000", "094232.092000", "094232.094000", "094232.096000", "094312.046000", "094312.049000", "094312.051000", "094312.053000", "094312.056000", "094312.058000", "094312.060000", "094312.063000", "094312.065000", "094312.067000", "094312.069000", "094312.072000", "094312.074000", "094312.076000", "094312.078000", "094312.081000", "094312.083000", "094312.085000", "094312.087000", "094312.090000", "094352.046000", "094352.049000", "094352.051000", "094352.053000", "094352.056000", "094352.058000", "094352.060000", "094352.062000", "094352.065000", "094352.067000", "094352.069000", "094352.072000", "094352.074000", "094352.076000", "094352.078000", "094352.081000", "094352.083000", "094352.085000", "094352.088000", "094352.090000", "094432.046000", "094432.049000", "094432.051000", "094432.053000", "094432.056000", "094432.058000", "094432.060000", "094432.063000", "094432.065000", "094432.067000", "094432.069000", "094432.072000", "094432.074000", "094432.076000", "094432.079000", "094432.081000", "094432.083000", "094432.085000", "094432.088000", "094432.090000", "094512.045000", "094512.048000", "094512.050000", "094512.052000", "094512.055000", "094512.057000", "094512.059000", "094512.062000", "094512.064000", "094512.066000", "094512.068000", "094512.071000", "094512.073000", "094512.075000", "094512.078000", "094512.080000", "094512.082000", "094512.084000", "094512.087000", "094512.089000", "094552.046000", "094552.049000", "094552.052000", "094552.054000", "094552.056000", "094552.059000", "094552.061000", "094552.063000", "094552.065000", "094552.068000", "094552.070000", "094552.072000", "094552.075000", "094552.077000", "094552.079000", "094552.082000", "094552.084000", "094552.086000", "094552.089000", "094552.091000", "094632.046000", "094632.049000", "094632.051000", "094632.053000", "094632.056000", "094632.058000", "094632.060000", "094632.063000", "094632.065000", "094632.067000", "094632.070000", "094632.072000", "094632.075000", "094632.077000", "094632.079000", "094632.082000", "094632.084000", "094632.086000", "094632.089000", "094632.091000", "094704.941000", "094704.944000", "094704.946000", "094704.949000", "094704.951000", "094704.953000", "094704.956000", "094704.958000", "094704.960000", "094704.963000", "094704.965000", "094704.967000", "094704.970000", "094704.972000", "094704.979000", "094704.981000", "094704.984000"],
      "InstanceCreationTime": ["094112.051000", "094112.054000", "094112.057000", "094112.059000", "094112.061000", "094112.072000", "094112.075000", "094112.088000", "094112.091000", "094112.093000", "094112.095000", "094112.098000", "094112.100000", "094112.102000", "094112.104000", "094112.107000", "094112.109000", "094112.111000", "094112.113000", "094112.116000", "094112.118000", "094112.120000", "094112.123000", "094152.046000", "094152.049000", "094152.051000", "094152.053000", "094152.055000", "094152.058000", "094152.060000", "094152.062000", "094152.065000", "094152.067000", "094152.069000", "094152.071000", "094152.074000", "094152.076000", "094152.078000", "094152.081000", "094152.083000", "094152.085000", "094152.087000", "094152.097000", "094232.045000", "094232.048000", "094232.050000", "094232.052000", "094232.054000", "094232.057000", "094232.059000", "094232.061000", "094232.063000", "094232.073000", "094232.076000", "094232.078000", "094232.080000", "094232.082000", "094232.085000", "094232.087000", "094232.089000", "094232.092000", "094232.094000", "094232.096000", "094312.046000", "094312.049000", "094312.051000", "094312.053000", "094312.056000", "094312.058000", "094312.060000", "094312.063000", "094312.065000", "094312.067000", "094312.069000", "094312.072000", "094312.074000", "094312.076000", "094312.078000", "094312.081000", "094312.083000", "094312.085000", "094312.087000", "094312.090000", "094352.046000", "094352.049000", "094352.051000", "094352.053000", "094352.056000", "094352.058000", "094352.060000", "094352.062000", "094352.065000", "094352.067000", "094352.069000", "094352.072000", "094352.074000", "094352.076000", "094352.078000", "094352.081000", "094352.083000", "094352.085000", "094352.088000", "094352.090000", "094432.046000", "094432.049000", "094432.051000", "094432.053000", "094432.056000", "094432.058000", "094432.060000", "094432.063000", "094432.065000", "094432.067000", "094432.069000", "094432.072000", "094432.074000", "094432.076000", "094432.079000", "094432.081000", "094432.083000", "094432.085000", "094432.088000", "094432.090000", "094512.045000", "094512.048000", "094512.050000", "094512.052000", "094512.055000", "094512.057000", "094512.059000", "094512.062000", "094512.064000", "094512.066000", "094512.068000", "094512.071000", "094512.073000", "094512.075000", "094512.078000", "094512.080000", "094512.082000", "094512.084000", "094512.087000", "094512.089000", "094552.046000", "094552.049000", "094552.052000", "094552.054000", "094552.056000", "094552.059000", "094552.061000", "094552.063000", "094552.065000", "094552.068000", "094552.070000", "094552.072000", "094552.075000", "094552.077000", "094552.079000", "094552.082000", "094552.084000", "094552.086000", "094552.089000", "094552.091000", "094632.046000", "094632.049000", "094632.051000", "094632.053000", "094632.056000", "094632.058000", "094632.060000", "094632.063000", "094632.065000", "094632.067000", "094632.070000", "094632.072000", "094632.075000", "094632.077000", "094632.079000", "094632.082000", "094632.084000", "094632.086000", "094632.089000", "094632.091000", "094704.941000", "094704.944000", "094704.946000", "094704.949000", "094704.951000", "094704.953000", "094704.956000", "094704.958000", "094704.960000", "094704.963000", "094704.965000", "094704.967000", "094704.970000", "094704.972000", "094704.979000", "094704.981000", "094704.984000"],
      "InstanceNumber": [1, 2, 3, 4, 5, 6, 7, 8, 9, 10, 11, 12, 13, 14, 15, 16, 17, 18, 19, 20, 21, 22, 23, 24, 25, 26, 27, 28, 29, 30, 31, 32, 33, 34, 35, 36, 37, 38, 39, 40, 41, 42, 43, 44, 45, 46, 47, 48, 49, 50, 51, 52, 53, 54, 55, 56, 57, 58, 59, 60, 61, 62, 63, 64, 65, 66, 67, 68, 69, 70, 71, 72, 73, 74, 75, 76, 77, 78, 79, 80, 81, 82, 83, 84, 85, 86, 87, 88, 89, 90, 91, 92, 93, 94, 95, 96, 97, 98, 99, 100, 101, 102, 103, 104, 105, 106, 107, 108, 109, 110, 111, 112, 113, 114, 115, 116, 117, 118, 119, 120, 121, 122, 123, 124, 125, 126, 127, 128, 129, 130, 131, 132, 133, 134, 135, 136, 137, 138, 139, 140, 141, 142, 143, 144, 145, 146, 147, 148, 149, 150, 151, 152, 153, 154, 155, 156, 157, 158, 159, 160, 161, 162, 163, 164, 165, 166, 167, 168, 169, 170, 171, 172, 173, 174, 175, 176, 177, 178, 179, 180, 181, 182, 183, 184, 185, 186, 187, 188, 189, 190, 191, 192, 193, 194, 195, 196, 197, 198, 199, 200],
      "LargestImagePixelValue": [2109, 2107, 2108, 2107, 2107, 2108, 2108, 2106, 2107, 2110, 2109, 2108, 2108, 2108, 2108, 2107, 2106, 2111, 2108, 2109, 2109, 2108, 2107, 2108, 2110, 2107, 2107, 2111, 2108, 2107, 2109, 2108, 2108, 2108, 2108, 2108, 2107, 2108, 2107, 2109, 2108, 2107, 2109, 2107, 2109, 2107, 2107, 2109, 2109, 2108, 2108, 2110, 2107, 2110, 2108, 2107, 2107, 2108, 2107, 2108, 2109, 2106, 2110, 2110, 2108, 2109, 2108, 2108, 2109, 2109, 2107, 2107, 2108, 2106, 2107, 2107, 2108, 2108, 2107, 2109, 2108, 2109, 2108, 2106, 2107, 2108, 2108, 2106, 2110, 2107, 2109, 2110, 2107, 2106, 2108, 2106, 2106, 2106, 2108, 2107, 2106, 2105, 2106, 2106, 2106, 2106, 2106, 2106, 2107, 2109, 2106, 2108, 2107, 2107, 2109, 2106, 2106, 2107, 2107, 2107, 2107, 2106, 2107, 2105, 2105, 2106, 2107, 2106, 2109, 2107, 2106, 2106, 2107, 2104, 2106, 2109, 2107, 2105, 2107, 2107, 2106, 2105, 2106, 2107, 2106, 2106, 2107, 2107, 2105, 2105, 2108, 2107, 2106, 2108, 2108, 2107, 2105, 2107, 2106, 2107, 2107, 2107, 2106, 2105, 2109, 2108, 2106, 2106, 2105, 2106, 2107, 2106, 2104, 2106, 2106, 2107, 2105, 2105, 2105, 2103, 2105, 2104, 2105, 2106, 2107, 2108, 2105, 2108, 2107, 2105, 2104, 2104, 2104, 2104, 2105, 2106, 2105, 2107, 2106, 2105],
      "WindowCenter": [1008.0, 1007.0, 1009.0, 1008.0, 1009.0, 1008.0, 1009.0, 1007.0, 1008.0, 1007.0, 1008.0, 1007.0, 1008.0, 1008.0, 1007.0, 1009.0, 1009.0, 1008.0, 1008.0, 1008.0, 1008.0, 1007.0, 1009.0, 1007.0, 1008.0, 1007.0, 1008.0, 1008.0, 1008.0, 1008.0, 1008.0, 1007.0, 1008.0, 1008.0, 1007.0, 1008.0, 1008.0, 1008.0, 1008.0, 1008.0, 1007.0, 1007.0, 1007.0, 1006.0, 1006.0, 1008.0, 1007.0, 1007.0, 1008.0, 1008.0, 1008.0, 1007.0, 1008.0, 1008.0, 1008.0, 1009.0, 1006.0, 1008.0, 1007.0, 1008.0, 1008.0, 1008.0, 1008.0, 1008.0, 1008.0, 1008.0, 1008.0, 1008.0, 1008.0, 1008.0, 1008.0, 1007.0, 1007.0, 1007.0, 1007.0, 1007.0, 1007.0, 1007.0, 1008.0, 1007.0, 1007.0, 1006.0, 1006.0, 1006.0, 1008.0, 1006.0, 1006.0, 1007.0, 1008.0, 1008.0, 1006.0, 1006.0, 1006.0, 1007.0, 1007.0, 1006.0, 1007.0, 1006.0, 1008.0, 1007.0, 1006.0, 1006.0, 1007.0, 1007.0, 1007.0, 1008.0, 1006.0, 1006.0, 1007.0, 1005.0, 1005.0, 1006.0, 1007.0, 1007.0, 1008.0, 1007.0, 1007.0, 1007.0, 1006.0, 1007.0, 1006.0, 1007.0, 1007.0, 1007.0, 1006.0, 1007.0, 1006.0, 1006.0, 1007.0, 1007.0, 1005.0, 1006.0, 1007.0, 1007.0, 1005.0, 1006.0, 1006.0, 1006.0, 1006.0, 1007.0, 1008.0, 1007.0, 1007.0, 1008.0, 1007.0, 1006.0, 1006.0, 1006.0, 1005.0, 1006.0, 1006.0, 1008.0, 1006.0, 1006.0, 1008.0, 1006.0, 1007.0, 1006.0, 1007.0, 1006.0, 1007.0, 1007.0, 1007.0, 1007.0, 1007.0, 1006.0, 1007.0, 1007.0, 1007.0, 1007.0, 1007.0, 1006.0, 1007.0, 1007.0, 1008.0, 1007.0, 1006.0, 1006.0, 1007.0, 1005.0, 1006.0, 1007.0, 1008.0, 1006.0, 1006.0, 1006.0, 1006.0, 1006.0, 1007.0, 1006.0, 1007.0, 1006.0, 1007.0, 1007.0, 1007.0, 1006.0, 1006.0, 1006.0, 1006.0, 1006.0],
      "WindowWidth": [2238.0, 2237.0, 2239.0, 2238.0, 2239.0, 2238.0, 2239.0, 2237.0, 2238.0, 2236.0, 2238.0, 2237.0, 2238.0, 2238.0, 2237.0, 2238.0, 2238.0, 2238.0, 2238.0, 2238.0, 2238.0, 2237.0, 2238.0, 2237.0, 2238.0, 2237.0, 2238.0, 2238.0, 2237.0, 2238.0, 2237.0, 2237.0, 2237.0, 2237.0, 2237.0, 2237.0, 2237.0, 2237.0, 2237.0, 2237.0, 2237.0, 2236.0, 2237.0, 2235.0, 2236.0, 2237.0, 2236.0, 2236.0, 2237.0, 2237.0, 2237.0, 2236.0, 2237.0, 2237.0, 2237.0, 2237.0, 2236.0, 2237.0, 2236.0, 2237.0, 2237.0, 2236.0, 2236.0, 2236.0, 2236.0, 2237.0, 2236.0, 2236.0, 2236.0, 2236.0, 2237.0, 2236.0, 2236.0, 2236.0, 2236.0, 2236.0, 2236.0, 2236.0, 2237.0, 2236.0, 2236.0, 2235.0, 2236.0, 2235.0, 2237.0, 2235.0, 2236.0, 2236.0, 2237.0, 2237.0, 2235.0, 2235.0, 2235.0, 2236.0, 2236.0, 2235.0, 2236.0, 2235.0, 2237.0, 2236.0, 2235.0, 2235.0, 2236.0, 2236.0, 2236.0, 2237.0, 2235.0, 2235.0, 2235.0, 2234.0, 2234.0, 2235.0, 2235.0, 2236.0, 2236.0, 2235.0, 2235.0, 2235.0, 2235.0, 2235.0, 2235.0, 2235.0, 2235.0, 2235.0, 2234.0, 2235.0, 2235.0, 2235.0, 2235.0, 2236.0, 2234.0, 2234.0, 2235.0, 2235.0, 2234.0, 2235.0, 2234.0, 2234.0, 2234.0, 2235.0, 2236.0, 2235.0, 2235.0, 2236.0, 2235.0, 2234.0, 2234.0, 2234.0, 2234.0, 2234.0, 2234.0, 2236.0, 2234.0, 2234.0, 2236.0, 2234.0, 2235.0, 2234.0, 2235.0, 2234.0, 2235.0, 2235.0, 2235.0, 2235.0, 2235.0, 2234.0, 2235.0, 2235.0, 2235.0, 2235.0, 2235.0, 2234.0, 2235.0, 2235.0, 2236.0, 2235.0, 2234.0, 2234.0, 2234.0, 2233.0, 2234.0, 2235.0, 2235.0, 2234.0, 2234.0, 2235.0, 2234.0, 2235.0, 2234.0, 2234.0, 2235.0, 2235.0, 2235.0, 2234.0, 2234.0, 2234.0, 2235.0, 2234.0, 2235.0, 2233.0]
    },
    "slices": {}
  }
}