{
  "AcquisitionMatrixPE": 80,
  "AcquisitionNumber": 1,
  "AcquisitionTime": "09:47:11.457500",
  "BandwidthPerPixelPhaseEncode": 25,
  "BaseResolution": 80,
  "BodyPartExamined": "BRAIN",
  "CoilCombinationMethod": "Sum of Squares",
  "ConsistencyInfo": "N4_VE11E_LATEST_20181129",
  "ConversionSoftware": "dcm2niix",
  "ConversionSoftwareVersion": "v1.0.20220720",
  "DerivedVendorReportedEchoSpacing": 0.0005,
  "DeviceSerialNumber": "66112",
  "DwellTime": 2.7e-06,
  "EchoTime": 0.03,
  "EchoTrainLength": 80,
  "EffectiveEchoSpacing": 0.0005,
  "FlipAngle": 10,
  "HeudiconvVersion": "0.13.1",
  "ImageOrientationPatientDICOM": [0.992643, 0.12086, 0.00728974, -0.117311, 0.9451, 0.304998],
  "ImageOrientationText": "Tra>Cor(17.7)>Sag(-1.7)",
  "ImageType": [
    "ORIGINAL",
    "PRIMARY",
    "M",
    "ND",
    "NORM",
    "MOSAIC"
],
  "ImagingFrequency": 123.259,
  "InPlanePhaseEncodingDirectionDICOM": "COL",
  "InstitutionAddress": "Maynard 3,Hanover,NH,US,03755",
  "InstitutionName": "Dartmouth College - PBS",
  "InstitutionalDepartmentName": "Department",
  "MRAcquisitionType": "2D",
  "MagneticFieldStrength": 3,
  "Manufacturer": "Siemens",
  "ManufacturersModelName": "Prisma",
  "MatrixCoilMode": "SENSE",
  "Modality": "MR",
  "NonlinearGradientCorrection": false,
  "PartialFourier": 1,
  "PatientPosition": "HFS",
  "PercentPhaseFOV": 100,
  "PercentSampling": 100,
  "PhaseEncodingDirection": "j-",
  "PhaseEncodingSteps": 80,
  "PhaseResolution": 1,
  "PixelBandwidth": 2315,
  "ProcedureStepDescription": "dbic^QA",
  "ProtocolName": "func-bold_fa-10",
  "PulseSequenceDetails": "%SiemensSeq%\\ep2d_bold",
  "ReceiveCoilActiveElements": "HEA;HEP",
  "ReceiveCoilName": "Head_32",
  "ReconMatrixPE": 80,
  "RepetitionTime": 2,
  "SAR": 0.00994619,
  "ScanOptions": "FS",
  "ScanningSequence": "EP",
  "SequenceName": "*epfid2d1_80",
  "SequenceVariant": "SK",
  "SeriesDescription": "func-bold_fa-10",
  "SeriesNumber": 8,
  "ShimSetting": [4223, -7746, -7496, -22, -150, -62, -3, 76],
  "SliceThickness": 3.5,
  "SliceTiming": [0.99, 0, 1.0575, 0.0675, 1.1225, 0.1325, 1.1875, 0.1975, 1.255, 0.265, 1.32, 0.33, 1.3875, 0.3975, 1.4525, 0.4625, 1.5175, 0.5275, 1.585, 0.595, 1.65, 0.66, 1.7175, 0.7275, 1.7825, 0.7925, 1.8475, 0.8575, 1.915, 0.925],
  "SoftwareVersions": "syngo MR E11",
  "SpacingBetweenSlices": 3.99,
  "StationName": "AWP66112",
  "TotalReadoutTime": 0.0395,
  "TxRefAmp": 227.202,
  "dcmmeta_affine": [
    [-2.977928400039673, -0.35193413496017456, -0.11959078162908554, 135.2405548095703],
    [-0.36258044838905334, 2.8352999687194824, 1.2114026546478271, -109.85115814208984],
    [0.021869223564863205, -0.9149953722953796, 3.799776554107666, -22.940074920654297],
    [0.0, 0.0, 0.0, 1.0]
],
  "dcmmeta_reorient_transform": [
    [0.0, -1.0, 0.0, 79.0],
    [1.0, 0.0, 0.0, 0.0],
    [0.0, 0.0, 1.0, 0.0],
    [0.0, 0.0, 0.0, 1.0]
],
  "dcmmeta_shape": [80, 80, 30, 200],
  "dcmmeta_slice_dim": 2,
  "dcmmeta_version": 0.6,
  "global": {
    "const": {
      "AccessionNumber": "qa",
      "AcquisitionMatrix": [80, 0, 0, 80],
      "AngioFlag": "N",
      "BitsAllocated": 16,
      "BitsStored": 12,
      "BodyPartExamined": "BRAIN",
      "Columns": 480,
      "EchoNumbers": 1,
      "EchoTime": 30.0,
      "EchoTrainLength": 80,
      "FlipAngle": 10.0,
      "HighBit": 11,
      "ImageOrientationPatient": [0.99264277704723, 0.12086015410806, 0.00728974107515, -0.1173113756542, 0.94509998587006, 0.30499845548878],
      "ImagePositionPatient": [-632.63659589187, -753.71362610926, -282.59762741104],
      "ImageType": [
        "ORIGINAL",
        "PRIMARY",
        "M",
        "ND",
        "NORM",
        "MOSAIC"
],
      "ImagedNucleus": "1H",
      "ImagingFrequency": 123.259131,
      "InPlanePhaseEncodingDirection": "COL",
      "MRAcquisitionType": "2D",
      "MagneticFieldStrength": 3.0,
      "Manufacturer": "SIEMENS",
      "ManufacturerModelName": "Prisma",
      "Modality": "MR",
      "NumberOfAverages": 1.0,
      "NumberOfPhaseEncodingSteps": 80,
      "PercentPhaseFieldOfView": 100.0,
      "PercentSampling": 100.0,
      "PerformedProcedureStepStartTime": "092202.408000",
      "PhotometricInterpretation": "MONOCHROME2",
      "PixelBandwidth": 2315.0,
      "PixelRepresentation": 0,
      "PixelSpacing": [3.0, 3.0],
      "ProtocolName": "func-bold_fa-10",
      "RepetitionTime": 2000.0,
      "Rows": 480,
      "SAR": 0.00994618550963,
      "SamplesPerPixel": 1,
      "ScanOptions": "FS",
      "ScanningSequence": "EP",
      "SequenceName": "*epfid2d1_80",
      "SequenceVariant": "SK",
      "SeriesDescription": "func-bold_fa-10",
      "SeriesNumber": 8,
      "SeriesTime": "094751.878000",
      "SliceLocation": -59.251794896805,
      "SliceThickness": 3.5,
      "SmallestImagePixelValue": 0,
      "SoftwareVersions": "syngo MR E11",
      "SpacingBetweenSlices": 3.9899999923727,
      "SpecificCharacterSet": "ISO_IR 100",
      "StudyID": "17",
      "StudyTime": "092202.341000",
      "TransmitCoilName": "Body",
      "VariableFlipAngleFlag": "N",
      "WindowCenterWidthExplanation": "Algo1"
    },
    "slices": {}
  },
  "time": {
    "samples": {
      "AcquisitionNumber": [1, 2, 3, 4, 5, 6, 7, 8, 9, 10, 11, 12, 13, 14, 15, 16, 17, 18, 19, 20, 21, 22, 23, 24, 25, 26, 27, 28, 29, 30, 31, 32, 33, 34, 35, 36, 37, 38, 39, 40, 41, 42, 43, 44, 45, 46, 47, 48, 49, 50, 51, 52, 53, 54, 55, 56, 57, 58, 59, 60, 61, 62, 63, 64, 65, 66, 67, 68, 69, 70, 71, 72, 73, 74, 75, 76, 77, 78, 79, 80, 81, 82, 83, 84, 85, 86, 87, 88, 89, 90, 91, 92, 93, 94, 95, 96, 97, 98, 99, 100, 101, 102, 103, 104, 105, 106, 107, 108, 109, 110, 111, 112, 113, 114, 115, 116, 117, 118, 119, 120, 121, 122, 123, 124, 125, 126, 127, 128, 129, 130, 131, 132, 133, 134, 135, 136, 137, 138, 139, 140, 141, 142, 143, 144, 145, 146, 147, 148, 149, 150, 151, 152, 153, 154, 155, 156, 157, 158, 159, 160, 161, 162, 163, 164, 165, 166, 167, 168, 169, 170, 171, 172, 173, 174, 175, 176, 177, 178, 179, 180, 181, 182, 183, 184, 185, 186, 187, 188, 189, 190, 191, 192, 193, 194, 195, 196, 197, 198, 199, 200],
      "AcquisitionTime": ["094711.457500", "094713.457500", "094715.457500", "094717.457500", "094719.457500", "094721.457500", "094723.457500", "094725.457500", "094727.457500", "094729.457500", "094731.457500", "094733.457500", "094735.457500", "094737.457500", "094739.457500", "094741.457500", "094743.457500", "094745.457500", "094747.457500", "094749.457500", "094751.457500", "094753.457500", "094755.457500", "094757.457500", "094759.457500", "094801.457500", "094803.457500", "094805.457500", "094807.457500", "094809.457500", "094811.457500", "094813.457500", "094815.457500", "094817.457500", "094819.457500", "094821.457500", "094823.457500", "094825.457500", "094827.457500", "094829.457500", "094831.457500", "094833.457500", "094835.457500", "094837.457500", "094839.457500", "094841.457500", "094843.457500", "094845.457500", "094847.457500", "094849.457500", "094851.457500", "094853.457500", "094855.457500", "094857.457500", "094859.457500", "094901.457500", "094903.457500", "094905.457500", "094907.457500", "094909.457500", "094911.457500", "094913.457500", "094915.457500", "094917.457500", "094919.457500", "094921.457500", "094923.457500", "094925.457500", "094927.457500", "094929.457500", "094931.457500", "094933.457500", "094935.457500", "094937.457500", "094939.457500", "094941.457500", "094943.457500", "094945.457500", "094947.457500", "094949.457500", "094951.457500", "094953.457500", "094955.457500", "094957.457500", "094959.457500", "095001.457500", "095003.457500", "095005.457500", "095007.457500", "095009.457500", "095011.457500", "095013.457500", "095015.457500", "095017.457500", "095019.457500", "095021.457500", "095023.457500", "095025.457500", "095027.457500", "095029.457500", "095031.457500", "095033.457500", "095035.457500", "095037.457500", "095039.457500", "095041.457500", "095043.457500", "095045.457500", "095047.457500", "095049.457500", "095051.457500", "095053.457500", "095055.457500", "095057.457500", "095059.457500", "095101.457500", "095103.457500", "095105.457500", "095107.457500", "095109.457500", "095111.457500", "095113.457500", "095115.457500", "095117.457500", "095119.457500", "095121.457500", "095123.457500", "095125.457500", "095127.457500", "095129.457500", "095131.457500", "095133.457500", "095135.457500", "095137.457500", "095139.457500", "095141.457500", "095143.457500", "095145.457500", "095147.457500", "095149.457500", "095151.457500", "095153.457500", "095155.457500", "095157.457500", "095159.457500", "095201.457500", "095203.457500", "095205.457500", "095207.457500", "095209.457500", "095211.457500", "095213.457500", "095215.457500", "095217.457500", "095219.457500", "095221.457500", "095223.457500", "095225.457500", "095227.457500", "095229.457500", "095231.457500", "095233.457500", "095235.457500", "095237.457500", "095239.457500", "095241.457500", "095243.457500", "095245.457500", "095247.457500", "095249.457500", "095251.457500", "095253.457500", "095255.457500", "095257.457500", "095259.457500", "095301.457500", "095303.457500", "095305.457500", "095307.457500", "095309.457500", "095311.457500", "095313.457500", "095315.457500", "095317.457500", "095319.457500", "095321.457500", "095323.457500", "095325.457500", "095327.457500", "095329.457500", "095331.457500", "095333.457500", "095335.457500", "095337.457500", "095339.457500", "095341.457500", "095343.457500", "095345.457500", "095347.457500", "095349.457500"],
      "ContentTime": ["094751.881000", "094751.884000", "094751.916000", "094751.918000", "094751.921000", "094751.923000", "094751.925000", "094751.928000", "094751.930000", "094751.932000", "094751.935000", "094751.937000", "094751.939000", "094751.942000", "094751.944000", "094751.953000", "094751.955000", "094751.958000", "094751.964000", "094751.967000", "094831.878000", "094831.880000", "094831.883000", "094831.885000", "094831.887000", "094831.890000", "094831.892000", "094831.894000", "094831.897000", "094831.899000", "094831.901000", "094831.904000", "094831.906000", "094831.908000", "094831.911000", "094831.913000", "094831.915000", "094831.918000", "094831.920000", "094831.923000", "094911.876000", "094911.879000", "094911.882000", "094911.884000", "094911.908000", "094911.910000", "094911.913000", "094911.915000", "094911.917000", "094911.919000", "094911.922000", "094911.924000", "094911.926000", "094911.929000", "094911.931000", "094911.933000", "094911.936000", "094911.938000", "094911.948000", "094911.950000", "094951.875000", "094951.878000", "094951.880000", "094951.883000", "094951.885000", "094951.887000", "094951.889000", "094951.892000", "094951.894000", "094951.896000", "094951.899000", "094951.901000", "094951.903000", "094951.906000", "094951.908000", "094951.911000", "094951.913000", "094951.915000", "094951.917000", "094951.920000", "095031.876000", "095031.879000", "095031.881000", "095031.884000", "095031.886000", "095031.892000", "095031.894000", "095031.896000", "095031.899000", "095031.901000", "095031.903000", "095031.906000", "095031.908000", "095031.910000", "095031.913000", "095031.915000", "095031.917000", "095031.920000", "095031.922000", "095031.924000", "095111.876000", "095111.879000", "095111.881000", "095111.883000", "095111.886000", "095111.888000", "095111.890000", "095111.893000", "095111.895000", "095111.897000", "095111.900000", "095111.902000", "095111.904000", "095111.907000", "095111.909000", "095111.911000", "095111.914000", "095111.916000", "095111.918000", "095111.921000", "095151.875000", "095151.878000", "095151.880000", "095151.882000", "095151.885000", "095151.887000", "095151.889000", "095151.891000", "095151.894000", "095151.896000", "095151.898000", "095151.901000", "095151.903000", "095151.905000", "095151.908000", "095151.910000", "095151.912000", "095151.915000", "095151.917000", "095151.919000", "095231.876000", "095231.879000", "095231.881000", "095231.884000", "095231.886000", "095231.889000", "095231.891000", "095231.893000", "095231.895000", "095231.898000", "095231.900000", "095231.902000", "095231.905000", "095231.907000", "095231.909000", "095231.912000", "095231.914000", "095231.917000", "095231.919000", "095231.921000", "095311.876000", "095311.879000", "095311.881000", "095311.883000", "095311.886000", "095311.888000", "095311.891000", "095311.893000", "095311.895000", "095311.898000", "095311.900000", "095311.902000", "095311.904000", "095311.907000", "095311.909000", "095311.911000", "095311.914000", "095311.916000", "095311.918000", "095311.921000", "095351.344000", "095351.347000", "095351.355000", "095351.357000", "095351.359000", "095351.362000", "095351.364000", "095351.366000", "095351.369000", "095351.371000", "095351.374000", "095351.380000", "095351.385000", "095351.391000", "095351.394000", "095351.397000", "095351.399000", "095351.401000", "095351.404000", "095351.406000"],
      "InstanceCreationTime": ["094751.881000", "094751.884000", "094751.916000", "094751.918000", "094751.921000", "094751.923000", "094751.925000", "094751.928000", "094751.930000", "094751.932000", "094751.935000", "094751.937000", "094751.939000", "094751.942000", "094751.944000", "094751.953000", "094751.955000", "094751.958000", "094751.964000", "094751.967000", "094831.878000", "094831.880000", "094831.883000", "094831.885000", "094831.887000", "094831.890000", "094831.892000", "094831.894000", "094831.897000", "094831.899000", "094831.901000", "094831.904000", "094831.906000", "094831.908000", "094831.911000", "094831.913000", "094831.915000", "094831.918000", "094831.920000", "094831.923000", "094911.876000", "094911.879000", "094911.882000", "094911.884000", "094911.908000", "094911.910000", "094911.913000", "094911.915000", "094911.917000", "094911.919000", "094911.922000", "094911.924000", "094911.926000", "094911.929000", "094911.931000", "094911.933000", "094911.936000", "094911.938000", "094911.948000", "094911.950000", "094951.875000", "094951.878000", "094951.880000", "094951.883000", "094951.885000", "094951.887000", "094951.889000", "094951.892000", "094951.894000", "094951.896000", "094951.899000", "094951.901000", "094951.903000", "094951.906000", "094951.908000", "094951.911000", "094951.913000", "094951.915000", "094951.917000", "094951.920000", "095031.876000", "095031.879000", "095031.881000", "095031.884000", "095031.886000", "095031.892000", "095031.894000", "095031.896000", "095031.899000", "095031.901000", "095031.903000", "095031.906000", "095031.908000", "095031.910000", "095031.913000", "095031.915000", "095031.917000", "095031.920000", "095031.922000", "095031.924000", "095111.876000", "095111.879000", "095111.881000", "095111.883000", "095111.886000", "095111.888000", "095111.890000", "095111.893000", "095111.895000", "095111.897000", "095111.900000", "095111.902000", "095111.904000", "095111.907000", "095111.909000", "095111.911000", "095111.914000", "095111.916000", "095111.918000", "095111.921000", "095151.875000", "095151.878000", "095151.880000", "095151.882000", "095151.885000", "095151.887000", "095151.889000", "095151.891000", "095151.894000", "095151.896000", "095151.898000", "095151.901000", "095151.903000", "095151.905000", "095151.908000", "095151.910000", "095151.912000", "095151.915000", "095151.917000", "095151.919000", "095231.876000", "095231.879000", "095231.881000", "095231.884000", "095231.886000", "095231.889000", "095231.891000", "095231.893000", "095231.895000", "095231.898000", "095231.900000", "095231.902000", "095231.905000", "095231.907000", "095231.909000", "095231.912000", "095231.914000", "095231.917000", "095231.919000", "095231.921000", "095311.876000", "095311.879000", "095311.881000", "095311.883000", "095311.886000", "095311.888000", "095311.891000", "095311.893000", "095311.895000", "095311.898000", "095311.900000", "095311.902000", "095311.904000", "095311.907000", "095311.909000", "095311.911000", "095311.914000", "095311.916000", "095311.918000", "095311.921000", "095351.344000", "095351.347000", "095351.355000", "095351.357000", "095351.359000", "095351.362000", "095351.364000", "095351.366000", "095351.369000", "095351.371000", "095351.374000", "095351.380000", "095351.385000", "095351.391000", "095351.394000", "095351.397000", "095351.399000", "095351.401000", "095351.404000", "095351.406000"],
      "InstanceNumber": [1, 2, 3, 4, 5, 6, 7, 8, 9, 10, 11, 12, 13, 14, 15, 16, 17, 18, 19, 20, 21, 22, 23, 24, 25, 26, 27, 28, 29, 30, 31, 32, 33, 34, 35, 36, 37, 38, 39, 40, 41, 42, 43, 44, 45, 46, 47, 48, 49, 50, 51, 52, 53, 54, 55, 56, 57, 58, 59, 60, 61, 62, 63, 64, 65, 66, 67, 68, 69, 70, 71, 72, 73, 74, 75, 76, 77, 78, 79, 80, 81, 82, 83, 84, 85, 86, 87, 88, 89, 90, 91, 92, 93, 94, 95, 96, 97, 98, 99, 100, 101, 102, 103, 104, 105, 106, 107, 108, 109, 110, 111, 112, 113, 114, 115, 116, 117, 118, 119, 120, 121, 122, 123, 124, 125, 126, 127, 128, 129, 130, 131, 132, 133, 134, 135, 136, 137, 138, 139, 140, 141, 142, 143, 144, 145, 146, 147, 148, 149, 150, 151, 152, 153, 154, 155, 156, 157, 158, 159, 160, 161, 162, 163, 164, 165, 166, 167, 168, 169, 170, 171, 172, 173, 174, 175, 176, 177, 178, 179, 180, 181, 182, 183, 184, 185, 186, 187, 188, 189, 190, 191, 192, 193, 194, 195, 196, 197, 198, 199, 200],
      "LargestImagePixelValue": [361, 361, 361, 362, 361, 360, 359, 362, 363, 361, 361, 361, 361, 362, 361, 361, 361, 362, 361, 362, 361, 360, 361, 362, 361, 362, 362, 360, 360, 362, 361, 360, 361, 360, 362, 362, 363, 361, 360, 361, 362, 361, 360, 360, 360, 363, 363, 361, 360, 360, 362, 361, 361, 363, 360, 361, 359, 360, 362, 363, 360, 362, 362, 361, 360, 361, 360, 361, 363, 359, 361, 361, 361, 361, 363, 361, 361, 362, 361, 360, 362, 361, 361, 362, 362, 359, 362, 362, 361, 360, 360, 360, 362, 360, 361, 362, 361, 360, 363, 362, 362, 364, 359, 360, 362, 361, 361, 361, 362, 363, 362, 362, 360, 361, 361, 360, 361, 361, 361, 362, 362, 360, 362, 360, 362, 361, 360, 359, 362, 362, 360, 361, 359, 360, 362, 362, 361, 361, 361, 361, 360, 362, 361, 362, 361, 361, 361, 360, 360, 361, 361, 360, 361, 361, 361, 363, 360, 362, 362, 361, 360, 361, 361, 359, 362, 360, 359, 360, 361, 360, 363, 361, 361, 362, 359, 359, 359, 363, 360, 362, 360, 361, 362, 360, 360, 360, 361, 360, 360, 361, 360, 361, 360, 361, 359, 360, 362, 359, 359, 359],
      "WindowCenter": [294.0, 293.0, 293.0, 294.0, 294.0, 293.0, 294.0, 293.0, 294.0, 293.0, 293.0, 294.0, 294.0, 293.0, 294.0, 293.0, 293.0, 293.0, 293.0, 293.0, 294.0, 294.0, 293.0, 294.0, 294.0, 294.0, 294.0, 294.0, 293.0, 293.0, 294.0, 294.0, 293.0, 293.0, 293.0, 293.0, 293.0, 293.0, 294.0, 293.0, 293.0, 293.0, 294.0, 294.0, 293.0, 294.0, 293.0, 294.0, 294.0, 294.0, 294.0, 294.0, 293.0, 293.0, 293.0, 294.0, 294.0, 293.0, 294.0, 293.0, 294.0, 293.0, 294.0, 294.0, 293.0, 293.0, 294.0, 293.0, 293.0, 293.0, 293.0, 293.0, 294.0, 293.0, 293.0, 293.0, 293.0, 293.0, 293.0, 294.0, 294.0, 293.0, 293.0, 293.0, 294.0, 293.0, 293.0, 293.0, 293.0, 293.0, 293.0, 293.0, 293.0, 293.0, 293.0, 293.0, 293.0, 294.0, 293.0, 294.0, 293.0, 293.0, 293.0, 294.0, 294.0, 293.0, 293.0, 293.0, 293.0, 293.0, 293.0, 294.0, 294.0, 293.0, 293.0, 293.0, 293.0, 293.0, 293.0, 293.0, 293.0, 293.0, 293.0, 293.0, 293.0, 293.0, 293.0, 293.0, 293.0, 293.0, 293.0, 293.0, 293.0, 293.0, 293.0, 293.0, 293.0, 293.0, 293.0, 293.0, 293.0, 293.0, 292.0, 293.0, 293.0, 293.0, 293.0, 293.0, 293.0, 293.0, 292.0, 292.0, 292.0, 293.0, 292.0, 292.0, 293.0, 293.0, 292.0, 293.0, 292.0, 293.0, 294.0, 293.0, 293.0, 293.0, 293.0, 293.0, 293.0, 292.0, 292.0, 292.0, 292.0, 293.0, 292.0, 293.0, 293.0, 293.0, 293.0, 293.0, 293.0, 293.0, 293.0, 292.0, 293.0, 293.0, 293.0, 293.0, 293.0, 293.0, 293.0, 292.0, 293.0, 293.0, 293.0, 292.0, 293.0, 293.0, 292.0, 293.0],
      "WindowWidth": [638.0, 638.0, 638.0, 638.0, 638.0, 638.0, 638.0, 637.0, 638.0, 638.0, 638.0, 638.0, 638.0, 638.0, 638.0, 638.0, 638.0, 638.0, 638.0, 638.0, 638.0, 638.0, 638.0, 638.0, 638.0, 638.0, 638.0, 638.0, 638.0, 638.0, 638.0, 638.0, 638.0, 638.0, 638.0, 638.0, 637.0, 638.0, 638.0, 638.0, 637.0, 638.0, 638.0, 638.0, 638.0, 638.0, 637.0, 638.0, 638.0, 638.0, 638.0, 638.0, 638.0, 638.0, 638.0, 638.0, 638.0, 637.0, 638.0, 638.0, 638.0, 637.0, 638.0, 638.0, 638.0, 638.0, 638.0, 638.0, 638.0, 637.0, 637.0, 638.0, 638.0, 638.0, 638.0, 638.0, 638.0, 638.0, 637.0, 638.0, 638.0, 638.0, 638.0, 638.0, 638.0, 637.0, 638.0, 638.0, 638.0, 637.0, 637.0, 638.0, 637.0, 638.0, 637.0, 638.0, 637.0, 638.0, 637.0, 638.0, 637.0, 637.0, 637.0, 638.0, 638.0, 637.0, 637.0, 638.0, 637.0, 637.0, 637.0, 638.0, 638.0, 636.0, 637.0, 637.0, 637.0, 638.0, 637.0, 637.0, 637.0, 637.0, 637.0, 637.0, 637.0, 637.0, 637.0, 637.0, 637.0, 637.0, 637.0, 637.0, 636.0, 637.0, 637.0, 637.0, 637.0, 637.0, 637.0, 637.0, 636.0, 636.0, 636.0, 637.0, 637.0, 637.0, 636.0, 637.0, 636.0, 637.0, 636.0, 636.0, 636.0, 637.0, 636.0, 636.0, 636.0, 637.0, 636.0, 637.0, 636.0, 636.0, 638.0, 636.0, 637.0, 636.0, 636.0, 636.0, 637.0, 636.0, 636.0, 636.0, 636.0, 636.0, 636.0, 636.0, 636.0, 636.0, 637.0, 636.0, 636.0, 636.0, 637.0, 636.0, 636.0, 637.0, 637.0, 637.0, 636.0, 637.0, 636.0, 636.0, 636.0, 637.0, 636.0, 636.0, 636.0, 636.0, 636.0, 637.0]
    },
    "slices": {}
  }
}