{
  "AcquisitionMatrixPE": 80,
  "AcquisitionNumber": 1,
  "AcquisitionTime": "09:22:58.500000",
  "BandwidthPerPixelPhaseEncode": 25,
  "BaseResolution": 80,
  "BodyPartExamined": "BRAIN",
  "CoilCombinationMethod": "Sum of Squares",
  "ConsistencyInfo": "N4_VE11C_LATEST_20160120",
  "ConversionSoftware": "dcm2niix",
  "ConversionSoftwareVersion": "v1.0.20220720",
  "DerivedVendorReportedEchoSpacing": 0.0005,
  "DeviceSerialNumber": "66112",
  "DwellTime": 2.7e-06,
  "EchoTime": 0.03,
  "EchoTrainLength": 80,
  "EffectiveEchoSpacing": 0.0005,
  "FlipAngle": 77,
  "HeudiconvVersion": "0.13.1",
  "ImageOrientationPatientDICOM": [0.985106, 0.171642, 0.0102276, -0.166618, 0.938201, 0.303343],
  "ImageOrientationText": "Tra>Cor(17.5)>Sag(-2.4)",
  "ImageType": [
    "ORIGINAL",
    "PRIMARY",
    "M",
    "ND",
    "NORM",
    "MOSAIC"
],
  "ImagingFrequency": 123.252,
  "InPlanePhaseEncodingDirectionDICOM": "COL",
  "InstitutionAddress": "Maynard 3,Hanover,NH,US,03755",
  "InstitutionName": "Dartmouth College - PBS",
  "InstitutionalDepartmentName": "Department",
  "MRAcquisitionType": "2D",
  "MagneticFieldStrength": 3,
  "Manufacturer": "Siemens",
  "ManufacturersModelName": "Prisma",
  "MatrixCoilMode": "SENSE",
  "Modality": "MR",
  "NonlinearGradientCorrection": false,
  "PartialFourier": 1,
  "PatientPosition": "HFS",
  "PercentPhaseFOV": 100,
  "PercentSampling": 100,
  "PhaseEncodingDirection": "j-",
  "PhaseEncodingSteps": 80,
  "PhaseResolution": 1,
  "PixelBandwidth": 2315,
  "ProcedureStepDescription": "dbic^QA",
  "ProtocolName": "func-bold_acq-32ch-77flip",
  "PulseSequenceDetails": "%SiemensSeq%\\ep2d_bold",
  "ReceiveCoilActiveElements": "HEA;HEP",
  "ReceiveCoilName": "Head_32",
  "ReconMatrixPE": 80,
  "RepetitionTime": 2,
  "SAR": 0.0435871,
  "ScanOptions": "FS",
  "ScanningSequence": "EP",
  "SequenceName": "*epfid2d1_80",
  "SequenceVariant": "SK",
  "SeriesDescription": "func-bold_acq-32ch-77flip",
  "SeriesNumber": 8,
  "ShimSetting": [4151, -7688, -7519, 272, -12, -112, -18, 87],
  "SliceThickness": 3.5,
  "SliceTiming": [0.99, 0, 1.055, 0.065, 1.1225, 0.1325, 1.1875, 0.1975, 1.255, 0.265, 1.32, 0.33, 1.385, 0.395, 1.4525, 0.4625, 1.5175, 0.5275, 1.585, 0.595, 1.65, 0.66, 1.715, 0.725, 1.7825, 0.7925, 1.8475, 0.8575, 1.915, 0.925],
  "SoftwareVersions": "syngo MR E11",
  "SpacingBetweenSlices": 3.99,
  "StationName": "AWP66112",
  "TotalReadoutTime": 0.0395,
  "TxRefAmp": 227.178,
  "dcmmeta_affine": [
    [-2.9553191661834717, -0.4998548924922943, -0.1694582998752594, 144.02090454101562],
    [-0.5149246454238892, 2.814603090286255, 1.1991126537322998, -100.34671783447266],
    [0.030682824552059174, -0.9100297689437866, 3.8017776012420654, -20.95561408996582],
    [0.0, 0.0, 0.0, 1.0]
],
  "dcmmeta_reorient_transform": [
    [0.0, -1.0, 0.0, 79.0],
    [1.0, 0.0, 0.0, 0.0],
    [0.0, 0.0, 1.0, 0.0],
    [0.0, 0.0, 0.0, 1.0]
],
  "dcmmeta_shape": [80, 80, 30, 200],
  "dcmmeta_slice_dim": 2,
  "dcmmeta_version": 0.6,
  "global": {
    "const": {
      "AccessionNumber": "qa",
      "AcquisitionMatrix": [80, 0, 0, 80],
      "AngioFlag": "N",
      "BitsAllocated": 16,
      "BitsStored": 12,
      "BodyPartExamined": "BRAIN",
      "Columns": 480,
      "EchoNumbers": 1,
      "EchoTime": 30.0,
      "EchoTrainLength": 80,
      "FlipAngle": 77.0,
      "HighBit": 11,
      "ImageOrientationPatient": [0.98510637855888, 0.17164154203659, 0.01022760822044, -0.16661830062, 0.93820104837336, 0.30334326221237],
      "ImagePositionPatient": [-595.62522074249, -787.91248411067, -280.99049006001],
      "ImageType": [
        "ORIGINAL",
        "PRIMARY",
        "M",
        "ND",
        "NORM",
        "MOSAIC"
],
      "ImagedNucleus": "1H",
      "ImagingFrequency": 123.252401,
      "InPlanePhaseEncodingDirection": "COL",
      "MRAcquisitionType": "2D",
      "MagneticFieldStrength": 3.0,
      "Manufacturer": "SIEMENS",
      "ManufacturerModelName": "Prisma",
      "Modality": "MR",
      "NumberOfAverages": 1.0,
      "NumberOfPhaseEncodingSteps": 80,
      "PercentPhaseFieldOfView": 100.0,
      "PercentSampling": 100.0,
      "PerformedProcedureStepStartTime": "090416.335000",
      "PhotometricInterpretation": "MONOCHROME2",
      "PixelBandwidth": 2315.0,
      "PixelRepresentation": 0,
      "PixelSpacing": [3.0, 3.0],
      "ProtocolName": "func-bold_acq-32ch-77flip",
      "RepetitionTime": 2000.0,
      "Rows": 480,
      "SAR": 0.04358714462195,
      "SamplesPerPixel": 1,
      "ScanOptions": "FS",
      "ScanningSequence": "EP",
      "SequenceName": "*epfid2d1_80",
      "SequenceVariant": "SK",
      "SeriesDescription": "func-bold_acq-32ch-77flip",
      "SeriesNumber": 8,
      "SeriesTime": "092343.545000",
      "SliceLocation": -56.240888677041,
      "SliceThickness": 3.5,
      "SmallestImagePixelValue": 0,
      "SoftwareVersions": "syngo MR E11",
      "SpacingBetweenSlices": 3.9899999710402,
      "SpecificCharacterSet": "ISO_IR 100",
      "StudyID": "16",
      "StudyTime": "090416.298000",
      "TransmitCoilName": "Body",
      "VariableFlipAngleFlag": "N",
      "WindowCenterWidthExplanation": "Algo1",
      "dBdt": 0.0},
    "slices": {}
  },
  "time": {
    "samples": {
      "AcquisitionNumber": [1, 2, 3, 4, 5, 6, 7, 8, 9, 10, 11, 12, 13, 14, 15, 16, 17, 18, 19, 20, 21, 22, 23, 24, 25, 26, 27, 28, 29, 30, 31, 32, 33, 34, 35, 36, 37, 38, 39, 40, 41, 42, 43, 44, 45, 46, 47, 48, 49, 50, 51, 52, 53, 54, 55, 56, 57, 58, 59, 60, 61, 62, 63, 64, 65, 66, 67, 68, 69, 70, 71, 72, 73, 74, 75, 76, 77, 78, 79, 80, 81, 82, 83, 84, 85, 86, 87, 88, 89, 90, 91, 92, 93, 94, 95, 96, 97, 98, 99, 100, 101, 102, 103, 104, 105, 106, 107, 108, 109, 110, 111, 112, 113, 114, 115, 116, 117, 118, 119, 120, 121, 122, 123, 124, 125, 126, 127, 128, 129, 130, 131, 132, 133, 134, 135, 136, 137, 138, 139, 140, 141, 142, 143, 144, 145, 146, 147, 148, 149, 150, 151, 152, 153, 154, 155, 156, 157, 158, 159, 160, 161, 162, 163, 164, 165, 166, 167, 168, 169, 170, 171, 172, 173, 174, 175, 176, 177, 178, 179, 180, 181, 182, 183, 184, 185, 186, 187, 188, 189, 190, 191, 192, 193, 194, 195, 196, 197, 198, 199, 200],
      "AcquisitionTime": ["092258.500000", "092300.500000", "092302.500000", "092304.500000", "092306.500000", "092308.500000", "092310.500000", "092312.500000", "092314.500000", "092316.500000", "092318.500000", "092320.500000", "092322.500000", "092324.500000", "092326.500000", "092328.500000", "092330.500000", "092332.500000", "092334.500000", "092336.500000", "092338.500000", "092340.500000", "092342.500000", "092344.500000", "092346.500000", "092348.500000", "092350.500000", "092352.500000", "092354.500000", "092356.500000", "092358.500000", "092400.500000", "092402.500000", "092404.500000", "092406.500000", "092408.500000", "092410.500000", "092412.500000", "092414.500000", "092416.500000", "092418.500000", "092420.500000", "092422.500000", "092424.500000", "092426.500000", "092428.500000", "092430.500000", "092432.500000", "092434.500000", "092436.500000", "092438.500000", "092440.500000", "092442.500000", "092444.500000", "092446.500000", "092448.500000", "092450.500000", "092452.500000", "092454.500000", "092456.500000", "092458.500000", "092500.500000", "092502.500000", "092504.500000", "092506.500000", "092508.500000", "092510.500000", "092512.500000", "092514.500000", "092516.500000", "092518.500000", "092520.500000", "092522.500000", "092524.500000", "092526.500000", "092528.500000", "092530.500000", "092532.500000", "092534.500000", "092536.500000", "092538.500000", "092540.500000", "092542.500000", "092544.500000", "092546.500000", "092548.500000", "092550.500000", "092552.500000", "092554.500000", "092556.500000", "092558.500000", "092600.500000", "092602.500000", "092604.500000", "092606.500000", "092608.500000", "092610.500000", "092612.500000", "092614.500000", "092616.500000", "092618.500000", "092620.500000", "092622.500000", "092624.500000", "092626.500000", "092628.500000", "092630.500000", "092632.500000", "092634.500000", "092636.500000", "092638.500000", "092640.500000", "092642.500000", "092644.500000", "092646.500000", "092648.500000", "092650.500000", "092652.500000", "092654.500000", "092656.500000", "092658.500000", "092700.500000", "092702.500000", "092704.500000", "092706.500000", "092708.500000", "092710.500000", "092712.500000", "092714.500000", "092716.500000", "092718.500000", "092720.500000", "092722.500000", "092724.500000", "092726.500000", "092728.500000", "092730.500000", "092732.500000", "092734.500000", "092736.500000", "092738.500000", "092740.500000", "092742.500000", "092744.500000", "092746.500000", "092748.500000", "092750.500000", "092752.500000", "092754.500000", "092756.500000", "092758.500000", "092800.500000", "092802.500000", "092804.500000", "092806.500000", "092808.500000", "092810.500000", "092812.500000", "092814.500000", "092816.500000", "092818.500000", "092820.500000", "092822.500000", "092824.500000", "092826.500000", "092828.500000", "092830.500000", "092832.500000", "092834.500000", "092836.500000", "092838.500000", "092840.500000", "092842.500000", "092844.500000", "092846.500000", "092848.500000", "092850.500000", "092852.500000", "092854.500000", "092856.500000", "092858.500000", "092900.500000", "092902.500000", "092904.500000", "092906.500000", "092908.500000", "092910.500000", "092912.500000", "092914.500000", "092916.500000", "092918.500000", "092920.500000", "092922.500000", "092924.500000", "092926.500000", "092928.500000", "092930.500000", "092932.500000", "092934.500000", "092936.500000"],
      "ContentTime": ["092343.548000", "092343.552000", "092343.554000", "092343.557000", "092343.559000", "092343.562000", "092343.564000", "092343.567000", "092343.580000", "092343.582000", "092343.584000", "092343.587000", "092343.589000", "092343.592000", "092343.594000", "092343.597000", "092343.599000", "092343.602000", "092343.604000", "092343.606000", "092343.609000", "092343.612000", "092423.542000", "092423.545000", "092423.548000", "092423.550000", "092423.553000", "092423.555000", "092423.558000", "092423.560000", "092423.563000", "092423.565000", "092423.568000", "092423.570000", "092423.573000", "092423.575000", "092423.578000", "092423.580000", "092423.583000", "092423.585000", "092423.587000", "092423.590000", "092503.543000", "092503.549000", "092503.551000", "092503.554000", "092503.556000", "092503.559000", "092503.561000", "092503.564000", "092503.566000", "092503.569000", "092503.571000", "092503.574000", "092503.576000", "092503.579000", "092503.581000", "092503.584000", "092503.586000", "092503.589000", "092503.591000", "092503.594000", "092543.544000", "092543.546000", "092543.549000", "092543.551000", "092543.554000", "092543.556000", "092543.559000", "092543.561000", "092543.564000", "092543.566000", "092543.569000", "092543.571000", "092543.574000", "092543.576000", "092543.579000", "092543.581000", "092543.584000", "092543.586000", "092543.589000", "092543.591000", "092623.543000", "092623.546000", "092623.549000", "092623.551000", "092623.554000", "092623.556000", "092623.559000", "092623.561000", "092623.564000", "092623.567000", "092623.569000", "092623.572000", "092623.574000", "092623.577000", "092623.579000", "092623.581000", "092623.584000", "092623.586000", "092623.589000", "092623.592000", "092703.542000", "092703.545000", "092703.548000", "092703.550000", "092703.553000", "092703.555000", "092703.558000", "092703.560000", "092703.563000", "092703.565000", "092703.568000", "092703.571000", "092703.573000", "092703.576000", "092703.578000", "092703.581000", "092703.583000", "092703.586000", "092703.588000", "092703.591000", "092743.542000", "092743.545000", "092743.548000", "092743.550000", "092743.553000", "092743.556000", "092743.558000", "092743.561000", "092743.563000", "092743.566000", "092743.568000", "092743.571000", "092743.574000", "092743.576000", "092743.579000", "092743.581000", "092743.584000", "092743.586000", "092743.589000", "092743.591000", "092823.543000", "092823.546000", "092823.549000", "092823.551000", "092823.554000", "092823.556000", "092823.559000", "092823.561000", "092823.564000", "092823.566000", "092823.569000", "092823.572000", "092823.574000", "092823.594000", "092823.597000", "092823.600000", "092823.602000", "092823.605000", "092823.607000", "092823.610000", "092903.542000", "092903.545000", "092903.548000", "092903.551000", "092903.553000", "092903.556000", "092903.558000", "092903.561000", "092903.563000", "092903.566000", "092903.569000", "092903.571000", "092903.574000", "092903.576000", "092903.579000", "092903.582000", "092903.584000", "092903.587000", "092903.589000", "092903.592000", "092937.700000", "092937.703000", "092937.705000", "092937.719000", "092937.722000", "092937.724000", "092937.727000", "092937.730000", "092937.734000", "092937.740000", "092937.743000", "092937.746000", "092937.755000", "092937.758000", "092937.762000", "092937.766000", "092937.770000", "092937.773000"],
      "InstanceCreationTime": ["092343.548000", "092343.552000", "092343.554000", "092343.557000", "092343.559000", "092343.562000", "092343.564000", "092343.567000", "092343.580000", "092343.582000", "092343.584000", "092343.587000", "092343.589000", "092343.592000", "092343.594000", "092343.597000", "092343.599000", "092343.602000", "092343.604000", "092343.606000", "092343.609000", "092343.612000", "092423.542000", "092423.545000", "092423.548000", "092423.550000", "092423.553000", "092423.555000", "092423.558000", "092423.560000", "092423.563000", "092423.565000", "092423.568000", "092423.570000", "092423.573000", "092423.575000", "092423.578000", "092423.580000", "092423.583000", "092423.585000", "092423.587000", "092423.590000", "092503.543000", "092503.549000", "092503.551000", "092503.554000", "092503.556000", "092503.559000", "092503.561000", "092503.564000", "092503.566000", "092503.569000", "092503.571000", "092503.574000", "092503.576000", "092503.579000", "092503.581000", "092503.584000", "092503.586000", "092503.589000", "092503.591000", "092503.594000", "092543.544000", "092543.546000", "092543.549000", "092543.551000", "092543.554000", "092543.556000", "092543.559000", "092543.561000", "092543.564000", "092543.566000", "092543.569000", "092543.571000", "092543.574000", "092543.576000", "092543.579000", "092543.581000", "092543.584000", "092543.586000", "092543.589000", "092543.591000", "092623.543000", "092623.546000", "092623.549000", "092623.551000", "092623.554000", "092623.556000", "092623.559000", "092623.561000", "092623.564000", "092623.567000", "092623.569000", "092623.572000", "092623.574000", "092623.577000", "092623.579000", "092623.581000", "092623.584000", "092623.586000", "092623.589000", "092623.592000", "092703.542000", "092703.545000", "092703.548000", "092703.550000", "092703.553000", "092703.555000", "092703.558000", "092703.560000", "092703.563000", "092703.565000", "092703.568000", "092703.571000", "092703.573000", "092703.576000", "092703.578000", "092703.581000", "092703.583000", "092703.586000", "092703.588000", "092703.591000", "092743.542000", "092743.545000", "092743.548000", "092743.550000", "092743.553000", "092743.556000", "092743.558000", "092743.561000", "092743.563000", "092743.566000", "092743.568000", "092743.571000", "092743.574000", "092743.576000", "092743.579000", "092743.581000", "092743.584000", "092743.586000", "092743.589000", "092743.591000", "092823.543000", "092823.546000", "092823.549000", "092823.551000", "092823.554000", "092823.556000", "092823.559000", "092823.561000", "092823.564000", "092823.566000", "092823.569000", "092823.572000", "092823.574000", "092823.594000", "092823.597000", "092823.600000", "092823.602000", "092823.605000", "092823.607000", "092823.610000", "092903.542000", "092903.545000", "092903.548000", "092903.551000", "092903.553000", "092903.556000", "092903.558000", "092903.561000", "092903.563000", "092903.566000", "092903.569000", "092903.571000", "092903.574000", "092903.576000", "092903.579000", "092903.582000", "092903.584000", "092903.587000", "092903.589000", "092903.592000", "092937.700000", "092937.703000", "092937.705000", "092937.719000", "092937.722000", "092937.724000", "092937.727000", "092937.730000", "092937.734000", "092937.740000", "092937.743000", "092937.746000", "092937.755000", "092937.758000", "092937.762000", "092937.766000", "092937.770000", "092937.773000"],
      "InstanceNumber": [1, 2, 3, 4, 5, 6, 7, 8, 9, 10, 11, 12, 13, 14, 15, 16, 17, 18, 19, 20, 21, 22, 23, 24, 25, 26, 27, 28, 29, 30, 31, 32, 33, 34, 35, 36, 37, 38, 39, 40, 41, 42, 43, 44, 45, 46, 47, 48, 49, 50, 51, 52, 53, 54, 55, 56, 57, 58, 59, 60, 61, 62, 63, 64, 65, 66, 67, 68, 69, 70, 71, 72, 73, 74, 75, 76, 77, 78, 79, 80, 81, 82, 83, 84, 85, 86, 87, 88, 89, 90, 91, 92, 93, 94, 95, 96, 97, 98, 99, 100, 101, 102, 103, 104, 105, 106, 107, 108, 109, 110, 111, 112, 113, 114, 115, 116, 117, 118, 119, 120, 121, 122, 123, 124, 125, 126, 127, 128, 129, 130, 131, 132, 133, 134, 135, 136, 137, 138, 139, 140, 141, 142, 143, 144, 145, 146, 147, 148, 149, 150, 151, 152, 153, 154, 155, 156, 157, 158, 159, 160, 161, 162, 163, 164, 165, 166, 167, 168, 169, 170, 171, 172, 173, 174, 175, 176, 177, 178, 179, 180, 181, 182, 183, 184, 185, 186, 187, 188, 189, 190, 191, 192, 193, 194, 195, 196, 197, 198, 199, 200],
      "LargestImagePixelValue": [2116, 2119, 2120, 2118, 2116, 2117, 2118, 2116, 2118, 2117, 2119, 2117, 2118, 2120, 2116, 2119, 2119, 2117, 2116, 2118, 2120, 2119, 2122, 2121, 2119, 2120, 2117, 2119, 2120, 2119, 2119, 2121, 2120, 2120, 2120, 2123, 2118, 2120, 2121, 2121, 2118, 2118, 2118, 2120, 2121, 2118, 2119, 2118, 2121, 2118, 2119, 2119, 2117, 2119, 2116, 2117, 2118, 2118, 2119, 2117, 2119, 2118, 2119, 2119, 2117, 2119, 2117, 2118, 2117, 2120, 2118, 2119, 2118, 2120, 2119, 2119, 2119, 2120, 2120, 2118, 2119, 2119, 2119, 2118, 2121, 2119, 2118, 2120, 2121, 2117, 2119, 2120, 2118, 2118, 2121, 2118, 2119, 2119, 2118, 2119, 2119, 2118, 2120, 2120, 2120, 2119, 2120, 2120, 2119, 2118, 2117, 2119, 2119, 2119, 2120, 2117, 2117, 2119, 2120, 2118, 2119, 2118, 2116, 2118, 2117, 2116, 2119, 2117, 2117, 2117, 2117, 2117, 2117, 2119, 2120, 2118, 2120, 2119, 2117, 2117, 2118, 2121, 2118, 2118, 2118, 2117, 2118, 2117, 2118, 2117, 2121, 2119, 2118, 2116, 2117, 2118, 2116, 2117, 2116, 2119, 2118, 2115, 2117, 2118, 2118, 2119, 2118, 2117, 2117, 2118, 2120, 2118, 2118, 2120, 2118, 2117, 2118, 2117, 2118, 2118, 2118, 2119, 2118, 2117, 2116, 2117, 2119, 2118, 2117, 2118, 2119, 2118, 2119, 2117, 2118, 2118, 2118, 2116, 2117, 2116],
      "WindowCenter": [997.0, 997.0, 997.0, 996.0, 997.0, 996.0, 996.0, 998.0, 997.0, 997.0, 997.0, 997.0, 996.0, 997.0, 996.0, 997.0, 997.0, 997.0, 997.0, 996.0, 996.0, 997.0, 997.0, 997.0, 996.0, 997.0, 997.0, 997.0, 997.0, 997.0, 996.0, 997.0, 997.0, 997.0, 997.0, 997.0, 996.0, 996.0, 997.0, 996.0, 996.0, 995.0, 996.0, 996.0, 996.0, 996.0, 996.0, 996.0, 996.0, 996.0, 996.0, 996.0, 996.0, 996.0, 996.0, 995.0, 996.0, 996.0, 995.0, 996.0, 996.0, 996.0, 995.0, 995.0, 995.0, 995.0, 996.0, 995.0, 995.0, 995.0, 995.0, 996.0, 995.0, 996.0, 996.0, 995.0, 996.0, 995.0, 997.0, 996.0, 995.0, 996.0, 996.0, 995.0, 996.0, 995.0, 995.0, 996.0, 996.0, 996.0, 996.0, 996.0, 995.0, 995.0, 996.0, 995.0, 996.0, 996.0, 995.0, 997.0, 994.0, 995.0, 995.0, 997.0, 995.0, 996.0, 996.0, 995.0, 996.0, 996.0, 995.0, 996.0, 996.0, 996.0, 996.0, 996.0, 996.0, 995.0, 996.0, 995.0, 996.0, 995.0, 996.0, 997.0, 996.0, 996.0, 996.0, 995.0, 996.0, 995.0, 996.0, 996.0, 996.0, 996.0, 996.0, 996.0, 995.0, 996.0, 995.0, 996.0, 996.0, 996.0, 996.0, 995.0, 995.0, 996.0, 995.0, 995.0, 996.0, 996.0, 996.0, 995.0, 995.0, 996.0, 994.0, 994.0, 995.0, 994.0, 995.0, 995.0, 996.0, 994.0, 995.0, 995.0, 996.0, 995.0, 996.0, 995.0, 995.0, 996.0, 996.0, 996.0, 995.0, 995.0, 995.0, 994.0, 995.0, 996.0, 995.0, 994.0, 994.0, 995.0, 995.0, 996.0, 995.0, 995.0, 996.0, 994.0, 995.0, 994.0, 995.0, 995.0, 996.0, 995.0, 997.0, 995.0, 995.0, 995.0, 994.0, 995.0],
      "WindowWidth": [2207.0, 2207.0, 2207.0, 2206.0, 2208.0, 2207.0, 2207.0, 2208.0, 2207.0, 2207.0, 2207.0, 2207.0, 2207.0, 2207.0, 2207.0, 2207.0, 2207.0, 2207.0, 2207.0, 2207.0, 2207.0, 2207.0, 2207.0, 2207.0, 2206.0, 2207.0, 2207.0, 2207.0, 2207.0, 2207.0, 2206.0, 2207.0, 2207.0, 2207.0, 2207.0, 2207.0, 2206.0, 2206.0, 2207.0, 2206.0, 2206.0, 2206.0, 2206.0, 2206.0, 2205.0, 2206.0, 2207.0, 2206.0, 2207.0, 2206.0, 2206.0, 2207.0, 2206.0, 2207.0, 2207.0, 2206.0, 2207.0, 2206.0, 2206.0, 2207.0, 2206.0, 2206.0, 2205.0, 2206.0, 2206.0, 2206.0, 2206.0, 2206.0, 2206.0, 2206.0, 2206.0, 2206.0, 2206.0, 2206.0, 2206.0, 2206.0, 2206.0, 2206.0, 2207.0, 2206.0, 2206.0, 2206.0, 2206.0, 2205.0, 2206.0, 2205.0, 2205.0, 2206.0, 2206.0, 2206.0, 2206.0, 2206.0, 2205.0, 2205.0, 2205.0, 2205.0, 2205.0, 2205.0, 2205.0, 2206.0, 2204.0, 2205.0, 2205.0, 2206.0, 2205.0, 2206.0, 2206.0, 2205.0, 2205.0, 2205.0, 2205.0, 2206.0, 2205.0, 2205.0, 2205.0, 2205.0, 2205.0, 2205.0, 2205.0, 2205.0, 2205.0, 2205.0, 2205.0, 2207.0, 2205.0, 2205.0, 2205.0, 2204.0, 2205.0, 2204.0, 2205.0, 2205.0, 2205.0, 2205.0, 2205.0, 2205.0, 2204.0, 2205.0, 2205.0, 2205.0, 2205.0, 2205.0, 2205.0, 2204.0, 2204.0, 2205.0, 2204.0, 2204.0, 2205.0, 2205.0, 2205.0, 2205.0, 2204.0, 2205.0, 2203.0, 2203.0, 2204.0, 2203.0, 2204.0, 2204.0, 2205.0, 2204.0, 2205.0, 2205.0, 2206.0, 2205.0, 2206.0, 2204.0, 2204.0, 2205.0, 2205.0, 2206.0, 2204.0, 2205.0, 2205.0, 2204.0, 2205.0, 2206.0, 2204.0, 2204.0, 2204.0, 2205.0, 2205.0, 2205.0, 2205.0, 2205.0, 2205.0, 2204.0, 2204.0, 2203.0, 2205.0, 2205.0, 2206.0, 2205.0, 2206.0, 2204.0, 2205.0, 2205.0, 2204.0, 2205.0]
    },
    "slices": {}
  }
}