{
  "AcquisitionMatrixPE": 80,
  "AcquisitionNumber": 1,
  "AcquisitionTime": "09:29:44.505000",
  "BandwidthPerPixelPhaseEncode": 25,
  "BaseResolution": 80,
  "BodyPartExamined": "BRAIN",
  "CoilCombinationMethod": "Sum of Squares",
  "ConsistencyInfo": "N4_VE11C_LATEST_20160120",
  "ConversionSoftware": "dcm2niix",
  "ConversionSoftwareVersion": "v1.0.20220720",
  "DerivedVendorReportedEchoSpacing": 0.0005,
  "DeviceSerialNumber": "66112",
  "DwellTime": 2.7e-06,
  "EchoTime": 0.03,
  "EchoTrainLength": 80,
  "EffectiveEchoSpacing": 0.0005,
  "FlipAngle": 10,
  "HeudiconvVersion": "0.13.1",
  "ImageOrientationPatientDICOM": [0.985106, 0.171642, 0.0102276, -0.166618, 0.938201, 0.303343],
  "ImageOrientationText": "Tra>Cor(17.5)>Sag(-2.4)",
  "ImageType": [
    "ORIGINAL",
    "PRIMARY",
    "M",
    "ND",
    "NORM",
    "MOSAIC"
],
  "ImagingFrequency": 123.252,
  "InPlanePhaseEncodingDirectionDICOM": "COL",
  "InstitutionAddress": "Maynard 3,Hanover,NH,US,03755",
  "InstitutionName": "Dartmouth College - PBS",
  "InstitutionalDepartmentName": "Department",
  "MRAcquisitionType": "2D",
  "MagneticFieldStrength": 3,
  "Manufacturer": "Siemens",
  "ManufacturersModelName": "Prisma",
  "MatrixCoilMode": "SENSE",
  "Modality": "MR",
  "NonlinearGradientCorrection": false,
  "PartialFourier": 1,
  "PatientPosition": "HFS",
  "PercentPhaseFOV": 100,
  "PercentSampling": 100,
  "PhaseEncodingDirection": "j-",
  "PhaseEncodingSteps": 80,
  "PhaseResolution": 1,
  "PixelBandwidth": 2315,
  "ProcedureStepDescription": "dbic^QA",
  "ProtocolName": "func-bold_acq-32ch-10flip",
  "PulseSequenceDetails": "%SiemensSeq%\\ep2d_bold",
  "ReceiveCoilActiveElements": "HEA;HEP",
  "ReceiveCoilName": "Head_32",
  "ReconMatrixPE": 80,
  "RepetitionTime": 2,
  "SAR": 0.0116922,
  "ScanOptions": "FS",
  "ScanningSequence": "EP",
  "SequenceName": "*epfid2d1_80",
  "SequenceVariant": "SK",
  "SeriesDescription": "func-bold_acq-32ch-10flip",
  "SeriesNumber": 10,
  "ShimSetting": [4151, -7688, -7519, 272, -12, -112, -18, 87],
  "SliceThickness": 3.5,
  "SliceTiming": [0.99, 0, 1.055, 0.065, 1.12, 0.1325, 1.1875, 0.1975, 1.2525, 0.2625, 1.32, 0.33, 1.385, 0.395, 1.45, 0.4625, 1.5175, 0.5275, 1.5825, 0.5925, 1.65, 0.66, 1.715, 0.725, 1.78, 0.79, 1.8475, 0.8575, 1.9125, 0.9225],
  "SoftwareVersions": "syngo MR E11",
  "SpacingBetweenSlices": 3.99,
  "StationName": "AWP66112",
  "TotalReadoutTime": 0.0395,
  "TxRefAmp": 227.178,
  "dcmmeta_affine": [
    [-2.9553191661834717, -0.4998548924922943, -0.1694582998752594, 144.02090454101562],
    [-0.5149246454238892, 2.814603090286255, 1.1991126537322998, -100.34671783447266],
    [0.030682824552059174, -0.9100297689437866, 3.8017776012420654, -20.95561408996582],
    [0.0, 0.0, 0.0, 1.0]
],
  "dcmmeta_reorient_transform": [
    [0.0, -1.0, 0.0, 79.0],
    [1.0, 0.0, 0.0, 0.0],
    [0.0, 0.0, 1.0, 0.0],
    [0.0, 0.0, 0.0, 1.0]
],
  "dcmmeta_shape": [80, 80, 30, 200],
  "dcmmeta_slice_dim": 2,
  "dcmmeta_version": 0.6,
  "global": {
    "const": {
      "AccessionNumber": "qa",
      "AcquisitionMatrix": [80, 0, 0, 80],
      "AngioFlag": "N",
      "BitsAllocated": 16,
      "BitsStored": 12,
      "BodyPartExamined": "BRAIN",
      "Columns": 480,
      "EchoNumbers": 1,
      "EchoTime": 30.0,
      "EchoTrainLength": 80,
      "FlipAngle": 10.0,
      "HighBit": 11,
      "ImageOrientationPatient": [0.98510637855888, 0.17164154203659, 0.01022760822044, -0.16661830062, 0.93820104837336, 0.30334326221237],
      "ImagePositionPatient": [-595.62522074249, -787.91248411067, -280.99049006001],
      "ImageType": [
        "ORIGINAL",
        "PRIMARY",
        "M",
        "ND",
        "NORM",
        "MOSAIC"
],
      "ImagedNucleus": "1H",
      "ImagingFrequency": 123.252402,
      "InPlanePhaseEncodingDirection": "COL",
      "MRAcquisitionType": "2D",
      "MagneticFieldStrength": 3.0,
      "Manufacturer": "SIEMENS",
      "ManufacturerModelName": "Prisma",
      "Modality": "MR",
      "NumberOfAverages": 1.0,
      "NumberOfPhaseEncodingSteps": 80,
      "PercentPhaseFieldOfView": 100.0,
      "PercentSampling": 100.0,
      "PerformedProcedureStepStartTime": "090416.335000",
      "PhotometricInterpretation": "MONOCHROME2",
      "PixelBandwidth": 2315.0,
      "PixelRepresentation": 0,
      "PixelSpacing": [3.0, 3.0],
      "ProtocolName": "func-bold_acq-32ch-10flip",
      "RepetitionTime": 2000.0,
      "Rows": 480,
      "SAR": 0.01169221223398,
      "SamplesPerPixel": 1,
      "ScanOptions": "FS",
      "ScanningSequence": "EP",
      "SequenceName": "*epfid2d1_80",
      "SequenceVariant": "SK",
      "SeriesDescription": "func-bold_acq-32ch-10flip",
      "SeriesNumber": 10,
      "SeriesTime": "093043.615000",
      "SliceLocation": -56.240888677041,
      "SliceThickness": 3.5,
      "SmallestImagePixelValue": 0,
      "SoftwareVersions": "syngo MR E11",
      "SpacingBetweenSlices": 3.9899999710402,
      "SpecificCharacterSet": "ISO_IR 100",
      "StudyID": "16",
      "StudyTime": "090416.298000",
      "TransmitCoilName": "Body",
      "VariableFlipAngleFlag": "N",
      "WindowCenterWidthExplanation": "Algo1",
      "dBdt": 0.0},
    "slices": {}
  },
  "time": {
    "samples": {
      "AcquisitionNumber": [1, 2, 3, 4, 5, 6, 7, 8, 9, 10, 11, 12, 13, 14, 15, 16, 17, 18, 19, 20, 21, 22, 23, 24, 25, 26, 27, 28, 29, 30, 31, 32, 33, 34, 35, 36, 37, 38, 39, 40, 41, 42, 43, 44, 45, 46, 47, 48, 49, 50, 51, 52, 53, 54, 55, 56, 57, 58, 59, 60, 61, 62, 63, 64, 65, 66, 67, 68, 69, 70, 71, 72, 73, 74, 75, 76, 77, 78, 79, 80, 81, 82, 83, 84, 85, 86, 87, 88, 89, 90, 91, 92, 93, 94, 95, 96, 97, 98, 99, 100, 101, 102, 103, 104, 105, 106, 107, 108, 109, 110, 111, 112, 113, 114, 115, 116, 117, 118, 119, 120, 121, 122, 123, 124, 125, 126, 127, 128, 129, 130, 131, 132, 133, 134, 135, 136, 137, 138, 139, 140, 141, 142, 143, 144, 145, 146, 147, 148, 149, 150, 151, 152, 153, 154, 155, 156, 157, 158, 159, 160, 161, 162, 163, 164, 165, 166, 167, 168, 169, 170, 171, 172, 173, 174, 175, 176, 177, 178, 179, 180, 181, 182, 183, 184, 185, 186, 187, 188, 189, 190, 191, 192, 193, 194, 195, 196, 197, 198, 199, 200],
      "AcquisitionTime": ["092944.505000", "092946.505000", "092948.505000", "092950.505000", "092952.505000", "092954.505000", "092956.505000", "092958.505000", "093000.505000", "093002.505000", "093004.505000", "093006.505000", "093008.505000", "093010.505000", "093012.505000", "093014.505000", "093016.505000", "093018.505000", "093020.505000", "093022.505000", "093024.505000", "093026.505000", "093028.505000", "093030.505000", "093032.505000", "093034.505000", "093036.505000", "093038.505000", "093040.505000", "093042.505000", "093044.505000", "093046.505000", "093048.505000", "093050.505000", "093052.505000", "093054.505000", "093056.505000", "093058.505000", "093100.505000", "093102.505000", "093104.505000", "093106.505000", "093108.505000", "093110.505000", "093112.505000", "093114.505000", "093116.505000", "093118.505000", "093120.505000", "093122.505000", "093124.505000", "093126.505000", "093128.505000", "093130.505000", "093132.505000", "093134.505000", "093136.505000", "093138.505000", "093140.505000", "093142.505000", "093144.505000", "093146.505000", "093148.505000", "093150.505000", "093152.505000", "093154.505000", "093156.505000", "093158.505000", "093200.505000", "093202.505000", "093204.505000", "093206.505000", "093208.505000", "093210.505000", "093212.505000", "093214.505000", "093216.505000", "093218.505000", "093220.505000", "093222.505000", "093224.505000", "093226.505000", "093228.505000", "093230.505000", "093232.505000", "093234.505000", "093236.505000", "093238.505000", "093240.505000", "093242.505000", "093244.505000", "093246.505000", "093248.505000", "093250.505000", "093252.505000", "093254.505000", "093256.505000", "093258.505000", "093300.505000", "093302.505000", "093304.505000", "093306.505000", "093308.505000", "093310.505000", "093312.505000", "093314.505000", "093316.505000", "093318.505000", "093320.505000", "093322.505000", "093324.505000", "093326.505000", "093328.505000", "093330.505000", "093332.505000", "093334.505000", "093336.505000", "093338.505000", "093340.505000", "093342.505000", "093344.505000", "093346.505000", "093348.505000", "093350.505000", "093352.505000", "093354.505000", "093356.505000", "093358.505000", "093400.505000", "093402.505000", "093404.505000", "093406.505000", "093408.505000", "093410.505000", "093412.505000", "093414.505000", "093416.505000", "093418.505000", "093420.505000", "093422.505000", "093424.505000", "093426.505000", "093428.505000", "093430.505000", "093432.505000", "093434.505000", "093436.505000", "093438.505000", "093440.505000", "093442.505000", "093444.505000", "093446.505000", "093448.505000", "093450.505000", "093452.505000", "093454.505000", "093456.505000", "093458.505000", "093500.505000", "093502.505000", "093504.505000", "093506.505000", "093508.505000", "093510.505000", "093512.505000", "093514.505000", "093516.505000", "093518.505000", "093520.505000", "093522.505000", "093524.505000", "093526.505000", "093528.505000", "093530.505000", "093532.505000", "093534.505000", "093536.505000", "093538.505000", "093540.505000", "093542.505000", "093544.505000", "093546.505000", "093548.505000", "093550.505000", "093552.505000", "093554.505000", "093556.505000", "093558.505000", "093600.505000", "093602.505000", "093604.505000", "093606.505000", "093608.505000", "093610.505000", "093612.505000", "093614.505000", "093616.505000", "093618.505000", "093620.505000", "093622.505000"],
      "ContentTime": ["093043.627000", "093043.630000", "093043.633000", "093043.635000", "093043.638000", "093043.640000", "093043.643000", "093043.645000", "093043.648000", "093043.650000", "093043.653000", "093043.656000", "093043.658000", "093043.660000", "093043.663000", "093043.675000", "093043.678000", "093043.680000", "093043.683000", "093043.685000", "093043.688000", "093043.690000", "093043.693000", "093043.695000", "093043.698000", "093043.700000", "093043.703000", "093043.705000", "093043.708000", "093123.612000", "093123.615000", "093123.618000", "093123.620000", "093123.623000", "093123.625000", "093123.628000", "093123.630000", "093123.633000", "093123.636000", "093123.638000", "093123.641000", "093123.643000", "093123.646000", "093123.648000", "093123.651000", "093123.653000", "093123.655000", "093123.658000", "093123.660000", "093203.612000", "093203.615000", "093203.618000", "093203.620000", "093203.623000", "093203.625000", "093203.627000", "093203.630000", "093203.632000", "093203.635000", "093203.637000", "093203.640000", "093203.642000", "093203.645000", "093203.647000", "093203.650000", "093203.652000", "093203.655000", "093203.657000", "093203.660000", "093243.613000", "093243.616000", "093243.619000", "093243.621000", "093243.624000", "093243.626000", "093243.629000", "093243.631000", "093243.634000", "093243.636000", "093243.639000", "093243.641000", "093243.644000", "093243.646000", "093243.649000", "093243.651000", "093243.654000", "093243.656000", "093243.659000", "093243.661000", "093323.612000", "093323.615000", "093323.618000", "093323.620000", "093323.623000", "093323.625000", "093323.628000", "093323.631000", "093323.633000", "093323.636000", "093323.638000", "093323.641000", "093323.643000", "093323.646000", "093323.648000", "093323.651000", "093323.653000", "093323.656000", "093323.659000", "093323.661000", "093403.612000", "093403.615000", "093403.618000", "093403.620000", "093403.623000", "093403.625000", "093403.628000", "093403.630000", "093403.633000", "093403.635000", "093403.638000", "093403.641000", "093403.643000", "093403.646000", "093403.648000", "093403.651000", "093403.653000", "093403.656000", "093403.658000", "093403.661000", "093443.613000", "093443.616000", "093443.619000", "093443.621000", "093443.624000", "093443.626000", "093443.629000", "093443.631000", "093443.634000", "093443.636000", "093443.639000", "093443.641000", "093443.644000", "093443.646000", "093443.649000", "093443.651000", "093443.654000", "093443.656000", "093443.659000", "093443.661000", "093523.614000", "093523.616000", "093523.619000", "093523.621000", "093523.624000", "093523.626000", "093523.629000", "093523.632000", "093523.634000", "093523.637000", "093523.639000", "093523.642000", "093523.644000", "093523.647000", "093523.649000", "093523.652000", "093523.654000", "093523.657000", "093523.659000", "093523.661000", "093603.612000", "093603.615000", "093603.618000", "093603.620000", "093603.623000", "093603.625000", "093603.628000", "093603.631000", "093603.633000", "093603.636000", "093603.638000", "093603.641000", "093603.643000", "093603.646000", "093603.649000", "093603.651000", "093603.654000", "093603.656000", "093603.659000", "093603.662000", "093624.066000", "093624.069000", "093624.072000", "093624.074000", "093624.077000", "093624.079000", "093624.082000", "093624.084000", "093624.087000", "093624.089000", "093624.092000"],
      "InstanceCreationTime": ["093043.627000", "093043.630000", "093043.633000", "093043.635000", "093043.638000", "093043.640000", "093043.643000", "093043.645000", "093043.648000", "093043.650000", "093043.653000", "093043.656000", "093043.658000", "093043.660000", "093043.663000", "093043.675000", "093043.678000", "093043.680000", "093043.683000", "093043.685000", "093043.688000", "093043.690000", "093043.693000", "093043.695000", "093043.698000", "093043.700000", "093043.703000", "093043.705000", "093043.708000", "093123.612000", "093123.615000", "093123.618000", "093123.620000", "093123.623000", "093123.625000", "093123.628000", "093123.630000", "093123.633000", "093123.636000", "093123.638000", "093123.641000", "093123.643000", "093123.646000", "093123.648000", "093123.651000", "093123.653000", "093123.655000", "093123.658000", "093123.660000", "093203.612000", "093203.615000", "093203.618000", "093203.620000", "093203.623000", "093203.625000", "093203.627000", "093203.630000", "093203.632000", "093203.635000", "093203.637000", "093203.640000", "093203.642000", "093203.645000", "093203.647000", "093203.650000", "093203.652000", "093203.655000", "093203.657000", "093203.660000", "093243.613000", "093243.616000", "093243.619000", "093243.621000", "093243.624000", "093243.626000", "093243.629000", "093243.631000", "093243.634000", "093243.636000", "093243.639000", "093243.641000", "093243.644000", "093243.646000", "093243.649000", "093243.651000", "093243.654000", "093243.656000", "093243.659000", "093243.661000", "093323.612000", "093323.615000", "093323.618000", "093323.620000", "093323.623000", "093323.625000", "093323.628000", "093323.631000", "093323.633000", "093323.636000", "093323.638000", "093323.641000", "093323.643000", "093323.646000", "093323.648000", "093323.651000", "093323.653000", "093323.656000", "093323.659000", "093323.661000", "093403.612000", "093403.615000", "093403.618000", "093403.620000", "093403.623000", "093403.625000", "093403.628000", "093403.630000", "093403.633000", "093403.635000", "093403.638000", "093403.641000", "093403.643000", "093403.646000", "093403.648000", "093403.651000", "093403.653000", "093403.656000", "093403.658000", "093403.661000", "093443.613000", "093443.616000", "093443.619000", "093443.621000", "093443.624000", "093443.626000", "093443.629000", "093443.631000", "093443.634000", "093443.636000", "093443.639000", "093443.641000", "093443.644000", "093443.646000", "093443.649000", "093443.651000", "093443.654000", "093443.656000", "093443.659000", "093443.661000", "093523.614000", "093523.616000", "093523.619000", "093523.621000", "093523.624000", "093523.626000", "093523.629000", "093523.632000", "093523.634000", "093523.637000", "093523.639000", "093523.642000", "093523.644000", "093523.647000", "093523.649000", "093523.652000", "093523.654000", "093523.657000", "093523.659000", "093523.661000", "093603.612000", "093603.615000", "093603.618000", "093603.620000", "093603.623000", "093603.625000", "093603.628000", "093603.631000", "093603.633000", "093603.636000", "093603.638000", "093603.641000", "093603.643000", "093603.646000", "093603.649000", "093603.651000", "093603.654000", "093603.656000", "093603.659000", "093603.662000", "093624.066000", "093624.069000", "093624.072000", "093624.074000", "093624.077000", "093624.079000", "093624.082000", "093624.084000", "093624.087000", "093624.089000", "093624.092000"],
      "InstanceNumber": [1, 2, 3, 4, 5, 6, 7, 8, 9, 10, 11, 12, 13, 14, 15, 16, 17, 18, 19, 20, 21, 22, 23, 24, 25, 26, 27, 28, 29, 30, 31, 32, 33, 34, 35, 36, 37, 38, 39, 40, 41, 42, 43, 44, 45, 46, 47, 48, 49, 50, 51, 52, 53, 54, 55, 56, 57, 58, 59, 60, 61, 62, 63, 64, 65, 66, 67, 68, 69, 70, 71, 72, 73, 74, 75, 76, 77, 78, 79, 80, 81, 82, 83, 84, 85, 86, 87, 88, 89, 90, 91, 92, 93, 94, 95, 96, 97, 98, 99, 100, 101, 102, 103, 104, 105, 106, 107, 108, 109, 110, 111, 112, 113, 114, 115, 116, 117, 118, 119, 120, 121, 122, 123, 124, 125, 126, 127, 128, 129, 130, 131, 132, 133, 134, 135, 136, 137, 138, 139, 140, 141, 142, 143, 144, 145, 146, 147, 148, 149, 150, 151, 152, 153, 154, 155, 156, 157, 158, 159, 160, 161, 162, 163, 164, 165, 166, 167, 168, 169, 170, 171, 172, 173, 174, 175, 176, 177, 178, 179, 180, 181, 182, 183, 184, 185, 186, 187, 188, 189, 190, 191, 192, 193, 194, 195, 196, 197, 198, 199, 200],
      "LargestImagePixelValue": [360, 360, 360, 361, 360, 360, 361, 360, 360, 358, 360, 359, 359, 359, 359, 359, 359, 360, 360, 360, 359, 359, 360, 360, 359, 358, 360, 360, 359, 360, 359, 360, 359, 360, 359, 360, 359, 359, 361, 361, 361, 358, 359, 360, 359, 360, 359, 358, 360, 359, 359, 359, 359, 359, 359, 359, 359, 359, 360, 360, 360, 359, 360, 361, 360, 359, 359, 359, 360, 360, 359, 358, 358, 359, 359, 359, 360, 359, 359, 360, 359, 360, 359, 361, 358, 359, 360, 359, 360, 360, 359, 359, 358, 360, 359, 358, 359, 359, 359, 359, 360, 358, 358, 359, 359, 359, 359, 359, 359, 359, 358, 359, 359, 359, 360, 359, 359, 359, 360, 359, 358, 360, 359, 360, 358, 358, 359, 358, 358, 359, 359, 358, 359, 360, 359, 358, 358, 359, 360, 359, 357, 358, 359, 359, 358, 359, 359, 359, 358, 359, 359, 359, 359, 360, 360, 358, 360, 359, 359, 359, 359, 359, 360, 359, 359, 357, 358, 358, 359, 359, 359, 358, 358, 359, 359, 360, 359, 358, 359, 359, 360, 359, 359, 358, 358, 360, 358, 359, 360, 357, 359, 359, 359, 360, 357, 359, 359, 360, 358, 359],
      "WindowCenter": [289.0, 289.0, 289.0, 289.0, 289.0, 288.0, 288.0, 289.0, 288.0, 289.0, 289.0, 289.0, 289.0, 289.0, 289.0, 288.0, 288.0, 289.0, 289.0, 289.0, 288.0, 289.0, 289.0, 288.0, 289.0, 289.0, 289.0, 288.0, 288.0, 288.0, 288.0, 289.0, 288.0, 287.0, 288.0, 287.0, 288.0, 287.0, 288.0, 289.0, 288.0, 287.0, 288.0, 288.0, 288.0, 288.0, 288.0, 288.0, 288.0, 288.0, 288.0, 288.0, 288.0, 289.0, 288.0, 288.0, 288.0, 287.0, 288.0, 288.0, 288.0, 288.0, 288.0, 287.0, 288.0, 288.0, 288.0, 288.0, 288.0, 288.0, 288.0, 287.0, 288.0, 288.0, 288.0, 288.0, 288.0, 288.0, 288.0, 287.0, 288.0, 287.0, 288.0, 288.0, 287.0, 287.0, 288.0, 288.0, 288.0, 288.0, 288.0, 288.0, 288.0, 288.0, 288.0, 288.0, 288.0, 288.0, 288.0, 288.0, 287.0, 288.0, 288.0, 288.0, 287.0, 288.0, 288.0, 288.0, 288.0, 288.0, 288.0, 288.0, 288.0, 288.0, 288.0, 287.0, 287.0, 288.0, 288.0, 287.0, 288.0, 288.0, 288.0, 288.0, 288.0, 287.0, 288.0, 288.0, 288.0, 287.0, 287.0, 288.0, 288.0, 288.0, 288.0, 288.0, 288.0, 288.0, 288.0, 288.0, 287.0, 288.0, 287.0, 288.0, 287.0, 287.0, 288.0, 288.0, 288.0, 288.0, 288.0, 288.0, 288.0, 287.0, 288.0, 288.0, 288.0, 288.0, 288.0, 288.0, 288.0, 288.0, 288.0, 287.0, 288.0, 288.0, 288.0, 288.0, 288.0, 288.0, 288.0, 288.0, 287.0, 288.0, 288.0, 288.0, 288.0, 288.0, 287.0, 288.0, 288.0, 287.0, 288.0, 288.0, 287.0, 287.0, 288.0, 288.0, 288.0, 288.0, 288.0, 287.0, 288.0, 288.0, 288.0, 288.0, 287.0, 287.0, 288.0, 288.0],
      "WindowWidth": [629.0, 629.0, 629.0, 629.0, 629.0, 629.0, 629.0, 629.0, 629.0, 629.0, 629.0, 629.0, 629.0, 629.0, 629.0, 628.0, 628.0, 629.0, 629.0, 629.0, 629.0, 629.0, 629.0, 629.0, 629.0, 629.0, 629.0, 628.0, 628.0, 628.0, 628.0, 628.0, 628.0, 627.0, 627.0, 627.0, 627.0, 627.0, 628.0, 628.0, 628.0, 627.0, 627.0, 628.0, 628.0, 628.0, 628.0, 627.0, 628.0, 628.0, 627.0, 627.0, 628.0, 629.0, 628.0, 627.0, 627.0, 627.0, 627.0, 628.0, 627.0, 627.0, 627.0, 627.0, 627.0, 628.0, 627.0, 627.0, 627.0, 628.0, 627.0, 627.0, 628.0, 627.0, 627.0, 627.0, 628.0, 627.0, 627.0, 627.0, 628.0, 627.0, 628.0, 627.0, 627.0, 627.0, 627.0, 627.0, 627.0, 627.0, 627.0, 627.0, 627.0, 627.0, 627.0, 627.0, 627.0, 627.0, 627.0, 627.0, 627.0, 627.0, 627.0, 627.0, 627.0, 627.0, 627.0, 627.0, 627.0, 627.0, 627.0, 628.0, 627.0, 627.0, 627.0, 626.0, 627.0, 627.0, 627.0, 627.0, 627.0, 627.0, 628.0, 627.0, 627.0, 627.0, 627.0, 627.0, 627.0, 626.0, 627.0, 627.0, 627.0, 627.0, 627.0, 627.0, 627.0, 627.0, 627.0, 627.0, 626.0, 627.0, 627.0, 627.0, 627.0, 627.0, 627.0, 627.0, 627.0, 627.0, 627.0, 627.0, 627.0, 626.0, 627.0, 627.0, 627.0, 627.0, 627.0, 627.0, 627.0, 627.0, 627.0, 627.0, 627.0, 627.0, 627.0, 627.0, 627.0, 627.0, 627.0, 627.0, 627.0, 627.0, 627.0, 627.0, 627.0, 627.0, 627.0, 627.0, 627.0, 626.0, 627.0, 627.0, 627.0, 627.0, 627.0, 627.0, 627.0, 627.0, 627.0, 627.0, 627.0, 627.0, 627.0, 627.0, 626.0, 627.0, 627.0, 627.0]
    },
    "slices": {}
  }
}