{
  "AcquisitionMatrixPE": 80,
  "AcquisitionNumber": 1,
  "AcquisitionTime": "09:16:8.165000",
  "BandwidthPerPixelPhaseEncode": 44.643,
  "BaseResolution": 80,
  "BodyPartExamined": "BRAIN",
  "CoilCombinationMethod": "Sum of Squares",
  "ConsistencyInfo": "N4_VE11C_LATEST_20160120",
  "ConversionSoftware": "dcm2niix",
  "ConversionSoftwareVersion": "v1.0.20220720",
  "DerivedVendorReportedEchoSpacing": 0.000559998,
  "DeviceSerialNumber": "66112",
  "DwellTime": 2.7e-06,
  "EchoTime": 0.035,
  "EchoTrainLength": 39,
  "EffectiveEchoSpacing": 0.000279999,
  "FlipAngle": 90,
  "HeudiconvVersion": "0.13.1",
  "ImageOrientationPatientDICOM": [0.985077, 0.171805, 0.0102806, -0.16679, 0.938171, 0.303341],
  "ImageOrientationText": "Tra>Cor(17.5)>Sag(-2.4)",
  "ImageType": [
    "ORIGINAL",
    "PRIMARY",
    "M",
    "ND",
    "NORM",
    "MOSAIC"
],
  "ImagingFrequency": 123.252,
  "InPlanePhaseEncodingDirectionDICOM": "COL",
  "InstitutionAddress": "Maynard 3,Hanover,NH,US,03755",
  "InstitutionName": "Dartmouth College - PBS",
  "InstitutionalDepartmentName": "Department",
  "MRAcquisitionType": "2D",
  "MagneticFieldStrength": 3,
  "Manufacturer": "Siemens",
  "ManufacturersModelName": "Prisma",
  "Modality": "MR",
  "MultibandAccelerationFactor": 4,
  "NonlinearGradientCorrection": false,
  "ParallelReductionFactorInPlane": 2,
  "PartialFourier": 1,
  "PatientPosition": "HFS",
  "PercentPhaseFOV": 100,
  "PercentSampling": 100,
  "PhaseEncodingDirection": "j-",
  "PhaseEncodingSteps": 79,
  "PhaseResolution": 1,
  "PixelBandwidth": 2315,
  "ProcedureStepDescription": "dbic^QA",
  "ProtocolName": "func-bold_task-rest_acq-p2-s4-3.5mm",
  "PulseSequenceDetails": "%SiemensSeq%\\ep2d_bold",
  "ReceiveCoilActiveElements": "HEA;HEP",
  "ReceiveCoilName": "Head_32",
  "ReconMatrixPE": 80,
  "RefLinesPE": 24,
  "RepetitionTime": 2,
  "SAR": 0.0208564,
  "ScanOptions": "FS",
  "ScanningSequence": "EP",
  "SequenceName": "*epfid2d1_80",
  "SequenceVariant": "SK",
  "SeriesDescription": "func-bold_task-rest_acq-p2-s4-3.5mm",
  "SeriesNumber": 7,
  "ShimSetting": [4151, -7688, -7519, 271, -13, -117, -18, 88],
  "SliceThickness": 3.5,
  "SliceTiming": [1.485, 0, 0.99, 0.2475, 1.2375, 0.7425, 1.7325, 0.495, 1.485, 0, 0.99, 0.2475, 1.2375, 0.7425, 1.7325, 0.495, 1.485, 0, 0.99, 0.2475, 1.2375, 0.7425, 1.7325, 0.495, 1.485, 0, 0.99, 0.2475, 1.2375, 0.7425, 1.7325, 0.495],
  "SoftwareVersions": "syngo MR E11",
  "SpacingBetweenSlices": 3.99,
  "StationName": "AWP66112",
  "TaskName": "rest",
  "TotalReadoutTime": 0.0221199,
  "TxRefAmp": 227.178,
  "dcmmeta_affine": [
    [-2.9552319049835205, -0.5003706216812134, -0.169458270072937, 146.2593994140625],
    [-0.5154157876968384, 2.8145132064819336, 1.1991126537322998, -102.17792510986328],
    [0.030841665342450142, -0.9100244045257568, 3.8017776012420654, -25.81020164489746],
    [0.0, 0.0, 0.0, 1.0]
],
  "dcmmeta_reorient_transform": [
    [0.0, -1.0, 0.0, 79.0],
    [1.0, 0.0, 0.0, 0.0],
    [0.0, 0.0, 1.0, 0.0],
    [0.0, 0.0, 0.0, 1.0]
],
  "dcmmeta_shape": [80, 80, 32, 200],
  "dcmmeta_slice_dim": 2,
  "dcmmeta_version": 0.6,
  "global": {
    "const": {
      "AccessionNumber": "qa",
      "AcquisitionMatrix": [80, 0, 0, 80],
      "AngioFlag": "N",
      "BitsAllocated": 16,
      "BitsStored": 12,
      "BodyPartExamined": "BRAIN",
      "Columns": 480,
      "EchoNumbers": 1,
      "EchoTime": 35.0,
      "EchoTrainLength": 39,
      "FlipAngle": 90.0,
      "HighBit": 11,
      "ImageOrientationPatient": [0.9850772863221, 0.17180526812471, 0.01028055528113, -0.1667902155512, 0.93817108144169, 0.3033414675624],
      "ImagePositionPatient": [-597.70236028182, -786.15443012287, -285.87534225667],
      "ImageType": [
        "ORIGINAL",
        "PRIMARY",
        "M",
        "ND",
        "NORM",
        "MOSAIC"
],
      "ImagedNucleus": "1H",
      "ImagingFrequency": 123.252404,
      "InPlanePhaseEncodingDirection": "COL",
      "MRAcquisitionType": "2D",
      "MagneticFieldStrength": 3.0,
      "Manufacturer": "SIEMENS",
      "ManufacturerModelName": "Prisma",
      "Modality": "MR",
      "NumberOfAverages": 1.0,
      "NumberOfPhaseEncodingSteps": 79,
      "PercentPhaseFieldOfView": 100.0,
      "PercentSampling": 100.0,
      "PerformedProcedureStepStartTime": "090416.335000",
      "PhotometricInterpretation": "MONOCHROME2",
      "PixelBandwidth": 2315.0,
      "PixelRepresentation": 0,
      "PixelSpacing": [3.0, 3.0],
      "ProtocolName": "func-bold_task-rest_acq-p2-s4-3.5mm",
      "RepetitionTime": 2000.0,
      "Rows": 480,
      "SAR": 0.02085644705733,
      "SamplesPerPixel": 1,
      "ScanOptions": "FS",
      "ScanningSequence": "EP",
      "SequenceName": "*epfid2d1_80",
      "SequenceVariant": "SK",
      "SeriesDescription": "func-bold_task-rest_acq-p2-s4-3.5mm",
      "SeriesNumber": 7,
      "SeriesTime": "091703.685000",
      "SliceLocation": -61.511867018137,
      "SliceThickness": 3.5,
      "SmallestImagePixelValue": 0,
      "SoftwareVersions": "syngo MR E11",
      "SpacingBetweenSlices": 3.9900000526828,
      "SpecificCharacterSet": "ISO_IR 100",
      "StudyID": "16",
      "StudyTime": "090416.298000",
      "TransmitCoilName": "Body",
      "VariableFlipAngleFlag": "N",
      "WindowCenterWidthExplanation": "Algo1",
      "dBdt": 0.0},
    "slices": {}
  },
  "time": {
    "samples": {
      "AcquisitionNumber": [1, 2, 3, 4, 5, 6, 7, 8, 9, 10, 11, 12, 13, 14, 15, 16, 17, 18, 19, 20, 21, 22, 23, 24, 25, 26, 27, 28, 29, 30, 31, 32, 33, 34, 35, 36, 37, 38, 39, 40, 41, 42, 43, 44, 45, 46, 47, 48, 49, 50, 51, 52, 53, 54, 55, 56, 57, 58, 59, 60, 61, 62, 63, 64, 65, 66, 67, 68, 69, 70, 71, 72, 73, 74, 75, 76, 77, 78, 79, 80, 81, 82, 83, 84, 85, 86, 87, 88, 89, 90, 91, 92, 93, 94, 95, 96, 97, 98, 99, 100, 101, 102, 103, 104, 105, 106, 107, 108, 109, 110, 111, 112, 113, 114, 115, 116, 117, 118, 119, 120, 121, 122, 123, 124, 125, 126, 127, 128, 129, 130, 131, 132, 133, 134, 135, 136, 137, 138, 139, 140, 141, 142, 143, 144, 145, 146, 147, 148, 149, 150, 151, 152, 153, 154, 155, 156, 157, 158, 159, 160, 161, 162, 163, 164, 165, 166, 167, 168, 169, 170, 171, 172, 173, 174, 175, 176, 177, 178, 179, 180, 181, 182, 183, 184, 185, 186, 187, 188, 189, 190, 191, 192, 193, 194, 195, 196, 197, 198, 199, 200],
      "AcquisitionTime": ["091608.165000", "091610.165000", "091612.165000", "091614.165000", "091616.165000", "091618.165000", "091620.165000", "091622.165000", "091624.165000", "091626.165000", "091628.165000", "091630.165000", "091632.165000", "091634.165000", "091636.165000", "091638.165000", "091640.165000", "091642.165000", "091644.165000", "091646.165000", "091648.165000", "091650.165000", "091652.165000", "091654.165000", "091656.165000", "091658.165000", "091700.165000", "091702.165000", "091704.165000", "091706.165000", "091708.165000", "091710.165000", "091712.165000", "091714.165000", "091716.165000", "091718.165000", "091720.165000", "091722.165000", "091724.165000", "091726.165000", "091728.165000", "091730.165000", "091732.165000", "091734.165000", "091736.165000", "091738.165000", "091740.165000", "091742.165000", "091744.165000", "091746.165000", "091748.165000", "091750.165000", "091752.165000", "091754.165000", "091756.165000", "091758.165000", "091800.165000", "091802.165000", "091804.165000", "091806.165000", "091808.165000", "091810.165000", "091812.165000", "091814.165000", "091816.165000", "091818.165000", "091820.165000", "091822.165000", "091824.165000", "091826.165000", "091828.165000", "091830.165000", "091832.165000", "091834.165000", "091836.165000", "091838.165000", "091840.165000", "091842.165000", "091844.165000", "091846.165000", "091848.165000", "091850.165000", "091852.165000", "091854.165000", "091856.165000", "091858.165000", "091900.165000", "091902.165000", "091904.165000", "091906.165000", "091908.165000", "091910.165000", "091912.165000", "091914.165000", "091916.165000", "091918.165000", "091920.165000", "091922.165000", "091924.165000", "091926.165000", "091928.165000", "091930.165000", "091932.165000", "091934.165000", "091936.165000", "091938.165000", "091940.165000", "091942.165000", "091944.165000", "091946.165000", "091948.165000", "091950.165000", "091952.165000", "091954.165000", "091956.165000", "091958.165000", "092000.165000", "092002.165000", "092004.165000", "092006.165000", "092008.165000", "092010.165000", "092012.165000", "092014.165000", "092016.165000", "092018.165000", "092020.165000", "092022.165000", "092024.165000", "092026.165000", "092028.165000", "092030.165000", "092032.165000", "092034.165000", "092036.165000", "092038.165000", "092040.165000", "092042.165000", "092044.165000", "092046.165000", "092048.165000", "092050.165000", "092052.165000", "092054.165000", "092056.165000", "092058.165000", "092100.165000", "092102.165000", "092104.165000", "092106.165000", "092108.165000", "092110.165000", "092112.165000", "092114.165000", "092116.165000", "092118.165000", "092120.165000", "092122.165000", "092124.165000", "092126.165000", "092128.165000", "092130.165000", "092132.165000", "092134.165000", "092136.165000", "092138.165000", "092140.165000", "092142.165000", "092144.165000", "092146.165000", "092148.165000", "092150.165000", "092152.165000", "092154.165000", "092156.165000", "092158.165000", "092200.165000", "092202.165000", "092204.165000", "092206.165000", "092208.165000", "092210.165000", "092212.165000", "092214.165000", "092216.165000", "092218.165000", "092220.165000", "092222.165000", "092224.165000", "092226.165000", "092228.165000", "092230.165000", "092232.165000", "092234.165000", "092236.165000", "092238.165000", "092240.165000", "092242.165000", "092244.165000", "092246.165000"],
      "ContentTime": ["091703.688000", "091703.692000", "091703.694000", "091703.697000", "091703.710000", "091703.712000", "091703.715000", "091703.725000", "091703.728000", "091703.730000", "091703.733000", "091703.736000", "091703.738000", "091703.741000", "091703.743000", "091703.746000", "091703.748000", "091703.751000", "091703.753000", "091703.756000", "091703.759000", "091703.761000", "091703.764000", "091703.766000", "091703.769000", "091703.771000", "091703.774000", "091703.777000", "091743.682000", "091743.685000", "091743.691000", "091743.693000", "091743.696000", "091743.698000", "091743.701000", "091743.704000", "091743.706000", "091743.709000", "091743.711000", "091743.714000", "091743.716000", "091743.719000", "091743.722000", "091743.724000", "091743.727000", "091743.729000", "091743.732000", "091743.734000", "091823.682000", "091823.685000", "091823.688000", "091823.691000", "091823.693000", "091823.696000", "091823.698000", "091823.701000", "091823.703000", "091823.706000", "091823.708000", "091823.711000", "091823.713000", "091823.716000", "091823.719000", "091823.721000", "091823.724000", "091823.726000", "091823.729000", "091823.731000", "091903.683000", "091903.686000", "091903.689000", "091903.691000", "091903.694000", "091903.696000", "091903.699000", "091903.701000", "091903.704000", "091903.706000", "091903.709000", "091903.711000", "091903.714000", "091903.717000", "091903.719000", "091903.722000", "091903.724000", "091903.739000", "091903.742000", "091903.744000", "091943.682000", "091943.685000", "091943.688000", "091943.690000", "091943.693000", "091943.695000", "091943.698000", "091943.700000", "091943.703000", "091943.705000", "091943.708000", "091943.710000", "091943.713000", "091943.715000", "091943.718000", "091943.720000", "091943.723000", "091943.725000", "091943.728000", "091943.731000", "092023.683000", "092023.685000", "092023.688000", "092023.690000", "092023.693000", "092023.696000", "092023.698000", "092023.701000", "092023.703000", "092023.706000", "092023.708000", "092023.711000", "092023.713000", "092023.716000", "092023.718000", "092023.721000", "092023.723000", "092023.726000", "092023.728000", "092023.731000", "092103.683000", "092103.686000", "092103.689000", "092103.691000", "092103.694000", "092103.696000", "092103.699000", "092103.701000", "092103.704000", "092103.706000", "092103.709000", "092103.712000", "092103.714000", "092103.717000", "092103.719000", "092103.722000", "092103.724000", "092103.727000", "092103.729000", "092103.732000", "092143.683000", "092143.686000", "092143.689000", "092143.691000", "092143.694000", "092143.696000", "092143.699000", "092143.701000", "092143.704000", "092143.707000", "092143.709000", "092143.712000", "092143.714000", "092143.717000", "092143.719000", "092143.722000", "092143.724000", "092143.727000", "092143.729000", "092143.732000", "092223.682000", "092223.685000", "092223.688000", "092223.690000", "092223.693000", "092223.695000", "092223.698000", "092223.700000", "092223.703000", "092223.706000", "092223.708000", "092223.711000", "092223.713000", "092223.716000", "092223.718000", "092223.721000", "092223.723000", "092223.726000", "092223.728000", "092223.731000", "092247.470000", "092247.473000", "092247.476000", "092247.478000", "092247.481000", "092247.484000", "092247.486000", "092247.489000", "092247.491000", "092247.494000", "092247.496000", "092247.499000"],
      "InstanceCreationTime": ["091703.688000", "091703.692000", "091703.694000", "091703.697000", "091703.710000", "091703.712000", "091703.715000", "091703.725000", "091703.728000", "091703.730000", "091703.733000", "091703.736000", "091703.738000", "091703.741000", "091703.743000", "091703.746000", "091703.748000", "091703.751000", "091703.753000", "091703.756000", "091703.759000", "091703.761000", "091703.764000", "091703.766000", "091703.769000", "091703.771000", "091703.774000", "091703.777000", "091743.682000", "091743.685000", "091743.691000", "091743.693000", "091743.696000", "091743.698000", "091743.701000", "091743.704000", "091743.706000", "091743.709000", "091743.711000", "091743.714000", "091743.716000", "091743.719000", "091743.722000", "091743.724000", "091743.727000", "091743.729000", "091743.732000", "091743.734000", "091823.682000", "091823.685000", "091823.688000", "091823.691000", "091823.693000", "091823.696000", "091823.698000", "091823.701000", "091823.703000", "091823.706000", "091823.708000", "091823.711000", "091823.713000", "091823.716000", "091823.719000", "091823.721000", "091823.724000", "091823.726000", "091823.729000", "091823.731000", "091903.683000", "091903.686000", "091903.689000", "091903.691000", "091903.694000", "091903.696000", "091903.699000", "091903.701000", "091903.704000", "091903.706000", "091903.709000", "091903.711000", "091903.714000", "091903.717000", "091903.719000", "091903.722000", "091903.724000", "091903.739000", "091903.742000", "091903.744000", "091943.682000", "091943.685000", "091943.688000", "091943.690000", "091943.693000", "091943.695000", "091943.698000", "091943.700000", "091943.703000", "091943.705000", "091943.708000", "091943.710000", "091943.713000", "091943.715000", "091943.718000", "091943.720000", "091943.723000", "091943.725000", "091943.728000", "091943.731000", "092023.683000", "092023.685000", "092023.688000", "092023.690000", "092023.693000", "092023.696000", "092023.698000", "092023.701000", "092023.703000", "092023.706000", "092023.708000", "092023.711000", "092023.713000", "092023.716000", "092023.718000", "092023.721000", "092023.723000", "092023.726000", "092023.728000", "092023.731000", "092103.683000", "092103.686000", "092103.689000", "092103.691000", "092103.694000", "092103.696000", "092103.699000", "092103.701000", "092103.704000", "092103.706000", "092103.709000", "092103.712000", "092103.714000", "092103.717000", "092103.719000", "092103.722000", "092103.724000", "092103.727000", "092103.729000", "092103.732000", "092143.683000", "092143.686000", "092143.689000", "092143.691000", "092143.694000", "092143.696000", "092143.699000", "092143.701000", "092143.704000", "092143.707000", "092143.709000", "092143.712000", "092143.714000", "092143.717000", "092143.719000", "092143.722000", "092143.724000", "092143.727000", "092143.729000", "092143.732000", "092223.682000", "092223.685000", "092223.688000", "092223.690000", "092223.693000", "092223.695000", "092223.698000", "092223.700000", "092223.703000", "092223.706000", "092223.708000", "092223.711000", "092223.713000", "092223.716000", "092223.718000", "092223.721000", "092223.723000", "092223.726000", "092223.728000", "092223.731000", "092247.470000", "092247.473000", "092247.476000", "092247.478000", "092247.481000", "092247.484000", "092247.486000", "092247.489000", "092247.491000", "092247.494000", "092247.496000", "092247.499000"],
      "InstanceNumber": [1, 2, 3, 4, 5, 6, 7, 8, 9, 10, 11, 12, 13, 14, 15, 16, 17, 18, 19, 20, 21, 22, 23, 24, 25, 26, 27, 28, 29, 30, 31, 32, 33, 34, 35, 36, 37, 38, 39, 40, 41, 42, 43, 44, 45, 46, 47, 48, 49, 50, 51, 52, 53, 54, 55, 56, 57, 58, 59, 60, 61, 62, 63, 64, 65, 66, 67, 68, 69, 70, 71, 72, 73, 74, 75, 76, 77, 78, 79, 80, 81, 82, 83, 84, 85, 86, 87, 88, 89, 90, 91, 92, 93, 94, 95, 96, 97, 98, 99, 100, 101, 102, 103, 104, 105, 106, 107, 108, 109, 110, 111, 112, 113, 114, 115, 116, 117, 118, 119, 120, 121, 122, 123, 124, 125, 126, 127, 128, 129, 130, 131, 132, 133, 134, 135, 136, 137, 138, 139, 140, 141, 142, 143, 144, 145, 146, 147, 148, 149, 150, 151, 152, 153, 154, 155, 156, 157, 158, 159, 160, 161, 162, 163, 164, 165, 166, 167, 168, 169, 170, 171, 172, 173, 174, 175, 176, 177, 178, 179, 180, 181, 182, 183, 184, 185, 186, 187, 188, 189, 190, 191, 192, 193, 194, 195, 196, 197, 198, 199, 200],
      "LargestImagePixelValue": [2198, 2196, 2191, 2187, 2192, 2193, 2193, 2194, 2192, 2192, 2199, 2196, 2195, 2190, 2192, 2199, 2197, 2195, 2195, 2200, 2203, 2193, 2196, 2194, 2203, 2198, 2197, 2195, 2201, 2194, 2198, 2198, 2198, 2197, 2195, 2194, 2199, 2199, 2200, 2199, 2192, 2197, 2199, 2193, 2197, 2199, 2197, 2194, 2197, 2196, 2196, 2200, 2197, 2194, 2195, 2200, 2199, 2194, 2199, 2199, 2200, 2197, 2199, 2200, 2194, 2200, 2200, 2203, 2200, 2198, 2200, 2198, 2195, 2201, 2196, 2197, 2202, 2198, 2197, 2198, 2197, 2195, 2199, 2202, 2198, 2202, 2200, 2199, 2196, 2198, 2197, 2197, 2197, 2202, 2202, 2200, 2197, 2201, 2197, 2198, 2199, 2197, 2202, 2202, 2199, 2201, 2197, 2205, 2198, 2199, 2203, 2197, 2199, 2197, 2201, 2200, 2198, 2201, 2198, 2199, 2200, 2199, 2206, 2197, 2202, 2201, 2199, 2199, 2197, 2200, 2196, 2201, 2201, 2204, 2209, 2198, 2200, 2205, 2200, 2204, 2200, 2201, 2201, 2196, 2204, 2199, 2200, 2203, 2203, 2199, 2201, 2204, 2203, 2199, 2199, 2200, 2207, 2202, 2201, 2203, 2198, 2201, 2205, 2202, 2198, 2201, 2201, 2203, 2201, 2203, 2199, 2198, 2203, 2200, 2199, 2200, 2202, 2205, 2201, 2201, 2205, 2202, 2198, 2201, 2199, 2203, 2201, 2203, 2200, 2200, 2196, 2203, 2200, 2202, 2200, 2201, 2206, 2198, 2200, 2200],
      "WindowCenter": [936.0, 936.0, 936.0, 937.0, 936.0, 936.0, 936.0, 936.0, 936.0, 936.0, 936.0, 936.0, 936.0, 936.0, 936.0, 936.0, 936.0, 936.0, 936.0, 936.0, 936.0, 936.0, 936.0, 936.0, 936.0, 936.0, 936.0, 936.0, 936.0, 936.0, 936.0, 936.0, 936.0, 936.0, 936.0, 936.0, 937.0, 937.0, 937.0, 936.0, 936.0, 937.0, 936.0, 937.0, 936.0, 936.0, 936.0, 936.0, 937.0, 937.0, 936.0, 936.0, 936.0, 936.0, 937.0, 936.0, 937.0, 936.0, 936.0, 936.0, 937.0, 936.0, 937.0, 936.0, 936.0, 936.0, 936.0, 936.0, 936.0, 937.0, 936.0, 936.0, 937.0, 936.0, 936.0, 936.0, 936.0, 936.0, 937.0, 936.0, 936.0, 936.0, 936.0, 937.0, 936.0, 936.0, 936.0, 936.0, 936.0, 937.0, 937.0, 936.0, 936.0, 936.0, 936.0, 936.0, 937.0, 937.0, 936.0, 937.0, 936.0, 936.0, 936.0, 936.0, 937.0, 937.0, 937.0, 936.0, 936.0, 936.0, 937.0, 937.0, 937.0, 936.0, 937.0, 936.0, 936.0, 936.0, 936.0, 936.0, 937.0, 936.0, 937.0, 937.0, 936.0, 936.0, 937.0, 936.0, 936.0, 937.0, 937.0, 937.0, 937.0, 936.0, 937.0, 937.0, 937.0, 936.0, 937.0, 936.0, 936.0, 936.0, 936.0, 937.0, 937.0, 936.0, 936.0, 936.0, 937.0, 936.0, 937.0, 937.0, 937.0, 937.0, 936.0, 937.0, 936.0, 936.0, 936.0, 936.0, 936.0, 936.0, 936.0, 937.0, 936.0, 937.0, 936.0, 936.0, 936.0, 936.0, 937.0, 936.0, 936.0, 937.0, 936.0, 936.0, 937.0, 936.0, 936.0, 936.0, 936.0, 937.0, 937.0, 937.0, 936.0, 937.0, 937.0, 937.0, 937.0, 937.0, 937.0, 937.0, 937.0, 937.0, 937.0, 936.0, 936.0, 936.0, 937.0, 937.0],
      "WindowWidth": [2158.0, 2159.0, 2159.0, 2159.0, 2158.0, 2158.0, 2158.0, 2158.0, 2158.0, 2158.0, 2158.0, 2158.0, 2159.0, 2159.0, 2159.0, 2159.0, 2159.0, 2159.0, 2159.0, 2159.0, 2159.0, 2159.0, 2159.0, 2159.0, 2158.0, 2159.0, 2159.0, 2159.0, 2159.0, 2159.0, 2159.0, 2159.0, 2158.0, 2159.0, 2159.0, 2158.0, 2159.0, 2159.0, 2159.0, 2159.0, 2159.0, 2159.0, 2159.0, 2159.0, 2159.0, 2159.0, 2159.0, 2159.0, 2159.0, 2159.0, 2159.0, 2159.0, 2159.0, 2159.0, 2159.0, 2159.0, 2159.0, 2159.0, 2159.0, 2159.0, 2159.0, 2159.0, 2159.0, 2159.0, 2159.0, 2159.0, 2159.0, 2159.0, 2159.0, 2159.0, 2159.0, 2159.0, 2159.0, 2159.0, 2159.0, 2159.0, 2159.0, 2159.0, 2159.0, 2159.0, 2159.0, 2159.0, 2159.0, 2159.0, 2159.0, 2159.0, 2159.0, 2159.0, 2159.0, 2159.0, 2159.0, 2159.0, 2159.0, 2159.0, 2159.0, 2159.0, 2159.0, 2159.0, 2159.0, 2159.0, 2159.0, 2159.0, 2159.0, 2159.0, 2159.0, 2159.0, 2159.0, 2159.0, 2159.0, 2159.0, 2159.0, 2159.0, 2159.0, 2159.0, 2159.0, 2159.0, 2159.0, 2159.0, 2159.0, 2159.0, 2159.0, 2159.0, 2159.0, 2159.0, 2159.0, 2159.0, 2159.0, 2159.0, 2159.0, 2159.0, 2159.0, 2159.0, 2159.0, 2159.0, 2159.0, 2159.0, 2159.0, 2159.0, 2159.0, 2159.0, 2159.0, 2159.0, 2159.0, 2159.0, 2159.0, 2159.0, 2159.0, 2159.0, 2159.0, 2159.0, 2159.0, 2159.0, 2159.0, 2159.0, 2159.0, 2159.0, 2159.0, 2159.0, 2158.0, 2159.0, 2159.0, 2159.0, 2159.0, 2159.0, 2158.0, 2159.0, 2158.0, 2159.0, 2158.0, 2158.0, 2159.0, 2159.0, 2159.0, 2159.0, 2159.0, 2159.0, 2159.0, 2159.0, 2158.0, 2159.0, 2159.0, 2159.0, 2159.0, 2159.0, 2159.0, 2159.0, 2159.0, 2159.0, 2159.0, 2159.0, 2159.0, 2159.0, 2159.0, 2159.0, 2159.0, 2159.0, 2159.0, 2159.0, 2159.0, 2159.0]
    },
    "slices": {}
  }
}