{
  "AcquisitionMatrixPE": 80,
  "AcquisitionNumber": 1,
  "AcquisitionTime": "09:09:14.210000",
  "BandwidthPerPixelPhaseEncode": 48.077,
  "BaseResolution": 80,
  "BodyPartExamined": "BRAIN",
  "CoilCombinationMethod": "Sum of Squares",
  "ConsistencyInfo": "N4_VE11C_LATEST_20160120",
  "ConversionSoftware": "dcm2niix",
  "ConversionSoftwareVersion": "v1.0.20220720",
  "DerivedVendorReportedEchoSpacing": 0.000519999,
  "DeviceSerialNumber": "66112",
  "DwellTime": 2.7e-06,
  "EchoTime": 0.035,
  "EchoTrainLength": 39,
  "EffectiveEchoSpacing": 0.00026,
  "FlipAngle": 90,
  "HeudiconvVersion": "0.13.1",
  "ImageOrientationPatientDICOM": [0.985077, 0.171805, 0.0102806, -0.16679, 0.938171, 0.303341],
  "ImageOrientationText": "Tra>Cor(17.5)>Sag(-2.4)",
  "ImageType": [
    "ORIGINAL",
    "PRIMARY",
    "M",
    "ND",
    "NORM",
    "MOSAIC"
],
  "ImagingFrequency": 123.252,
  "InPlanePhaseEncodingDirectionDICOM": "COL",
  "InstitutionAddress": "Maynard 3,Hanover,NH,US,03755",
  "InstitutionName": "Dartmouth College - PBS",
  "InstitutionalDepartmentName": "Department",
  "MRAcquisitionType": "2D",
  "MagneticFieldStrength": 3,
  "Manufacturer": "Siemens",
  "ManufacturersModelName": "Prisma",
  "MatrixCoilMode": "GRAPPA",
  "Modality": "MR",
  "NonlinearGradientCorrection": false,
  "ParallelReductionFactorInPlane": 2,
  "PartialFourier": 1,
  "PatientPosition": "HFS",
  "PercentPhaseFOV": 100,
  "PercentSampling": 100,
  "PhaseEncodingDirection": "j-",
  "PhaseEncodingSteps": 79,
  "PhaseResolution": 1,
  "PixelBandwidth": 2315,
  "ProcedureStepDescription": "dbic^QA",
  "ProtocolName": "func-bold_task-rest_acq-p2",
  "PulseSequenceDetails": "%SiemensSeq%\\ep2d_bold",
  "ReceiveCoilActiveElements": "HEA;HEP",
  "ReceiveCoilName": "Head_32",
  "ReconMatrixPE": 80,
  "RefLinesPE": 24,
  "RepetitionTime": 2,
  "SAR": 0.055465,
  "ScanOptions": "FS",
  "ScanningSequence": "EP",
  "SequenceName": "*epfid2d1_80",
  "SequenceVariant": "SK",
  "SeriesDescription": "func-bold_task-rest_acq-p2",
  "SeriesNumber": 5,
  "ShimSetting": [4150, -7688, -7519, 274, -13, -113, -18, 87],
  "SliceThickness": 3.5,
  "SliceTiming": [0.99, 0, 1.055, 0.0675, 1.1225, 0.1325, 1.1875, 0.1975, 1.255, 0.265, 1.32, 0.33, 1.385, 0.395, 1.4525, 0.4625, 1.5175, 0.5275, 1.585, 0.595, 1.65, 0.66, 1.715, 0.725, 1.7825, 0.7925, 1.8475, 0.8575, 1.915, 0.925],
  "SoftwareVersions": "syngo MR E11",
  "SpacingBetweenSlices": 3.99,
  "StationName": "AWP66112",
  "TaskName": "rest",
  "TotalReadoutTime": 0.02054,
  "TxRefAmp": 227.178,
  "dcmmeta_affine": [
    [-2.9552319049835205, -0.5003706216812134, -0.16945825517177582, 146.08993530273438],
    [-0.5154157876968384, 2.8145132064819336, 1.1991126537322998, -100.97881317138672],
    [0.030841665342450142, -0.9100244045257568, 3.8017776012420654, -22.008420944213867],
    [0.0, 0.0, 0.0, 1.0]
],
  "dcmmeta_reorient_transform": [
    [0.0, -1.0, 0.0, 79.0],
    [1.0, 0.0, 0.0, 0.0],
    [0.0, 0.0, 1.0, 0.0],
    [0.0, 0.0, 0.0, 1.0]
],
  "dcmmeta_shape": [80, 80, 30, 200],
  "dcmmeta_slice_dim": 2,
  "dcmmeta_version": 0.6,
  "global": {
    "const": {
      "AccessionNumber": "qa",
      "AcquisitionMatrix": [80, 0, 0, 80],
      "AngioFlag": "N",
      "BitsAllocated": 16,
      "BitsStored": 12,
      "BodyPartExamined": "BRAIN",
      "Columns": 480,
      "EchoNumbers": 1,
      "EchoTime": 35.0,
      "EchoTrainLength": 39,
      "FlipAngle": 90.0,
      "HighBit": 11,
      "ImageOrientationPatient": [0.9850772863221, 0.17180526812471, 0.01028055528113, -0.1667902155512, 0.93817108144169, 0.3033414675624],
      "ImagePositionPatient": [-597.53290189253, -787.35354301502, -282.07356155599],
      "ImageType": [
        "ORIGINAL",
        "PRIMARY",
        "M",
        "ND",
        "NORM",
        "MOSAIC"
],
      "ImagedNucleus": "1H",
      "ImagingFrequency": 123.252404,
      "InPlanePhaseEncodingDirection": "COL",
      "MRAcquisitionType": "2D",
      "MagneticFieldStrength": 3.0,
      "Manufacturer": "SIEMENS",
      "ManufacturerModelName": "Prisma",
      "Modality": "MR",
      "NumberOfAverages": 1.0,
      "NumberOfPhaseEncodingSteps": 79,
      "PercentPhaseFieldOfView": 100.0,
      "PercentSampling": 100.0,
      "PerformedProcedureStepStartTime": "090416.335000",
      "PhotometricInterpretation": "MONOCHROME2",
      "PixelBandwidth": 2315.0,
      "PixelRepresentation": 0,
      "PixelSpacing": [3.0, 3.0],
      "ProtocolName": "func-bold_task-rest_acq-p2",
      "RepetitionTime": 2000.0,
      "Rows": 480,
      "SAR": 0.05546497348364,
      "SamplesPerPixel": 1,
      "ScanOptions": "FS",
      "ScanningSequence": "EP",
      "SequenceName": "*epfid2d1_80",
      "SequenceVariant": "SK",
      "SeriesDescription": "func-bold_task-rest_acq-p2",
      "SeriesNumber": 5,
      "SeriesTime": "091003.615000",
      "SliceLocation": -57.521863964265,
      "SliceThickness": 3.5,
      "SmallestImagePixelValue": 0,
      "SoftwareVersions": "syngo MR E11",
      "SpacingBetweenSlices": 3.9899999809232,
      "SpecificCharacterSet": "ISO_IR 100",
      "StudyID": "16",
      "StudyTime": "090416.298000",
      "TransmitCoilName": "Body",
      "VariableFlipAngleFlag": "N",
      "WindowCenterWidthExplanation": "Algo1",
      "dBdt": 0.0},
    "slices": {}
  },
  "time": {
    "samples": {
      "AcquisitionNumber": [1, 2, 3, 4, 5, 6, 7, 8, 9, 10, 11, 12, 13, 14, 15, 16, 17, 18, 19, 20, 21, 22, 23, 24, 25, 26, 27, 28, 29, 30, 31, 32, 33, 34, 35, 36, 37, 38, 39, 40, 41, 42, 43, 44, 45, 46, 47, 48, 49, 50, 51, 52, 53, 54, 55, 56, 57, 58, 59, 60, 61, 62, 63, 64, 65, 66, 67, 68, 69, 70, 71, 72, 73, 74, 75, 76, 77, 78, 79, 80, 81, 82, 83, 84, 85, 86, 87, 88, 89, 90, 91, 92, 93, 94, 95, 96, 97, 98, 99, 100, 101, 102, 103, 104, 105, 106, 107, 108, 109, 110, 111, 112, 113, 114, 115, 116, 117, 118, 119, 120, 121, 122, 123, 124, 125, 126, 127, 128, 129, 130, 131, 132, 133, 134, 135, 136, 137, 138, 139, 140, 141, 142, 143, 144, 145, 146, 147, 148, 149, 150, 151, 152, 153, 154, 155, 156, 157, 158, 159, 160, 161, 162, 163, 164, 165, 166, 167, 168, 169, 170, 171, 172, 173, 174, 175, 176, 177, 178, 179, 180, 181, 182, 183, 184, 185, 186, 187, 188, 189, 190, 191, 192, 193, 194, 195, 196, 197, 198, 199, 200],
      "AcquisitionTime": ["090914.210000", "090916.210000", "090918.210000", "090920.210000", "090922.210000", "090924.210000", "090926.210000", "090928.210000", "090930.210000", "090932.210000", "090934.210000", "090936.210000", "090938.210000", "090940.210000", "090942.210000", "090944.210000", "090946.210000", "090948.210000", "090950.210000", "090952.210000", "090954.210000", "090956.210000", "090958.210000", "091000.210000", "091002.210000", "091004.210000", "091006.210000", "091008.210000", "091010.210000", "091012.210000", "091014.210000", "091016.210000", "091018.210000", "091020.210000", "091022.210000", "091024.210000", "091026.210000", "091028.210000", "091030.210000", "091032.210000", "091034.210000", "091036.210000", "091038.210000", "091040.210000", "091042.210000", "091044.210000", "091046.210000", "091048.210000", "091050.210000", "091052.210000", "091054.210000", "091056.210000", "091058.210000", "091100.210000", "091102.210000", "091104.210000", "091106.210000", "091108.210000", "091110.210000", "091112.210000", "091114.210000", "091116.210000", "091118.210000", "091120.210000", "091122.210000", "091124.210000", "091126.210000", "091128.210000", "091130.210000", "091132.210000", "091134.210000", "091136.210000", "091138.210000", "091140.210000", "091142.210000", "091144.210000", "091146.210000", "091148.210000", "091150.210000", "091152.210000", "091154.210000", "091156.210000", "091158.210000", "091200.210000", "091202.210000", "091204.210000", "091206.210000", "091208.210000", "091210.210000", "091212.210000", "091214.210000", "091216.210000", "091218.210000", "091220.210000", "091222.210000", "091224.210000", "091226.210000", "091228.210000", "091230.210000", "091232.210000", "091234.210000", "091236.210000", "091238.210000", "091240.210000", "091242.210000", "091244.210000", "091246.210000", "091248.210000", "091250.210000", "091252.210000", "091254.210000", "091256.210000", "091258.210000", "091300.210000", "091302.210000", "091304.210000", "091306.210000", "091308.210000", "091310.210000", "091312.210000", "091314.210000", "091316.210000", "091318.210000", "091320.210000", "091322.210000", "091324.210000", "091326.210000", "091328.210000", "091330.210000", "091332.210000", "091334.210000", "091336.210000", "091338.210000", "091340.210000", "091342.210000", "091344.210000", "091346.210000", "091348.210000", "091350.210000", "091352.210000", "091354.210000", "091356.210000", "091358.210000", "091400.210000", "091402.210000", "091404.210000", "091406.210000", "091408.210000", "091410.210000", "091412.210000", "091414.210000", "091416.210000", "091418.210000", "091420.210000", "091422.210000", "091424.210000", "091426.210000", "091428.210000", "091430.210000", "091432.210000", "091434.210000", "091436.210000", "091438.210000", "091440.210000", "091442.210000", "091444.210000", "091446.210000", "091448.210000", "091450.210000", "091452.210000", "091454.210000", "091456.210000", "091458.210000", "091500.210000", "091502.210000", "091504.210000", "091506.210000", "091508.210000", "091510.210000", "091512.210000", "091514.210000", "091516.210000", "091518.210000", "091520.210000", "091522.210000", "091524.210000", "091526.210000", "091528.210000", "091530.210000", "091532.210000", "091534.210000", "091536.210000", "091538.210000", "091540.210000", "091542.210000", "091544.210000", "091546.210000", "091548.210000", "091550.210000", "091552.210000"],
      "ContentTime": ["091003.618000", "091003.622000", "091003.625000", "091003.627000", "091003.630000", "091003.632000", "091003.635000", "091003.637000", "091003.640000", "091003.642000", "091003.645000", "091003.648000", "091003.650000", "091003.653000", "091003.655000", "091003.658000", "091003.660000", "091003.663000", "091003.665000", "091003.668000", "091003.670000", "091003.673000", "091003.675000", "091003.678000", "091003.680000", "091043.613000", "091043.615000", "091043.618000", "091043.620000", "091043.623000", "091043.626000", "091043.628000", "091043.631000", "091043.633000", "091043.636000", "091043.638000", "091043.641000", "091043.643000", "091043.646000", "091043.648000", "091043.651000", "091043.653000", "091043.655000", "091043.658000", "091043.660000", "091123.612000", "091123.615000", "091123.618000", "091123.620000", "091123.623000", "091123.625000", "091123.628000", "091123.631000", "091123.633000", "091123.636000", "091123.638000", "091123.641000", "091123.643000", "091123.646000", "091123.648000", "091123.651000", "091123.665000", "091123.668000", "091123.670000", "091123.673000", "091203.613000", "091203.616000", "091203.619000", "091203.621000", "091203.624000", "091203.626000", "091203.629000", "091203.631000", "091203.634000", "091203.636000", "091203.639000", "091203.641000", "091203.644000", "091203.646000", "091203.649000", "091203.651000", "091203.654000", "091203.656000", "091203.659000", "091203.661000", "091243.612000", "091243.615000", "091243.618000", "091243.620000", "091243.623000", "091243.625000", "091243.628000", "091243.631000", "091243.633000", "091243.636000", "091243.638000", "091243.641000", "091243.643000", "091243.646000", "091243.649000", "091243.651000", "091243.654000", "091243.656000", "091243.659000", "091243.661000", "091323.612000", "091323.615000", "091323.618000", "091323.620000", "091323.623000", "091323.625000", "091323.628000", "091323.630000", "091323.633000", "091323.636000", "091323.638000", "091323.641000", "091323.643000", "091323.646000", "091323.648000", "091323.651000", "091323.653000", "091323.656000", "091323.658000", "091323.661000", "091403.613000", "091403.616000", "091403.619000", "091403.621000", "091403.624000", "091403.627000", "091403.629000", "091403.632000", "091403.634000", "091403.637000", "091403.640000", "091403.642000", "091403.645000", "091403.647000", "091403.650000", "091403.652000", "091403.655000", "091403.657000", "091403.660000", "091403.662000", "091443.613000", "091443.616000", "091443.619000", "091443.621000", "091443.624000", "091443.627000", "091443.629000", "091443.639000", "091443.641000", "091443.644000", "091443.646000", "091443.649000", "091443.651000", "091443.654000", "091443.656000", "091443.659000", "091443.661000", "091443.664000", "091443.666000", "091443.669000", "091523.613000", "091523.615000", "091523.618000", "091523.621000", "091523.623000", "091523.626000", "091523.628000", "091523.631000", "091523.633000", "091523.636000", "091523.639000", "091523.641000", "091523.644000", "091523.646000", "091523.649000", "091523.652000", "091523.654000", "091523.656000", "091523.659000", "091523.662000", "091553.422000", "091553.425000", "091553.427000", "091553.430000", "091553.433000", "091553.435000", "091553.438000", "091553.440000", "091553.443000", "091553.445000", "091553.448000", "091553.451000", "091553.460000", "091553.464000", "091553.469000"],
      "InstanceCreationTime": ["091003.618000", "091003.622000", "091003.625000", "091003.627000", "091003.630000", "091003.632000", "091003.635000", "091003.637000", "091003.640000", "091003.642000", "091003.645000", "091003.648000", "091003.650000", "091003.653000", "091003.655000", "091003.658000", "091003.660000", "091003.663000", "091003.665000", "091003.668000", "091003.670000", "091003.673000", "091003.675000", "091003.678000", "091003.680000", "091043.613000", "091043.615000", "091043.618000", "091043.620000", "091043.623000", "091043.626000", "091043.628000", "091043.631000", "091043.633000", "091043.636000", "091043.638000", "091043.641000", "091043.643000", "091043.646000", "091043.648000", "091043.651000", "091043.653000", "091043.655000", "091043.658000", "091043.660000", "091123.612000", "091123.615000", "091123.618000", "091123.620000", "091123.623000", "091123.625000", "091123.628000", "091123.631000", "091123.633000", "091123.636000", "091123.638000", "091123.641000", "091123.643000", "091123.646000", "091123.648000", "091123.651000", "091123.665000", "091123.668000", "091123.670000", "091123.673000", "091203.613000", "091203.616000", "091203.619000", "091203.621000", "091203.624000", "091203.626000", "091203.629000", "091203.631000", "091203.634000", "091203.636000", "091203.639000", "091203.641000", "091203.644000", "091203.646000", "091203.649000", "091203.651000", "091203.654000", "091203.656000", "091203.659000", "091203.661000", "091243.612000", "091243.615000", "091243.618000", "091243.620000", "091243.623000", "091243.625000", "091243.628000", "091243.631000", "091243.633000", "091243.636000", "091243.638000", "091243.641000", "091243.643000", "091243.646000", "091243.649000", "091243.651000", "091243.654000", "091243.656000", "091243.659000", "091243.661000", "091323.612000", "091323.615000", "091323.618000", "091323.620000", "091323.623000", "091323.625000", "091323.628000", "091323.630000", "091323.633000", "091323.636000", "091323.638000", "091323.641000", "091323.643000", "091323.646000", "091323.648000", "091323.651000", "091323.653000", "091323.656000", "091323.658000", "091323.661000", "091403.613000", "091403.616000", "091403.619000", "091403.621000", "091403.624000", "091403.627000", "091403.629000", "091403.632000", "091403.634000", "091403.637000", "091403.640000", "091403.642000", "091403.645000", "091403.647000", "091403.650000", "091403.652000", "091403.655000", "091403.657000", "091403.660000", "091403.662000", "091443.613000", "091443.616000", "091443.619000", "091443.621000", "091443.624000", "091443.627000", "091443.629000", "091443.639000", "091443.641000", "091443.644000", "091443.646000", "091443.649000", "091443.651000", "091443.654000", "091443.656000", "091443.659000", "091443.661000", "091443.664000", "091443.666000", "091443.669000", "091523.613000", "091523.615000", "091523.618000", "091523.621000", "091523.623000", "091523.626000", "091523.628000", "091523.631000", "091523.633000", "091523.636000", "091523.639000", "091523.641000", "091523.644000", "091523.646000", "091523.649000", "091523.652000", "091523.654000", "091523.656000", "091523.659000", "091523.662000", "091553.422000", "091553.425000", "091553.427000", "091553.430000", "091553.433000", "091553.435000", "091553.438000", "091553.440000", "091553.443000", "091553.445000", "091553.448000", "091553.451000", "091553.460000", "091553.464000", "091553.469000"],
      "InstanceNumber": [1, 2, 3, 4, 5, 6, 7, 8, 9, 10, 11, 12, 13, 14, 15, 16, 17, 18, 19, 20, 21, 22, 23, 24, 25, 26, 27, 28, 29, 30, 31, 32, 33, 34, 35, 36, 37, 38, 39, 40, 41, 42, 43, 44, 45, 46, 47, 48, 49, 50, 51, 52, 53, 54, 55, 56, 57, 58, 59, 60, 61, 62, 63, 64, 65, 66, 67, 68, 69, 70, 71, 72, 73, 74, 75, 76, 77, 78, 79, 80, 81, 82, 83, 84, 85, 86, 87, 88, 89, 90, 91, 92, 93, 94, 95, 96, 97, 98, 99, 100, 101, 102, 103, 104, 105, 106, 107, 108, 109, 110, 111, 112, 113, 114, 115, 116, 117, 118, 119, 120, 121, 122, 123, 124, 125, 126, 127, 128, 129, 130, 131, 132, 133, 134, 135, 136, 137, 138, 139, 140, 141, 142, 143, 144, 145, 146, 147, 148, 149, 150, 151, 152, 153, 154, 155, 156, 157, 158, 159, 160, 161, 162, 163, 164, 165, 166, 167, 168, 169, 170, 171, 172, 173, 174, 175, 176, 177, 178, 179, 180, 181, 182, 183, 184, 185, 186, 187, 188, 189, 190, 191, 192, 193, 194, 195, 196, 197, 198, 199, 200],
      "LargestImagePixelValue": [2173, 2179, 2177, 2173, 2179, 2180, 2180, 2184, 2185, 2173, 2176, 2174, 2179, 2185, 2182, 2181, 2181, 2179, 2175, 2177, 2176, 2179, 2179, 2176, 2180, 2177, 2183, 2175, 2174, 2180, 2171, 2181, 2172, 2176, 2178, 2178, 2174, 2176, 2173, 2180, 2176, 2177, 2180, 2177, 2175, 2183, 2175, 2179, 2189, 2174, 2174, 2178, 2175, 2178, 2172, 2180, 2180, 2174, 2179, 2178, 2176, 2174, 2176, 2177, 2185, 2175, 2177, 2173, 2178, 2181, 2179, 2172, 2178, 2171, 2176, 2176, 2182, 2181, 2179, 2176, 2170, 2177, 2169, 2171, 2184, 2175, 2178, 2176, 2175, 2178, 2182, 2184, 2180, 2185, 2184, 2175, 2182, 2182, 2180, 2180, 2180, 2177, 2179, 2181, 2175, 2176, 2179, 2171, 2176, 2182, 2179, 2176, 2181, 2177, 2173, 2175, 2174, 2177, 2177, 2181, 2172, 2179, 2173, 2179, 2183, 2174, 2172, 2181, 2190, 2176, 2179, 2172, 2173, 2174, 2178, 2176, 2181, 2173, 2171, 2179, 2179, 2187, 2176, 2180, 2178, 2177, 2173, 2179, 2180, 2177, 2174, 2175, 2177, 2175, 2174, 2176, 2183, 2177, 2176, 2174, 2175, 2174, 2180, 2180, 2176, 2181, 2177, 2183, 2179, 2183, 2177, 2174, 2176, 2177, 2177, 2175, 2176, 2182, 2176, 2174, 2177, 2178, 2181, 2170, 2175, 2177, 2177, 2175, 2171, 2180, 2183, 2179, 2177, 2172, 2181, 2176, 2173, 2175, 2176, 2171],
      "WindowCenter": [1009.0, 1010.0, 1009.0, 1009.0, 1009.0, 1009.0, 1009.0, 1010.0, 1010.0, 1010.0, 1009.0, 1009.0, 1010.0, 1010.0, 1009.0, 1010.0, 1009.0, 1009.0, 1010.0, 1009.0, 1009.0, 1009.0, 1009.0, 1009.0, 1009.0, 1008.0, 1009.0, 1009.0, 1009.0, 1009.0, 1009.0, 1009.0, 1008.0, 1008.0, 1009.0, 1009.0, 1008.0, 1009.0, 1008.0, 1009.0, 1008.0, 1008.0, 1009.0, 1009.0, 1008.0, 1009.0, 1008.0, 1009.0, 1008.0, 1008.0, 1009.0, 1008.0, 1008.0, 1009.0, 1009.0, 1008.0, 1008.0, 1009.0, 1008.0, 1008.0, 1008.0, 1008.0, 1008.0, 1009.0, 1009.0, 1009.0, 1009.0, 1008.0, 1008.0, 1009.0, 1009.0, 1008.0, 1009.0, 1008.0, 1008.0, 1008.0, 1009.0, 1008.0, 1009.0, 1008.0, 1008.0, 1009.0, 1009.0, 1008.0, 1009.0, 1009.0, 1009.0, 1009.0, 1009.0, 1009.0, 1008.0, 1009.0, 1008.0, 1009.0, 1008.0, 1008.0, 1008.0, 1008.0, 1008.0, 1008.0, 1008.0, 1009.0, 1008.0, 1008.0, 1009.0, 1009.0, 1009.0, 1009.0, 1008.0, 1008.0, 1009.0, 1008.0, 1008.0, 1009.0, 1009.0, 1008.0, 1009.0, 1009.0, 1009.0, 1009.0, 1009.0, 1008.0, 1008.0, 1009.0, 1009.0, 1008.0, 1009.0, 1008.0, 1009.0, 1008.0, 1009.0, 1008.0, 1009.0, 1008.0, 1008.0, 1009.0, 1009.0, 1008.0, 1008.0, 1008.0, 1008.0, 1008.0, 1009.0, 1008.0, 1008.0, 1008.0, 1008.0, 1008.0, 1009.0, 1008.0, 1008.0, 1008.0, 1009.0, 1009.0, 1008.0, 1008.0, 1008.0, 1008.0, 1009.0, 1009.0, 1008.0, 1008.0, 1008.0, 1009.0, 1008.0, 1008.0, 1008.0, 1008.0, 1008.0, 1009.0, 1008.0, 1009.0, 1009.0, 1008.0, 1008.0, 1010.0, 1008.0, 1009.0, 1008.0, 1009.0, 1008.0, 1008.0, 1009.0, 1008.0, 1009.0, 1009.0, 1010.0, 1008.0, 1009.0, 1008.0, 1009.0, 1008.0, 1008.0, 1008.0, 1008.0, 1008.0, 1009.0, 1008.0, 1008.0, 1008.0],
      "WindowWidth": [2230.0, 2229.0, 2229.0, 2229.0, 2229.0, 2229.0, 2229.0, 2229.0, 2229.0, 2229.0, 2228.0, 2228.0, 2229.0, 2229.0, 2228.0, 2229.0, 2228.0, 2228.0, 2229.0, 2228.0, 2228.0, 2228.0, 2228.0, 2227.0, 2228.0, 2227.0, 2228.0, 2228.0, 2228.0, 2228.0, 2227.0, 2228.0, 2227.0, 2227.0, 2228.0, 2228.0, 2227.0, 2228.0, 2227.0, 2228.0, 2227.0, 2227.0, 2227.0, 2228.0, 2227.0, 2228.0, 2227.0, 2228.0, 2227.0, 2227.0, 2227.0, 2227.0, 2227.0, 2227.0, 2228.0, 2227.0, 2227.0, 2228.0, 2227.0, 2227.0, 2227.0, 2227.0, 2227.0, 2228.0, 2228.0, 2228.0, 2227.0, 2227.0, 2227.0, 2228.0, 2227.0, 2227.0, 2227.0, 2226.0, 2227.0, 2227.0, 2227.0, 2227.0, 2227.0, 2227.0, 2227.0, 2227.0, 2227.0, 2227.0, 2227.0, 2227.0, 2227.0, 2227.0, 2227.0, 2227.0, 2226.0, 2227.0, 2226.0, 2227.0, 2226.0, 2227.0, 2227.0, 2226.0, 2226.0, 2226.0, 2226.0, 2227.0, 2226.0, 2226.0, 2227.0, 2227.0, 2227.0, 2227.0, 2226.0, 2226.0, 2227.0, 2226.0, 2226.0, 2227.0, 2226.0, 2226.0, 2227.0, 2227.0, 2227.0, 2227.0, 2227.0, 2226.0, 2226.0, 2227.0, 2227.0, 2226.0, 2227.0, 2226.0, 2227.0, 2226.0, 2227.0, 2226.0, 2227.0, 2226.0, 2226.0, 2227.0, 2227.0, 2226.0, 2226.0, 2226.0, 2226.0, 2226.0, 2227.0, 2226.0, 2226.0, 2226.0, 2226.0, 2226.0, 2227.0, 2226.0, 2226.0, 2226.0, 2227.0, 2226.0, 2226.0, 2226.0, 2226.0, 2226.0, 2227.0, 2227.0, 2226.0, 2225.0, 2226.0, 2226.0, 2226.0, 2226.0, 2226.0, 2226.0, 2226.0, 2226.0, 2225.0, 2226.0, 2226.0, 2226.0, 2226.0, 2227.0, 2226.0, 2226.0, 2226.0, 2226.0, 2225.0, 2225.0, 2227.0, 2225.0, 2226.0, 2226.0, 2227.0, 2225.0, 2226.0, 2226.0, 2226.0, 2227.0, 2226.0, 2225.0, 2225.0, 2226.0, 2226.0, 2226.0, 2225.0, 2225.0]
    },
    "slices": {}
  }
}