{
  "AcquisitionMatrixPE": 80,
  "AcquisitionNumber": 1,
  "AcquisitionTime": "09:40:6.200000",
  "BandwidthPerPixelPhaseEncode": 48.077,
  "BaseResolution": 80,
  "BodyPartExamined": "BRAIN",
  "CoilCombinationMethod": "Sum of Squares",
  "ConsistencyInfo": "N4_VE11C_LATEST_20160120",
  "ConversionSoftware": "dcm2niix",
  "ConversionSoftwareVersion": "v1.0.20220720",
  "DerivedVendorReportedEchoSpacing": 0.000519999,
  "DeviceSerialNumber": "66112",
  "DwellTime": 2.7e-06,
  "EchoTime": 0.035,
  "EchoTrainLength": 39,
  "EffectiveEchoSpacing": 0.00026,
  "FlipAngle": 90,
  "HeudiconvVersion": "0.13.1",
  "ImageOrientationPatientDICOM": [0.987017, 0.160014, 0.0138602, -0.155975, 0.93435, 0.320409],
  "ImageOrientationText": "Tra>Cor(18.6)>Sag(-2.2)",
  "ImageType": [
    "ORIGINAL",
    "PRIMARY",
    "M",
    "ND",
    "NORM",
    "MOSAIC"
],
  "ImagingFrequency": 123.252,
  "InPlanePhaseEncodingDirectionDICOM": "COL",
  "InstitutionAddress": "Maynard 3,Hanover,NH,US,03755",
  "InstitutionName": "Dartmouth College - PBS",
  "InstitutionalDepartmentName": "Department",
  "MRAcquisitionType": "2D",
  "MagneticFieldStrength": 3,
  "Manufacturer": "Siemens",
  "ManufacturersModelName": "Prisma",
  "MatrixCoilMode": "GRAPPA",
  "Modality": "MR",
  "NonlinearGradientCorrection": false,
  "ParallelReductionFactorInPlane": 2,
  "PartialFourier": 1,
  "PatientPosition": "HFS",
  "PercentPhaseFOV": 100,
  "PercentSampling": 100,
  "PhaseEncodingDirection": "j-",
  "PhaseEncodingSteps": 79,
  "PhaseResolution": 1,
  "PixelBandwidth": 2315,
  "ProcedureStepDescription": "dbic^QA",
  "ProtocolName": "func-bold_task-rest_acq-p2",
  "PulseSequenceDetails": "%SiemensSeq%\\ep2d_bold",
  "ReceiveCoilActiveElements": "HC1-7;NC1,2",
  "ReceiveCoilName": "HeadNeck_64",
  "ReconMatrixPE": 80,
  "RefLinesPE": 24,
  "RepetitionTime": 2,
  "SAR": 0.0361291,
  "ScanOptions": "FS",
  "ScanningSequence": "EP",
  "SequenceName": "*epfid2d1_80",
  "SequenceVariant": "SK",
  "SeriesDescription": "func-bold_task-rest_acq-p2",
  "SeriesNumber": 5,
  "ShimSetting": [4141, -7699, -7507, 188, -65, -305, -37, 75],
  "SliceThickness": 3.5,
  "SliceTiming": [0.99, 0, 1.0575, 0.0675, 1.1225, 0.1325, 1.1875, 0.2, 1.255, 0.265, 1.32, 0.33, 1.3875, 0.3975, 1.4525, 0.4625, 1.5175, 0.5275, 1.585, 0.595, 1.65, 0.66, 1.7175, 0.7275, 1.7825, 0.7925, 1.8475, 0.8575, 1.915, 0.925],
  "SoftwareVersions": "syngo MR E11",
  "SpacingBetweenSlices": 3.99,
  "StationName": "AWP66112",
  "TaskName": "rest",
  "TotalReadoutTime": 0.02054,
  "TxRefAmp": 211.024,
  "dcmmeta_affine": [
    [-2.961052179336548, -0.4679250121116638, -0.15289531648159027, 142.00238037109375],
    [-0.48004209995269775, 2.8030500411987305, 1.270459532737732, -92.0966796875],
    [0.04158059507608414, -0.9612264633178711, 3.779240131378174, -28.13726806640625],
    [0.0, 0.0, 0.0, 1.0]
],
  "dcmmeta_reorient_transform": [
    [0.0, -1.0, 0.0, 79.0],
    [1.0, 0.0, 0.0, 0.0],
    [0.0, 0.0, 1.0, 0.0],
    [0.0, 0.0, 0.0, 1.0]
],
  "dcmmeta_shape": [80, 80, 30, 200],
  "dcmmeta_slice_dim": 2,
  "dcmmeta_version": 0.6,
  "global": {
    "const": {
      "AccessionNumber": "qa64",
      "AcquisitionMatrix": [80, 0, 0, 80],
      "AngioFlag": "N",
      "BitsAllocated": 16,
      "BitsStored": 12,
      "BodyPartExamined": "BRAIN",
      "Columns": 480,
      "EchoNumbers": 1,
      "EchoTime": 35.0,
      "EchoTrainLength": 39,
      "FlipAngle": 90.0,
      "HighBit": 11,
      "ImageOrientationPatient": [0.98701742814972, 0.16001403506176, 0.01386019884282, -0.1559750060373, 0.93435003624295, 0.32040881271351],
      "ImagePositionPatient": [-603.6617597985, -785.96271866449, -304.63556423608],
      "ImageType": [
        "ORIGINAL",
        "PRIMARY",
        "M",
        "ND",
        "NORM",
        "MOSAIC"
],
      "ImagedNucleus": "1H",
      "ImagingFrequency": 123.252318,
      "InPlanePhaseEncodingDirection": "COL",
      "MRAcquisitionType": "2D",
      "MagneticFieldStrength": 3.0,
      "Manufacturer": "SIEMENS",
      "ManufacturerModelName": "Prisma",
      "Modality": "MR",
      "NumberOfAverages": 1.0,
      "NumberOfPhaseEncodingSteps": 79,
      "PercentPhaseFieldOfView": 100.0,
      "PercentSampling": 100.0,
      "PerformedProcedureStepStartTime": "093630.869000",
      "PhotometricInterpretation": "MONOCHROME2",
      "PixelBandwidth": 2315.0,
      "PixelRepresentation": 0,
      "PixelSpacing": [3.0, 3.0],
      "ProtocolName": "func-bold_task-rest_acq-p2",
      "RepetitionTime": 2000.0,
      "Rows": 480,
      "SAR": 0.03612913994511,
      "SamplesPerPixel": 1,
      "ScanOptions": "FS",
      "ScanningSequence": "EP",
      "SequenceName": "*epfid2d1_80",
      "SequenceVariant": "SK",
      "SeriesDescription": "func-bold_task-rest_acq-p2",
      "SeriesNumber": 5,
      "SeriesTime": "094052.811000",
      "SliceLocation": -61.417069587958,
      "SliceThickness": 3.5,
      "SmallestImagePixelValue": 0,
      "SoftwareVersions": "syngo MR E11",
      "SpacingBetweenSlices": 3.9899999769486,
      "SpecificCharacterSet": "ISO_IR 100",
      "StudyID": "5",
      "StudyTime": "093630.789000",
      "TransmitCoilName": "Body",
      "VariableFlipAngleFlag": "N",
      "WindowCenterWidthExplanation": "Algo1",
      "dBdt": 0.0},
    "slices": {}
  },
  "time": {
    "samples": {
      "AcquisitionNumber": [1, 2, 3, 4, 5, 6, 7, 8, 9, 10, 11, 12, 13, 14, 15, 16, 17, 18, 19, 20, 21, 22, 23, 24, 25, 26, 27, 28, 29, 30, 31, 32, 33, 34, 35, 36, 37, 38, 39, 40, 41, 42, 43, 44, 45, 46, 47, 48, 49, 50, 51, 52, 53, 54, 55, 56, 57, 58, 59, 60, 61, 62, 63, 64, 65, 66, 67, 68, 69, 70, 71, 72, 73, 74, 75, 76, 77, 78, 79, 80, 81, 82, 83, 84, 85, 86, 87, 88, 89, 90, 91, 92, 93, 94, 95, 96, 97, 98, 99, 100, 101, 102, 103, 104, 105, 106, 107, 108, 109, 110, 111, 112, 113, 114, 115, 116, 117, 118, 119, 120, 121, 122, 123, 124, 125, 126, 127, 128, 129, 130, 131, 132, 133, 134, 135, 136, 137, 138, 139, 140, 141, 142, 143, 144, 145, 146, 147, 148, 149, 150, 151, 152, 153, 154, 155, 156, 157, 158, 159, 160, 161, 162, 163, 164, 165, 166, 167, 168, 169, 170, 171, 172, 173, 174, 175, 176, 177, 178, 179, 180, 181, 182, 183, 184, 185, 186, 187, 188, 189, 190, 191, 192, 193, 194, 195, 196, 197, 198, 199, 200],
      "AcquisitionTime": ["094006.200000", "094008.200000", "094010.200000", "094012.200000", "094014.200000", "094016.200000", "094018.200000", "094020.200000", "094022.200000", "094024.200000", "094026.200000", "094028.200000", "094030.200000", "094032.200000", "094034.200000", "094036.200000", "094038.200000", "094040.200000", "094042.200000", "094044.200000", "094046.200000", "094048.200000", "094050.200000", "094052.200000", "094054.200000", "094056.200000", "094058.200000", "094100.200000", "094102.200000", "094104.200000", "094106.200000", "094108.200000", "094110.200000", "094112.200000", "094114.200000", "094116.200000", "094118.200000", "094120.200000", "094122.200000", "094124.200000", "094126.200000", "094128.200000", "094130.200000", "094132.200000", "094134.200000", "094136.200000", "094138.200000", "094140.200000", "094142.200000", "094144.200000", "094146.200000", "094148.200000", "094150.200000", "094152.200000", "094154.200000", "094156.200000", "094158.200000", "094200.200000", "094202.200000", "094204.200000", "094206.200000", "094208.200000", "094210.200000", "094212.200000", "094214.200000", "094216.200000", "094218.200000", "094220.200000", "094222.200000", "094224.200000", "094226.200000", "094228.200000", "094230.200000", "094232.200000", "094234.200000", "094236.200000", "094238.200000", "094240.200000", "094242.200000", "094244.200000", "094246.200000", "094248.200000", "094250.200000", "094252.200000", "094254.200000", "094256.200000", "094258.200000", "094300.200000", "094302.200000", "094304.200000", "094306.200000", "094308.200000", "094310.200000", "094312.200000", "094314.200000", "094316.200000", "094318.200000", "094320.200000", "094322.200000", "094324.200000", "094326.200000", "094328.200000", "094330.200000", "094332.200000", "094334.200000", "094336.200000", "094338.200000", "094340.200000", "094342.200000", "094344.200000", "094346.200000", "094348.200000", "094350.200000", "094352.200000", "094354.200000", "094356.200000", "094358.200000", "094400.200000", "094402.200000", "094404.200000", "094406.200000", "094408.200000", "094410.200000", "094412.200000", "094414.200000", "094416.200000", "094418.200000", "094420.200000", "094422.200000", "094424.200000", "094426.200000", "094428.200000", "094430.200000", "094432.200000", "094434.200000", "094436.200000", "094438.200000", "094440.200000", "094442.200000", "094444.200000", "094446.200000", "094448.200000", "094450.200000", "094452.200000", "094454.200000", "094456.200000", "094458.200000", "094500.200000", "094502.200000", "094504.200000", "094506.200000", "094508.200000", "094510.200000", "094512.200000", "094514.200000", "094516.200000", "094518.200000", "094520.200000", "094522.200000", "094524.200000", "094526.200000", "094528.200000", "094530.200000", "094532.200000", "094534.200000", "094536.200000", "094538.200000", "094540.200000", "094542.200000", "094544.200000", "094546.200000", "094548.200000", "094550.200000", "094552.200000", "094554.200000", "094556.200000", "094558.200000", "094600.200000", "094602.200000", "094604.200000", "094606.200000", "094608.200000", "094610.200000", "094612.200000", "094614.200000", "094616.200000", "094618.200000", "094620.200000", "094622.200000", "094624.200000", "094626.200000", "094628.200000", "094630.200000", "094632.200000", "094634.200000", "094636.200000", "094638.200000", "094640.200000", "094642.200000", "094644.200000"],
      "ContentTime": ["094052.814000", "094052.818000", "094052.821000", "094052.823000", "094052.826000", "094052.828000", "094052.831000", "094052.833000", "094052.836000", "094052.838000", "094052.841000", "094052.844000", "094052.846000", "094052.849000", "094052.851000", "094052.858000", "094052.861000", "094052.863000", "094052.866000", "094052.869000", "094052.871000", "094052.874000", "094052.876000", "094132.808000", "094132.811000", "094132.814000", "094132.816000", "094132.819000", "094132.822000", "094132.824000", "094132.827000", "094132.829000", "094132.832000", "094132.834000", "094132.837000", "094132.839000", "094132.842000", "094132.845000", "094132.847000", "094132.850000", "094132.852000", "094132.855000", "094132.857000", "094212.809000", "094212.812000", "094212.815000", "094212.817000", "094212.820000", "094212.822000", "094212.825000", "094212.828000", "094212.830000", "094212.833000", "094212.836000", "094212.838000", "094212.841000", "094212.843000", "094212.846000", "094212.848000", "094212.851000", "094212.853000", "094212.856000", "094212.859000", "094252.809000", "094252.812000", "094252.815000", "094252.818000", "094252.820000", "094252.823000", "094252.825000", "094252.828000", "094252.831000", "094252.833000", "094252.836000", "094252.838000", "094252.841000", "094252.843000", "094252.846000", "094252.849000", "094252.851000", "094252.854000", "094252.856000", "094252.859000", "094332.808000", "094332.811000", "094332.822000", "094332.825000", "094332.827000", "094332.830000", "094332.833000", "094332.835000", "094332.838000", "094332.840000", "094332.843000", "094332.845000", "094332.848000", "094332.851000", "094332.853000", "094332.856000", "094332.858000", "094332.861000", "094332.864000", "094332.866000", "094412.810000", "094412.813000", "094412.815000", "094412.818000", "094412.820000", "094412.823000", "094412.834000", "094412.837000", "094412.839000", "094412.842000", "094412.844000", "094412.847000", "094412.849000", "094412.852000", "094412.855000", "094412.857000", "094412.860000", "094412.862000", "094412.865000", "094412.868000", "094452.809000", "094452.812000", "094452.815000", "094452.818000", "094452.820000", "094452.823000", "094452.825000", "094452.828000", "094452.831000", "094452.833000", "094452.836000", "094452.838000", "094452.841000", "094452.843000", "094452.846000", "094452.849000", "094452.851000", "094452.854000", "094452.856000", "094452.859000", "094532.808000", "094532.811000", "094532.814000", "094532.816000", "094532.819000", "094532.822000", "094532.824000", "094532.827000", "094532.829000", "094532.832000", "094532.835000", "094532.837000", "094532.840000", "094532.843000", "094532.845000", "094532.848000", "094532.850000", "094532.853000", "094532.856000", "094532.858000", "094612.809000", "094612.811000", "094612.814000", "094612.817000", "094612.819000", "094612.822000", "094612.825000", "094612.827000", "094612.830000", "094612.832000", "094612.835000", "094612.838000", "094612.840000", "094612.843000", "094612.845000", "094612.848000", "094612.851000", "094612.853000", "094612.856000", "094612.858000", "094645.891000", "094645.894000", "094645.896000", "094645.899000", "094645.901000", "094645.904000", "094645.907000", "094645.909000", "094645.912000", "094645.915000", "094645.917000", "094645.925000", "094645.929000", "094645.932000", "094645.934000", "094645.938000", "094645.945000"],
      "InstanceCreationTime": ["094052.814000", "094052.818000", "094052.821000", "094052.823000", "094052.826000", "094052.828000", "094052.831000", "094052.833000", "094052.836000", "094052.838000", "094052.841000", "094052.844000", "094052.846000", "094052.849000", "094052.851000", "094052.858000", "094052.861000", "094052.863000", "094052.866000", "094052.869000", "094052.871000", "094052.874000", "094052.876000", "094132.808000", "094132.811000", "094132.814000", "094132.816000", "094132.819000", "094132.822000", "094132.824000", "094132.827000", "094132.829000", "094132.832000", "094132.834000", "094132.837000", "094132.839000", "094132.842000", "094132.845000", "094132.847000", "094132.850000", "094132.852000", "094132.855000", "094132.857000", "094212.809000", "094212.812000", "094212.815000", "094212.817000", "094212.820000", "094212.822000", "094212.825000", "094212.828000", "094212.830000", "094212.833000", "094212.836000", "094212.838000", "094212.841000", "094212.843000", "094212.846000", "094212.848000", "094212.851000", "094212.853000", "094212.856000", "094212.859000", "094252.809000", "094252.812000", "094252.815000", "094252.818000", "094252.820000", "094252.823000", "094252.825000", "094252.828000", "094252.831000", "094252.833000", "094252.836000", "094252.838000", "094252.841000", "094252.843000", "094252.846000", "094252.849000", "094252.851000", "094252.854000", "094252.856000", "094252.859000", "094332.808000", "094332.811000", "094332.822000", "094332.825000", "094332.827000", "094332.830000", "094332.833000", "094332.835000", "094332.838000", "094332.840000", "094332.843000", "094332.845000", "094332.848000", "094332.851000", "094332.853000", "094332.856000", "094332.858000", "094332.861000", "094332.864000", "094332.866000", "094412.810000", "094412.813000", "094412.815000", "094412.818000", "094412.820000", "094412.823000", "094412.834000", "094412.837000", "094412.839000", "094412.842000", "094412.844000", "094412.847000", "094412.849000", "094412.852000", "094412.855000", "094412.857000", "094412.860000", "094412.862000", "094412.865000", "094412.868000", "094452.809000", "094452.812000", "094452.815000", "094452.818000", "094452.820000", "094452.823000", "094452.825000", "094452.828000", "094452.831000", "094452.833000", "094452.836000", "094452.838000", "094452.841000", "094452.843000", "094452.846000", "094452.849000", "094452.851000", "094452.854000", "094452.856000", "094452.859000", "094532.808000", "094532.811000", "094532.814000", "094532.816000", "094532.819000", "094532.822000", "094532.824000", "094532.827000", "094532.829000", "094532.832000", "094532.835000", "094532.837000", "094532.840000", "094532.843000", "094532.845000", "094532.848000", "094532.850000", "094532.853000", "094532.856000", "094532.858000", "094612.809000", "094612.811000", "094612.814000", "094612.817000", "094612.819000", "094612.822000", "094612.825000", "094612.827000", "094612.830000", "094612.832000", "094612.835000", "094612.838000", "094612.840000", "094612.843000", "094612.845000", "094612.848000", "094612.851000", "094612.853000", "094612.856000", "094612.858000", "094645.891000", "094645.894000", "094645.896000", "094645.899000", "094645.901000", "094645.904000", "094645.907000", "094645.909000", "094645.912000", "094645.915000", "094645.917000", "094645.925000", "094645.929000", "094645.932000", "094645.934000", "094645.938000", "094645.945000"],
      "InstanceNumber": [1, 2, 3, 4, 5, 6, 7, 8, 9, 10, 11, 12, 13, 14, 15, 16, 17, 18, 19, 20, 21, 22, 23, 24, 25, 26, 27, 28, 29, 30, 31, 32, 33, 34, 35, 36, 37, 38, 39, 40, 41, 42, 43, 44, 45, 46, 47, 48, 49, 50, 51, 52, 53, 54, 55, 56, 57, 58, 59, 60, 61, 62, 63, 64, 65, 66, 67, 68, 69, 70, 71, 72, 73, 74, 75, 76, 77, 78, 79, 80, 81, 82, 83, 84, 85, 86, 87, 88, 89, 90, 91, 92, 93, 94, 95, 96, 97, 98, 99, 100, 101, 102, 103, 104, 105, 106, 107, 108, 109, 110, 111, 112, 113, 114, 115, 116, 117, 118, 119, 120, 121, 122, 123, 124, 125, 126, 127, 128, 129, 130, 131, 132, 133, 134, 135, 136, 137, 138, 139, 140, 141, 142, 143, 144, 145, 146, 147, 148, 149, 150, 151, 152, 153, 154, 155, 156, 157, 158, 159, 160, 161, 162, 163, 164, 165, 166, 167, 168, 169, 170, 171, 172, 173, 174, 175, 176, 177, 178, 179, 180, 181, 182, 183, 184, 185, 186, 187, 188, 189, 190, 191, 192, 193, 194, 195, 196, 197, 198, 199, 200],
      "LargestImagePixelValue": [3771, 3779, 3769, 3776, 3764, 3772, 3777, 3767, 3770, 3762, 3767, 3782, 3782, 3771, 3785, 3768, 3777, 3778, 3768, 3766, 3762, 3772, 3774, 3786, 3763, 3774, 3768, 3775, 3779, 3757, 3771, 3786, 3755, 3762, 3777, 3784, 3777, 3762, 3772, 3773, 3768, 3769, 3775, 3781, 3770, 3761, 3761, 3770, 3770, 3757, 3776, 3769, 3775, 3763, 3760, 3767, 3764, 3760, 3762, 3776, 3755, 3754, 3760, 3765, 3765, 3767, 3767, 3755, 3762, 3774, 3769, 3767, 3770, 3765, 3773, 3758, 3764, 3761, 3765, 3749, 3765, 3769, 3762, 3771, 3770, 3759, 3755, 3764, 3763, 3765, 3762, 3758, 3763, 3769, 3765, 3759, 3754, 3766, 3773, 3770, 3764, 3768, 3776, 3765, 3773, 3762, 3771, 3771, 3771, 3760, 3753, 3764, 3762, 3768, 3769, 3770, 3771, 3764, 3754, 3770, 3772, 3753, 3772, 3764, 3766, 3778, 3769, 3765, 3770, 3758, 3762, 3770, 3764, 3746, 3760, 3770, 3750, 3768, 3758, 3757, 3758, 3751, 3765, 3778, 3763, 3761, 3773, 3756, 3761, 3760, 3772, 3753, 3767, 3747, 3777, 3754, 3765, 3769, 3754, 3756, 3766, 3777, 3752, 3768, 3758, 3758, 3759, 3761, 3756, 3758, 3758, 3768, 3771, 3758, 3758, 3764, 3752, 3761, 3767, 3761, 3769, 3760, 3758, 3765, 3766, 3755, 3770, 3763, 3763, 3750, 3751, 3762, 3762, 3752, 3761, 3759, 3753, 3762, 3761, 3765],
      "WindowCenter": [1432.0, 1431.0, 1432.0, 1431.0, 1432.0, 1431.0, 1431.0, 1430.0, 1431.0, 1430.0, 1430.0, 1430.0, 1431.0, 1430.0, 1430.0, 1431.0, 1430.0, 1430.0, 1430.0, 1430.0, 1430.0, 1430.0, 1431.0, 1430.0, 1430.0, 1430.0, 1430.0, 1429.0, 1429.0, 1429.0, 1429.0, 1430.0, 1430.0, 1429.0, 1429.0, 1430.0, 1429.0, 1430.0, 1429.0, 1429.0, 1429.0, 1429.0, 1430.0, 1429.0, 1429.0, 1429.0, 1430.0, 1429.0, 1428.0, 1429.0, 1429.0, 1428.0, 1429.0, 1429.0, 1429.0, 1428.0, 1429.0, 1429.0, 1428.0, 1429.0, 1428.0, 1429.0, 1428.0, 1428.0, 1429.0, 1429.0, 1428.0, 1428.0, 1429.0, 1428.0, 1428.0, 1428.0, 1429.0, 1429.0, 1429.0, 1428.0, 1428.0, 1428.0, 1429.0, 1428.0, 1428.0, 1428.0, 1428.0, 1427.0, 1428.0, 1428.0, 1428.0, 1428.0, 1427.0, 1428.0, 1427.0, 1427.0, 1427.0, 1427.0, 1427.0, 1428.0, 1427.0, 1427.0, 1427.0, 1428.0, 1427.0, 1428.0, 1428.0, 1427.0, 1428.0, 1428.0, 1427.0, 1427.0, 1427.0, 1427.0, 1428.0, 1427.0, 1427.0, 1427.0, 1427.0, 1427.0, 1427.0, 1427.0, 1427.0, 1426.0, 1426.0, 1427.0, 1427.0, 1427.0, 1427.0, 1427.0, 1427.0, 1426.0, 1427.0, 1427.0, 1426.0, 1426.0, 1427.0, 1427.0, 1426.0, 1426.0, 1426.0, 1426.0, 1426.0, 1426.0, 1426.0, 1426.0, 1426.0, 1426.0, 1426.0, 1426.0, 1426.0, 1426.0, 1426.0, 1426.0, 1426.0, 1426.0, 1426.0, 1426.0, 1425.0, 1426.0, 1427.0, 1425.0, 1426.0, 1426.0, 1426.0, 1425.0, 1426.0, 1426.0, 1426.0, 1426.0, 1427.0, 1426.0, 1425.0, 1425.0, 1425.0, 1425.0, 1425.0, 1425.0, 1425.0, 1425.0, 1426.0, 1426.0, 1425.0, 1425.0, 1425.0, 1426.0, 1425.0, 1425.0, 1424.0, 1425.0, 1425.0, 1425.0, 1425.0, 1425.0, 1424.0, 1425.0, 1425.0, 1425.0, 1425.0, 1425.0, 1425.0, 1425.0, 1425.0, 1424.0],
      "WindowWidth": [3318.0, 3317.0, 3317.0, 3317.0, 3316.0, 3317.0, 3317.0, 3317.0, 3316.0, 3316.0, 3316.0, 3316.0, 3316.0, 3316.0, 3316.0, 3316.0, 3316.0, 3316.0, 3316.0, 3316.0, 3316.0, 3316.0, 3315.0, 3316.0, 3316.0, 3316.0, 3315.0, 3316.0, 3316.0, 3315.0, 3315.0, 3316.0, 3315.0, 3316.0, 3315.0, 3316.0, 3315.0, 3315.0, 3315.0, 3315.0, 3315.0, 3315.0, 3315.0, 3315.0, 3315.0, 3315.0, 3315.0, 3315.0, 3315.0, 3315.0, 3315.0, 3315.0, 3315.0, 3315.0, 3314.0, 3314.0, 3315.0, 3315.0, 3314.0, 3315.0, 3314.0, 3314.0, 3314.0, 3314.0, 3314.0, 3314.0, 3314.0, 3314.0, 3314.0, 3314.0, 3314.0, 3314.0, 3313.0, 3314.0, 3314.0, 3314.0, 3314.0, 3314.0, 3313.0, 3314.0, 3314.0, 3314.0, 3314.0, 3314.0, 3314.0, 3313.0, 3314.0, 3313.0, 3313.0, 3313.0, 3313.0, 3314.0, 3314.0, 3314.0, 3314.0, 3314.0, 3314.0, 3313.0, 3313.0, 3314.0, 3314.0, 3314.0, 3314.0, 3314.0, 3314.0, 3314.0, 3314.0, 3313.0, 3313.0, 3313.0, 3313.0, 3313.0, 3313.0, 3313.0, 3313.0, 3313.0, 3313.0, 3313.0, 3313.0, 3313.0, 3313.0, 3313.0, 3313.0, 3313.0, 3313.0, 3313.0, 3313.0, 3313.0, 3313.0, 3313.0, 3313.0, 3313.0, 3313.0, 3313.0, 3313.0, 3313.0, 3313.0, 3313.0, 3313.0, 3313.0, 3312.0, 3313.0, 3312.0, 3312.0, 3312.0, 3312.0, 3312.0, 3312.0, 3312.0, 3312.0, 3312.0, 3312.0, 3312.0, 3312.0, 3312.0, 3312.0, 3312.0, 3312.0, 3312.0, 3312.0, 3312.0, 3312.0, 3312.0, 3312.0, 3312.0, 3312.0, 3311.0, 3312.0, 3312.0, 3312.0, 3312.0, 3312.0, 3312.0, 3312.0, 3312.0, 3311.0, 3312.0, 3312.0, 3312.0, 3311.0, 3312.0, 3312.0, 3312.0, 3312.0, 3312.0, 3312.0, 3312.0, 3311.0, 3312.0, 3312.0, 3311.0, 3311.0, 3311.0, 3311.0, 3311.0, 3312.0, 3311.0, 3312.0, 3312.0, 3312.0]
    },
    "slices": {}
  }
}