{
  "AcquisitionMatrixPE": 80,
  "AcquisitionNumber": 1,
  "AcquisitionTime": "09:47:3.522500",
  "BandwidthPerPixelPhaseEncode": 25,
  "BaseResolution": 80,
  "BodyPartExamined": "BRAIN",
  "CoilCombinationMethod": "Sum of Squares",
  "ConsistencyInfo": "N4_VE11C_LATEST_20160120",
  "ConversionSoftware": "dcm2niix",
  "ConversionSoftwareVersion": "v1.0.20220720",
  "DerivedVendorReportedEchoSpacing": 0.0005,
  "DeviceSerialNumber": "66112",
  "DwellTime": 2.7e-06,
  "EchoTime": 0.03,
  "EchoTrainLength": 80,
  "EffectiveEchoSpacing": 0.0005,
  "FlipAngle": 77,
  "HeudiconvVersion": "0.13.1",
  "ImageOrientationPatientDICOM": [0.987017, 0.160014, 0.0138602, -0.155975, 0.93435, 0.320409],
  "ImageOrientationText": "Tra>Cor(18.6)>Sag(-2.2)",
  "ImageType": [
    "ORIGINAL",
    "PRIMARY",
    "M",
    "ND",
    "NORM",
    "MOSAIC"
],
  "ImagingFrequency": 123.252,
  "InPlanePhaseEncodingDirectionDICOM": "COL",
  "InstitutionAddress": "Maynard 3,Hanover,NH,US,03755",
  "InstitutionName": "Dartmouth College - PBS",
  "InstitutionalDepartmentName": "Department",
  "MRAcquisitionType": "2D",
  "MagneticFieldStrength": 3,
  "Manufacturer": "Siemens",
  "ManufacturersModelName": "Prisma",
  "MatrixCoilMode": "SENSE",
  "Modality": "MR",
  "NonlinearGradientCorrection": false,
  "PartialFourier": 1,
  "PatientPosition": "HFS",
  "PercentPhaseFOV": 100,
  "PercentSampling": 100,
  "PhaseEncodingDirection": "j-",
  "PhaseEncodingSteps": 80,
  "PhaseResolution": 1,
  "PixelBandwidth": 2315,
  "ProcedureStepDescription": "dbic^QA",
  "ProtocolName": "func-bold_fa-77",
  "PulseSequenceDetails": "%SiemensSeq%\\ep2d_bold",
  "ReceiveCoilActiveElements": "HC1-7;NC1,2",
  "ReceiveCoilName": "HeadNeck_64",
  "ReconMatrixPE": 80,
  "RepetitionTime": 2,
  "SAR": 0.0283921,
  "ScanOptions": "FS",
  "ScanningSequence": "EP",
  "SequenceName": "*epfid2d1_80",
  "SequenceVariant": "SK",
  "SeriesDescription": "func-bold_fa-77",
  "SeriesNumber": 7,
  "ShimSetting": [4141, -7699, -7507, 189, -65, -304, -35, 75],
  "SliceThickness": 3.5,
  "SliceTiming": [0.99, 0, 1.0575, 0.0675, 1.1225, 0.1325, 1.1875, 0.1975, 1.255, 0.265, 1.32, 0.33, 1.3875, 0.3975, 1.4525, 0.4625, 1.5175, 0.5275, 1.585, 0.595, 1.65, 0.66, 1.7175, 0.7275, 1.7825, 0.7925, 1.8475, 0.8575, 1.915, 0.925],
  "SoftwareVersions": "syngo MR E11",
  "SpacingBetweenSlices": 3.99,
  "StationName": "AWP66112",
  "TotalReadoutTime": 0.0395,
  "TxRefAmp": 211.024,
  "dcmmeta_affine": [
    [-2.961052179336548, -0.4679250121116638, -0.15289533138275146, 139.75888061523438],
    [-0.48004209995269775, 2.8030500411987305, 1.2704596519470215, -90.2030029296875],
    [0.04158059507608414, -0.9612264633178711, 3.779240131378174, -27.515655517578125],
    [0.0, 0.0, 0.0, 1.0]
],
  "dcmmeta_reorient_transform": [
    [0.0, -1.0, 0.0, 79.0],
    [1.0, 0.0, 0.0, 0.0],
    [0.0, 0.0, 1.0, 0.0],
    [0.0, 0.0, 0.0, 1.0]
],
  "dcmmeta_shape": [80, 80, 30, 200],
  "dcmmeta_slice_dim": 2,
  "dcmmeta_version": 0.6,
  "global": {
    "const": {
      "AccessionNumber": "qa64",
      "AcquisitionMatrix": [80, 0, 0, 80],
      "AngioFlag": "N",
      "BitsAllocated": 16,
      "BitsStored": 12,
      "BodyPartExamined": "BRAIN",
      "Columns": 480,
      "EchoNumbers": 1,
      "EchoTime": 30.0,
      "EchoTrainLength": 80,
      "FlipAngle": 77.0,
      "HighBit": 11,
      "ImageOrientationPatient": [0.98701742814972, 0.16001403506176, 0.01386019884282, -0.1559750060373, 0.93435003624295, 0.32040881271351],
      "ImagePositionPatient": [-601.41825217483, -787.85639870056, -304.01395168725],
      "ImageType": [
        "ORIGINAL",
        "PRIMARY",
        "M",
        "ND",
        "NORM",
        "MOSAIC"
],
      "ImagedNucleus": "1H",
      "ImagingFrequency": 123.252318,
      "InPlanePhaseEncodingDirection": "COL",
      "MRAcquisitionType": "2D",
      "MagneticFieldStrength": 3.0,
      "Manufacturer": "SIEMENS",
      "ManufacturerModelName": "Prisma",
      "Modality": "MR",
      "NumberOfAverages": 1.0,
      "NumberOfPhaseEncodingSteps": 80,
      "PercentPhaseFieldOfView": 100.0,
      "PercentSampling": 100.0,
      "PerformedProcedureStepStartTime": "093630.869000",
      "PhotometricInterpretation": "MONOCHROME2",
      "PixelBandwidth": 2315.0,
      "PixelRepresentation": 0,
      "PixelSpacing": [3.0, 3.0],
      "ProtocolName": "func-bold_fa-77",
      "RepetitionTime": 2000.0,
      "Rows": 480,
      "SAR": 0.02839207981251,
      "SamplesPerPixel": 1,
      "ScanOptions": "FS",
      "ScanningSequence": "EP",
      "SequenceName": "*epfid2d1_80",
      "SequenceVariant": "SK",
      "SeriesDescription": "func-bold_fa-77",
      "SeriesNumber": 7,
      "SeriesTime": "094752.880000",
      "SliceLocation": -60.139353085276,
      "SliceThickness": 3.5,
      "SmallestImagePixelValue": 0,
      "SoftwareVersions": "syngo MR E11",
      "SpacingBetweenSlices": 3.9900001074316,
      "SpecificCharacterSet": "ISO_IR 100",
      "StudyID": "5",
      "StudyTime": "093630.789000",
      "TransmitCoilName": "Body",
      "VariableFlipAngleFlag": "N",
      "WindowCenterWidthExplanation": "Algo1",
      "dBdt": 0.0},
    "slices": {}
  },
  "time": {
    "samples": {
      "AcquisitionNumber": [1, 2, 3, 4, 5, 6, 7, 8, 9, 10, 11, 12, 13, 14, 15, 16, 17, 18, 19, 20, 21, 22, 23, 24, 25, 26, 27, 28, 29, 30, 31, 32, 33, 34, 35, 36, 37, 38, 39, 40, 41, 42, 43, 44, 45, 46, 47, 48, 49, 50, 51, 52, 53, 54, 55, 56, 57, 58, 59, 60, 61, 62, 63, 64, 65, 66, 67, 68, 69, 70, 71, 72, 73, 74, 75, 76, 77, 78, 79, 80, 81, 82, 83, 84, 85, 86, 87, 88, 89, 90, 91, 92, 93, 94, 95, 96, 97, 98, 99, 100, 101, 102, 103, 104, 105, 106, 107, 108, 109, 110, 111, 112, 113, 114, 115, 116, 117, 118, 119, 120, 121, 122, 123, 124, 125, 126, 127, 128, 129, 130, 131, 132, 133, 134, 135, 136, 137, 138, 139, 140, 141, 142, 143, 144, 145, 146, 147, 148, 149, 150, 151, 152, 153, 154, 155, 156, 157, 158, 159, 160, 161, 162, 163, 164, 165, 166, 167, 168, 169, 170, 171, 172, 173, 174, 175, 176, 177, 178, 179, 180, 181, 182, 183, 184, 185, 186, 187, 188, 189, 190, 191, 192, 193, 194, 195, 196, 197, 198, 199, 200],
      "AcquisitionTime": ["094703.522500", "094705.522500", "094707.522500", "094709.522500", "094711.522500", "094713.522500", "094715.522500", "094717.522500", "094719.522500", "094721.522500", "094723.522500", "094725.522500", "094727.522500", "094729.522500", "094731.522500", "094733.522500", "094735.522500", "094737.522500", "094739.522500", "094741.522500", "094743.522500", "094745.522500", "094747.522500", "094749.522500", "094751.522500", "094753.522500", "094755.522500", "094757.522500", "094759.522500", "094801.522500", "094803.522500", "094805.522500", "094807.522500", "094809.522500", "094811.522500", "094813.522500", "094815.522500", "094817.522500", "094819.522500", "094821.522500", "094823.522500", "094825.522500", "094827.522500", "094829.522500", "094831.522500", "094833.522500", "094835.522500", "094837.522500", "094839.522500", "094841.522500", "094843.522500", "094845.522500", "094847.522500", "094849.522500", "094851.522500", "094853.522500", "094855.522500", "094857.522500", "094859.522500", "094901.522500", "094903.522500", "094905.522500", "094907.522500", "094909.522500", "094911.522500", "094913.522500", "094915.522500", "094917.522500", "094919.522500", "094921.522500", "094923.522500", "094925.522500", "094927.522500", "094929.522500", "094931.522500", "094933.522500", "094935.522500", "094937.522500", "094939.522500", "094941.522500", "094943.522500", "094945.522500", "094947.522500", "094949.522500", "094951.522500", "094953.522500", "094955.522500", "094957.522500", "094959.522500", "095001.522500", "095003.522500", "095005.522500", "095007.522500", "095009.522500", "095011.522500", "095013.522500", "095015.522500", "095017.522500", "095019.522500", "095021.522500", "095023.522500", "095025.522500", "095027.522500", "095029.522500", "095031.522500", "095033.522500", "095035.522500", "095037.522500", "095039.522500", "095041.522500", "095043.522500", "095045.522500", "095047.522500", "095049.522500", "095051.522500", "095053.522500", "095055.522500", "095057.522500", "095059.522500", "095101.522500", "095103.522500", "095105.522500", "095107.522500", "095109.522500", "095111.522500", "095113.522500", "095115.522500", "095117.522500", "095119.522500", "095121.522500", "095123.522500", "095125.522500", "095127.522500", "095129.522500", "095131.522500", "095133.522500", "095135.522500", "095137.522500", "095139.522500", "095141.522500", "095143.522500", "095145.522500", "095147.522500", "095149.522500", "095151.522500", "095153.522500", "095155.522500", "095157.522500", "095159.522500", "095201.522500", "095203.522500", "095205.522500", "095207.522500", "095209.522500", "095211.522500", "095213.522500", "095215.522500", "095217.522500", "095219.522500", "095221.522500", "095223.522500", "095225.522500", "095227.522500", "095229.522500", "095231.522500", "095233.522500", "095235.522500", "095237.522500", "095239.522500", "095241.522500", "095243.522500", "095245.522500", "095247.522500", "095249.522500", "095251.522500", "095253.522500", "095255.522500", "095257.522500", "095259.522500", "095301.522500", "095303.522500", "095305.522500", "095307.522500", "095309.522500", "095311.522500", "095313.522500", "095315.522500", "095317.522500", "095319.522500", "095321.522500", "095323.522500", "095325.522500", "095327.522500", "095329.522500", "095331.522500", "095333.522500", "095335.522500", "095337.522500", "095339.522500", "095341.522500"],
      "ContentTime": ["094752.883000", "094752.887000", "094752.889000", "094752.892000", "094752.895000", "094752.897000", "094752.900000", "094752.902000", "094752.905000", "094752.907000", "094752.913000", "094752.916000", "094752.918000", "094752.921000", "094752.923000", "094752.926000", "094752.928000", "094752.931000", "094752.933000", "094752.936000", "094752.939000", "094752.951000", "094752.953000", "094752.956000", "094832.879000", "094832.883000", "094832.885000", "094832.888000", "094832.890000", "094832.893000", "094832.895000", "094832.898000", "094832.900000", "094832.903000", "094832.906000", "094832.908000", "094832.911000", "094832.913000", "094832.916000", "094832.918000", "094832.921000", "094832.923000", "094832.926000", "094832.928000", "094912.880000", "094912.883000", "094912.885000", "094912.888000", "094912.890000", "094912.893000", "094912.895000", "094912.898000", "094912.900000", "094912.903000", "094912.906000", "094912.908000", "094912.911000", "094912.913000", "094912.916000", "094912.918000", "094912.921000", "094912.923000", "094912.926000", "094912.928000", "094952.879000", "094952.882000", "094952.885000", "094952.887000", "094952.890000", "094952.893000", "094952.895000", "094952.898000", "094952.900000", "094952.903000", "094952.905000", "094952.908000", "094952.910000", "094952.913000", "094952.916000", "094952.918000", "094952.921000", "094952.923000", "094952.926000", "094952.928000", "095032.879000", "095032.882000", "095032.884000", "095032.887000", "095032.889000", "095032.892000", "095032.894000", "095032.897000", "095032.899000", "095032.902000", "095032.907000", "095032.909000", "095032.912000", "095032.914000", "095032.917000", "095032.919000", "095032.922000", "095032.924000", "095032.927000", "095032.930000", "095112.879000", "095112.882000", "095112.885000", "095112.887000", "095112.890000", "095112.893000", "095112.895000", "095112.898000", "095112.900000", "095112.903000", "095112.906000", "095112.908000", "095112.911000", "095112.913000", "095112.916000", "095112.918000", "095112.921000", "095112.923000", "095112.926000", "095112.928000", "095152.879000", "095152.882000", "095152.885000", "095152.888000", "095152.890000", "095152.893000", "095152.895000", "095152.898000", "095152.900000", "095152.903000", "095152.906000", "095152.908000", "095152.911000", "095152.913000", "095152.916000", "095152.918000", "095152.921000", "095152.923000", "095152.926000", "095152.929000", "095232.878000", "095232.881000", "095232.884000", "095232.886000", "095232.889000", "095232.892000", "095232.894000", "095232.897000", "095232.899000", "095232.902000", "095232.905000", "095232.907000", "095232.910000", "095232.912000", "095232.915000", "095232.917000", "095232.920000", "095232.922000", "095232.925000", "095232.927000", "095312.880000", "095312.883000", "095312.885000", "095312.888000", "095312.890000", "095312.893000", "095312.895000", "095312.898000", "095312.900000", "095312.903000", "095312.906000", "095312.908000", "095312.918000", "095312.920000", "095312.923000", "095312.925000", "095312.928000", "095312.931000", "095312.933000", "095312.936000", "095343.107000", "095343.110000", "095343.113000", "095343.115000", "095343.118000", "095343.120000", "095343.123000", "095343.125000", "095343.128000", "095343.130000", "095343.133000", "095343.136000", "095343.139000", "095343.145000", "095343.147000", "095343.151000"],
      "InstanceCreationTime": ["094752.883000", "094752.887000", "094752.889000", "094752.892000", "094752.895000", "094752.897000", "094752.900000", "094752.902000", "094752.905000", "094752.907000", "094752.913000", "094752.916000", "094752.918000", "094752.921000", "094752.923000", "094752.926000", "094752.928000", "094752.931000", "094752.933000", "094752.936000", "094752.939000", "094752.951000", "094752.953000", "094752.956000", "094832.879000", "094832.883000", "094832.885000", "094832.888000", "094832.890000", "094832.893000", "094832.895000", "094832.898000", "094832.900000", "094832.903000", "094832.906000", "094832.908000", "094832.911000", "094832.913000", "094832.916000", "094832.918000", "094832.921000", "094832.923000", "094832.926000", "094832.928000", "094912.880000", "094912.883000", "094912.885000", "094912.888000", "094912.890000", "094912.893000", "094912.895000", "094912.898000", "094912.900000", "094912.903000", "094912.906000", "094912.908000", "094912.911000", "094912.913000", "094912.916000", "094912.918000", "094912.921000", "094912.923000", "094912.926000", "094912.928000", "094952.879000", "094952.882000", "094952.885000", "094952.887000", "094952.890000", "094952.893000", "094952.895000", "094952.898000", "094952.900000", "094952.903000", "094952.905000", "094952.908000", "094952.910000", "094952.913000", "094952.916000", "094952.918000", "094952.921000", "094952.923000", "094952.926000", "094952.928000", "095032.879000", "095032.882000", "095032.884000", "095032.887000", "095032.889000", "095032.892000", "095032.894000", "095032.897000", "095032.899000", "095032.902000", "095032.907000", "095032.909000", "095032.912000", "095032.914000", "095032.917000", "095032.919000", "095032.922000", "095032.924000", "095032.927000", "095032.930000", "095112.879000", "095112.882000", "095112.885000", "095112.887000", "095112.890000", "095112.893000", "095112.895000", "095112.898000", "095112.900000", "095112.903000", "095112.906000", "095112.908000", "095112.911000", "095112.913000", "095112.916000", "095112.918000", "095112.921000", "095112.923000", "095112.926000", "095112.928000", "095152.879000", "095152.882000", "095152.885000", "095152.888000", "095152.890000", "095152.893000", "095152.895000", "095152.898000", "095152.900000", "095152.903000", "095152.906000", "095152.908000", "095152.911000", "095152.913000", "095152.916000", "095152.918000", "095152.921000", "095152.923000", "095152.926000", "095152.929000", "095232.878000", "095232.881000", "095232.884000", "095232.886000", "095232.889000", "095232.892000", "095232.894000", "095232.897000", "095232.899000", "095232.902000", "095232.905000", "095232.907000", "095232.910000", "095232.912000", "095232.915000", "095232.917000", "095232.920000", "095232.922000", "095232.925000", "095232.927000", "095312.880000", "095312.883000", "095312.885000", "095312.888000", "095312.890000", "095312.893000", "095312.895000", "095312.898000", "095312.900000", "095312.903000", "095312.906000", "095312.908000", "095312.918000", "095312.920000", "095312.923000", "095312.925000", "095312.928000", "095312.931000", "095312.933000", "095312.936000", "095343.107000", "095343.110000", "095343.113000", "095343.115000", "095343.118000", "095343.120000", "095343.123000", "095343.125000", "095343.128000", "095343.130000", "095343.133000", "095343.136000", "095343.139000", "095343.145000", "095343.147000", "095343.151000"],
      "InstanceNumber": [1, 2, 3, 4, 5, 6, 7, 8, 9, 10, 11, 12, 13, 14, 15, 16, 17, 18, 19, 20, 21, 22, 23, 24, 25, 26, 27, 28, 29, 30, 31, 32, 33, 34, 35, 36, 37, 38, 39, 40, 41, 42, 43, 44, 45, 46, 47, 48, 49, 50, 51, 52, 53, 54, 55, 56, 57, 58, 59, 60, 61, 62, 63, 64, 65, 66, 67, 68, 69, 70, 71, 72, 73, 74, 75, 76, 77, 78, 79, 80, 81, 82, 83, 84, 85, 86, 87, 88, 89, 90, 91, 92, 93, 94, 95, 96, 97, 98, 99, 100, 101, 102, 103, 104, 105, 106, 107, 108, 109, 110, 111, 112, 113, 114, 115, 116, 117, 118, 119, 120, 121, 122, 123, 124, 125, 126, 127, 128, 129, 130, 131, 132, 133, 134, 135, 136, 137, 138, 139, 140, 141, 142, 143, 144, 145, 146, 147, 148, 149, 150, 151, 152, 153, 154, 155, 156, 157, 158, 159, 160, 161, 162, 163, 164, 165, 166, 167, 168, 169, 170, 171, 172, 173, 174, 175, 176, 177, 178, 179, 180, 181, 182, 183, 184, 185, 186, 187, 188, 189, 190, 191, 192, 193, 194, 195, 196, 197, 198, 199, 200],
      "LargestImagePixelValue": [3722, 3724, 3728, 3722, 3723, 3730, 3726, 3725, 3727, 3728, 3727, 3730, 3727, 3732, 3728, 3728, 3724, 3725, 3721, 3721, 3726, 3722, 3722, 3724, 3723, 3728, 3723, 3727, 3722, 3729, 3727, 3727, 3722, 3725, 3725, 3722, 3727, 3723, 3729, 3725, 3725, 3725, 3728, 3726, 3725, 3728, 3726, 3725, 3725, 3727, 3729, 3723, 3727, 3727, 3726, 3725, 3724, 3725, 3724, 3725, 3725, 3724, 3725, 3724, 3726, 3722, 3726, 3725, 3729, 3722, 3724, 3721, 3723, 3720, 3724, 3724, 3725, 3724, 3725, 3722, 3725, 3722, 3724, 3727, 3727, 3729, 3721, 3723, 3725, 3725, 3725, 3721, 3723, 3720, 3725, 3726, 3726, 3724, 3723, 3719, 3723, 3721, 3718, 3726, 3724, 3719, 3719, 3719, 3723, 3721, 3722, 3723, 3721, 3722, 3722, 3721, 3717, 3722, 3719, 3719, 3719, 3723, 3719, 3715, 3719, 3721, 3724, 3719, 3718, 3723, 3719, 3720, 3719, 3726, 3719, 3715, 3715, 3717, 3716, 3720, 3719, 3719, 3720, 3724, 3721, 3718, 3720, 3722, 3723, 3726, 3719, 3717, 3720, 3713, 3720, 3718, 3721, 3719, 3715, 3717, 3721, 3719, 3718, 3718, 3721, 3720, 3717, 3720, 3721, 3719, 3719, 3721, 3714, 3715, 3721, 3713, 3717, 3713, 3716, 3710, 3714, 3718, 3722, 3717, 3717, 3715, 3717, 3716, 3716, 3715, 3716, 3715, 3718, 3716, 3716, 3717, 3720, 3720, 3719, 3715],
      "WindowCenter": [1362.0, 1363.0, 1362.0, 1362.0, 1362.0, 1362.0, 1362.0, 1361.0, 1362.0, 1361.0, 1362.0, 1361.0, 1362.0, 1362.0, 1362.0, 1362.0, 1361.0, 1361.0, 1362.0, 1361.0, 1361.0, 1362.0, 1361.0, 1361.0, 1362.0, 1361.0, 1361.0, 1362.0, 1361.0, 1361.0, 1361.0, 1361.0, 1362.0, 1362.0, 1361.0, 1361.0, 1361.0, 1361.0, 1361.0, 1361.0, 1361.0, 1361.0, 1361.0, 1361.0, 1360.0, 1361.0, 1360.0, 1360.0, 1361.0, 1360.0, 1360.0, 1361.0, 1361.0, 1360.0, 1360.0, 1360.0, 1360.0, 1361.0, 1360.0, 1360.0, 1361.0, 1361.0, 1360.0, 1360.0, 1360.0, 1360.0, 1360.0, 1360.0, 1360.0, 1360.0, 1359.0, 1361.0, 1360.0, 1360.0, 1359.0, 1360.0, 1360.0, 1360.0, 1359.0, 1360.0, 1360.0, 1359.0, 1360.0, 1360.0, 1360.0, 1359.0, 1360.0, 1359.0, 1360.0, 1359.0, 1359.0, 1360.0, 1360.0, 1360.0, 1360.0, 1360.0, 1359.0, 1360.0, 1360.0, 1359.0, 1359.0, 1359.0, 1359.0, 1359.0, 1359.0, 1359.0, 1360.0, 1359.0, 1359.0, 1359.0, 1360.0, 1359.0, 1359.0, 1359.0, 1359.0, 1360.0, 1359.0, 1359.0, 1359.0, 1359.0, 1358.0, 1359.0, 1359.0, 1359.0, 1359.0, 1358.0, 1359.0, 1358.0, 1358.0, 1359.0, 1358.0, 1358.0, 1359.0, 1358.0, 1359.0, 1358.0, 1358.0, 1358.0, 1359.0, 1358.0, 1358.0, 1359.0, 1359.0, 1359.0, 1359.0, 1359.0, 1359.0, 1358.0, 1359.0, 1358.0, 1359.0, 1358.0, 1358.0, 1358.0, 1358.0, 1358.0, 1358.0, 1358.0, 1358.0, 1358.0, 1358.0, 1358.0, 1358.0, 1359.0, 1358.0, 1358.0, 1358.0, 1358.0, 1357.0, 1357.0, 1357.0, 1357.0, 1358.0, 1357.0, 1357.0, 1357.0, 1358.0, 1357.0, 1357.0, 1357.0, 1357.0, 1358.0, 1358.0, 1357.0, 1357.0, 1357.0, 1357.0, 1357.0, 1357.0, 1357.0, 1357.0, 1357.0, 1356.0, 1357.0, 1356.0, 1357.0, 1356.0, 1356.0, 1357.0, 1357.0],
      "WindowWidth": [3268.0, 3268.0, 3269.0, 3269.0, 3269.0, 3268.0, 3269.0, 3269.0, 3268.0, 3268.0, 3268.0, 3268.0, 3268.0, 3268.0, 3268.0, 3268.0, 3268.0, 3268.0, 3268.0, 3268.0, 3268.0, 3268.0, 3268.0, 3268.0, 3267.0, 3268.0, 3267.0, 3267.0, 3268.0, 3267.0, 3268.0, 3267.0, 3267.0, 3267.0, 3267.0, 3267.0, 3267.0, 3267.0, 3267.0, 3267.0, 3266.0, 3267.0, 3267.0, 3267.0, 3267.0, 3267.0, 3267.0, 3267.0, 3267.0, 3267.0, 3267.0, 3266.0, 3266.0, 3267.0, 3267.0, 3267.0, 3267.0, 3266.0, 3266.0, 3266.0, 3266.0, 3266.0, 3266.0, 3266.0, 3266.0, 3266.0, 3266.0, 3266.0, 3266.0, 3266.0, 3266.0, 3266.0, 3266.0, 3266.0, 3266.0, 3265.0, 3265.0, 3266.0, 3266.0, 3266.0, 3265.0, 3266.0, 3265.0, 3266.0, 3265.0, 3266.0, 3265.0, 3266.0, 3266.0, 3266.0, 3266.0, 3265.0, 3265.0, 3266.0, 3266.0, 3266.0, 3266.0, 3265.0, 3265.0, 3265.0, 3266.0, 3265.0, 3265.0, 3265.0, 3265.0, 3265.0, 3265.0, 3265.0, 3265.0, 3265.0, 3265.0, 3265.0, 3265.0, 3265.0, 3265.0, 3265.0, 3264.0, 3265.0, 3264.0, 3264.0, 3265.0, 3264.0, 3264.0, 3264.0, 3264.0, 3264.0, 3264.0, 3264.0, 3264.0, 3264.0, 3264.0, 3264.0, 3264.0, 3264.0, 3264.0, 3264.0, 3264.0, 3264.0, 3264.0, 3264.0, 3264.0, 3264.0, 3264.0, 3264.0, 3264.0, 3264.0, 3264.0, 3264.0, 3264.0, 3264.0, 3264.0, 3264.0, 3264.0, 3264.0, 3264.0, 3264.0, 3263.0, 3263.0, 3263.0, 3264.0, 3263.0, 3263.0, 3263.0, 3263.0, 3263.0, 3263.0, 3263.0, 3263.0, 3263.0, 3263.0, 3263.0, 3263.0, 3263.0, 3263.0, 3263.0, 3263.0, 3263.0, 3263.0, 3263.0, 3262.0, 3262.0, 3262.0, 3263.0, 3262.0, 3262.0, 3263.0, 3262.0, 3262.0, 3262.0, 3262.0, 3262.0, 3262.0, 3262.0, 3262.0, 3262.0, 3262.0, 3262.0, 3262.0, 3262.0, 3262.0]
    },
    "slices": {}
  }
}