{
  "AcquisitionMatrixPE": 122,
  "AcquisitionNumber": 1,
  "AcquisitionTime": "10:13:40.192500",
  "BandwidthPerPixelPhaseEncode": 28.76,
  "BaseResolution": 122,
  "BodyPartExamined": "BRAIN",
  "CoilCombinationMethod": "Adaptive Combine",
  "ConsistencyInfo": "N4_VE11C_LATEST_20160120",
  "ConversionSoftware": "dcm2niix",
  "ConversionSoftwareVersion": "v1.0.20220720",
  "DerivedVendorReportedEchoSpacing": 0.000570008,
  "DeviceSerialNumber": "66112",
  "DiffusionScheme": "Monopolar",
  "DwellTime": 2e-06,
  "EchoTime": 0.075,
  "EchoTrainLength": 61,
  "EffectiveEchoSpacing": 0.000285004,
  "FlipAngle": 90,
  "HeudiconvVersion": "0.13.1",
  "ImageOrientationPatientDICOM": [0.987448, -0.155738, -0.0263127, 0.15622, 0.93846, 0.308039],
  "ImageOrientationText": "Tra>Cor(18.0)>Sag(1.3)",
  "ImageType": [
    "ORIGINAL",
    "PRIMARY",
    "DIFFUSION",
    "NONE",
    "ND",
    "NORM"
],
  "ImagingFrequency": 123.252,
  "InPlanePhaseEncodingDirectionDICOM": "COL",
  "InstitutionAddress": "Maynard 3,Hanover,NH,US,03755",
  "InstitutionName": "Dartmouth College - PBS",
  "InstitutionalDepartmentName": "Department",
  "MRAcquisitionType": "2D",
  "MagneticFieldStrength": 3,
  "Manufacturer": "Siemens",
  "ManufacturersModelName": "Prisma",
  "MatrixCoilMode": "GRAPPA",
  "Modality": "MR",
  "NonlinearGradientCorrection": false,
  "ParallelReductionFactorInPlane": 2,
  "PartialFourier": 1,
  "PatientPosition": "HFS",
  "PercentPhaseFOV": 100,
  "PercentSampling": 100,
  "PhaseEncodingDirection": "j-",
  "PhaseEncodingSteps": 122,
  "PhaseResolution": 1,
  "PixelBandwidth": 2050,
  "ProcedureStepDescription": "dbic^QA",
  "ProtocolName": "dwi_acq-DTI-30-p2",
  "PulseSequenceDetails": "%SiemensSeq%\\ep2d_diff",
  "ReceiveCoilActiveElements": "HEA;HEP",
  "ReceiveCoilName": "Head_32",
  "ReconMatrixPE": 122,
  "RefLinesPE": 38,
  "RepetitionTime": 7.7,
  "SAR": 0.101957,
  "ScanOptions": "FS",
  "ScanningSequence": "EP",
  "SequenceName": "*ep_b0",
  "SequenceVariant": "SK\\SP",
  "SeriesDescription": "dwi_acq-DTI-30-p2",
  "SeriesNumber": 8,
  "ShimSetting": [4145, -7685, -7508, 291, -53, -181, -94, 51],
  "SliceThickness": 2,
  "SliceTiming": [3.84375, 0, 3.94531, 0.10938, 4.05469, 0.21875, 4.17188, 0.32812, 4.28125, 0.4375, 4.39062, 0.54688, 4.5, 0.65625, 4.60938, 0.76562, 4.71875, 0.875, 4.82812, 0.99219, 4.9375, 1.09375, 5.04688, 1.20312, 5.15625, 1.3125, 5.26562, 1.42969, 5.375, 1.53906, 5.48438, 1.64844, 5.59375, 1.75781, 5.70312, 1.86719, 5.8125, 1.97656, 5.92188, 2.08594, 6.03125, 2.19531, 6.14062, 2.30469, 6.25, 2.41406, 6.36719, 2.52344, 6.47656, 2.63281, 6.58594, 2.74219, 6.69531, 2.85156, 6.80469, 2.96094, 6.91406, 3.07031, 7.02344, 3.17969, 7.13281, 3.28906, 7.24219, 3.39844, 7.35156, 3.50781, 7.46094, 3.61719, 7.57031, 3.73438],
  "SoftwareVersions": "syngo MR E11",
  "SpacingBetweenSlices": 2,
  "SpoilingState": true,
  "StationName": "AWP66112",
  "TotalReadoutTime": 0.0344855,
  "TxRefAmp": 235.564,
  "dcmmeta_affine": [
    [-1.9425206184387207, 0.3073174059391022, 0.04655975103378296, 96.52725219726562],
    [0.30636894702911377, 1.8461507558822632, 0.6165676116943359, -145.3929901123047],
    [-0.05176271125674248, -0.6059792637825012, 1.9020195007324219, -31.740150451660156],
    [0.0, 0.0, 0.0, 1.0]
],
  "dcmmeta_reorient_transform": [
    [0.0, -1.0, 0.0, 121.0],
    [1.0, 0.0, 0.0, 0.0],
    [0.0, 0.0, -1.0, 69.0],
    [0.0, 0.0, 0.0, 1.0]
],
  "dcmmeta_shape": [122, 122, 70, 31],
  "dcmmeta_slice_dim": 2,
  "dcmmeta_version": 0.6,
  "global": {
    "const": {
      "AccessionNumber": "qa",
      "AcquisitionMatrix": [122, 0, 0, 122],
      "AngioFlag": "N",
      "BitsAllocated": 16,
      "BitsStored": 12,
      "BodyPartExamined": "BRAIN",
      "Columns": 122,
      "EchoNumbers": 1,
      "EchoTime": 75.0,
      "EchoTrainLength": 61,
      "FlipAngle": 90.0,
      "HighBit": 11,
      "ImageOrientationPatient": [0.98744795297333, -0.1557375401061, -0.0263127111957, 0.15621967659292, 0.93845996730067, 0.30803944945288],
      "ImageType": [
        "ORIGINAL",
        "PRIMARY",
        "DIFFUSION",
        "NONE",
        "ND",
        "NORM"
],
      "ImagedNucleus": "1H",
      "ImagingFrequency": 123.252456,
      "InPlanePhaseEncodingDirection": "COL",
      "MRAcquisitionType": "2D",
      "MagneticFieldStrength": 3.0,
      "Manufacturer": "SIEMENS",
      "ManufacturerModelName": "Prisma",
      "Modality": "MR",
      "NumberOfAverages": 1.0,
      "NumberOfPhaseEncodingSteps": 122,
      "PercentPhaseFieldOfView": 100.0,
      "PercentSampling": 100.0,
      "PerformedProcedureStepStartTime": "094511.614000",
      "PhotometricInterpretation": "MONOCHROME2",
      "PixelBandwidth": 2050.0,
      "PixelRepresentation": 0,
      "PixelSpacing": [1.9672131538391, 1.9672131538391],
      "ProtocolName": "dwi_acq-DTI-30-p2",
      "RepetitionTime": 7700.0,
      "Rows": 122,
      "SAR": 0.1019571140541,
      "SamplesPerPixel": 1,
      "ScanOptions": "FS",
      "ScanningSequence": "EP",
      "SequenceVariant": [
        "SK",
        "SP"
],
      "SeriesDescription": "dwi_acq-DTI-30-p2",
      "SeriesNumber": 8,
      "SeriesTime": "101353.419000",
      "SliceThickness": 2.0,
      "SmallestImagePixelValue": 0,
      "SoftwareVersions": "syngo MR E11",
      "SpacingBetweenSlices": 2.0,
      "SpecificCharacterSet": "ISO_IR 100",
      "StudyID": "27",
      "StudyTime": "094511.553000",
      "TransmitCoilName": "Body",
      "VariableFlipAngleFlag": "N",
      "WindowCenterWidthExplanation": "Algo1",
      "dBdt": 0.0},
    "slices": {
      "AcquisitionTime": ["101340.192500", "101336.352500", "101340.300000", "101336.460000", "101340.410000", "101336.570000", "101340.520000", "101336.680000", "101340.630000", "101336.790000", "101340.740000", "101336.900000", "101340.850000", "101337.010000", "101340.960000", "101337.120000", "101341.070000", "101337.230000", "101341.177500", "101337.340000", "101341.287500", "101337.447500", "101341.397500", "101337.557500", "101341.507500", "101337.667500", "101341.617500", "101337.777500", "101341.727500", "101337.887500", "101341.837500", "101337.997500", "101341.947500", "101338.107500", "101342.057500", "101338.217500", "101342.165000", "101338.325000", "101342.275000", "101338.435000", "101342.385000", "101338.545000", "101342.495000", "101338.655000", "101342.605000", "101338.765000", "101342.715000", "101338.875000", "101342.825000", "101338.985000", "101342.935000", "101339.095000", "101343.045000", "101339.205000", "101343.152500", "101339.312500", "101343.262500", "101339.422500", "101343.372500", "101339.532500", "101343.482500", "101339.642500", "101343.592500", "101339.752500", "101343.702500", "101339.862500", "101343.812500", "101339.972500", "101343.922500", "101340.082500", "101347.892500", "101344.052500", "101348.000000", "101344.160000", "101348.110000", "101344.270000", "101348.220000", "101344.380000", "101348.330000", "101344.490000", "101348.440000", "101344.600000", "101348.550000", "101344.710000", "101348.660000", "101344.820000", "101348.770000", "101344.930000", "101348.877500", "101345.040000", "101348.987500", "101345.147500", "101349.097500", "101345.257500", "101349.207500", "101345.367500", "101349.317500", "101345.477500", "101349.427500", "101345.587500", "101349.537500", "101345.697500", "101349.647500", "101345.807500", "101349.757500", "101345.917500", "101349.865000", "101346.025000", "101349.975000", "101346.135000", "101350.085000", "101346.245000", "101350.195000", "101346.355000", "101350.305000", "101346.465000", "101350.415000", "101346.575000", "101350.525000", "101346.685000", "101350.635000", "101346.795000", "101350.745000", "101346.905000", "101350.852500", "101347.012500", "101350.962500", "101347.122500", "101351.072500", "101347.232500", "101351.182500", "101347.342500", "101351.292500", "101347.452500", "101351.402500", "101347.562500", "101351.512500", "101347.672500", "101351.622500", "101347.782500", "101355.592500", "101351.752500", "101355.700000", "101351.860000", "101355.810000", "101351.970000", "101355.920000", "101352.080000", "101356.030000", "101352.190000", "101356.140000", "101352.300000", "101356.250000", "101352.410000", "101356.360000", "101352.520000", "101356.470000", "101352.630000", "101356.577500", "101352.740000", "101356.687500", "101352.847500", "101356.797500", "101352.957500", "101356.907500", "101353.067500", "101357.017500", "101353.177500", "101357.127500", "101353.287500", "101357.237500", "101353.397500", "101357.347500", "101353.507500", "101357.457500", "101353.617500", "101357.565000", "101353.725000", "101357.675000", "101353.835000", "101357.785000", "101353.945000", "101357.895000", "101354.055000", "101358.005000", "101354.165000", "101358.115000", "101354.275000", "101358.225000", "101354.385000", "101358.335000", "101354.495000", "101358.445000", "101354.605000", "101358.552500", "101354.712500", "101358.662500", "101354.822500", "101358.772500", "101354.932500", "101358.882500", "101355.042500", "101358.992500", "101355.152500", "101359.102500", "101355.262500", "101359.212500", "101355.372500", "101359.322500", "101355.482500", "101403.292500", "101359.452500", "101403.400000", "101359.560000", "101403.510000", "101359.670000", "101403.620000", "101359.780000", "101403.730000", "101359.890000", "101403.840000", "101400.000000", "101403.950000", "101400.110000", "101404.060000", "101400.220000", "101404.170000", "101400.330000", "101404.277500", "101400.440000", "101404.387500", "101400.547500", "101404.497500", "101400.657500", "101404.607500", "101400.767500", "101404.717500", "101400.877500", "101404.827500", "101400.987500", "101404.937500", "101401.097500", "101405.047500", "101401.207500", "101405.157500", "101401.317500", "101405.265000", "101401.425000", "101405.375000", "101401.535000", "101405.485000", "101401.645000", "101405.595000", "101401.755000", "101405.705000", "101401.865000", "101405.815000", "101401.975000", "101405.925000", "101402.085000", "101406.035000", "101402.195000", "101406.145000", "101402.305000", "101406.252500", "101402.412500", "101406.362500", "101402.522500", "101406.472500", "101402.632500", "101406.582500", "101402.742500", "101406.692500", "101402.852500", "101406.802500", "101402.962500", "101406.912500", "101403.072500", "101407.022500", "101403.182500", "101410.992500", "101407.152500", "101411.100000", "101407.260000", "101411.210000", "101407.370000", "101411.320000", "101407.480000", "101411.430000", "101407.590000", "101411.540000", "101407.700000", "101411.650000", "101407.810000", "101411.760000", "101407.920000", "101411.870000", "101408.030000", "101411.977500", "101408.140000", "101412.087500", "101408.247500", "101412.197500", "101408.357500", "101412.307500", "101408.467500", "101412.417500", "101408.577500", "101412.527500", "101408.687500", "101412.637500", "101408.797500", "101412.747500", "101408.907500", "101412.857500", "101409.017500", "101412.965000", "101409.125000", "101413.075000", "101409.235000", "101413.185000", "101409.345000", "101413.295000", "101409.455000", "101413.405000", "101409.565000", "101413.515000", "101409.675000", "101413.625000", "101409.785000", "101413.735000", "101409.895000", "101413.845000", "101410.005000", "101413.952500", "101410.112500", "101414.062500", "101410.222500", "101414.172500", "101410.332500", "101414.282500", "101410.442500", "101414.392500", "101410.552500", "101414.502500", "101410.662500", "101414.612500", "101410.772500", "101414.722500", "101410.882500", "101418.692500", "101414.852500", "101418.800000", "101414.960000", "101418.910000", "101415.070000", "101419.020000", "101415.180000", "101419.130000", "101415.290000", "101419.240000", "101415.400000", "101419.350000", "101415.510000", "101419.460000", "101415.620000", "101419.570000", "101415.730000", "101419.677500", "101415.840000", "101419.787500", "101415.947500", "101419.897500", "101416.057500", "101420.007500", "101416.167500", "101420.117500", "101416.277500", "101420.227500", "101416.387500", "101420.337500", "101416.497500", "101420.447500", "101416.607500", "101420.557500", "101416.717500", "101420.665000", "101416.825000", "101420.775000", "101416.935000", "101420.885000", "101417.045000", "101420.995000", "101417.155000", "101421.105000", "101417.265000", "101421.215000", "101417.375000", "101421.325000", "101417.485000", "101421.435000", "101417.595000", "101421.545000", "101417.705000", "101421.652500", "101417.812500", "101421.762500", "101417.922500", "101421.872500", "101418.032500", "101421.982500", "101418.142500", "101422.092500", "101418.252500", "101422.202500", "101418.362500", "101422.312500", "101418.472500", "101422.422500", "101418.582500", "101426.392500", "101422.552500", "101426.500000", "101422.660000", "101426.610000", "101422.770000", "101426.720000", "101422.880000", "101426.830000", "101422.990000", "101426.940000", "101423.100000", "101427.050000", "101423.210000", "101427.160000", "101423.320000", "101427.270000", "101423.430000", "101427.377500", "101423.540000", "101427.487500", "101423.647500", "101427.597500", "101423.757500", "101427.707500", "101423.867500", "101427.817500", "101423.977500", "101427.927500", "101424.087500", "101428.037500", "101424.197500", "101428.147500", "101424.307500", "101428.257500", "101424.417500", "101428.365000", "101424.525000", "101428.475000", "101424.635000", "101428.585000", "101424.745000", "101428.695000", "101424.855000", "101428.805000", "101424.965000", "101428.915000", "101425.075000", "101429.025000", "101425.185000", "101429.135000", "101425.295000", "101429.245000", "101425.405000", "101429.352500", "101425.512500", "101429.462500", "101425.622500", "101429.572500", "101425.732500", "101429.682500", "101425.842500", "101429.792500", "101425.952500", "101429.902500", "101426.062500", "101430.012500", "101426.172500", "101430.122500", "101426.282500", "101434.092500", "101430.252500", "101434.200000", "101430.360000", "101434.310000", "101430.470000", "101434.420000", "101430.580000", "101434.530000", "101430.690000", "101434.640000", "101430.800000", "101434.750000", "101430.910000", "101434.860000", "101431.020000", "101434.970000", "101431.130000", "101435.077500", "101431.240000", "101435.187500", "101431.347500", "101435.297500", "101431.457500", "101435.407500", "101431.567500", "101435.517500", "101431.677500", "101435.627500", "101431.787500", "101435.737500", "101431.897500", "101435.847500", "101432.007500", "101435.957500", "101432.117500", "101436.065000", "101432.225000", "101436.175000", "101432.335000", "101436.285000", "101432.445000", "101436.395000", "101432.555000", "101436.505000", "101432.665000", "101436.615000", "101432.775000", "101436.725000", "101432.885000", "101436.835000", "101432.995000", "101436.945000", "101433.105000", "101437.052500", "101433.212500", "101437.162500", "101433.322500", "101437.272500", "101433.432500", "101437.382500", "101433.542500", "101437.492500", "101433.652500", "101437.602500", "101433.762500", "101437.712500", "101433.872500", "101437.822500", "101433.982500", "101441.792500", "101437.952500", "101441.900000", "101438.060000", "101442.010000", "101438.170000", "101442.120000", "101438.280000", "101442.230000", "101438.390000", "101442.340000", "101438.500000", "101442.450000", "101438.610000", "101442.560000", "101438.720000", "101442.670000", "101438.830000", "101442.777500", "101438.940000", "101442.887500", "101439.047500", "101442.997500", "101439.157500", "101443.107500", "101439.267500", "101443.217500", "101439.377500", "101443.327500", "101439.487500", "101443.437500", "101439.597500", "101443.547500", "101439.707500", "101443.657500", "101439.817500", "101443.765000", "101439.925000", "101443.875000", "101440.035000", "101443.985000", "101440.145000", "101444.095000", "101440.255000", "101444.205000", "101440.365000", "101444.315000", "101440.475000", "101444.425000", "101440.585000", "101444.535000", "101440.695000", "101444.645000", "101440.805000", "101444.752500", "101440.912500", "101444.862500", "101441.022500", "101444.972500", "101441.132500", "101445.082500", "101441.242500", "101445.192500", "101441.352500", "101445.302500", "101441.462500", "101445.412500", "101441.572500", "101445.522500", "101441.682500", "101449.492500", "101445.652500", "101449.600000", "101445.760000", "101449.710000", "101445.870000", "101449.820000", "101445.980000", "101449.930000", "101446.090000", "101450.040000", "101446.200000", "101450.150000", "101446.310000", "101450.260000", "101446.420000", "101450.370000", "101446.530000", "101450.477500", "101446.640000", "101450.587500", "101446.747500", "101450.697500", "101446.857500", "101450.807500", "101446.967500", "101450.917500", "101447.077500", "101451.027500", "101447.187500", "101451.137500", "101447.297500", "101451.247500", "101447.407500", "101451.357500", "101447.517500", "101451.465000", "101447.625000", "101451.575000", "101447.735000", "101451.685000", "101447.845000", "101451.795000", "101447.955000", "101451.905000", "101448.065000", "101452.015000", "101448.175000", "101452.125000", "101448.285000", "101452.235000", "101448.395000", "101452.345000", "101448.505000", "101452.452500", "101448.612500", "101452.562500", "101448.722500", "101452.672500", "101448.832500", "101452.782500", "101448.942500", "101452.892500", "101449.052500", "101453.002500", "101449.162500", "101453.112500", "101449.272500", "101453.222500", "101449.382500", "101457.192500", "101453.352500", "101457.300000", "101453.460000", "101457.410000", "101453.570000", "101457.520000", "101453.680000", "101457.630000", "101453.790000", "101457.740000", "101453.900000", "101457.850000", "101454.010000", "101457.960000", "101454.120000", "101458.070000", "101454.230000", "101458.177500", "101454.340000", "101458.287500", "101454.447500", "101458.397500", "101454.557500", "101458.507500", "101454.667500", "101458.617500", "101454.777500", "101458.727500", "101454.887500", "101458.837500", "101454.997500", "101458.947500", "101455.107500", "101459.057500", "101455.217500", "101459.165000", "101455.325000", "101459.275000", "101455.435000", "101459.385000", "101455.545000", "101459.495000", "101455.655000", "101459.605000", "101455.765000", "101459.715000", "101455.875000", "101459.825000", "101455.985000", "101459.935000", "101456.095000", "101500.045000", "101456.205000", "101500.152500", "101456.312500", "101500.262500", "101456.422500", "101500.372500", "101456.532500", "101500.482500", "101456.642500", "101500.592500", "101456.752500", "101500.702500", "101456.862500", "101500.812500", "101456.972500", "101500.922500", "101457.082500", "101504.892500", "101501.052500", "101505.000000", "101501.160000", "101505.110000", "101501.270000", "101505.220000", "101501.380000", "101505.330000", "101501.490000", "101505.440000", "101501.600000", "101505.550000", "101501.710000", "101505.660000", "101501.820000", "101505.770000", "101501.930000", "101505.877500", "101502.040000", "101505.987500", "101502.147500", "101506.097500", "101502.257500", "101506.207500", "101502.367500", "101506.317500", "101502.477500", "101506.427500", "101502.587500", "101506.537500", "101502.697500", "101506.647500", "101502.807500", "101506.757500", "101502.917500", "101506.865000", "101503.025000", "101506.975000", "101503.135000", "101507.085000", "101503.245000", "101507.195000", "101503.355000", "101507.305000", "101503.465000", "101507.415000", "101503.575000", "101507.525000", "101503.685000", "101507.635000", "101503.795000", "101507.745000", "101503.905000", "101507.852500", "101504.012500", "101507.962500", "101504.122500", "101508.072500", "101504.232500", "101508.182500", "101504.342500", "101508.292500", "101504.452500", "101508.402500", "101504.562500", "101508.512500", "101504.672500", "101508.622500", "101504.782500", "101512.592500", "101508.752500", "101512.700000", "101508.860000", "101512.810000", "101508.970000", "101512.920000", "101509.080000", "101513.030000", "101509.190000", "101513.140000", "101509.300000", "101513.250000", "101509.410000", "101513.360000", "101509.520000", "101513.470000", "101509.630000", "101513.577500", "101509.740000", "101513.687500", "101509.847500", "101513.797500", "101509.957500", "101513.907500", "101510.067500", "101514.017500", "101510.177500", "101514.127500", "101510.287500", "101514.237500", "101510.397500", "101514.347500", "101510.507500", "101514.457500", "101510.617500", "101514.565000", "101510.725000", "101514.675000", "101510.835000", "101514.785000", "101510.945000", "101514.895000", "101511.055000", "101515.005000", "101511.165000", "101515.115000", "101511.275000", "101515.225000", "101511.385000", "101515.335000", "101511.495000", "101515.445000", "101511.605000", "101515.552500", "101511.712500", "101515.662500", "101511.822500", "101515.772500", "101511.932500", "101515.882500", "101512.042500", "101515.992500", "101512.152500", "101516.102500", "101512.262500", "101516.212500", "101512.372500", "101516.322500", "101512.482500", "101520.292500", "101516.452500", "101520.400000", "101516.560000", "101520.510000", "101516.670000", "101520.620000", "101516.780000", "101520.730000", "101516.890000", "101520.840000", "101517.000000", "101520.950000", "101517.110000", "101521.060000", "101517.220000", "101521.170000", "101517.330000", "101521.277500", "101517.440000", "101521.387500", "101517.547500", "101521.497500", "101517.657500", "101521.607500", "101517.767500", "101521.717500", "101517.877500", "101521.827500", "101517.987500", "101521.937500", "101518.097500", "101522.047500", "101518.207500", "101522.157500", "101518.317500", "101522.265000", "101518.425000", "101522.375000", "101518.535000", "101522.485000", "101518.645000", "101522.595000", "101518.755000", "101522.705000", "101518.865000", "101522.815000", "101518.975000", "101522.925000", "101519.085000", "101523.035000", "101519.195000", "101523.145000", "101519.305000", "101523.252500", "101519.412500", "101523.362500", "101519.522500", "101523.472500", "101519.632500", "101523.582500", "101519.742500", "101523.692500", "101519.852500", "101523.802500", "101519.962500", "101523.912500", "101520.072500", "101524.022500", "101520.182500", "101527.992500", "101524.152500", "101528.100000", "101524.260000", "101528.210000", "101524.370000", "101528.320000", "101524.480000", "101528.430000", "101524.590000", "101528.540000", "101524.700000", "101528.650000", "101524.810000", "101528.760000", "101524.920000", "101528.870000", "101525.030000", "101528.977500", "101525.140000", "101529.087500", "101525.247500", "101529.197500", "101525.357500", "101529.307500", "101525.467500", "101529.417500", "101525.577500", "101529.527500", "101525.687500", "101529.637500", "101525.797500", "101529.747500", "101525.907500", "101529.857500", "101526.017500", "101529.965000", "101526.125000", "101530.075000", "101526.235000", "101530.185000", "101526.345000", "101530.295000", "101526.455000", "101530.405000", "101526.565000", "101530.515000", "101526.675000", "101530.625000", "101526.785000", "101530.735000", "101526.895000", "101530.845000", "101527.005000", "101530.952500", "101527.112500", "101531.062500", "101527.222500", "101531.172500", "101527.332500", "101531.282500", "101527.442500", "101531.392500", "101527.552500", "101531.502500", "101527.662500", "101531.612500", "101527.772500", "101531.722500", "101527.882500", "101535.692500", "101531.852500", "101535.800000", "101531.960000", "101535.910000", "101532.070000", "101536.020000", "101532.180000", "101536.130000", "101532.290000", "101536.240000", "101532.400000", "101536.350000", "101532.510000", "101536.460000", "101532.620000", "101536.570000", "101532.730000", "101536.677500", "101532.840000", "101536.787500", "101532.947500", "101536.897500", "101533.057500", "101537.007500", "101533.167500", "101537.117500", "101533.277500", "101537.227500", "101533.387500", "101537.337500", "101533.497500", "101537.447500", "101533.607500", "101537.557500", "101533.717500", "101537.665000", "101533.825000", "101537.775000", "101533.935000", "101537.885000", "101534.045000", "101537.995000", "101534.155000", "101538.105000", "101534.265000", "101538.215000", "101534.375000", "101538.325000", "101534.485000", "101538.435000", "101534.595000", "101538.545000", "101534.705000", "101538.652500", "101534.812500", "101538.762500", "101534.922500", "101538.872500", "101535.032500", "101538.982500", "101535.142500", "101539.092500", "101535.252500", "101539.202500", "101535.362500", "101539.312500", "101535.472500", "101539.422500", "101535.582500", "101543.392500", "101539.552500", "101543.500000", "101539.660000", "101543.610000", "101539.770000", "101543.720000", "101539.880000", "101543.830000", "101539.990000", "101543.940000", "101540.100000", "101544.050000", "101540.210000", "101544.160000", "101540.320000", "101544.270000", "101540.430000", "101544.377500", "101540.540000", "101544.487500", "101540.647500", "101544.597500", "101540.757500", "101544.707500", "101540.867500", "101544.817500", "101540.977500", "101544.927500", "101541.087500", "101545.037500", "101541.197500", "101545.147500", "101541.307500", "101545.257500", "101541.417500", "101545.365000", "101541.525000", "101545.475000", "101541.635000", "101545.585000", "101541.745000", "101545.695000", "101541.855000", "101545.805000", "101541.965000", "101545.915000", "101542.075000", "101546.025000", "101542.185000", "101546.135000", "101542.295000", "101546.245000", "101542.405000", "101546.352500", "101542.512500", "101546.462500", "101542.622500", "101546.572500", "101542.732500", "101546.682500", "101542.842500", "101546.792500", "101542.952500", "101546.902500", "101543.062500", "101547.012500", "101543.172500", "101547.122500", "101543.282500", "101551.092500", "101547.252500", "101551.200000", "101547.360000", "101551.310000", "101547.470000", "101551.420000", "101547.580000", "101551.530000", "101547.690000", "101551.640000", "101547.800000", "101551.750000", "101547.910000", "101551.860000", "101548.020000", "101551.970000", "101548.130000", "101552.077500", "101548.240000", "101552.187500", "101548.347500", "101552.297500", "101548.457500", "101552.407500", "101548.567500", "101552.517500", "101548.677500", "101552.627500", "101548.787500", "101552.737500", "101548.897500", "101552.847500", "101549.007500", "101552.957500", "101549.117500", "101553.065000", "101549.225000", "101553.175000", "101549.335000", "101553.285000", "101549.445000", "101553.395000", "101549.555000", "101553.505000", "101549.665000", "101553.615000", "101549.775000", "101553.725000", "101549.885000", "101553.835000", "101549.995000", "101553.945000", "101550.105000", "101554.052500", "101550.212500", "101554.162500", "101550.322500", "101554.272500", "101550.432500", "101554.382500", "101550.542500", "101554.492500", "101550.652500", "101554.602500", "101550.762500", "101554.712500", "101550.872500", "101554.822500", "101550.982500", "101558.792500", "101554.952500", "101558.900000", "101555.060000", "101559.010000", "101555.170000", "101559.120000", "101555.280000", "101559.230000", "101555.390000", "101559.340000", "101555.500000", "101559.450000", "101555.610000", "101559.560000", "101555.720000", "101559.670000", "101555.830000", "101559.777500", "101555.940000", "101559.887500", "101556.047500", "101559.997500", "101556.157500", "101600.107500", "101556.267500", "101600.217500", "101556.377500", "101600.327500", "101556.487500", "101600.437500", "101556.597500", "101600.547500", "101556.707500", "101600.657500", "101556.817500", "101600.765000", "101556.925000", "101600.875000", "101557.035000", "101600.985000", "101557.145000", "101601.095000", "101557.255000", "101601.205000", "101557.365000", "101601.315000", "101557.475000", "101601.425000", "101557.585000", "101601.535000", "101557.695000", "101601.645000", "101557.805000", "101601.752500", "101557.912500", "101601.862500", "101558.022500", "101601.972500", "101558.132500", "101602.082500", "101558.242500", "101602.192500", "101558.352500", "101602.302500", "101558.462500", "101602.412500", "101558.572500", "101602.522500", "101558.682500", "101606.492500", "101602.652500", "101606.600000", "101602.760000", "101606.710000", "101602.870000", "101606.820000", "101602.980000", "101606.930000", "101603.090000", "101607.040000", "101603.200000", "101607.150000", "101603.310000", "101607.260000", "101603.420000", "101607.370000", "101603.530000", "101607.477500", "101603.640000", "101607.587500", "101603.747500", "101607.697500", "101603.857500", "101607.807500", "101603.967500", "101607.917500", "101604.077500", "101608.027500", "101604.187500", "101608.137500", "101604.297500", "101608.247500", "101604.407500", "101608.357500", "101604.517500", "101608.465000", "101604.625000", "101608.575000", "101604.735000", "101608.685000", "101604.845000", "101608.795000", "101604.955000", "101608.905000", "101605.065000", "101609.015000", "101605.175000", "101609.125000", "101605.285000", "101609.235000", "101605.395000", "101609.345000", "101605.505000", "101609.452500", "101605.612500", "101609.562500", "101605.722500", "101609.672500", "101605.832500", "101609.782500", "101605.942500", "101609.892500", "101606.052500", "101610.002500", "101606.162500", "101610.112500", "101606.272500", "101610.222500", "101606.382500", "101614.192500", "101610.352500", "101614.300000", "101610.460000", "101614.410000", "101610.570000", "101614.520000", "101610.680000", "101614.630000", "101610.790000", "101614.740000", "101610.900000", "101614.850000", "101611.010000", "101614.960000", "101611.120000", "101615.070000", "101611.230000", "101615.177500", "101611.340000", "101615.287500", "101611.447500", "101615.397500", "101611.557500", "101615.507500", "101611.667500", "101615.617500", "101611.777500", "101615.727500", "101611.887500", "101615.837500", "101611.997500", "101615.947500", "101612.107500", "101616.057500", "10