{
  "AcquisitionMatrixPE": 80,
  "AcquisitionNumber": 1,
  "AcquisitionTime": "15:33:55.480000",
  "BandwidthPerPixelPhaseEncode": 25,
  "BaseResolution": 80,
  "BodyPartExamined": "BRAIN",
  "CoilCombinationMethod": "Sum of Squares",
  "ConsistencyInfo": "N4_VE11E_LATEST_20181129",
  "ConversionSoftware": "dcm2niix",
  "ConversionSoftwareVersion": "v1.0.20220720",
  "DerivedVendorReportedEchoSpacing": 0.0005,
  "DeviceSerialNumber": "66112",
  "DwellTime": 2.7e-06,
  "EchoTime": 0.03,
  "EchoTrainLength": 80,
  "EffectiveEchoSpacing": 0.0005,
  "FlipAngle": 10,
  "HeudiconvVersion": "0.13.1",
  "ImageOrientationPatientDICOM": [0.999683, 0.00981368, -0.0231956, -0.00226818, 0.952302, 0.305149],
  "ImageOrientationText": "Tra>Cor(17.8)>Sag(-1.4)",
  "ImageType": [
    "ORIGINAL",
    "PRIMARY",
    "M",
    "ND",
    "NORM",
    "MOSAIC"
],
  "ImagingFrequency": 123.259,
  "InPlanePhaseEncodingDirectionDICOM": "COL",
  "InstitutionAddress": "Maynard 3,Hanover,NH,US,03755",
  "InstitutionName": "Dartmouth College - PBS",
  "InstitutionalDepartmentName": "Department",
  "MRAcquisitionType": "2D",
  "MagneticFieldStrength": 3,
  "Manufacturer": "Siemens",
  "ManufacturersModelName": "Prisma",
  "MatrixCoilMode": "SENSE",
  "Modality": "MR",
  "NonlinearGradientCorrection": false,
  "PartialFourier": 1,
  "PatientPosition": "HFS",
  "PercentPhaseFOV": 100,
  "PercentSampling": 100,
  "PhaseEncodingDirection": "j-",
  "PhaseEncodingSteps": 80,
  "PhaseResolution": 1,
  "PixelBandwidth": 2315,
  "ProcedureStepDescription": "dbic^QA",
  "ProtocolName": "func-bold_fa-10",
  "PulseSequenceDetails": "%SiemensSeq%\\ep2d_bold",
  "ReceiveCoilActiveElements": "HEA;HEP",
  "ReceiveCoilName": "Head_32",
  "ReconMatrixPE": 80,
  "RepetitionTime": 2,
  "SAR": 0.0151213,
  "ScanOptions": "FS",
  "ScanningSequence": "EP",
  "SequenceName": "*epfid2d1_80",
  "SequenceVariant": "SK",
  "SeriesDescription": "func-bold_fa-10",
  "SeriesNumber": 8,
  "ShimSetting": [4221, -7728, -7493, -23, -146, -133, -55, 72],
  "SliceThickness": 3.5,
  "SliceTiming": [0.99, 0, 1.0575, 0.0675, 1.1225, 0.1325, 1.1875, 0.1975, 1.255, 0.265, 1.32, 0.33, 1.3875, 0.3975, 1.4525, 0.4625, 1.5175, 0.5275, 1.585, 0.595, 1.65, 0.66, 1.7175, 0.7275, 1.7825, 0.7925, 1.8475, 0.8575, 1.915, 0.925],
  "SoftwareVersions": "syngo MR E11",
  "SpacingBetweenSlices": 3.99,
  "StationName": "AWP66112",
  "TotalReadoutTime": 0.0395,
  "TxRefAmp": 224.6,
  "dcmmeta_affine": [
    [-2.9990482330322266, -0.006804540287703276, -0.10008466988801956, 124.21472930908203],
    [-0.029441047459840775, 2.856905460357666, 1.216949224472046, -125.53750610351562],
    [-0.06958688795566559, -0.9154476523399353, 3.798567771911621, -35.573219299316406],
    [0.0, 0.0, 0.0, 1.0]
],
  "dcmmeta_reorient_transform": [
    [0.0, -1.0, 0.0, 79.0],
    [1.0, 0.0, 0.0, 0.0],
    [0.0, 0.0, 1.0, 0.0],
    [0.0, 0.0, 0.0, 1.0]
],
  "dcmmeta_shape": [80, 80, 30, 200],
  "dcmmeta_slice_dim": 2,
  "dcmmeta_version": 0.6,
  "global": {
    "const": {
      "AccessionNumber": "qa",
      "AcquisitionMatrix": [80, 0, 0, 80],
      "AngioFlag": "N",
      "BitsAllocated": 16,
      "BitsStored": 12,
      "BodyPartExamined": "BRAIN",
      "Columns": 480,
      "EchoNumbers": 1,
      "EchoTime": 30.0,
      "EchoTrainLength": 80,
      "FlipAngle": 10.0,
      "HighBit": 11,
      "ImageOrientationPatient": [0.99968277691579, 0.00981368274433, -0.0231956282287, -0.0022681801725, 0.95230185129431, 0.30514920838853],
      "ImagePositionPatient": [-722.12592949885, -677.42735282752, -277.0657284109],
      "ImageType": [
        "ORIGINAL",
        "PRIMARY",
        "M",
        "ND",
        "NORM",
        "MOSAIC"
],
      "ImagedNucleus": "1H",
      "ImagingFrequency": 123.259221,
      "InPlanePhaseEncodingDirection": "COL",
      "MRAcquisitionType": "2D",
      "MagneticFieldStrength": 3.0,
      "Manufacturer": "SIEMENS",
      "ManufacturerModelName": "Prisma",
      "Modality": "MR",
      "NumberOfAverages": 1.0,
      "NumberOfPhaseEncodingSteps": 80,
      "PercentPhaseFieldOfView": 100.0,
      "PercentSampling": 100.0,
      "PerformedProcedureStepStartTime": "151153.927000",
      "PhotometricInterpretation": "MONOCHROME2",
      "PixelBandwidth": 2315.0,
      "PixelRepresentation": 0,
      "PixelSpacing": [3.0, 3.0],
      "ProtocolName": "func-bold_fa-10",
      "RepetitionTime": 2000.0,
      "Rows": 480,
      "SAR": 0.01512125574368,
      "SamplesPerPixel": 1,
      "ScanOptions": "FS",
      "ScanningSequence": "EP",
      "SequenceName": "*epfid2d1_80",
      "SequenceVariant": "SK",
      "SeriesDescription": "func-bold_fa-10",
      "SeriesNumber": 8,
      "SeriesTime": "153438.714000",
      "SliceLocation": -75.271187618042,
      "SliceThickness": 3.5,
      "SmallestImagePixelValue": 0,
      "SoftwareVersions": "syngo MR E11",
      "SpacingBetweenSlices": 3.9899999589076,
      "SpecificCharacterSet": "ISO_IR 100",
      "StudyID": "17",
      "StudyTime": "151153.735000",
      "TransmitCoilName": "Body",
      "VariableFlipAngleFlag": "N",
      "WindowCenterWidthExplanation": "Algo1"
    },
    "slices": {}
  },
  "time": {
    "samples": {
      "AcquisitionNumber": [1, 2, 3, 4, 5, 6, 7, 8, 9, 10, 11, 12, 13, 14, 15, 16, 17, 18, 19, 20, 21, 22, 23, 24, 25, 26, 27, 28, 29, 30, 31, 32, 33, 34, 35, 36, 37, 38, 39, 40, 41, 42, 43, 44, 45, 46, 47, 48, 49, 50, 51, 52, 53, 54, 55, 56, 57, 58, 59, 60, 61, 62, 63, 64, 65, 66, 67, 68, 69, 70, 71, 72, 73, 74, 75, 76, 77, 78, 79, 80, 81, 82, 83, 84, 85, 86, 87, 88, 89, 90, 91, 92, 93, 94, 95, 96, 97, 98, 99, 100, 101, 102, 103, 104, 105, 106, 107, 108, 109, 110, 111, 112, 113, 114, 115, 116, 117, 118, 119, 120, 121, 122, 123, 124, 125, 126, 127, 128, 129, 130, 131, 132, 133, 134, 135, 136, 137, 138, 139, 140, 141, 142, 143, 144, 145, 146, 147, 148, 149, 150, 151, 152, 153, 154, 155, 156, 157, 158, 159, 160, 161, 162, 163, 164, 165, 166, 167, 168, 169, 170, 171, 172, 173, 174, 175, 176, 177, 178, 179, 180, 181, 182, 183, 184, 185, 186, 187, 188, 189, 190, 191, 192, 193, 194, 195, 196, 197, 198, 199, 200],
      "AcquisitionTime": ["153355.480000", "153357.480000", "153359.480000", "153401.480000", "153403.480000", "153405.480000", "153407.480000", "153409.480000", "153411.480000", "153413.480000", "153415.480000", "153417.480000", "153419.480000", "153421.480000", "153423.480000", "153425.480000", "153427.480000", "153429.480000", "153431.480000", "153433.480000", "153435.480000", "153437.480000", "153439.480000", "153441.480000", "153443.480000", "153445.480000", "153447.480000", "153449.480000", "153451.480000", "153453.480000", "153455.480000", "153457.480000", "153459.480000", "153501.480000", "153503.480000", "153505.480000", "153507.480000", "153509.480000", "153511.480000", "153513.480000", "153515.480000", "153517.480000", "153519.480000", "153521.480000", "153523.480000", "153525.480000", "153527.480000", "153529.480000", "153531.480000", "153533.480000", "153535.480000", "153537.480000", "153539.480000", "153541.480000", "153543.480000", "153545.480000", "153547.480000", "153549.480000", "153551.480000", "153553.480000", "153555.480000", "153557.480000", "153559.480000", "153601.480000", "153603.480000", "153605.480000", "153607.480000", "153609.480000", "153611.480000", "153613.480000", "153615.480000", "153617.480000", "153619.480000", "153621.480000", "153623.480000", "153625.480000", "153627.480000", "153629.480000", "153631.480000", "153633.480000", "153635.480000", "153637.480000", "153639.480000", "153641.480000", "153643.480000", "153645.480000", "153647.480000", "153649.480000", "153651.480000", "153653.480000", "153655.480000", "153657.480000", "153659.480000", "153701.480000", "153703.480000", "153705.480000", "153707.480000", "153709.480000", "153711.480000", "153713.480000", "153715.480000", "153717.480000", "153719.480000", "153721.480000", "153723.480000", "153725.480000", "153727.480000", "153729.480000", "153731.480000", "153733.480000", "153735.480000", "153737.480000", "153739.480000", "153741.480000", "153743.480000", "153745.480000", "153747.480000", "153749.480000", "153751.480000", "153753.480000", "153755.480000", "153757.480000", "153759.480000", "153801.480000", "153803.480000", "153805.480000", "153807.480000", "153809.480000", "153811.480000", "153813.480000", "153815.480000", "153817.480000", "153819.480000", "153821.480000", "153823.480000", "153825.480000", "153827.480000", "153829.480000", "153831.480000", "153833.480000", "153835.480000", "153837.480000", "153839.480000", "153841.480000", "153843.480000", "153845.480000", "153847.480000", "153849.480000", "153851.480000", "153853.480000", "153855.480000", "153857.480000", "153859.480000", "153901.480000", "153903.480000", "153905.480000", "153907.480000", "153909.480000", "153911.480000", "153913.480000", "153915.480000", "153917.480000", "153919.480000", "153921.480000", "153923.480000", "153925.480000", "153927.480000", "153929.480000", "153931.480000", "153933.480000", "153935.480000", "153937.480000", "153939.480000", "153941.480000", "153943.480000", "153945.480000", "153947.480000", "153949.480000", "153951.480000", "153953.480000", "153955.480000", "153957.480000", "153959.480000", "154001.480000", "154003.480000", "154005.480000", "154007.480000", "154009.480000", "154011.480000", "154013.480000", "154015.480000", "154017.480000", "154019.480000", "154021.480000", "154023.480000", "154025.480000", "154027.480000", "154029.480000", "154031.480000", "154033.480000"],
      "ContentTime": ["153438.718000", "153438.721000", "153438.723000", "153438.726000", "153438.728000", "153438.730000", "153438.732000", "153438.735000", "153438.737000", "153438.739000", "153438.741000", "153438.744000", "153438.746000", "153438.748000", "153438.750000", "153438.753000", "153438.755000", "153438.757000", "153438.760000", "153438.762000", "153438.764000", "153438.766000", "153538.714000", "153538.717000", "153538.719000", "153538.722000", "153538.724000", "153538.726000", "153538.729000", "153538.731000", "153538.733000", "153538.736000", "153538.738000", "153538.740000", "153538.742000", "153538.745000", "153538.755000", "153538.757000", "153538.759000", "153538.762000", "153538.764000", "153538.766000", "153538.768000", "153538.771000", "153538.773000", "153538.775000", "153538.778000", "153538.780000", "153538.782000", "153538.784000", "153538.787000", "153538.789000", "153618.713000", "153618.716000", "153618.718000", "153618.720000", "153618.730000", "153618.732000", "153618.735000", "153618.737000", "153618.739000", "153618.742000", "153618.744000", "153618.746000", "153618.748000", "153618.751000", "153618.753000", "153618.755000", "153618.757000", "153618.760000", "153618.762000", "153618.764000", "153658.713000", "153658.727000", "153658.729000", "153658.732000", "153658.734000", "153658.736000", "153658.738000", "153658.741000", "153658.743000", "153658.745000", "153658.747000", "153658.750000", "153658.752000", "153658.754000", "153658.757000", "153658.759000", "153658.761000", "153658.764000", "153658.766000", "153658.768000", "153738.713000", "153738.716000", "153738.718000", "153738.720000", "153738.723000", "153738.725000", "153738.727000", "153738.730000", "153738.732000", "153738.734000", "153738.737000", "153738.739000", "153738.741000", "153738.743000", "153738.746000", "153738.748000", "153738.750000", "153738.753000", "153738.755000", "153738.757000", "153838.713000", "153838.716000", "153838.718000", "153838.720000", "153838.723000", "153838.725000", "153838.727000", "153838.730000", "153838.736000", "153838.738000", "153838.740000", "153838.742000", "153838.745000", "153838.747000", "153838.749000", "153838.751000", "153838.754000", "153838.756000", "153838.758000", "153838.761000", "153838.763000", "153838.765000", "153838.767000", "153838.770000", "153838.772000", "153838.774000", "153838.776000", "153838.779000", "153838.781000", "153838.783000", "153918.713000", "153918.716000", "153918.718000", "153918.721000", "153918.723000", "153918.725000", "153918.728000", "153918.730000", "153918.732000", "153918.735000", "153918.737000", "153918.739000", "153918.742000", "153918.744000", "153918.746000", "153918.749000", "153918.751000", "153918.753000", "153918.755000", "153918.758000", "153958.713000", "153958.716000", "153958.718000", "153958.721000", "153958.723000", "153958.725000", "153958.727000", "153958.730000", "153958.732000", "153958.734000", "153958.737000", "153958.739000", "153958.741000", "153958.743000", "153958.746000", "153958.748000", "153958.751000", "153958.753000", "153958.755000", "153958.757000", "154018.714000", "154018.717000", "154018.719000", "154018.722000", "154018.724000", "154018.726000", "154018.729000", "154018.731000", "154018.733000", "154018.735000", "154034.862000", "154034.864000", "154034.867000", "154034.869000", "154034.871000", "154034.874000", "154034.876000", "154034.879000"],
      "InstanceCreationTime": ["153438.718000", "153438.721000", "153438.723000", "153438.726000", "153438.728000", "153438.730000", "153438.732000", "153438.735000", "153438.737000", "153438.739000", "153438.741000", "153438.744000", "153438.746000", "153438.748000", "153438.750000", "153438.753000", "153438.755000", "153438.757000", "153438.760000", "153438.762000", "153438.764000", "153438.766000", "153538.714000", "153538.717000", "153538.719000", "153538.722000", "153538.724000", "153538.726000", "153538.729000", "153538.731000", "153538.733000", "153538.736000", "153538.738000", "153538.740000", "153538.742000", "153538.745000", "153538.755000", "153538.757000", "153538.759000", "153538.762000", "153538.764000", "153538.766000", "153538.768000", "153538.771000", "153538.773000", "153538.775000", "153538.778000", "153538.780000", "153538.782000", "153538.784000", "153538.787000", "153538.789000", "153618.713000", "153618.716000", "153618.718000", "153618.720000", "153618.730000", "153618.732000", "153618.735000", "153618.737000", "153618.739000", "153618.742000", "153618.744000", "153618.746000", "153618.748000", "153618.751000", "153618.753000", "153618.755000", "153618.757000", "153618.760000", "153618.762000", "153618.764000", "153658.713000", "153658.727000", "153658.729000", "153658.732000", "153658.734000", "153658.736000", "153658.738000", "153658.741000", "153658.743000", "153658.745000", "153658.747000", "153658.750000", "153658.752000", "153658.754000", "153658.757000", "153658.759000", "153658.761000", "153658.764000", "153658.766000", "153658.768000", "153738.713000", "153738.716000", "153738.718000", "153738.720000", "153738.723000", "153738.725000", "153738.727000", "153738.730000", "153738.732000", "153738.734000", "153738.737000", "153738.739000", "153738.741000", "153738.743000", "153738.746000", "153738.748000", "153738.750000", "153738.753000", "153738.755000", "153738.757000", "153838.713000", "153838.716000", "153838.718000", "153838.720000", "153838.723000", "153838.725000", "153838.727000", "153838.730000", "153838.736000", "153838.738000", "153838.740000", "153838.742000", "153838.745000", "153838.747000", "153838.749000", "153838.751000", "153838.754000", "153838.756000", "153838.758000", "153838.761000", "153838.763000", "153838.765000", "153838.767000", "153838.770000", "153838.772000", "153838.774000", "153838.776000", "153838.779000", "153838.781000", "153838.783000", "153918.713000", "153918.716000", "153918.718000", "153918.721000", "153918.723000", "153918.725000", "153918.728000", "153918.730000", "153918.732000", "153918.735000", "153918.737000", "153918.739000", "153918.742000", "153918.744000", "153918.746000", "153918.749000", "153918.751000", "153918.753000", "153918.755000", "153918.758000", "153958.713000", "153958.716000", "153958.718000", "153958.721000", "153958.723000", "153958.725000", "153958.727000", "153958.730000", "153958.732000", "153958.734000", "153958.737000", "153958.739000", "153958.741000", "153958.743000", "153958.746000", "153958.748000", "153958.751000", "153958.753000", "153958.755000", "153958.757000", "154018.714000", "154018.717000", "154018.719000", "154018.722000", "154018.724000", "154018.726000", "154018.729000", "154018.731000", "154018.733000", "154018.735000", "154034.862000", "154034.864000", "154034.867000", "154034.869000", "154034.871000", "154034.874000", "154034.876000", "154034.879000"],
      "InstanceNumber": [1, 2, 3, 4, 5, 6, 7, 8, 9, 10, 11, 12, 13, 14, 15, 16, 17, 18, 19, 20, 21, 22, 23, 24, 25, 26, 27, 28, 29, 30, 31, 32, 33, 34, 35, 36, 37, 38, 39, 40, 41, 42, 43, 44, 45, 46, 47, 48, 49, 50, 51, 52, 53, 54, 55, 56, 57, 58, 59, 60, 61, 62, 63, 64, 65, 66, 67, 68, 69, 70, 71, 72, 73, 74, 75, 76, 77, 78, 79, 80, 81, 82, 83, 84, 85, 86, 87, 88, 89, 90, 91, 92, 93, 94, 95, 96, 97, 98, 99, 100, 101, 102, 103, 104, 105, 106, 107, 108, 109, 110, 111, 112, 113, 114, 115, 116, 117, 118, 119, 120, 121, 122, 123, 124, 125, 126, 127, 128, 129, 130, 131, 132, 133, 134, 135, 136, 137, 138, 139, 140, 141, 142, 143, 144, 145, 146, 147, 148, 149, 150, 151, 152, 153, 154, 155, 156, 157, 158, 159, 160, 161, 162, 163, 164, 165, 166, 167, 168, 169, 170, 171, 172, 173, 174, 175, 176, 177, 178, 179, 180, 181, 182, 183, 184, 185, 186, 187, 188, 189, 190, 191, 192, 193, 194, 195, 196, 197, 198, 199, 200],
      "LargestImagePixelValue": [348, 348, 348, 347, 346, 346, 346, 346, 347, 348, 347, 346, 346, 346, 347, 348, 347, 346, 347, 345, 345, 345, 347, 347, 347, 346, 346, 347, 346, 347, 347, 346, 347, 345, 345, 348, 347, 346, 347, 346, 347, 345, 347, 346, 347, 348, 347, 346, 346, 345, 347, 347, 346, 347, 346, 347, 347, 345, 347, 346, 347, 347, 344, 347, 346, 348, 347, 343, 345, 347, 347, 347, 347, 345, 345, 345, 346, 346, 348, 346, 345, 347, 345, 346, 347, 346, 345, 346, 347, 346, 347, 347, 348, 346, 346, 345, 345, 346, 347, 346, 345, 345, 345, 345, 345, 347, 347, 345, 345, 347, 346, 346, 347, 346, 345, 345, 345, 345, 343, 347, 347, 346, 346, 345, 346, 347, 346, 346, 346, 345, 345, 345, 345, 347, 346, 345, 344, 344, 346, 346, 346, 347, 346, 346, 345, 345, 346, 346, 347, 345, 345, 345, 345, 347, 348, 348, 345, 346, 346, 348, 347, 346, 346, 346, 345, 345, 344, 346, 345, 346, 345, 346, 346, 347, 347, 348, 346, 344, 345, 346, 347, 346, 346, 344, 345, 345, 345, 347, 346, 345, 346, 344, 344, 345, 345, 345, 346, 345, 345, 345],
      "WindowCenter": [283.0, 283.0, 283.0, 283.0, 283.0, 283.0, 283.0, 283.0, 283.0, 283.0, 283.0, 283.0, 283.0, 283.0, 283.0, 283.0, 283.0, 283.0, 283.0, 283.0, 283.0, 283.0, 283.0, 283.0, 283.0, 282.0, 283.0, 283.0, 283.0, 283.0, 283.0, 283.0, 283.0, 283.0, 283.0, 283.0, 283.0, 283.0, 283.0, 283.0, 282.0, 283.0, 283.0, 283.0, 283.0, 283.0, 283.0, 283.0, 283.0, 283.0, 283.0, 283.0, 283.0, 283.0, 283.0, 283.0, 283.0, 283.0, 283.0, 283.0, 283.0, 283.0, 283.0, 283.0, 283.0, 283.0, 282.0, 283.0, 283.0, 283.0, 283.0, 283.0, 282.0, 283.0, 283.0, 283.0, 282.0, 283.0, 283.0, 283.0, 283.0, 282.0, 283.0, 282.0, 283.0, 282.0, 283.0, 283.0, 283.0, 282.0, 283.0, 282.0, 283.0, 283.0, 283.0, 282.0, 282.0, 282.0, 283.0, 283.0, 283.0, 283.0, 283.0, 282.0, 282.0, 282.0, 283.0, 283.0, 283.0, 282.0, 282.0, 282.0, 282.0, 283.0, 282.0, 282.0, 282.0, 282.0, 282.0, 282.0, 283.0, 283.0, 283.0, 282.0, 283.0, 283.0, 282.0, 282.0, 283.0, 282.0, 282.0, 282.0, 282.0, 282.0, 283.0, 283.0, 283.0, 282.0, 282.0, 282.0, 282.0, 283.0, 282.0, 282.0, 282.0, 282.0, 282.0, 282.0, 282.0, 282.0, 282.0, 282.0, 282.0, 282.0, 282.0, 282.0, 282.0, 282.0, 282.0, 282.0, 282.0, 282.0, 282.0, 282.0, 282.0, 282.0, 282.0, 282.0, 282.0, 282.0, 282.0, 282.0, 282.0, 282.0, 282.0, 282.0, 282.0, 282.0, 282.0, 282.0, 282.0, 282.0, 282.0, 282.0, 282.0, 282.0, 282.0, 282.0, 282.0, 282.0, 282.0, 282.0, 282.0, 282.0, 282.0, 282.0, 282.0, 282.0, 282.0, 282.0],
      "WindowWidth": [618.0, 619.0, 618.0, 618.0, 619.0, 619.0, 619.0, 618.0, 618.0, 618.0, 619.0, 619.0, 619.0, 619.0, 618.0, 618.0, 619.0, 618.0, 619.0, 618.0, 619.0, 618.0, 619.0, 619.0, 619.0, 618.0, 619.0, 618.0, 619.0, 618.0, 618.0, 619.0, 618.0, 618.0, 618.0, 619.0, 619.0, 618.0, 619.0, 618.0, 618.0, 618.0, 619.0, 618.0, 618.0, 618.0, 618.0, 619.0, 618.0, 618.0, 618.0, 618.0, 619.0, 619.0, 619.0, 618.0, 618.0, 618.0, 619.0, 618.0, 618.0, 618.0, 618.0, 618.0, 618.0, 618.0, 618.0, 618.0, 618.0, 618.0, 618.0, 618.0, 618.0, 618.0, 618.0, 618.0, 618.0, 618.0, 618.0, 618.0, 618.0, 618.0, 618.0, 617.0, 618.0, 618.0, 618.0, 618.0, 618.0, 618.0, 618.0, 617.0, 618.0, 618.0, 618.0, 618.0, 618.0, 618.0, 618.0, 618.0, 618.0, 618.0, 618.0, 617.0, 617.0, 618.0, 618.0, 618.0, 618.0, 617.0, 617.0, 617.0, 617.0, 618.0, 618.0, 617.0, 617.0, 617.0, 618.0, 617.0, 618.0, 618.0, 618.0, 617.0, 618.0, 618.0, 617.0, 617.0, 618.0, 617.0, 617.0, 617.0, 617.0, 618.0, 618.0, 618.0, 618.0, 617.0, 617.0, 617.0, 617.0, 618.0, 617.0, 617.0, 617.0, 617.0, 617.0, 617.0, 617.0, 617.0, 617.0, 617.0, 617.0, 617.0, 617.0, 617.0, 617.0, 617.0, 617.0, 617.0, 617.0, 617.0, 617.0, 617.0, 617.0, 617.0, 617.0, 617.0, 617.0, 617.0, 617.0, 617.0, 617.0, 617.0, 617.0, 617.0, 617.0, 617.0, 617.0, 617.0, 617.0, 617.0, 617.0, 617.0, 617.0, 617.0, 617.0, 617.0, 617.0, 617.0, 617.0, 617.0, 617.0, 617.0, 617.0, 617.0, 617.0, 617.0, 617.0, 617.0]
    },
    "slices": {}
  }
}