{
  "AcquisitionMatrixPE": 80,
  "AcquisitionNumber": 1,
  "AcquisitionTime": "15:13:24.735000",
  "BandwidthPerPixelPhaseEncode": 48.077,
  "BaseResolution": 80,
  "BodyPartExamined": "BRAIN",
  "CoilCombinationMethod": "Sum of Squares",
  "ConsistencyInfo": "N4_VE11E_LATEST_20181129",
  "ConversionSoftware": "dcm2niix",
  "ConversionSoftwareVersion": "v1.0.20220720",
  "DerivedVendorReportedEchoSpacing": 0.000519999,
  "DeviceSerialNumber": "66112",
  "DwellTime": 2.7e-06,
  "EchoTime": 0.035,
  "EchoTrainLength": 39,
  "EffectiveEchoSpacing": 0.00026,
  "FlipAngle": 90,
  "HeudiconvVersion": "0.13.1",
  "ImageOrientationPatientDICOM": [0.999683, 0.00981368, -0.0231956, -0.00226818, 0.952302, 0.305149],
  "ImageOrientationText": "Tra>Cor(17.8)>Sag(-1.4)",
  "ImageType": [
    "ORIGINAL",
    "PRIMARY",
    "M",
    "ND",
    "NORM",
    "MOSAIC"
],
  "ImagingFrequency": 123.259,
  "InPlanePhaseEncodingDirectionDICOM": "COL",
  "InstitutionAddress": "Maynard 3,Hanover,NH,US,03755",
  "InstitutionName": "Dartmouth College - PBS",
  "InstitutionalDepartmentName": "Department",
  "MRAcquisitionType": "2D",
  "MagneticFieldStrength": 3,
  "Manufacturer": "Siemens",
  "ManufacturersModelName": "Prisma",
  "MatrixCoilMode": "GRAPPA",
  "Modality": "MR",
  "NonlinearGradientCorrection": false,
  "ParallelReductionFactorInPlane": 2,
  "PartialFourier": 1,
  "PatientPosition": "HFS",
  "PercentPhaseFOV": 100,
  "PercentSampling": 100,
  "PhaseEncodingDirection": "j-",
  "PhaseEncodingSteps": 79,
  "PhaseResolution": 1,
  "PixelBandwidth": 2315,
  "ProcedureStepDescription": "dbic^QA",
  "ProtocolName": "func-bold_task-rest_acq-p2",
  "PulseSequenceDetails": "%SiemensSeq%\\ep2d_bold",
  "ReceiveCoilActiveElements": "HEA;HEP",
  "ReceiveCoilName": "Head_32",
  "ReconMatrixPE": 80,
  "RefLinesPE": 24,
  "RepetitionTime": 2,
  "SAR": 0.0717315,
  "ScanOptions": "FS",
  "ScanningSequence": "EP",
  "SequenceName": "*epfid2d1_80",
  "SequenceVariant": "SK",
  "SeriesDescription": "func-bold_task-rest_acq-p2",
  "SeriesNumber": 5,
  "ShimSetting": [4221, -7728, -7493, -23, -146, -134, -56, 72],
  "SliceThickness": 3.5,
  "SliceTiming": [0.99, 0, 1.055, 0.065, 1.12, 0.13, 1.1875, 0.1975, 1.2525, 0.2625, 1.32, 0.33, 1.385, 0.395, 1.45, 0.46, 1.5175, 0.5275, 1.5825, 0.5925, 1.65, 0.66, 1.715, 0.725, 1.78, 0.79, 1.8475, 0.8575, 1.9125, 0.9225],
  "SoftwareVersions": "syngo MR E11",
  "SpacingBetweenSlices": 3.99,
  "StationName": "AWP66112",
  "TaskName": "rest",
  "TotalReadoutTime": 0.02054,
  "TxRefAmp": 224.6,
  "dcmmeta_affine": [
    [-2.9990482330322266, -0.006804540287703276, -0.10008466988801956, 124.25141143798828],
    [-0.029441047459840775, 2.856905460357666, 1.216949224472046, -127.7561264038086],
    [-0.06958688795566559, -0.9154476523399353, 3.798567771911621, -36.207733154296875],
    [0.0, 0.0, 0.0, 1.0]
],
  "dcmmeta_reorient_transform": [
    [0.0, -1.0, 0.0, 79.0],
    [1.0, 0.0, 0.0, 0.0],
    [0.0, 0.0, 1.0, 0.0],
    [0.0, 0.0, 0.0, 1.0]
],
  "dcmmeta_shape": [80, 80, 30, 200],
  "dcmmeta_slice_dim": 2,
  "dcmmeta_version": 0.6,
  "global": {
    "const": {
      "AccessionNumber": "qa",
      "AcquisitionMatrix": [80, 0, 0, 80],
      "AngioFlag": "N",
      "BitsAllocated": 16,
      "BitsStored": 12,
      "BodyPartExamined": "BRAIN",
      "Columns": 480,
      "EchoNumbers": 1,
      "EchoTime": 35.0,
      "EchoTrainLength": 39,
      "FlipAngle": 90.0,
      "HighBit": 11,
      "ImageOrientationPatient": [0.99968277691579, 0.00981368274433, -0.0231956282287, -0.0022681801725, 0.95230185129431, 0.30514920838853],
      "ImagePositionPatient": [-722.16261425036, -675.20873252723, -277.70024226588],
      "ImageType": [
        "ORIGINAL",
        "PRIMARY",
        "M",
        "ND",
        "NORM",
        "MOSAIC"
],
      "ImagedNucleus": "1H",
      "ImagingFrequency": 123.259216,
      "InPlanePhaseEncodingDirection": "COL",
      "MRAcquisitionType": "2D",
      "MagneticFieldStrength": 3.0,
      "Manufacturer": "SIEMENS",
      "ManufacturerModelName": "Prisma",
      "Modality": "MR",
      "NumberOfAverages": 1.0,
      "NumberOfPhaseEncodingSteps": 79,
      "PercentPhaseFieldOfView": 100.0,
      "PercentSampling": 100.0,
      "PerformedProcedureStepStartTime": "151153.927000",
      "PhotometricInterpretation": "MONOCHROME2",
      "PixelBandwidth": 2315.0,
      "PixelRepresentation": 0,
      "PixelSpacing": [3.0, 3.0],
      "ProtocolName": "func-bold_task-rest_acq-p2",
      "RepetitionTime": 2000.0,
      "Rows": 480,
      "SAR": 0.07173150737238,
      "SamplesPerPixel": 1,
      "ScanOptions": "FS",
      "ScanningSequence": "EP",
      "SequenceName": "*epfid2d1_80",
      "SequenceVariant": "SK",
      "SeriesDescription": "func-bold_task-rest_acq-p2",
      "SeriesNumber": 5,
      "SeriesTime": "151418.715000",
      "SliceLocation": -76.552857714071,
      "SliceThickness": 3.5,
      "SmallestImagePixelValue": 0,
      "SoftwareVersions": "syngo MR E11",
      "SpacingBetweenSlices": 3.9899999787614,
      "SpecificCharacterSet": "ISO_IR 100",
      "StudyID": "17",
      "StudyTime": "151153.735000",
      "TransmitCoilName": "Body",
      "VariableFlipAngleFlag": "N",
      "WindowCenterWidthExplanation": "Algo1"
    },
    "slices": {}
  },
  "time": {
    "samples": {
      "AcquisitionNumber": [1, 2, 3, 4, 5, 6, 7, 8, 9, 10, 11, 12, 13, 14, 15, 16, 17, 18, 19, 20, 21, 22, 23, 24, 25, 26, 27, 28, 29, 30, 31, 32, 33, 34, 35, 36, 37, 38, 39, 40, 41, 42, 43, 44, 45, 46, 47, 48, 49, 50, 51, 52, 53, 54, 55, 56, 57, 58, 59, 60, 61, 62, 63, 64, 65, 66, 67, 68, 69, 70, 71, 72, 73, 74, 75, 76, 77, 78, 79, 80, 81, 82, 83, 84, 85, 86, 87, 88, 89, 90, 91, 92, 93, 94, 95, 96, 97, 98, 99, 100, 101, 102, 103, 104, 105, 106, 107, 108, 109, 110, 111, 112, 113, 114, 115, 116, 117, 118, 119, 120, 121, 122, 123, 124, 125, 126, 127, 128, 129, 130, 131, 132, 133, 134, 135, 136, 137, 138, 139, 140, 141, 142, 143, 144, 145, 146, 147, 148, 149, 150, 151, 152, 153, 154, 155, 156, 157, 158, 159, 160, 161, 162, 163, 164, 165, 166, 167, 168, 169, 170, 171, 172, 173, 174, 175, 176, 177, 178, 179, 180, 181, 182, 183, 184, 185, 186, 187, 188, 189, 190, 191, 192, 193, 194, 195, 196, 197, 198, 199, 200],
      "AcquisitionTime": ["151324.735000", "151326.735000", "151328.735000", "151330.735000", "151332.735000", "151334.735000", "151336.735000", "151338.735000", "151340.735000", "151342.735000", "151344.735000", "151346.735000", "151348.735000", "151350.735000", "151352.735000", "151354.735000", "151356.735000", "151358.735000", "151400.735000", "151402.735000", "151404.735000", "151406.735000", "151408.735000", "151410.735000", "151412.735000", "151414.735000", "151416.735000", "151418.735000", "151420.735000", "151422.735000", "151424.735000", "151426.735000", "151428.735000", "151430.735000", "151432.735000", "151434.735000", "151436.735000", "151438.735000", "151440.735000", "151442.735000", "151444.735000", "151446.735000", "151448.735000", "151450.735000", "151452.735000", "151454.735000", "151456.735000", "151458.735000", "151500.735000", "151502.735000", "151504.735000", "151506.735000", "151508.735000", "151510.735000", "151512.735000", "151514.735000", "151516.735000", "151518.735000", "151520.735000", "151522.735000", "151524.735000", "151526.735000", "151528.735000", "151530.735000", "151532.735000", "151534.735000", "151536.735000", "151538.735000", "151540.735000", "151542.735000", "151544.735000", "151546.735000", "151548.735000", "151550.735000", "151552.735000", "151554.735000", "151556.735000", "151558.735000", "151600.735000", "151602.735000", "151604.735000", "151606.735000", "151608.735000", "151610.735000", "151612.735000", "151614.735000", "151616.735000", "151618.735000", "151620.735000", "151622.735000", "151624.735000", "151626.735000", "151628.735000", "151630.735000", "151632.735000", "151634.735000", "151636.735000", "151638.735000", "151640.735000", "151642.735000", "151644.735000", "151646.735000", "151648.735000", "151650.735000", "151652.735000", "151654.735000", "151656.735000", "151658.735000", "151700.735000", "151702.735000", "151704.735000", "151706.735000", "151708.735000", "151710.735000", "151712.735000", "151714.735000", "151716.735000", "151718.735000", "151720.735000", "151722.735000", "151724.735000", "151726.735000", "151728.735000", "151730.735000", "151732.735000", "151734.735000", "151736.735000", "151738.735000", "151740.735000", "151742.735000", "151744.735000", "151746.735000", "151748.735000", "151750.735000", "151752.735000", "151754.735000", "151756.735000", "151758.735000", "151800.735000", "151802.735000", "151804.735000", "151806.735000", "151808.735000", "151810.735000", "151812.735000", "151814.735000", "151816.735000", "151818.735000", "151820.735000", "151822.735000", "151824.735000", "151826.735000", "151828.735000", "151830.735000", "151832.735000", "151834.735000", "151836.735000", "151838.735000", "151840.735000", "151842.735000", "151844.735000", "151846.735000", "151848.735000", "151850.735000", "151852.735000", "151854.735000", "151856.735000", "151858.735000", "151900.735000", "151902.735000", "151904.735000", "151906.735000", "151908.735000", "151910.735000", "151912.735000", "151914.735000", "151916.735000", "151918.735000", "151920.735000", "151922.735000", "151924.735000", "151926.735000", "151928.735000", "151930.735000", "151932.735000", "151934.735000", "151936.735000", "151938.735000", "151940.735000", "151942.735000", "151944.735000", "151946.735000", "151948.735000", "151950.735000", "151952.735000", "151954.735000", "151956.735000", "151958.735000", "152000.735000", "152002.735000"],
      "ContentTime": ["151418.719000", "151418.722000", "151418.730000", "151418.733000", "151418.735000", "151418.737000", "151418.740000", "151418.742000", "151418.744000", "151418.747000", "151418.749000", "151418.751000", "151418.753000", "151418.756000", "151418.758000", "151418.760000", "151418.772000", "151418.775000", "151418.777000", "151418.779000", "151418.782000", "151418.784000", "151418.786000", "151418.789000", "151418.791000", "151418.793000", "151418.796000", "151458.714000", "151458.717000", "151458.719000", "151458.722000", "151458.724000", "151458.726000", "151458.728000", "151458.731000", "151458.733000", "151458.735000", "151458.738000", "151458.740000", "151458.742000", "151458.745000", "151458.747000", "151458.749000", "151458.752000", "151458.754000", "151458.756000", "151458.759000", "151538.713000", "151538.716000", "151538.718000", "151538.722000", "151538.724000", "151538.727000", "151538.729000", "151538.731000", "151538.734000", "151538.736000", "151538.738000", "151538.740000", "151538.743000", "151538.745000", "151538.747000", "151538.750000", "151538.752000", "151538.754000", "151538.757000", "151538.759000", "151618.713000", "151618.716000", "151618.718000", "151618.720000", "151618.723000", "151618.725000", "151618.727000", "151618.730000", "151618.732000", "151618.734000", "151618.736000", "151618.739000", "151618.741000", "151618.743000", "151618.746000", "151618.748000", "151618.750000", "151618.753000", "151618.755000", "151618.773000", "151658.714000", "151658.717000", "151658.719000", "151658.721000", "151658.724000", "151658.726000", "151658.728000", "151658.730000", "151658.733000", "151658.735000", "151658.737000", "151658.740000", "151658.742000", "151658.744000", "151658.746000", "151658.749000", "151658.751000", "151658.753000", "151658.756000", "151658.758000", "151738.713000", "151738.716000", "151738.718000", "151738.720000", "151738.723000", "151738.725000", "151738.727000", "151738.730000", "151738.732000", "151738.735000", "151738.737000", "151738.739000", "151738.742000", "151738.744000", "151738.746000", "151738.749000", "151738.751000", "151738.753000", "151738.755000", "151738.758000", "151818.713000", "151818.716000", "151818.718000", "151818.720000", "151818.723000", "151818.725000", "151818.728000", "151818.730000", "151818.732000", "151818.735000", "151818.737000", "151818.739000", "151818.742000", "151818.744000", "151818.746000", "151818.748000", "151818.751000", "151818.753000", "151818.755000", "151818.758000", "151858.713000", "151858.716000", "151858.718000", "151858.720000", "151858.723000", "151858.725000", "151858.727000", "151858.730000", "151858.732000", "151858.734000", "151858.736000", "151858.739000", "151858.741000", "151858.743000", "151858.746000", "151858.748000", "151858.750000", "151858.752000", "151858.755000", "151858.757000", "151938.714000", "151938.717000", "151938.719000", "151938.721000", "151938.724000", "151938.726000", "151938.728000", "151938.731000", "151938.733000", "151938.735000", "151938.737000", "151938.740000", "151938.742000", "151938.744000", "151938.747000", "151938.749000", "151938.751000", "151938.754000", "151938.756000", "151938.758000", "152004.590000", "152004.592000", "152004.595000", "152004.597000", "152004.609000", "152004.612000", "152004.614000", "152004.617000", "152004.619000", "152004.622000", "152004.626000", "152004.628000", "152004.632000"],
      "InstanceCreationTime": ["151418.719000", "151418.722000", "151418.730000", "151418.733000", "151418.735000", "151418.737000", "151418.740000", "151418.742000", "151418.744000", "151418.747000", "151418.749000", "151418.751000", "151418.753000", "151418.756000", "151418.758000", "151418.760000", "151418.772000", "151418.775000", "151418.777000", "151418.779000", "151418.782000", "151418.784000", "151418.786000", "151418.789000", "151418.791000", "151418.793000", "151418.796000", "151458.714000", "151458.717000", "151458.719000", "151458.722000", "151458.724000", "151458.726000", "151458.728000", "151458.731000", "151458.733000", "151458.735000", "151458.738000", "151458.740000", "151458.742000", "151458.745000", "151458.747000", "151458.749000", "151458.752000", "151458.754000", "151458.756000", "151458.759000", "151538.713000", "151538.716000", "151538.718000", "151538.722000", "151538.724000", "151538.727000", "151538.729000", "151538.731000", "151538.734000", "151538.736000", "151538.738000", "151538.740000", "151538.743000", "151538.745000", "151538.747000", "151538.750000", "151538.752000", "151538.754000", "151538.757000", "151538.759000", "151618.713000", "151618.716000", "151618.718000", "151618.720000", "151618.723000", "151618.725000", "151618.727000", "151618.730000", "151618.732000", "151618.734000", "151618.736000", "151618.739000", "151618.741000", "151618.743000", "151618.746000", "151618.748000", "151618.750000", "151618.753000", "151618.755000", "151618.773000", "151658.714000", "151658.717000", "151658.719000", "151658.721000", "151658.724000", "151658.726000", "151658.728000", "151658.730000", "151658.733000", "151658.735000", "151658.737000", "151658.740000", "151658.742000", "151658.744000", "151658.746000", "151658.749000", "151658.751000", "151658.753000", "151658.756000", "151658.758000", "151738.713000", "151738.716000", "151738.718000", "151738.720000", "151738.723000", "151738.725000", "151738.727000", "151738.730000", "151738.732000", "151738.735000", "151738.737000", "151738.739000", "151738.742000", "151738.744000", "151738.746000", "151738.749000", "151738.751000", "151738.753000", "151738.755000", "151738.758000", "151818.713000", "151818.716000", "151818.718000", "151818.720000", "151818.723000", "151818.725000", "151818.728000", "151818.730000", "151818.732000", "151818.735000", "151818.737000", "151818.739000", "151818.742000", "151818.744000", "151818.746000", "151818.748000", "151818.751000", "151818.753000", "151818.755000", "151818.758000", "151858.713000", "151858.716000", "151858.718000", "151858.720000", "151858.723000", "151858.725000", "151858.727000", "151858.730000", "151858.732000", "151858.734000", "151858.736000", "151858.739000", "151858.741000", "151858.743000", "151858.746000", "151858.748000", "151858.750000", "151858.752000", "151858.755000", "151858.757000", "151938.714000", "151938.717000", "151938.719000", "151938.721000", "151938.724000", "151938.726000", "151938.728000", "151938.731000", "151938.733000", "151938.735000", "151938.737000", "151938.740000", "151938.742000", "151938.744000", "151938.747000", "151938.749000", "151938.751000", "151938.754000", "151938.756000", "151938.758000", "152004.590000", "152004.592000", "152004.595000", "152004.597000", "152004.609000", "152004.612000", "152004.614000", "152004.617000", "152004.619000", "152004.622000", "152004.626000", "152004.628000", "152004.632000"],
      "InstanceNumber": [1, 2, 3, 4, 5, 6, 7, 8, 9, 10, 11, 12, 13, 14, 15, 16, 17, 18, 19, 20, 21, 22, 23, 24, 25, 26, 27, 28, 29, 30, 31, 32, 33, 34, 35, 36, 37, 38, 39, 40, 41, 42, 43, 44, 45, 46, 47, 48, 49, 50, 51, 52, 53, 54, 55, 56, 57, 58, 59, 60, 61, 62, 63, 64, 65, 66, 67, 68, 69, 70, 71, 72, 73, 74, 75, 76, 77, 78, 79, 80, 81, 82, 83, 84, 85, 86, 87, 88, 89, 90, 91, 92, 93, 94, 95, 96, 97, 98, 99, 100, 101, 102, 103, 104, 105, 106, 107, 108, 109, 110, 111, 112, 113, 114, 115, 116, 117, 118, 119, 120, 121, 122, 123, 124, 125, 126, 127, 128, 129, 130, 131, 132, 133, 134, 135, 136, 137, 138, 139, 140, 141, 142, 143, 144, 145, 146, 147, 148, 149, 150, 151, 152, 153, 154, 155, 156, 157, 158, 159, 160, 161, 162, 163, 164, 165, 166, 167, 168, 169, 170, 171, 172, 173, 174, 175, 176, 177, 178, 179, 180, 181, 182, 183, 184, 185, 186, 187, 188, 189, 190, 191, 192, 193, 194, 195, 196, 197, 198, 199, 200],
      "LargestImagePixelValue": [2033, 2041, 2033, 2038, 2034, 2037, 2031, 2040, 2041, 2028, 2032, 2037, 2037, 2037, 2027, 2034, 2045, 2040, 2040, 2035, 2036, 2031, 2039, 2034, 2038, 2031, 2039, 2035, 2027, 2034, 2039, 2041, 2033, 2040, 2043, 2040, 2032, 2039, 2038, 2034, 2035, 2038, 2035, 2039, 2041, 2035, 2031, 2037, 2048, 2042, 2032, 2035, 2035, 2036, 2033, 2038, 2036, 2033, 2037, 2037, 2034, 2031, 2037, 2044, 2041, 2037, 2041, 2036, 2036, 2041, 2036, 2043, 2041, 2042, 2034, 2041, 2039, 2036, 2037, 2043, 2036, 2042, 2041, 2045, 2038, 2035, 2034, 2045, 2036, 2035, 2041, 2040, 2040, 2035, 2032, 2032, 2044, 2043, 2037, 2043, 2041, 2039, 2036, 2043, 2039, 2047, 2038, 2044, 2043, 2042, 2036, 2037, 2048, 2046, 2037, 2041, 2044, 2042, 2041, 2034, 2045, 2033, 2038, 2040, 2039, 2037, 2044, 2046, 2037, 2046, 2038, 2038, 2037, 2042, 2044, 2038, 2044, 2043, 2045, 2042, 2036, 2046, 2039, 2046, 2046, 2040, 2031, 2046, 2041, 2046, 2042, 2037, 2045, 2040, 2039, 2037, 2042, 2038, 2041, 2035, 2042, 2040, 2044, 2042, 2038, 2042, 2042, 2038, 2039, 2041, 2041, 2039, 2049, 2040, 2041, 2041, 2036, 2041, 2038, 2042, 2043, 2037, 2036, 2045, 2040, 2048, 2036, 2042, 2040, 2042, 2038, 2040, 2042, 2043, 2039, 2040, 2045, 2041, 2039, 2043],
      "WindowCenter": [992.0, 991.0, 991.0, 991.0, 991.0, 991.0, 991.0, 991.0, 991.0, 992.0, 991.0, 991.0, 991.0, 991.0, 992.0, 991.0, 992.0, 991.0, 992.0, 992.0, 992.0, 991.0, 991.0, 992.0, 991.0, 991.0, 991.0, 991.0, 991.0, 991.0, 991.0, 991.0, 991.0, 991.0, 991.0, 991.0, 991.0, 991.0, 992.0, 991.0, 991.0, 991.0, 991.0, 991.0, 992.0, 992.0, 991.0, 991.0, 991.0, 991.0, 991.0, 991.0, 991.0, 991.0, 991.0, 991.0, 991.0, 991.0, 991.0, 991.0, 991.0, 991.0, 991.0, 991.0, 992.0, 991.0, 991.0, 992.0, 991.0, 991.0, 991.0, 991.0, 991.0, 991.0, 991.0, 991.0, 991.0, 991.0, 991.0, 991.0, 991.0, 991.0, 991.0, 991.0, 991.0, 991.0, 991.0, 991.0, 991.0, 992.0, 991.0, 992.0, 991.0, 991.0, 991.0, 991.0, 991.0, 991.0, 991.0, 991.0, 991.0, 991.0, 991.0, 991.0, 991.0, 991.0, 992.0, 991.0, 991.0, 991.0, 991.0, 991.0, 991.0, 991.0, 992.0, 991.0, 991.0, 991.0, 992.0, 991.0, 991.0, 992.0, 991.0, 991.0, 991.0, 992.0, 991.0, 991.0, 991.0, 991.0, 991.0, 991.0, 991.0, 991.0, 991.0, 991.0, 991.0, 991.0, 991.0, 991.0, 991.0, 991.0, 991.0, 991.0, 991.0, 991.0, 992.0, 991.0, 992.0, 992.0, 992.0, 991.0, 991.0, 991.0, 992.0, 992.0, 991.0, 992.0, 992.0, 991.0, 991.0, 991.0, 991.0, 991.0, 991.0, 991.0, 991.0, 991.0, 992.0, 991.0, 991.0, 991.0, 991.0, 992.0, 991.0, 991.0, 991.0, 991.0, 991.0, 992.0, 992.0, 991.0, 991.0, 991.0, 992.0, 991.0, 991.0, 992.0, 991.0, 991.0, 991.0, 991.0, 992.0, 991.0, 991.0, 991.0, 991.0, 991.0, 991.0, 991.0],
      "WindowWidth": [2190.0, 2189.0, 2189.0, 2189.0, 2189.0, 2189.0, 2189.0, 2189.0, 2189.0, 2190.0, 2189.0, 2189.0, 2189.0, 2189.0, 2190.0, 2189.0, 2190.0, 2189.0, 2190.0, 2190.0, 2190.0, 2189.0, 2188.0, 2190.0, 2189.0, 2189.0, 2188.0, 2189.0, 2189.0, 2189.0, 2189.0, 2189.0, 2189.0, 2189.0, 2189.0, 2189.0, 2189.0, 2189.0, 2190.0, 2189.0, 2189.0, 2189.0, 2189.0, 2189.0, 2190.0, 2190.0, 2189.0, 2189.0, 2189.0, 2189.0, 2189.0, 2189.0, 2189.0, 2189.0, 2189.0, 2189.0, 2189.0, 2189.0, 2189.0, 2189.0, 2189.0, 2189.0, 2189.0, 2189.0, 2190.0, 2189.0, 2189.0, 2190.0, 2189.0, 2189.0, 2190.0, 2189.0, 2189.0, 2189.0, 2189.0, 2189.0, 2189.0, 2189.0, 2189.0, 2189.0, 2189.0, 2189.0, 2189.0, 2189.0, 2189.0, 2189.0, 2189.0, 2189.0, 2189.0, 2190.0, 2189.0, 2190.0, 2189.0, 2189.0, 2189.0, 2189.0, 2190.0, 2189.0, 2189.0, 2189.0, 2189.0, 2189.0, 2189.0, 2189.0, 2189.0, 2189.0, 2190.0, 2189.0, 2189.0, 2189.0, 2189.0, 2189.0, 2189.0, 2189.0, 2190.0, 2189.0, 2189.0, 2189.0, 2190.0, 2190.0, 2189.0, 2190.0, 2189.0, 2190.0, 2189.0, 2190.0, 2189.0, 2189.0, 2190.0, 2189.0, 2190.0, 2189.0, 2189.0, 2189.0, 2190.0, 2189.0, 2189.0, 2189.0, 2189.0, 2189.0, 2189.0, 2189.0, 2190.0, 2189.0, 2190.0, 2189.0, 2190.0, 2189.0, 2190.0, 2190.0, 2190.0, 2189.0, 2189.0, 2189.0, 2190.0, 2190.0, 2189.0, 2190.0, 2190.0, 2189.0, 2189.0, 2189.0, 2189.0, 2189.0, 2189.0, 2189.0, 2189.0, 2189.0, 2190.0, 2189.0, 2189.0, 2189.0, 2189.0, 2190.0, 2189.0, 2189.0, 2189.0, 2189.0, 2190.0, 2190.0, 2190.0, 2189.0, 2189.0, 2189.0, 2190.0, 2189.0, 2189.0, 2190.0, 2189.0, 2189.0, 2189.0, 2189.0, 2190.0, 2189.0, 2189.0, 2189.0, 2189.0, 2189.0, 2189.0, 2189.0]
    },
    "slices": {}
  }
}