{
  "AcquisitionMatrixPE": 80,
  "AcquisitionNumber": 1,
  "AcquisitionTime": "09:14:37.502500",
  "BandwidthPerPixelPhaseEncode": 25,
  "BaseResolution": 80,
  "BodyPartExamined": "BRAIN",
  "CoilCombinationMethod": "Sum of Squares",
  "ConsistencyInfo": "N4_VE11E_LATEST_20181129",
  "ConversionSoftware": "dcm2niix",
  "ConversionSoftwareVersion": "v1.0.20220720",
  "DerivedVendorReportedEchoSpacing": 0.0005,
  "DeviceSerialNumber": "66112",
  "DwellTime": 2.7e-06,
  "EchoTime": 0.03,
  "EchoTrainLength": 80,
  "EffectiveEchoSpacing": 0.0005,
  "FlipAngle": 10,
  "HeudiconvVersion": "0.13.1",
  "ImageOrientationPatientDICOM": [0.98736, 0.158148, 0.0104955, -0.153204, 0.935332, 0.318876],
  "ImageOrientationText": "Tra>Cor(18.5)>Sag(-2.3)",
  "ImageType": [
    "ORIGINAL",
    "PRIMARY",
    "M",
    "ND",
    "NORM",
    "MOSAIC"
],
  "ImagingFrequency": 123.259,
  "InPlanePhaseEncodingDirectionDICOM": "COL",
  "InstitutionAddress": "Maynard 3,Hanover,NH,US,03755",
  "InstitutionName": "Dartmouth College - PBS",
  "InstitutionalDepartmentName": "Department",
  "MRAcquisitionType": "2D",
  "MagneticFieldStrength": 3,
  "Manufacturer": "Siemens",
  "ManufacturersModelName": "Prisma",
  "MatrixCoilMode": "SENSE",
  "Modality": "MR",
  "NonlinearGradientCorrection": false,
  "PartialFourier": 1,
  "PatientPosition": "HFS",
  "PercentPhaseFOV": 100,
  "PercentSampling": 100,
  "PhaseEncodingDirection": "j-",
  "PhaseEncodingSteps": 80,
  "PhaseResolution": 1,
  "PixelBandwidth": 2315,
  "ProcedureStepDescription": "dbic^QA",
  "ProtocolName": "func-bold_fa-10",
  "PulseSequenceDetails": "%SiemensSeq%\\ep2d_bold",
  "ReceiveCoilActiveElements": "HC1-7;NC1,2",
  "ReceiveCoilName": "HeadNeck_64",
  "ReconMatrixPE": 80,
  "RepetitionTime": 2,
  "SAR": 0.00863475,
  "ScanOptions": "FS",
  "ScanningSequence": "EP",
  "SequenceName": "*epfid2d1_80",
  "SequenceVariant": "SK",
  "SeriesDescription": "func-bold_fa-10",
  "SeriesNumber": 7,
  "ShimSetting": [4214, -7746, -7476, -136, -176, -162, -75, 101],
  "SliceThickness": 3.5,
  "SliceTiming": [0.99, 0, 1.055, 0.065, 1.1225, 0.1325, 1.1875, 0.1975, 1.2525, 0.2625, 1.32, 0.33, 1.385, 0.395, 1.4525, 0.4625, 1.5175, 0.5275, 1.5825, 0.5925, 1.65, 0.66, 1.715, 0.725, 1.7825, 0.7925, 1.8475, 0.8575, 1.9125, 0.9225],
  "SoftwareVersions": "syngo MR E11",
  "SpacingBetweenSlices": 3.99,
  "StationName": "AWP66112",
  "TotalReadoutTime": 0.0395,
  "TxRefAmp": 212.228,
  "dcmmeta_affine": [
    [-2.962078809738159, -0.4596129357814789, -0.16204479336738586, 139.67904663085938],
    [-0.47444409132003784, 2.805997371673584, 1.2626469135284424, -99.78302001953125],
    [0.03148661553859711, -0.956626832485199, 3.7814764976501465, -13.928263664245605],
    [0.0, 0.0, 0.0, 1.0]
],
  "dcmmeta_reorient_transform": [
    [0.0, -1.0, 0.0, 79.0],
    [1.0, 0.0, 0.0, 0.0],
    [0.0, 0.0, 1.0, 0.0],
    [0.0, 0.0, 0.0, 1.0]
],
  "dcmmeta_shape": [80, 80, 30, 200],
  "dcmmeta_slice_dim": 2,
  "dcmmeta_version": 0.6,
  "global": {
    "const": {
      "AccessionNumber": "qa64",
      "AcquisitionMatrix": [80, 0, 0, 80],
      "AngioFlag": "N",
      "BitsAllocated": 16,
      "BitsStored": 12,
      "BodyPartExamined": "BRAIN",
      "Columns": 480,
      "EchoNumbers": 1,
      "EchoTime": 30.0,
      "EchoTrainLength": 80,
      "FlipAngle": 10.0,
      "HighBit": 11,
      "ImageOrientationPatient": [0.98735963229199, 0.15814803252819, 0.010495538466, -0.1532043161891, 0.93533244600456, 0.31887560733325],
      "ImagePositionPatient": [-603.86281677368, -777.97905645917, -287.12447030627],
      "ImageType": [
        "ORIGINAL",
        "PRIMARY",
        "M",
        "ND",
        "NORM",
        "MOSAIC"
],
      "ImagedNucleus": "1H",
      "ImagingFrequency": 123.259253,
      "InPlanePhaseEncodingDirection": "COL",
      "MRAcquisitionType": "2D",
      "MagneticFieldStrength": 3.0,
      "Manufacturer": "SIEMENS",
      "ManufacturerModelName": "Prisma",
      "Modality": "MR",
      "NumberOfAverages": 1.0,
      "NumberOfPhaseEncodingSteps": 80,
      "PercentPhaseFieldOfView": 100.0,
      "PercentSampling": 100.0,
      "PerformedProcedureStepStartTime": "085813.617000",
      "PhotometricInterpretation": "MONOCHROME2",
      "PixelBandwidth": 2315.0,
      "PixelRepresentation": 0,
      "PixelSpacing": [3.0, 3.0],
      "ProtocolName": "func-bold_fa-10",
      "RepetitionTime": 2000.0,
      "Rows": 480,
      "SAR": 0.00863475000033,
      "SamplesPerPixel": 1,
      "ScanOptions": "FS",
      "ScanningSequence": "EP",
      "SequenceName": "*epfid2d1_80",
      "SequenceVariant": "SK",
      "SeriesDescription": "func-bold_fa-10",
      "SeriesNumber": 7,
      "SeriesTime": "091533.053000",
      "SliceLocation": -50.449721837857,
      "SliceThickness": 3.5,
      "SmallestImagePixelValue": 0,
      "SoftwareVersions": "syngo MR E11",
      "SpacingBetweenSlices": 3.9899999289536,
      "SpecificCharacterSet": "ISO_IR 100",
      "StudyID": "16",
      "StudyTime": "085813.517000",
      "TransmitCoilName": "Body",
      "VariableFlipAngleFlag": "N",
      "WindowCenterWidthExplanation": "Algo1"
    },
    "slices": {}
  },
  "time": {
    "samples": {
      "AcquisitionNumber": [1, 2, 3, 4, 5, 6, 7, 8, 9, 10, 11, 12, 13, 14, 15, 16, 17, 18, 19, 20, 21, 22, 23, 24, 25, 26, 27, 28, 29, 30, 31, 32, 33, 34, 35, 36, 37, 38, 39, 40, 41, 42, 43, 44, 45, 46, 47, 48, 49, 50, 51, 52, 53, 54, 55, 56, 57, 58, 59, 60, 61, 62, 63, 64, 65, 66, 67, 68, 69, 70, 71, 72, 73, 74, 75, 76, 77, 78, 79, 80, 81, 82, 83, 84, 85, 86, 87, 88, 89, 90, 91, 92, 93, 94, 95, 96, 97, 98, 99, 100, 101, 102, 103, 104, 105, 106, 107, 108, 109, 110, 111, 112, 113, 114, 115, 116, 117, 118, 119, 120, 121, 122, 123, 124, 125, 126, 127, 128, 129, 130, 131, 132, 133, 134, 135, 136, 137, 138, 139, 140, 141, 142, 143, 144, 145, 146, 147, 148, 149, 150, 151, 152, 153, 154, 155, 156, 157, 158, 159, 160, 161, 162, 163, 164, 165, 166, 167, 168, 169, 170, 171, 172, 173, 174, 175, 176, 177, 178, 179, 180, 181, 182, 183, 184, 185, 186, 187, 188, 189, 190, 191, 192, 193, 194, 195, 196, 197, 198, 199, 200],
      "AcquisitionTime": ["091437.502500", "091439.502500", "091441.502500", "091443.502500", "091445.502500", "091447.502500", "091449.502500", "091451.502500", "091453.502500", "091455.502500", "091457.502500", "091459.502500", "091501.502500", "091503.502500", "091505.502500", "091507.502500", "091509.502500", "091511.502500", "091513.502500", "091515.502500", "091517.502500", "091519.502500", "091521.502500", "091523.502500", "091525.502500", "091527.502500", "091529.502500", "091531.502500", "091533.502500", "091535.502500", "091537.502500", "091539.502500", "091541.502500", "091543.502500", "091545.502500", "091547.502500", "091549.502500", "091551.502500", "091553.502500", "091555.502500", "091557.502500", "091559.502500", "091601.502500", "091603.502500", "091605.502500", "091607.502500", "091609.502500", "091611.502500", "091613.502500", "091615.502500", "091617.502500", "091619.502500", "091621.502500", "091623.502500", "091625.502500", "091627.502500", "091629.502500", "091631.502500", "091633.502500", "091635.502500", "091637.502500", "091639.502500", "091641.502500", "091643.502500", "091645.502500", "091647.502500", "091649.502500", "091651.502500", "091653.502500", "091655.502500", "091657.502500", "091659.502500", "091701.502500", "091703.502500", "091705.502500", "091707.502500", "091709.502500", "091711.502500", "091713.502500", "091715.502500", "091717.502500", "091719.502500", "091721.502500", "091723.502500", "091725.502500", "091727.502500", "091729.502500", "091731.502500", "091733.502500", "091735.502500", "091737.502500", "091739.502500", "091741.502500", "091743.502500", "091745.502500", "091747.502500", "091749.502500", "091751.502500", "091753.502500", "091755.502500", "091757.502500", "091759.502500", "091801.502500", "091803.502500", "091805.502500", "091807.502500", "091809.502500", "091811.502500", "091813.502500", "091815.502500", "091817.502500", "091819.502500", "091821.502500", "091823.502500", "091825.502500", "091827.502500", "091829.502500", "091831.502500", "091833.502500", "091835.502500", "091837.502500", "091839.502500", "091841.502500", "091843.502500", "091845.502500", "091847.502500", "091849.502500", "091851.502500", "091853.502500", "091855.502500", "091857.502500", "091859.502500", "091901.502500", "091903.502500", "091905.502500", "091907.502500", "091909.502500", "091911.502500", "091913.502500", "091915.502500", "091917.502500", "091919.502500", "091921.502500", "091923.502500", "091925.502500", "091927.502500", "091929.502500", "091931.502500", "091933.502500", "091935.502500", "091937.502500", "091939.502500", "091941.502500", "091943.502500", "091945.502500", "091947.502500", "091949.502500", "091951.502500", "091953.502500", "091955.502500", "091957.502500", "091959.502500", "092001.502500", "092003.502500", "092005.502500", "092007.502500", "092009.502500", "092011.502500", "092013.502500", "092015.502500", "092017.502500", "092019.502500", "092021.502500", "092023.502500", "092025.502500", "092027.502500", "092029.502500", "092031.502500", "092033.502500", "092035.502500", "092037.502500", "092039.502500", "092041.502500", "092043.502500", "092045.502500", "092047.502500", "092049.502500", "092051.502500", "092053.502500", "092055.502500", "092057.502500", "092059.502500", "092101.502500", "092103.502500", "092105.502500", "092107.502500", "092109.502500", "092111.502500", "092113.502500", "092115.502500"],
      "ContentTime": ["091533.056000", "091533.060000", "091533.062000", "091533.065000", "091533.067000", "091533.069000", "091533.072000", "091533.074000", "091533.076000", "091533.079000", "091533.081000", "091533.088000", "091533.090000", "091533.095000", "091533.097000", "091533.099000", "091533.101000", "091533.104000", "091533.106000", "091533.109000", "091533.117000", "091533.125000", "091533.128000", "091533.130000", "091533.133000", "091533.135000", "091533.137000", "091613.051000", "091613.054000", "091613.057000", "091613.059000", "091613.061000", "091613.064000", "091613.066000", "091613.068000", "091613.071000", "091613.073000", "091613.075000", "091613.078000", "091613.080000", "091613.082000", "091613.085000", "091613.087000", "091613.089000", "091613.092000", "091613.094000", "091613.102000", "091613.104000", "091653.050000", "091653.053000", "091653.055000", "091653.057000", "091653.060000", "091653.062000", "091653.064000", "091653.066000", "091653.069000", "091653.071000", "091653.074000", "091653.076000", "091653.078000", "091653.081000", "091653.091000", "091653.094000", "091653.096000", "091653.099000", "091653.101000", "091653.103000", "091733.051000", "091733.054000", "091733.056000", "091733.058000", "091733.061000", "091733.063000", "091733.065000", "091733.068000", "091733.070000", "091733.072000", "091733.074000", "091733.077000", "091733.079000", "091733.081000", "091733.084000", "091733.086000", "091733.088000", "091733.091000", "091733.093000", "091733.095000", "091833.051000", "091833.054000", "091833.056000", "091833.058000", "091833.060000", "091833.063000", "091833.065000", "091833.067000", "091833.070000", "091833.072000", "091833.074000", "091833.077000", "091833.079000", "091833.088000", "091833.090000", "091833.093000", "091833.095000", "091833.097000", "091833.100000", "091833.102000", "091833.104000", "091833.106000", "091833.109000", "091833.111000", "091833.113000", "091833.116000", "091833.118000", "091833.120000", "091833.122000", "091833.125000", "091913.050000", "091913.053000", "091913.055000", "091913.057000", "091913.059000", "091913.062000", "091913.064000", "091913.066000", "091913.069000", "091913.071000", "091913.073000", "091913.082000", "091913.084000", "091913.087000", "091913.089000", "091913.122000", "091913.124000", "091913.126000", "091913.129000", "091913.131000", "091953.051000", "091953.054000", "091953.056000", "091953.058000", "091953.060000", "091953.063000", "091953.065000", "091953.067000", "091953.070000", "091953.072000", "091953.074000", "091953.076000", "091953.079000", "091953.081000", "091953.083000", "091953.086000", "091953.088000", "091953.090000", "091953.092000", "091953.095000", "092033.051000", "092033.053000", "092033.056000", "092033.058000", "092033.060000", "092033.063000", "092033.065000", "092033.067000", "092033.070000", "092033.072000", "092033.074000", "092033.077000", "092033.079000", "092033.081000", "092033.083000", "092033.086000", "092033.088000", "092033.090000", "092033.092000", "092033.095000", "092113.051000", "092113.054000", "092113.056000", "092113.058000", "092113.061000", "092113.063000", "092113.065000", "092113.067000", "092113.070000", "092113.072000", "092113.074000", "092113.077000", "092113.079000", "092113.081000", "092113.083000", "092113.086000", "092113.088000", "092113.090000", "092113.092000", "092113.095000", "092117.021000", "092117.024000"],
      "InstanceCreationTime": ["091533.056000", "091533.060000", "091533.062000", "091533.065000", "091533.067000", "091533.069000", "091533.072000", "091533.074000", "091533.076000", "091533.079000", "091533.081000", "091533.088000", "091533.090000", "091533.095000", "091533.097000", "091533.099000", "091533.101000", "091533.104000", "091533.106000", "091533.109000", "091533.117000", "091533.125000", "091533.128000", "091533.130000", "091533.133000", "091533.135000", "091533.137000", "091613.051000", "091613.054000", "091613.057000", "091613.059000", "091613.061000", "091613.064000", "091613.066000", "091613.068000", "091613.071000", "091613.073000", "091613.075000", "091613.078000", "091613.080000", "091613.082000", "091613.085000", "091613.087000", "091613.089000", "091613.092000", "091613.094000", "091613.102000", "091613.104000", "091653.050000", "091653.053000", "091653.055000", "091653.057000", "091653.060000", "091653.062000", "091653.064000", "091653.066000", "091653.069000", "091653.071000", "091653.074000", "091653.076000", "091653.078000", "091653.081000", "091653.091000", "091653.094000", "091653.096000", "091653.099000", "091653.101000", "091653.103000", "091733.051000", "091733.054000", "091733.056000", "091733.058000", "091733.061000", "091733.063000", "091733.065000", "091733.068000", "091733.070000", "091733.072000", "091733.074000", "091733.077000", "091733.079000", "091733.081000", "091733.084000", "091733.086000", "091733.088000", "091733.091000", "091733.093000", "091733.095000", "091833.051000", "091833.054000", "091833.056000", "091833.058000", "091833.060000", "091833.063000", "091833.065000", "091833.067000", "091833.070000", "091833.072000", "091833.074000", "091833.077000", "091833.079000", "091833.088000", "091833.090000", "091833.093000", "091833.095000", "091833.097000", "091833.100000", "091833.102000", "091833.104000", "091833.106000", "091833.109000", "091833.111000", "091833.113000", "091833.116000", "091833.118000", "091833.120000", "091833.122000", "091833.125000", "091913.050000", "091913.053000", "091913.055000", "091913.057000", "091913.059000", "091913.062000", "091913.064000", "091913.066000", "091913.069000", "091913.071000", "091913.073000", "091913.082000", "091913.084000", "091913.087000", "091913.089000", "091913.122000", "091913.124000", "091913.126000", "091913.129000", "091913.131000", "091953.051000", "091953.054000", "091953.056000", "091953.058000", "091953.060000", "091953.063000", "091953.065000", "091953.067000", "091953.070000", "091953.072000", "091953.074000", "091953.076000", "091953.079000", "091953.081000", "091953.083000", "091953.086000", "091953.088000", "091953.090000", "091953.092000", "091953.095000", "092033.051000", "092033.053000", "092033.056000", "092033.058000", "092033.060000", "092033.063000", "092033.065000", "092033.067000", "092033.070000", "092033.072000", "092033.074000", "092033.077000", "092033.079000", "092033.081000", "092033.083000", "092033.086000", "092033.088000", "092033.090000", "092033.092000", "092033.095000", "092113.051000", "092113.054000", "092113.056000", "092113.058000", "092113.061000", "092113.063000", "092113.065000", "092113.067000", "092113.070000", "092113.072000", "092113.074000", "092113.077000", "092113.079000", "092113.081000", "092113.083000", "092113.086000", "092113.088000", "092113.090000", "092113.092000", "092113.095000", "092117.021000", "092117.024000"],
      "InstanceNumber": [1, 2, 3, 4, 5, 6, 7, 8, 9, 10, 11, 12, 13, 14, 15, 16, 17, 18, 19, 20, 21, 22, 23, 24, 25, 26, 27, 28, 29, 30, 31, 32, 33, 34, 35, 36, 37, 38, 39, 40, 41, 42, 43, 44, 45, 46, 47, 48, 49, 50, 51, 52, 53, 54, 55, 56, 57, 58, 59, 60, 61, 62, 63, 64, 65, 66, 67, 68, 69, 70, 71, 72, 73, 74, 75, 76, 77, 78, 79, 80, 81, 82, 83, 84, 85, 86, 87, 88, 89, 90, 91, 92, 93, 94, 95, 96, 97, 98, 99, 100, 101, 102, 103, 104, 105, 106, 107, 108, 109, 110, 111, 112, 113, 114, 115, 116, 117, 118, 119, 120, 121, 122, 123, 124, 125, 126, 127, 128, 129, 130, 131, 132, 133, 134, 135, 136, 137, 138, 139, 140, 141, 142, 143, 144, 145, 146, 147, 148, 149, 150, 151, 152, 153, 154, 155, 156, 157, 158, 159, 160, 161, 162, 163, 164, 165, 166, 167, 168, 169, 170, 171, 172, 173, 174, 175, 176, 177, 178, 179, 180, 181, 182, 183, 184, 185, 186, 187, 188, 189, 190, 191, 192, 193, 194, 195, 196, 197, 198, 199, 200],
      "LargestImagePixelValue": [624, 623, 628, 621, 625, 623, 627, 626, 625, 625, 626, 625, 626, 626, 624, 626, 626, 624, 622, 623, 628, 625, 627, 621, 627, 624, 624, 626, 622, 627, 626, 621, 626, 626, 622, 624, 626, 623, 623, 626, 630, 622, 624, 622, 622, 623, 628, 626, 623, 623, 623, 626, 626, 623, 626, 627, 624, 630, 624, 624, 629, 624, 627, 626, 625, 628, 624, 623, 624, 627, 623, 629, 623, 621, 622, 625, 624, 623, 621, 624, 627, 623, 627, 630, 625, 628, 626, 621, 626, 623, 623, 625, 623, 621, 626, 620, 628, 624, 625, 624, 626, 623, 628, 624, 625, 627, 625, 629, 625, 624, 626, 628, 623, 628, 624, 627, 626, 626, 625, 627, 626, 625, 622, 622, 627, 622, 621, 626, 620, 625, 625, 624, 623, 626, 626, 623, 621, 622, 625, 628, 623, 626, 621, 623, 628, 622, 627, 629, 622, 626, 626, 623, 622, 622, 623, 625, 620, 620, 623, 625, 622, 626, 621, 624, 626, 622, 626, 620, 620, 623, 624, 625, 621, 624, 625, 626, 627, 625, 624, 620, 623, 622, 623, 626, 622, 625, 621, 622, 623, 620, 623, 623, 622, 621, 623, 624, 624, 626, 622, 624],
      "WindowCenter": [442.0, 443.0, 442.0, 442.0, 443.0, 442.0, 442.0, 443.0, 442.0, 442.0, 442.0, 442.0, 442.0, 442.0, 442.0, 442.0, 442.0, 442.0, 442.0, 442.0, 442.0, 442.0, 442.0, 442.0, 442.0, 442.0, 442.0, 442.0, 442.0, 442.0, 442.0, 442.0, 442.0, 442.0, 442.0, 442.0, 442.0, 442.0, 442.0, 442.0, 443.0, 442.0, 442.0, 442.0, 442.0, 442.0, 442.0, 442.0, 442.0, 442.0, 442.0, 442.0, 442.0, 442.0, 442.0, 442.0, 442.0, 443.0, 442.0, 442.0, 442.0, 442.0, 442.0, 442.0, 442.0, 442.0, 442.0, 442.0, 442.0, 442.0, 442.0, 442.0, 442.0, 442.0, 442.0, 442.0, 442.0, 442.0, 442.0, 442.0, 442.0, 442.0, 442.0, 443.0, 442.0, 442.0, 442.0, 442.0, 442.0, 442.0, 442.0, 442.0, 442.0, 442.0, 442.0, 442.0, 442.0, 442.0, 442.0, 442.0, 442.0, 442.0, 442.0, 442.0, 442.0, 442.0, 442.0, 442.0, 442.0, 442.0, 442.0, 442.0, 442.0, 442.0, 442.0, 442.0, 442.0, 442.0, 442.0, 442.0, 442.0, 442.0, 442.0, 442.0, 442.0, 442.0, 442.0, 442.0, 442.0, 442.0, 442.0, 442.0, 442.0, 442.0, 442.0, 442.0, 442.0, 442.0, 442.0, 442.0, 442.0, 442.0, 442.0, 442.0, 442.0, 442.0, 442.0, 442.0, 442.0, 442.0, 442.0, 442.0, 442.0, 442.0, 442.0, 442.0, 442.0, 442.0, 442.0, 442.0, 442.0, 442.0, 442.0, 442.0, 442.0, 442.0, 442.0, 442.0, 442.0, 442.0, 442.0, 442.0, 442.0, 442.0, 442.0, 442.0, 442.0, 442.0, 442.0, 442.0, 442.0, 441.0, 442.0, 442.0, 441.0, 442.0, 442.0, 441.0, 442.0, 441.0, 442.0, 442.0, 441.0, 442.0, 442.0, 441.0, 442.0, 442.0, 441.0, 442.0],
      "WindowWidth": [922.0, 922.0, 922.0, 922.0, 922.0, 922.0, 922.0, 922.0, 922.0, 922.0, 922.0, 922.0, 922.0, 922.0, 922.0, 922.0, 922.0, 922.0, 922.0, 922.0, 922.0, 922.0, 922.0, 922.0, 922.0, 922.0, 922.0, 922.0, 922.0, 922.0, 922.0, 922.0, 922.0, 922.0, 922.0, 922.0, 922.0, 922.0, 922.0, 921.0, 923.0, 922.0, 921.0, 922.0, 922.0, 922.0, 922.0, 922.0, 922.0, 922.0, 921.0, 922.0, 922.0, 921.0, 922.0, 921.0, 922.0, 923.0, 921.0, 922.0, 922.0, 921.0, 922.0, 922.0, 921.0, 922.0, 922.0, 921.0, 922.0, 921.0, 922.0, 922.0, 921.0, 922.0, 922.0, 921.0, 922.0, 922.0, 921.0, 922.0, 922.0, 921.0, 921.0, 922.0, 921.0, 922.0, 921.0, 921.0, 922.0, 921.0, 922.0, 921.0, 921.0, 922.0, 921.0, 921.0, 922.0, 921.0, 921.0, 921.0, 921.0, 921.0, 921.0, 921.0, 922.0, 921.0, 921.0, 922.0, 921.0, 921.0, 921.0, 921.0, 921.0, 922.0, 921.0, 921.0, 921.0, 920.0, 921.0, 921.0, 920.0, 921.0, 921.0, 921.0, 921.0, 920.0, 921.0, 921.0, 920.0, 921.0, 921.0, 920.0, 921.0, 920.0, 920.0, 921.0, 920.0, 920.0, 921.0, 920.0, 921.0, 921.0, 920.0, 921.0, 920.0, 920.0, 921.0, 920.0, 920.0, 921.0, 920.0, 920.0, 921.0, 920.0, 920.0, 921.0, 920.0, 921.0, 920.0, 920.0, 921.0, 920.0, 920.0, 921.0, 920.0, 920.0, 920.0, 920.0, 920.0, 920.0, 920.0, 920.0, 920.0, 920.0, 920.0, 920.0, 920.0, 920.0, 920.0, 920.0, 920.0, 920.0, 920.0, 920.0, 920.0, 920.0, 920.0, 920.0, 920.0, 920.0, 920.0, 920.0, 920.0, 920.0, 920.0, 920.0, 920.0, 920.0, 920.0, 920.0]
    },
    "slices": {}
  }
}