{
  "AcquisitionMatrixPE": 122,
  "AcquisitionNumber": 1,
  "AcquisitionTime": "16:25:21.065000",
  "BandwidthPerPixelPhaseEncode": 28.76,
  "BaseResolution": 122,
  "BodyPartExamined": "BRAIN",
  "CoilCombinationMethod": "Adaptive Combine",
  "ConsistencyInfo": "N4_VE11C_LATEST_20160120",
  "ConversionSoftware": "dcm2niix",
  "ConversionSoftwareVersion": "v1.0.20220720",
  "DerivedVendorReportedEchoSpacing": 0.000570008,
  "DeviceSerialNumber": "66112",
  "DiffusionScheme": "Monopolar",
  "DwellTime": 2e-06,
  "EchoTime": 0.075,
  "EchoTrainLength": 61,
  "EffectiveEchoSpacing": 0.000285004,
  "FlipAngle": 90,
  "HeudiconvVersion": "0.13.1",
  "ImageOrientationPatientDICOM": [0.974896, 0.222446, 0.00979729, -0.21488, 0.92838, 0.30321],
  "ImageOrientationText": "Tra>Cor(17.4)>Sag(-3.3)",
  "ImageType": [
    "ORIGINAL",
    "PRIMARY",
    "DIFFUSION",
    "NONE",
    "ND",
    "NORM"
],
  "ImagingFrequency": 123.252,
  "InPlanePhaseEncodingDirectionDICOM": "COL",
  "InstitutionAddress": "Maynard 3,Hanover,NH,US,03755",
  "InstitutionName": "Dartmouth College - PBS",
  "InstitutionalDepartmentName": "Department",
  "MRAcquisitionType": "2D",
  "MagneticFieldStrength": 3,
  "Manufacturer": "Siemens",
  "ManufacturersModelName": "Prisma",
  "MatrixCoilMode": "GRAPPA",
  "Modality": "MR",
  "NonlinearGradientCorrection": false,
  "ParallelReductionFactorInPlane": 2,
  "PartialFourier": 1,
  "PatientPosition": "HFS",
  "PercentPhaseFOV": 100,
  "PercentSampling": 100,
  "PhaseEncodingDirection": "j-",
  "PhaseEncodingSteps": 122,
  "PhaseResolution": 1,
  "PixelBandwidth": 2050,
  "ProcedureStepDescription": "dbic^QA",
  "ProtocolName": "dwi_acq-DTI-30-p2",
  "PulseSequenceDetails": "%SiemensSeq%\\ep2d_diff",
  "ReceiveCoilActiveElements": "HEA;HEP",
  "ReceiveCoilName": "Head_32",
  "ReconMatrixPE": 122,
  "RefLinesPE": 38,
  "RepetitionTime": 7.7,
  "SAR": 0.0873952,
  "ScanOptions": "FS",
  "ScanningSequence": "EP",
  "SequenceName": "*ep_b0",
  "SequenceVariant": "SK\\SP",
  "SeriesDescription": "dwi_acq-DTI-30-p2",
  "SeriesNumber": 8,
  "ShimSetting": [4147, -7697, -7526, 322, -22, -393, 45, 40],
  "SliceThickness": 2,
  "SliceTiming": [3.84375, 0, 3.95312, 0.10938, 4.0625, 0.21875, 4.17188, 0.34375, 4.28125, 0.45312, 4.39062, 0.5625, 4.5, 0.67188, 4.60938, 0.78125, 4.71875, 0.89062, 4.82812, 1, 4.9375, 1.10938, 5.04688, 1.21875, 5.15625, 1.32812, 5.28125, 1.4375, 5.39062, 1.54688, 5.5, 1.65625, 5.59375, 1.76562, 5.71875, 1.875, 5.82812, 1.98438, 5.9375, 2.09375, 6.04688, 2.20312, 6.15625, 2.3125, 6.26562, 2.42188, 6.375, 2.53125, 6.48438, 2.64062, 6.59375, 2.75, 6.70312, 2.85938, 6.8125, 2.96875, 6.92188, 3.07812, 7.03125, 3.1875, 7.14062, 3.29688, 7.25, 3.40625, 7.35938, 3.51562, 7.46875, 3.625, 7.57812, 3.73438],
  "SoftwareVersions": "syngo MR E11",
  "SpacingBetweenSlices": 2,
  "SpoilingState": true,
  "StationName": "AWP66112",
  "TotalReadoutTime": 0.0344855,
  "TxRefAmp": 237.711,
  "dcmmeta_affine": [
    [-1.9178276062011719, -0.4227146506309509, -0.11670494079589844, 149.0492706298828],
    [-0.4375995099544525, 1.826322078704834, 0.5954074859619141, -97.68075561523438],
    [0.019273357465863228, -0.5964792370796204, 1.9057464599609375, -26.07119369506836],
    [0.0, 0.0, 0.0, 1.0]
],
  "dcmmeta_reorient_transform": [
    [0.0, -1.0, 0.0, 121.0],
    [1.0, 0.0, 0.0, 0.0],
    [0.0, 0.0, -1.0, 69.0],
    [0.0, 0.0, 0.0, 1.0]
],
  "dcmmeta_shape": [122, 122, 70, 31],
  "dcmmeta_slice_dim": 2,
  "dcmmeta_version": 0.6,
  "global": {
    "const": {
      "AccessionNumber": "qa",
      "AcquisitionMatrix": [122, 0, 0, 122],
      "AngioFlag": "N",
      "BitsAllocated": 16,
      "BitsStored": 12,
      "BodyPartExamined": "BRAIN",
      "Columns": 122,
      "EchoNumbers": 1,
      "EchoTime": 75.0,
      "EchoTrainLength": 61,
      "FlipAngle": 90.0,
      "HighBit": 11,
      "ImageOrientationPatient": [0.97489568836358, 0.22244642032209, 0.00979729023743, -0.2148799460391, 0.92838038771833, 0.30321026448687],
      "ImageType": [
        "ORIGINAL",
        "PRIMARY",
        "DIFFUSION",
        "NONE",
        "ND",
        "NORM"
],
      "ImagedNucleus": "1H",
      "ImagingFrequency": 123.25247,
      "InPlanePhaseEncodingDirection": "COL",
      "MRAcquisitionType": "2D",
      "MagneticFieldStrength": 3.0,
      "Manufacturer": "SIEMENS",
      "ManufacturerModelName": "Prisma",
      "Modality": "MR",
      "NumberOfAverages": 1.0,
      "NumberOfPhaseEncodingSteps": 122,
      "PercentPhaseFieldOfView": 100.0,
      "PercentSampling": 100.0,
      "PerformedProcedureStepStartTime": "160919.704000",
      "PhotometricInterpretation": "MONOCHROME2",
      "PixelBandwidth": 2050.0,
      "PixelRepresentation": 0,
      "PixelSpacing": [1.9672131538391, 1.9672131538391],
      "ProtocolName": "dwi_acq-DTI-30-p2",
      "RepetitionTime": 7700.0,
      "Rows": 122,
      "SAR": 0.08739523756698,
      "SamplesPerPixel": 1,
      "ScanOptions": "FS",
      "ScanningSequence": "EP",
      "SequenceVariant": [
        "SK",
        "SP"
],
      "SeriesDescription": "dwi_acq-DTI-30-p2",
      "SeriesNumber": 8,
      "SeriesTime": "162531.687000",
      "SliceThickness": 2.0,
      "SmallestImagePixelValue": 0,
      "SoftwareVersions": "syngo MR E11",
      "SpacingBetweenSlices": 2.0,
      "SpecificCharacterSet": "ISO_IR 100",
      "StudyID": "47",
      "StudyTime": "160919.656000",
      "TransmitCoilName": "Body",
      "VariableFlipAngleFlag": "N",
      "WindowCenterWidthExplanation": "Algo1",
      "dBdt": 0.0},
    "slices": {
      "AcquisitionTime": ["162521.065000", "162517.225000", "162521.175000", "162517.335000", "162521.285000", "162517.445000", "162521.395000", "162517.555000", "162521.505000", "162517.665000", "162521.615000", "162517.775000", "162521.725000", "162517.885000", "162521.832500", "162517.992500", "162521.942500", "162518.102500", "162522.052500", "162518.212500", "162522.162500", "162518.322500", "162522.272500", "162518.432500", "162522.382500", "162518.542500", "162522.492500", "162518.652500", "162522.602500", "162518.762500", "162522.712500", "162518.872500", "162522.820000", "162518.980000", "162522.930000", "162519.090000", "162523.040000", "162519.200000", "162523.150000", "162519.310000", "162523.260000", "162519.420000", "162523.370000", "162519.530000", "162523.480000", "162519.640000", "162523.590000", "162519.750000", "162523.697500", "162519.860000", "162523.807500", "162519.967500", "162523.917500", "162520.077500", "162524.027500", "162520.187500", "162524.137500", "162520.297500", "162524.247500", "162520.407500", "162524.357500", "162520.517500", "162524.467500", "162520.627500", "162524.577500", "162520.737500", "162524.685000", "162520.845000", "162524.795000", "162520.955000", "162528.765000", "162524.925000", "162528.875000", "162525.035000", "162528.985000", "162525.145000", "162529.095000", "162525.255000", "162529.205000", "162525.365000", "162529.315000", "162525.475000", "162529.425000", "162525.585000", "162529.532500", "162525.692500", "162529.642500", "162525.802500", "162529.752500", "162525.912500", "162529.862500", "162526.022500", "162529.972500", "162526.132500", "162530.082500", "162526.242500", "162530.192500", "162526.352500", "162530.302500", "162526.462500", "162530.412500", "162526.572500", "162530.520000", "162526.680000", "162530.630000", "162526.790000", "162530.740000", "162526.900000", "162530.850000", "162527.010000", "162530.960000", "162527.120000", "162531.070000", "162527.230000", "162531.180000", "162527.340000", "162531.290000", "162527.450000", "162531.397500", "162527.560000", "162531.507500", "162527.667500", "162531.617500", "162527.777500", "162531.727500", "162527.887500", "162531.837500", "162527.997500", "162531.947500", "162528.107500", "162532.057500", "162528.217500", "162532.167500", "162528.327500", "162532.277500", "162528.437500", "162532.385000", "162528.545000", "162532.495000", "162528.655000", "162536.465000", "162532.625000", "162536.575000", "162532.735000", "162536.685000", "162532.845000", "162536.795000", "162532.955000", "162536.905000", "162533.065000", "162537.015000", "162533.175000", "162537.125000", "162533.285000", "162537.232500", "162533.392500", "162537.342500", "162533.502500", "162537.452500", "162533.612500", "162537.562500", "162533.722500", "162537.672500", "162533.832500", "162537.782500", "162533.942500", "162537.892500", "162534.052500", "162538.002500", "162534.162500", "162538.112500", "162534.272500", "162538.220000", "162534.380000", "162538.330000", "162534.490000", "162538.440000", "162534.600000", "162538.550000", "162534.710000", "162538.660000", "162534.820000", "162538.770000", "162534.930000", "162538.880000", "162535.040000", "162538.990000", "162535.150000", "162539.097500", "162535.260000", "162539.207500", "162535.367500", "162539.317500", "162535.477500", "162539.427500", "162535.587500", "162539.537500", "162535.697500", "162539.647500", "162535.807500", "162539.757500", "162535.917500", "162539.867500", "162536.027500", "162539.977500", "162536.137500", "162540.085000", "162536.245000", "162540.195000", "162536.355000", "162544.165000", "162540.325000", "162544.275000", "162540.435000", "162544.385000", "162540.545000", "162544.495000", "162540.655000", "162544.605000", "162540.765000", "162544.715000", "162540.875000", "162544.825000", "162540.985000", "162544.932500", "162541.092500", "162545.042500", "162541.202500", "162545.152500", "162541.312500", "162545.262500", "162541.422500", "162545.372500", "162541.532500", "162545.482500", "162541.642500", "162545.592500", "162541.752500", "162545.702500", "162541.862500", "162545.812500", "162541.972500", "162545.920000", "162542.080000", "162546.030000", "162542.190000", "162546.140000", "162542.300000", "162546.250000", "162542.410000", "162546.360000", "162542.520000", "162546.470000", "162542.630000", "162546.580000", "162542.740000", "162546.690000", "162542.850000", "162546.797500", "162542.960000", "162546.907500", "162543.067500", "162547.017500", "162543.177500", "162547.127500", "162543.287500", "162547.237500", "162543.397500", "162547.347500", "162543.507500", "162547.457500", "162543.617500", "162547.567500", "162543.727500", "162547.677500", "162543.837500", "162547.785000", "162543.945000", "162547.895000", "162544.055000", "162551.865000", "162548.025000", "162551.975000", "162548.135000", "162552.085000", "162548.245000", "162552.195000", "162548.355000", "162552.305000", "162548.465000", "162552.415000", "162548.575000", "162552.525000", "162548.685000", "162552.632500", "162548.792500", "162552.742500", "162548.902500", "162552.852500", "162549.012500", "162552.962500", "162549.122500", "162553.072500", "162549.232500", "162553.182500", "162549.342500", "162553.292500", "162549.452500", "162553.402500", "162549.562500", "162553.512500", "162549.672500", "162553.620000", "162549.780000", "162553.730000", "162549.890000", "162553.840000", "162550.000000", "162553.950000", "162550.110000", "162554.060000", "162550.220000", "162554.170000", "162550.330000", "162554.280000", "162550.440000", "162554.390000", "162550.550000", "162554.497500", "162550.660000", "162554.607500", "162550.767500", "162554.717500", "162550.877500", "162554.827500", "162550.987500", "162554.937500", "162551.097500", "162555.047500", "162551.207500", "162555.157500", "162551.317500", "162555.267500", "162551.427500", "162555.377500", "162551.537500", "162555.485000", "162551.645000", "162555.595000", "162551.755000", "162559.565000", "162555.725000", "162559.675000", "162555.835000", "162559.785000", "162555.945000", "162559.895000", "162556.055000", "162600.005000", "162556.165000", "162600.115000", "162556.275000", "162600.225000", "162556.385000", "162600.332500", "162556.492500", "162600.442500", "162556.602500", "162600.552500", "162556.712500", "162600.662500", "162556.822500", "162600.772500", "162556.932500", "162600.882500", "162557.042500", "162600.992500", "162557.152500", "162601.102500", "162557.262500", "162601.212500", "162557.372500", "162601.320000", "162557.480000", "162601.430000", "162557.590000", "162601.540000", "162557.700000", "162601.650000", "162557.810000", "162601.760000", "162557.920000", "162601.870000", "162558.030000", "162601.980000", "162558.140000", "162602.090000", "162558.250000", "162602.197500", "162558.360000", "162602.307500", "162558.467500", "162602.417500", "162558.577500", "162602.527500", "162558.687500", "162602.637500", "162558.797500", "162602.747500", "162558.907500", "162602.857500", "162559.017500", "162602.967500", "162559.127500", "162603.077500", "162559.237500", "162603.185000", "162559.345000", "162603.295000", "162559.455000", "162607.265000", "162603.425000", "162607.375000", "162603.535000", "162607.485000", "162603.645000", "162607.595000", "162603.755000", "162607.705000", "162603.865000", "162607.815000", "162603.975000", "162607.925000", "162604.085000", "162608.032500", "162604.192500", "162608.142500", "162604.302500", "162608.252500", "162604.412500", "162608.362500", "162604.522500", "162608.472500", "162604.632500", "162608.582500", "162604.742500", "162608.692500", "162604.852500", "162608.802500", "162604.962500", "162608.912500", "162605.072500", "162609.020000", "162605.180000", "162609.130000", "162605.290000", "162609.240000", "162605.400000", "162609.350000", "162605.510000", "162609.460000", "162605.620000", "162609.570000", "162605.730000", "162609.680000", "162605.840000", "162609.790000", "162605.950000", "162609.897500", "162606.060000", "162610.007500", "162606.167500", "162610.117500", "162606.277500", "162610.227500", "162606.387500", "162610.337500", "162606.497500", "162610.447500", "162606.607500", "162610.557500", "162606.717500", "162610.667500", "162606.827500", "162610.777500", "162606.937500", "162610.885000", "162607.045000", "162610.995000", "162607.155000", "162614.965000", "162611.125000", "162615.075000", "162611.235000", "162615.185000", "162611.345000", "162615.295000", "162611.455000", "162615.405000", "162611.565000", "162615.515000", "162611.675000", "162615.625000", "162611.785000", "162615.732500", "162611.892500", "162615.842500", "162612.002500", "162615.952500", "162612.112500", "162616.062500", "162612.222500", "162616.172500", "162612.332500", "162616.282500", "162612.442500", "162616.392500", "162612.552500", "162616.502500", "162612.662500", "162616.612500", "162612.772500", "162616.720000", "162612.880000", "162616.830000", "162612.990000", "162616.940000", "162613.100000", "162617.050000", "162613.210000", "162617.160000", "162613.320000", "162617.270000", "162613.430000", "162617.380000", "162613.540000", "162617.490000", "162613.650000", "162617.597500", "162613.760000", "162617.707500", "162613.867500", "162617.817500", "162613.977500", "162617.927500", "162614.087500", "162618.037500", "162614.197500", "162618.147500", "162614.307500", "162618.257500", "162614.417500", "162618.367500", "162614.527500", "162618.477500", "162614.637500", "162618.585000", "162614.745000", "162618.695000", "162614.855000", "162622.665000", "162618.825000", "162622.775000", "162618.935000", "162622.885000", "162619.045000", "162622.995000", "162619.155000", "162623.105000", "162619.265000", "162623.215000", "162619.375000", "162623.325000", "162619.485000", "162623.432500", "162619.592500", "162623.542500", "162619.702500", "162623.652500", "162619.812500", "162623.762500", "162619.922500", "162623.872500", "162620.032500", "162623.982500", "162620.142500", "162624.092500", "162620.252500", "162624.202500", "162620.362500", "162624.312500", "162620.472500", "162624.420000", "162620.580000", "162624.530000", "162620.690000", "162624.640000", "162620.800000", "162624.750000", "162620.910000", "162624.860000", "162621.020000", "162624.970000", "162621.130000", "162625.080000", "162621.240000", "162625.190000", "162621.350000", "162625.297500", "162621.460000", "162625.407500", "162621.567500", "162625.517500", "162621.677500", "162625.627500", "162621.787500", "162625.737500", "162621.897500", "162625.847500", "162622.007500", "162625.957500", "162622.117500", "162626.067500", "162622.227500", "162626.177500", "162622.337500", "162626.285000", "162622.445000", "162626.395000", "162622.555000", "162630.365000", "162626.525000", "162630.475000", "162626.635000", "162630.585000", "162626.745000", "162630.695000", "162626.855000", "162630.805000", "162626.965000", "162630.915000", "162627.075000", "162631.025000", "162627.185000", "162631.132500", "162627.292500", "162631.242500", "162627.402500", "162631.352500", "162627.512500", "162631.462500", "162627.622500", "162631.572500", "162627.732500", "162631.682500", "162627.842500", "162631.792500", "162627.952500", "162631.902500", "162628.062500", "162632.012500", "162628.172500", "162632.120000", "162628.280000", "162632.230000", "162628.390000", "162632.340000", "162628.500000", "162632.450000", "162628.610000", "162632.560000", "162628.720000", "162632.670000", "162628.830000", "162632.780000", "162628.940000", "162632.890000", "162629.050000", "162632.997500", "162629.160000", "162633.107500", "162629.267500", "162633.217500", "162629.377500", "162633.327500", "162629.487500", "162633.437500", "162629.597500", "162633.547500", "162629.707500", "162633.657500", "162629.817500", "162633.767500", "162629.927500", "162633.877500", "162630.037500", "162633.985000", "162630.145000", "162634.095000", "162630.255000", "162638.065000", "162634.225000", "162638.175000", "162634.335000", "162638.285000", "162634.445000", "162638.395000", "162634.555000", "162638.505000", "162634.665000", "162638.615000", "162634.775000", "162638.725000", "162634.885000", "162638.832500", "162634.992500", "162638.942500", "162635.102500", "162639.052500", "162635.212500", "162639.162500", "162635.322500", "162639.272500", "162635.432500", "162639.382500", "162635.542500", "162639.492500", "162635.652500", "162639.602500", "162635.762500", "162639.712500", "162635.872500", "162639.820000", "162635.980000", "162639.930000", "162636.090000", "162640.040000", "162636.200000", "162640.150000", "162636.310000", "162640.260000", "162636.420000", "162640.370000", "162636.530000", "162640.480000", "162636.640000", "162640.590000", "162636.750000", "162640.697500", "162636.860000", "162640.807500", "162636.967500", "162640.917500", "162637.077500", "162641.027500", "162637.187500", "162641.137500", "162637.297500", "162641.247500", "162637.407500", "162641.357500", "162637.517500", "162641.467500", "162637.627500", "162641.577500", "162637.737500", "162641.685000", "162637.845000", "162641.795000", "162637.955000", "162645.765000", "162641.925000", "162645.875000", "162642.035000", "162645.985000", "162642.145000", "162646.095000", "162642.255000", "162646.205000", "162642.365000", "162646.315000", "162642.475000", "162646.425000", "162642.585000", "162646.532500", "162642.692500", "162646.642500", "162642.802500", "162646.752500", "162642.912500", "162646.862500", "162643.022500", "162646.972500", "162643.132500", "162647.082500", "162643.242500", "162647.192500", "162643.352500", "162647.302500", "162643.462500", "162647.412500", "162643.572500", "162647.520000", "162643.680000", "162647.630000", "162643.790000", "162647.740000", "162643.900000", "162647.850000", "162644.010000", "162647.960000", "162644.120000", "162648.070000", "162644.230000", "162648.180000", "162644.340000", "162648.290000", "162644.450000", "162648.397500", "162644.560000", "162648.507500", "162644.667500", "162648.617500", "162644.777500", "162648.727500", "162644.887500", "162648.837500", "162644.997500", "162648.947500", "162645.107500", "162649.057500", "162645.217500", "162649.167500", "162645.327500", "162649.277500", "162645.437500", "162649.385000", "162645.545000", "162649.495000", "162645.655000", "162653.465000", "162649.625000", "162653.575000", "162649.735000", "162653.685000", "162649.845000", "162653.795000", "162649.955000", "162653.905000", "162650.065000", "162654.015000", "162650.175000", "162654.125000", "162650.285000", "162654.232500", "162650.392500", "162654.342500", "162650.502500", "162654.452500", "162650.612500", "162654.562500", "162650.722500", "162654.672500", "162650.832500", "162654.782500", "162650.942500", "162654.892500", "162651.052500", "162655.002500", "162651.162500", "162655.112500", "162651.272500", "162655.220000", "162651.380000", "162655.330000", "162651.490000", "162655.440000", "162651.600000", "162655.550000", "162651.710000", "162655.660000", "162651.820000", "162655.770000", "162651.930000", "162655.880000", "162652.040000", "162655.990000", "162652.150000", "162656.097500", "162652.260000", "162656.207500", "162652.367500", "162656.317500", "162652.477500", "162656.427500", "162652.587500", "162656.537500", "162652.697500", "162656.647500", "162652.807500", "162656.757500", "162652.917500", "162656.867500", "162653.027500", "162656.977500", "162653.137500", "162657.085000", "162653.245000", "162657.195000", "162653.355000", "162701.165000", "162657.325000", "162701.275000", "162657.435000", "162701.385000", "162657.545000", "162701.495000", "162657.655000", "162701.605000", "162657.765000", "162701.715000", "162657.875000", "162701.825000", "162657.985000", "162701.932500", "162658.092500", "162702.042500", "162658.202500", "162702.152500", "162658.312500", "162702.262500", "162658.422500", "162702.372500", "162658.532500", "162702.482500", "162658.642500", "162702.592500", "162658.752500", "162702.702500", "162658.862500", "162702.812500", "162658.972500", "162702.920000", "162659.080000", "162703.030000", "162659.190000", "162703.140000", "162659.300000", "162703.250000", "162659.410000", "162703.360000", "162659.520000", "162703.470000", "162659.630000", "162703.580000", "162659.740000", "162703.690000", "162659.850000", "162703.797500", "162659.960000", "162703.907500", "162700.067500", "162704.017500", "162700.177500", "162704.127500", "162700.287500", "162704.237500", "162700.397500", "162704.347500", "162700.507500", "162704.457500", "162700.617500", "162704.567500", "162700.727500", "162704.677500", "162700.837500", "162704.785000", "162700.945000", "162704.895000", "162701.055000", "162708.865000", "162705.025000", "162708.975000", "162705.135000", "162709.085000", "162705.245000", "162709.195000", "162705.355000", "162709.305000", "162705.465000", "162709.415000", "162705.575000", "162709.525000", "162705.685000", "162709.632500", "162705.792500", "162709.742500", "162705.902500", "162709.852500", "162706.012500", "162709.962500", "162706.122500", "162710.072500", "162706.232500", "162710.182500", "162706.342500", "162710.292500", "162706.452500", "162710.402500", "162706.562500", "162710.512500", "162706.672500", "162710.620000", "162706.780000", "162710.730000", "162706.890000", "162710.840000", "162707.000000", "162710.950000", "162707.110000", "162711.060000", "162707.220000", "162711.170000", "162707.330000", "162711.280000", "162707.440000", "162711.390000", "162707.550000", "162711.497500", "162707.660000", "162711.607500", "162707.767500", "162711.717500", "162707.877500", "162711.827500", "162707.987500", "162711.937500", "162708.097500", "162712.047500", "162708.207500", "162712.157500", "162708.317500", "162712.267500", "162708.427500", "162712.377500", "162708.537500", "162712.485000", "162708.645000", "162712.595000", "162708.755000", "162716.565000", "162712.725000", "162716.675000", "162712.835000", "162716.785000", "162712.945000", "162716.895000", "162713.055000", "162717.005000", "162713.165000", "162717.115000", "162713.275000", "162717.225000", "162713.385000", "162717.332500", "162713.492500", "162717.442500", "162713.602500", "162717.552500", "162713.712500", "162717.662500", "162713.822500", "162717.772500", "162713.932500", "162717.882500", "162714.042500", "162717.992500", "162714.152500", "162718.102500", "162714.262500", "162718.212500", "162714.372500", "162718.320000", "162714.480000", "162718.430000", "162714.590000", "162718.540000", "162714.700000", "162718.650000", "162714.810000", "162718.760000", "162714.920000", "162718.870000", "162715.030000", "162718.980000", "162715.140000", "162719.090000", "162715.250000", "162719.197500", "162715.360000", "162719.307500", "162715.467500", "162719.417500", "162715.577500", "162719.527500", "162715.687500", "162719.637500", "162715.797500", "162719.747500", "162715.907500", "162719.857500", "162716.017500", "162719.967500", "162716.127500", "162720.077500", "162716.237500", "162720.185000", "162716.345000", "162720.295000", "162716.455000", "162724.265000", "162720.425000", "162724.375000", "162720.535000", "162724.485000", "162720.645000", "162724.595000", "162720.755000", "162724.705000", "162720.865000", "162724.815000", "162720.975000", "162724.925000", "162721.085000", "162725.032500", "162721.192500", "162725.142500", "162721.302500", "162725.252500", "162721.412500", "162725.362500", "162721.522500", "162725.472500", "162721.632500", "162725.582500", "162721.742500", "162725.692500", "162721.852500", "162725.802500", "162721.962500", "162725.912500", "162722.072500", "162726.020000", "162722.180000", "162726.130000", "162722.290000", "162726.240000", "162722.400000", "162726.350000", "162722.510000", "162726.460000", "162722.620000", "162726.570000", "162722.730000", "162726.680000", "162722.840000", "162726.790000", "162722.950000", "162726.897500", "162723.060000", "162727.007500", "162723.167500", "162727.117500", "162723.277500", "162727.227500", "162723.387500", "162727.337500", "162723.497500", "162727.447500", "162723.607500", "162727.557500", "162723.717500", "162727.667500", "162723.827500", "162727.777500", "162723.937500", "162727.885000", "162724.045000", "162727.995000", "162724.155000", "162731.965000", "162728.125000", "162732.075000", "162728.235000", "162732.185000", "162728.345000", "162732.295000", "162728.455000", "162732.405000", "162728.565000", "162732.515000", "162728.675000", "162732.625000", "162728.785000", "162732.732500", "162728.892500", "162732.842500", "162729.002500", "162732.952500", "162729.112500", "162733.062500", "162729.222500", "162733.172500", "162729.332500", "162733.282500", "162729.442500", "162733.392500", "162729.552500", "162733.502500", "162729.662500", "162733.612500", "162729.772500", "162733.720000", "162729.880000", "162733.830000", "162729.990000", "162733.940000", "162730.100000", "162734.050000", "162730.210000", "162734.160000", "162730.320000", "162734.270000", "162730.430000", "162734.380000", "162730.540000", "162734.490000", "162730.650000", "162734.597500", "162730.760000", "162734.707500", "162730.867500", "162734.817500", "162730.977500", "162734.927500", "162731.087500", "162735.037500", "162731.197500", "162735.147500", "162731.307500", "162735.257500", "162731.417500", "162735.367500", "162731.527500", "162735.477500", "162731.637500", "162735.585000", "162731.745000", "162735.695000", "162731.855000", "162739.665000", "162735.825000", "162739.775000", "162735.935000", "162739.885000", "162736.045000", "162739.995000", "162736.155000", "162740.105000", "162736.265000", "162740.215000", "162736.375000", "162740.325000", "162736.485000", "162740.432500", "162736.592500", "162740.542500", "162736.702500", "162740.652500", "162736.812500", "162740.762500", "162736.922500", "162740.872500", "162737.032500", "162740.982500", "162737.142500", "162741.092500", "162737.252500", "162741.202500", "162737.362500", "162741.312500", "162737.472500", "162741.420000", "162737.580000", "162741.530000", "162737.690000", "162741.640000", "162737.800000", "162741.750000", "162737.910000", "162741.860000", "162738.020000", "162741.970000", "162738.130000", "162742.080000", "162738.240000", "162742.190000", "162738.350000", "162742.297500", "162738.460000", "162742.407500", "162738.567500", "162742.517500", "162738.677500", "162742.627500", "162738.787500", "162742.737500", "162738.897500", "162742.847500", "162739.007500", "162742.957500", "162739.117500", "162743.067500", "162739.227500", "162743.177500", "162739.337500", "162743.285000", "162739.445000", "162743.395000", "162739.555000", "162747.365000", "162743.525000", "162747.475000", "162743.635000", "162747.585000", "162743.745000", "162747.695000", "162743.855000", "162747.805000", "162743.965000", "162747.915000", "162744.075000", "162748.025000", "162744.185000", "162748.132500", "162744.292500", "162748.242500", "162744.402500", "162748.352500", "162744.512500", "162748.462500", "162744.622500", "162748.572500", "162744.732500", "162748.682500", "162744.842500", "162748.792500", "162744.952500", "162748.902500", "162745.062500", "162749.012500", "162745.172500", "162749.120000", "162745.280000", "162749.230000", "162745.390000", "162749.340000", "162745.500000", "162749.450000", "162745.610000", "162749.560000", "162745.720000", "162749.670000", "162745.830000", "162749.780000", "162745.940000", "162749.890000", "162746.050000", "162749.997500", "162746.160000", "162750.107500", "162746.267500", "162750.217500", "162746.377500", "162750.327500", "162746.487500", "162750.437500", "162746.597500", "162750.547500", "162746.707500", "162750.657500", "162746.817500", "162750.767500", "162746.927500", "162750.877500", "162747.037500", "162750.985000", "162747.145000", "162751.095000", "162747.255000", "162755.065000", "162751.225000", "162755.175000", "162751.335000", "162755.285000", "162751.445000", "162755.395000", "162751.555000", "162755.505000", "162751.665000", "162755.615000", "162751.775000", "162755.725000", "162751.885000", "162755.832500", "162751.992500", "162755.942500", "162752.102500", "162756.052500", "162752.212500", "162756.162500", "162752.322500", "162756.272500", "162752.432500", "162756.382500", "162752.542500", "162756.492500", "162752.652500", "162756.602500", "162752.762500", "162756.712500", "162752.872500", "162756.820000", "162752.980000", "162756.930000", "162753.090000", "1627