{
  "AcquisitionMatrixPE": 122,
  "AcquisitionNumber": 1,
  "AcquisitionTime": "16:29:43.487500",
  "BandwidthPerPixelPhaseEncode": 27.785,
  "BaseResolution": 122,
  "BodyPartExamined": "BRAIN",
  "CoilCombinationMethod": "Adaptive Combine",
  "ConsistencyInfo": "N4_VE11C_LATEST_20160120",
  "ConversionSoftware": "dcm2niix",
  "ConversionSoftwareVersion": "v1.0.20220720",
  "DerivedVendorReportedEchoSpacing": 0.000590011,
  "DeviceSerialNumber": "66112",
  "DiffusionScheme": "Monopolar",
  "DwellTime": 2e-06,
  "EchoTime": 0.068,
  "EchoTrainLength": 61,
  "EffectiveEchoSpacing": 0.000295005,
  "FlipAngle": 90,
  "HeudiconvVersion": "0.13.1",
  "ImageOrientationPatientDICOM": [0.974896, 0.222446, 0.00979729, -0.21488, 0.92838, 0.30321],
  "ImageOrientationText": "Tra>Cor(17.4)>Sag(-3.3)",
  "ImageType": [
    "ORIGINAL",
    "PRIMARY",
    "DIFFUSION",
    "NONE",
    "ND",
    "NORM"
],
  "ImagingFrequency": 123.252,
  "InPlanePhaseEncodingDirectionDICOM": "COL",
  "InstitutionAddress": "Maynard 3,Hanover,NH,US,03755",
  "InstitutionName": "Dartmouth College - PBS",
  "InstitutionalDepartmentName": "Department",
  "MRAcquisitionType": "2D",
  "MagneticFieldStrength": 3,
  "Manufacturer": "Siemens",
  "ManufacturersModelName": "Prisma",
  "Modality": "MR",
  "MultibandAccelerationFactor": 4,
  "NonlinearGradientCorrection": false,
  "ParallelReductionFactorInPlane": 2,
  "PartialFourier": 1,
  "PatientPosition": "HFS",
  "PercentPhaseFOV": 100,
  "PercentSampling": 100,
  "PhaseEncodingDirection": "j-",
  "PhaseEncodingSteps": 122,
  "PhaseResolution": 1,
  "PixelBandwidth": 2050,
  "ProcedureStepDescription": "dbic^QA",
  "ProtocolName": "dwi_acq-DTI-30-p2-s4",
  "PulseSequenceDetails": "%SiemensSeq%\\ep2d_diff",
  "ReceiveCoilActiveElements": "HEA;HEP",
  "ReceiveCoilName": "Head_32",
  "ReconMatrixPE": 122,
  "RefLinesPE": 38,
  "RepetitionTime": 3.6,
  "SAR": 0.13266,
  "ScanOptions": "FS",
  "ScanningSequence": "EP",
  "SequenceName": "*ep_b0",
  "SequenceVariant": "SK\\SP",
  "SeriesDescription": "dwi_acq-DTI-30-p2-s4",
  "SeriesNumber": 9,
  "ShimSetting": [4147, -7697, -7526, 322, -22, -396, 45, 41],
  "SliceThickness": 2,
  "SliceTiming": [2.57812, 0, 1.78125, 0.1875, 1.98438, 0.39062, 2.1875, 0.59375, 2.375, 0.98438, 2.78125, 1.1875, 2.98438, 1.39062, 3.17188, 1.59375, 3.375, 0.79688, 2.57812, 0, 1.78125, 0.1875, 1.98438, 0.39062, 2.1875, 0.59375, 2.375, 0.98438, 2.78125, 1.1875, 2.98438, 1.39062, 3.17188, 1.59375, 3.375, 0.79688, 2.57812, 0, 1.78125, 0.1875, 1.98438, 0.39062, 2.1875, 0.59375, 2.375, 0.98438, 2.78125, 1.1875, 2.98438, 1.39062, 3.17188, 1.59375, 3.375, 0.79688, 2.57812, 0, 1.78125, 0.1875, 1.98438, 0.39062, 2.1875, 0.59375, 2.375, 0.98438, 2.78125, 1.1875, 2.98438, 1.39062, 3.17188, 1.59375, 3.375, 0.79688],
  "SoftwareVersions": "syngo MR E11",
  "SpacingBetweenSlices": 2,
  "SpoilingState": true,
  "StationName": "AWP66112",
  "TotalReadoutTime": 0.0356956,
  "TxRefAmp": 237.711,
  "dcmmeta_affine": [
    [-1.9178276062011719, -0.4227146506309509, -0.11670482158660889, 149.1659698486328],
    [-0.4375995099544525, 1.826322078704834, 0.5954074859619141, -98.27616119384766],
    [0.019273357465863228, -0.5964792370796204, 1.9057464599609375, -27.976940155029297],
    [0.0, 0.0, 0.0, 1.0]
],
  "dcmmeta_reorient_transform": [
    [0.0, -1.0, 0.0, 121.0],
    [1.0, 0.0, 0.0, 0.0],
    [0.0, 0.0, -1.0, 71.0],
    [0.0, 0.0, 0.0, 1.0]
],
  "dcmmeta_shape": [122, 122, 72, 31],
  "dcmmeta_slice_dim": 2,
  "dcmmeta_version": 0.6,
  "global": {
    "const": {
      "AccessionNumber": "qa",
      "AcquisitionMatrix": [122, 0, 0, 122],
      "AngioFlag": "N",
      "BitsAllocated": 16,
      "BitsStored": 12,
      "BodyPartExamined": "BRAIN",
      "Columns": 122,
      "EchoNumbers": 1,
      "EchoTime": 68.0,
      "EchoTrainLength": 61,
      "FlipAngle": 90.0,
      "HighBit": 11,
      "ImageOrientationPatient": [0.97489568836358, 0.22244642032209, 0.00979729023743, -0.2148799460391, 0.92838038771833, 0.30321026448687],
      "ImageType": [
        "ORIGINAL",
        "PRIMARY",
        "DIFFUSION",
        "NONE",
        "ND",
        "NORM"
],
      "ImagedNucleus": "1H",
      "ImagingFrequency": 123.252471,
      "InPlanePhaseEncodingDirection": "COL",
      "MRAcquisitionType": "2D",
      "MagneticFieldStrength": 3.0,
      "Manufacturer": "SIEMENS",
      "ManufacturerModelName": "Prisma",
      "Modality": "MR",
      "NumberOfAverages": 1.0,
      "NumberOfPhaseEncodingSteps": 122,
      "PercentPhaseFieldOfView": 100.0,
      "PercentSampling": 100.0,
      "PerformedProcedureStepStartTime": "160919.704000",
      "PhotometricInterpretation": "MONOCHROME2",
      "PixelBandwidth": 2050.0,
      "PixelRepresentation": 0,
      "PixelSpacing": [1.9672131538391, 1.9672131538391],
      "ProtocolName": "dwi_acq-DTI-30-p2-s4",
      "RepetitionTime": 3600.0,
      "Rows": 122,
      "SAR": 0.13266024828398,
      "SamplesPerPixel": 1,
      "ScanOptions": "FS",
      "ScanningSequence": "EP",
      "SequenceVariant": [
        "SK",
        "SP"
],
      "SeriesDescription": "dwi_acq-DTI-30-p2-s4",
      "SeriesNumber": 9,
      "SeriesTime": "162951.757000",
      "SliceThickness": 2.0,
      "SmallestImagePixelValue": 0,
      "SoftwareVersions": "syngo MR E11",
      "SpacingBetweenSlices": 2.0,
      "SpecificCharacterSet": "ISO_IR 100",
      "StudyID": "47",
      "StudyTime": "160919.656000",
      "TransmitCoilName": "Body",
      "VariableFlipAngleFlag": "N",
      "WindowCenterWidthExplanation": "Algo1",
      "dBdt": 0.0},
    "slices": {
      "AcquisitionTime": ["162943.487500", "162940.902500", "162942.692500", "162941.100000", "162942.890000", "162941.300000", "162943.090000", "162941.497500", "162943.287500", "162941.897500", "162943.687500", "162942.095000", "162943.885000", "162942.295000", "162944.085000", "162942.492500", "162944.282500", "162941.697500", "162943.487500", "162940.902500", "162942.692500", "162941.100000", "162942.890000", "162941.300000", "162943.090000", "162941.497500", "162943.287500", "162941.897500", "162943.687500", "162942.095000", "162943.885000", "162942.295000", "162944.085000", "162942.492500", "162944.282500", "162941.697500", "162943.487500", "162940.902500", "162942.692500", "162941.100000", "162942.890000", "162941.300000", "162943.090000", "162941.497500", "162943.287500", "162941.897500", "162943.687500", "162942.095000", "162943.885000", "162942.295000", "162944.085000", "162942.492500", "162944.282500", "162941.697500", "162943.487500", "162940.902500", "162942.692500", "162941.100000", "162942.890000", "162941.300000", "162943.090000", "162941.497500", "162943.287500", "162941.897500", "162943.687500", "162942.095000", "162943.885000", "162942.295000", "162944.085000", "162942.492500", "162944.282500", "162941.697500", "162947.087500", "162944.502500", "162946.292500", "162944.700000", "162946.490000", "162944.900000", "162946.690000", "162945.097500", "162946.887500", "162945.497500", "162947.287500", "162945.695000", "162947.485000", "162945.895000", "162947.685000", "162946.092500", "162947.882500", "162945.297500", "162947.087500", "162944.502500", "162946.292500", "162944.700000", "162946.490000", "162944.900000", "162946.690000", "162945.097500", "162946.887500", "162945.497500", "162947.287500", "162945.695000", "162947.485000", "162945.895000", "162947.685000", "162946.092500", "162947.882500", "162945.297500", "162947.087500", "162944.502500", "162946.292500", "162944.700000", "162946.490000", "162944.900000", "162946.690000", "162945.097500", "162946.887500", "162945.497500", "162947.287500", "162945.695000", "162947.485000", "162945.895000", "162947.685000", "162946.092500", "162947.882500", "162945.297500", "162947.087500", "162944.502500", "162946.292500", "162944.700000", "162946.490000", "162944.900000", "162946.690000", "162945.097500", "162946.887500", "162945.497500", "162947.287500", "162945.695000", "162947.485000", "162945.895000", "162947.685000", "162946.092500", "162947.882500", "162945.297500", "162950.687500", "162948.102500", "162949.892500", "162948.300000", "162950.090000", "162948.500000", "162950.290000", "162948.697500", "162950.487500", "162949.097500", "162950.887500", "162949.295000", "162951.085000", "162949.495000", "162951.285000", "162949.692500", "162951.482500", "162948.897500", "162950.687500", "162948.102500", "162949.892500", "162948.300000", "162950.090000", "162948.500000", "162950.290000", "162948.697500", "162950.487500", "162949.097500", "162950.887500", "162949.295000", "162951.085000", "162949.495000", "162951.285000", "162949.692500", "162951.482500", "162948.897500", "162950.687500", "162948.102500", "162949.892500", "162948.300000", "162950.090000", "162948.500000", "162950.290000", "162948.697500", "162950.487500", "162949.097500", "162950.887500", "162949.295000", "162951.085000", "162949.495000", "162951.285000", "162949.692500", "162951.482500", "162948.897500", "162950.687500", "162948.102500", "162949.892500", "162948.300000", "162950.090000", "162948.500000", "162950.290000", "162948.697500", "162950.487500", "162949.097500", "162950.887500", "162949.295000", "162951.085000", "162949.495000", "162951.285000", "162949.692500", "162951.482500", "162948.897500", "162954.287500", "162951.702500", "162953.492500", "162951.900000", "162953.690000", "162952.100000", "162953.890000", "162952.297500", "162954.087500", "162952.697500", "162954.487500", "162952.895000", "162954.685000", "162953.095000", "162954.885000", "162953.292500", "162955.082500", "162952.497500", "162954.287500", "162951.702500", "162953.492500", "162951.900000", "162953.690000", "162952.100000", "162953.890000", "162952.297500", "162954.087500", "162952.697500", "162954.487500", "162952.895000", "162954.685000", "162953.095000", "162954.885000", "162953.292500", "162955.082500", "162952.497500", "162954.287500", "162951.702500", "162953.492500", "162951.900000", "162953.690000", "162952.100000", "162953.890000", "162952.297500", "162954.087500", "162952.697500", "162954.487500", "162952.895000", "162954.685000", "162953.095000", "162954.885000", "162953.292500", "162955.082500", "162952.497500", "162954.287500", "162951.702500", "162953.492500", "162951.900000", "162953.690000", "162952.100000", "162953.890000", "162952.297500", "162954.087500", "162952.697500", "162954.487500", "162952.895000", "162954.685000", "162953.095000", "162954.885000", "162953.292500", "162955.082500", "162952.497500", "162957.887500", "162955.302500", "162957.092500", "162955.500000", "162957.290000", "162955.700000", "162957.490000", "162955.897500", "162957.687500", "162956.297500", "162958.087500", "162956.495000", "162958.285000", "162956.695000", "162958.485000", "162956.892500", "162958.682500", "162956.097500", "162957.887500", "162955.302500", "162957.092500", "162955.500000", "162957.290000", "162955.700000", "162957.490000", "162955.897500", "162957.687500", "162956.297500", "162958.087500", "162956.495000", "162958.285000", "162956.695000", "162958.485000", "162956.892500", "162958.682500", "162956.097500", "162957.887500", "162955.302500", "162957.092500", "162955.500000", "162957.290000", "162955.700000", "162957.490000", "162955.897500", "162957.687500", "162956.297500", "162958.087500", "162956.495000", "162958.285000", "162956.695000", "162958.485000", "162956.892500", "162958.682500", "162956.097500", "162957.887500", "162955.302500", "162957.092500", "162955.500000", "162957.290000", "162955.700000", "162957.490000", "162955.897500", "162957.687500", "162956.297500", "162958.087500", "162956.495000", "162958.285000", "162956.695000", "162958.485000", "162956.892500", "162958.682500", "162956.097500", "163001.487500", "162958.902500", "163000.692500", "162959.100000", "163000.890000", "162959.300000", "163001.090000", "162959.497500", "163001.287500", "162959.897500", "163001.687500", "163000.095000", "163001.885000", "163000.295000", "163002.085000", "163000.492500", "163002.282500", "162959.697500", "163001.487500", "162958.902500", "163000.692500", "162959.100000", "163000.890000", "162959.300000", "163001.090000", "162959.497500", "163001.287500", "162959.897500", "163001.687500", "163000.095000", "163001.885000", "163000.295000", "163002.085000", "163000.492500", "163002.282500", "162959.697500", "163001.487500", "162958.902500", "163000.692500", "162959.100000", "163000.890000", "162959.300000", "163001.090000", "162959.497500", "163001.287500", "162959.897500", "163001.687500", "163000.095000", "163001.885000", "163000.295000", "163002.085000", "163000.492500", "163002.282500", "162959.697500", "163001.487500", "162958.902500", "163000.692500", "162959.100000", "163000.890000", "162959.300000", "163001.090000", "162959.497500", "163001.287500", "162959.897500", "163001.687500", "163000.095000", "163001.885000", "163000.295000", "163002.085000", "163000.492500", "163002.282500", "162959.697500", "163005.087500", "163002.502500", "163004.292500", "163002.700000", "163004.490000", "163002.900000", "163004.690000", "163003.097500", "163004.887500", "163003.497500", "163005.287500", "163003.695000", "163005.485000", "163003.895000", "163005.685000", "163004.092500", "163005.882500", "163003.297500", "163005.087500", "163002.502500", "163004.292500", "163002.700000", "163004.490000", "163002.900000", "163004.690000", "163003.097500", "163004.887500", "163003.497500", "163005.287500", "163003.695000", "163005.485000", "163003.895000", "163005.685000", "163004.092500", "163005.882500", "163003.297500", "163005.087500", "163002.502500", "163004.292500", "163002.700000", "163004.490000", "163002.900000", "163004.690000", "163003.097500", "163004.887500", "163003.497500", "163005.287500", "163003.695000", "163005.485000", "163003.895000", "163005.685000", "163004.092500", "163005.882500", "163003.297500", "163005.087500", "163002.502500", "163004.292500", "163002.700000", "163004.490000", "163002.900000", "163004.690000", "163003.097500", "163004.887500", "163003.497500", "163005.287500", "163003.695000", "163005.485000", "163003.895000", "163005.685000", "163004.092500", "163005.882500", "163003.297500", "163008.687500", "163006.102500", "163007.892500", "163006.300000", "163008.090000", "163006.500000", "163008.290000", "163006.697500", "163008.487500", "163007.097500", "163008.887500", "163007.295000", "163009.085000", "163007.495000", "163009.285000", "163007.692500", "163009.482500", "163006.897500", "163008.687500", "163006.102500", "163007.892500", "163006.300000", "163008.090000", "163006.500000", "163008.290000", "163006.697500", "163008.487500", "163007.097500", "163008.887500", "163007.295000", "163009.085000", "163007.495000", "163009.285000", "163007.692500", "163009.482500", "163006.897500", "163008.687500", "163006.102500", "163007.892500", "163006.300000", "163008.090000", "163006.500000", "163008.290000", "163006.697500", "163008.487500", "163007.097500", "163008.887500", "163007.295000", "163009.085000", "163007.495000", "163009.285000", "163007.692500", "163009.482500", "163006.897500", "163008.687500", "163006.102500", "163007.892500", "163006.300000", "163008.090000", "163006.500000", "163008.290000", "163006.697500", "163008.487500", "163007.097500", "163008.887500", "163007.295000", "163009.085000", "163007.495000", "163009.285000", "163007.692500", "163009.482500", "163006.897500", "163012.287500", "163009.702500", "163011.492500", "163009.900000", "163011.690000", "163010.100000", "163011.890000", "163010.297500", "163012.087500", "163010.697500", "163012.487500", "163010.895000", "163012.685000", "163011.095000", "163012.885000", "163011.292500", "163013.082500", "163010.497500", "163012.287500", "163009.702500", "163011.492500", "163009.900000", "163011.690000", "163010.100000", "163011.890000", "163010.297500", "163012.087500", "163010.697500", "163012.487500", "163010.895000", "163012.685000", "163011.095000", "163012.885000", "163011.292500", "163013.082500", "163010.497500", "163012.287500", "163009.702500", "163011.492500", "163009.900000", "163011.690000", "163010.100000", "163011.890000", "163010.297500", "163012.087500", "163010.697500", "163012.487500", "163010.895000", "163012.685000", "163011.095000", "163012.885000", "163011.292500", "163013.082500", "163010.497500", "163012.287500", "163009.702500", "163011.492500", "163009.900000", "163011.690000", "163010.100000", "163011.890000", "163010.297500", "163012.087500", "163010.697500", "163012.487500", "163010.895000", "163012.685000", "163011.095000", "163012.885000", "163011.292500", "163013.082500", "163010.497500", "163015.887500", "163013.302500", "163015.092500", "163013.500000", "163015.290000", "163013.700000", "163015.490000", "163013.897500", "163015.687500", "163014.297500", "163016.087500", "163014.495000", "163016.285000", "163014.695000", "163016.485000", "163014.892500", "163016.682500", "163014.097500", "163015.887500", "163013.302500", "163015.092500", "163013.500000", "163015.290000", "163013.700000", "163015.490000", "163013.897500", "163015.687500", "163014.297500", "163016.087500", "163014.495000", "163016.285000", "163014.695000", "163016.485000", "163014.892500", "163016.682500", "163014.097500", "163015.887500", "163013.302500", "163015.092500", "163013.500000", "163015.290000", "163013.700000", "163015.490000", "163013.897500", "163015.687500", "163014.297500", "163016.087500", "163014.495000", "163016.285000", "163014.695000", "163016.485000", "163014.892500", "163016.682500", "163014.097500", "163015.887500", "163013.302500", "163015.092500", "163013.500000", "163015.290000", "163013.700000", "163015.490000", "163013.897500", "163015.687500", "163014.297500", "163016.087500", "163014.495000", "163016.285000", "163014.695000", "163016.485000", "163014.892500", "163016.682500", "163014.097500", "163019.487500", "163016.902500", "163018.692500", "163017.100000", "163018.890000", "163017.300000", "163019.090000", "163017.497500", "163019.287500", "163017.897500", "163019.687500", "163018.095000", "163019.885000", "163018.295000", "163020.085000", "163018.492500", "163020.282500", "163017.697500", "163019.487500", "163016.902500", "163018.692500", "163017.100000", "163018.890000", "163017.300000", "163019.090000", "163017.497500", "163019.287500", "163017.897500", "163019.687500", "163018.095000", "163019.885000", "163018.295000", "163020.085000", "163018.492500", "163020.282500", "163017.697500", "163019.487500", "163016.902500", "163018.692500", "163017.100000", "163018.890000", "163017.300000", "163019.090000", "163017.497500", "163019.287500", "163017.897500", "163019.687500", "163018.095000", "163019.885000", "163018.295000", "163020.085000", "163018.492500", "163020.282500", "163017.697500", "163019.487500", "163016.902500", "163018.692500", "163017.100000", "163018.890000", "163017.300000", "163019.090000", "163017.497500", "163019.287500", "163017.897500", "163019.687500", "163018.095000", "163019.885000", "163018.295000", "163020.085000", "163018.492500", "163020.282500", "163017.697500", "163023.087500", "163020.502500", "163022.292500", "163020.700000", "163022.490000", "163020.900000", "163022.690000", "163021.097500", "163022.887500", "163021.497500", "163023.287500", "163021.695000", "163023.485000", "163021.895000", "163023.685000", "163022.092500", "163023.882500", "163021.297500", "163023.087500", "163020.502500", "163022.292500", "163020.700000", "163022.490000", "163020.900000", "163022.690000", "163021.097500", "163022.887500", "163021.497500", "163023.287500", "163021.695000", "163023.485000", "163021.895000", "163023.685000", "163022.092500", "163023.882500", "163021.297500", "163023.087500", "163020.502500", "163022.292500", "163020.700000", "163022.490000", "163020.900000", "163022.690000", "163021.097500", "163022.887500", "163021.497500", "163023.287500", "163021.695000", "163023.485000", "163021.895000", "163023.685000", "163022.092500", "163023.882500", "163021.297500", "163023.087500", "163020.502500", "163022.292500", "163020.700000", "163022.490000", "163020.900000", "163022.690000", "163021.097500", "163022.887500", "163021.497500", "163023.287500", "163021.695000", "163023.485000", "163021.895000", "163023.685000", "163022.092500", "163023.882500", "163021.297500", "163026.687500", "163024.102500", "163025.892500", "163024.300000", "163026.090000", "163024.500000", "163026.290000", "163024.697500", "163026.487500", "163025.097500", "163026.887500", "163025.295000", "163027.085000", "163025.495000", "163027.285000", "163025.692500", "163027.482500", "163024.897500", "163026.687500", "163024.102500", "163025.892500", "163024.300000", "163026.090000", "163024.500000", "163026.290000", "163024.697500", "163026.487500", "163025.097500", "163026.887500", "163025.295000", "163027.085000", "163025.495000", "163027.285000", "163025.692500", "163027.482500", "163024.897500", "163026.687500", "163024.102500", "163025.892500", "163024.300000", "163026.090000", "163024.500000", "163026.290000", "163024.697500", "163026.487500", "163025.097500", "163026.887500", "163025.295000", "163027.085000", "163025.495000", "163027.285000", "163025.692500", "163027.482500", "163024.897500", "163026.687500", "163024.102500", "163025.892500", "163024.300000", "163026.090000", "163024.500000", "163026.290000", "163024.697500", "163026.487500", "163025.097500", "163026.887500", "163025.295000", "163027.085000", "163025.495000", "163027.285000", "163025.692500", "163027.482500", "163024.897500", "163030.287500", "163027.702500", "163029.492500", "163027.900000", "163029.690000", "163028.100000", "163029.890000", "163028.297500", "163030.087500", "163028.697500", "163030.487500", "163028.895000", "163030.685000", "163029.095000", "163030.885000", "163029.292500", "163031.082500", "163028.497500", "163030.287500", "163027.702500", "163029.492500", "163027.900000", "163029.690000", "163028.100000", "163029.890000", "163028.297500", "163030.087500", "163028.697500", "163030.487500", "163028.895000", "163030.685000", "163029.095000", "163030.885000", "163029.292500", "163031.082500", "163028.497500", "163030.287500", "163027.702500", "163029.492500", "163027.900000", "163029.690000", "163028.100000", "163029.890000", "163028.297500", "163030.087500", "163028.697500", "163030.487500", "163028.895000", "163030.685000", "163029.095000", "163030.885000", "163029.292500", "163031.082500", "163028.497500", "163030.287500", "163027.702500", "163029.492500", "163027.900000", "163029.690000", "163028.100000", "163029.890000", "163028.297500", "163030.087500", "163028.697500", "163030.487500", "163028.895000", "163030.685000", "163029.095000", "163030.885000", "163029.292500", "163031.082500", "163028.497500", "163033.887500", "163031.302500", "163033.092500", "163031.500000", "163033.290000", "163031.700000", "163033.490000", "163031.897500", "163033.687500", "163032.297500", "163034.087500", "163032.495000", "163034.285000", "163032.695000", "163034.485000", "163032.892500", "163034.682500", "163032.097500", "163033.887500", "163031.302500", "163033.092500", "163031.500000", "163033.290000", "163031.700000", "163033.490000", "163031.897500", "163033.687500", "163032.297500", "163034.087500", "163032.495000", "163034.285000", "163032.695000", "163034.485000", "163032.892500", "163034.682500", "163032.097500", "163033.887500", "163031.302500", "163033.092500", "163031.500000", "163033.290000", "163031.700000", "163033.490000", "163031.897500", "163033.687500", "163032.297500", "163034.087500", "163032.495000", "163034.285000", "163032.695000", "163034.485000", "163032.892500", "163034.682500", "163032.097500", "163033.887500", "163031.302500", "163033.092500", "163031.500000", "163033.290000", "163031.700000", "163033.490000", "163031.897500", "163033.687500", "163032.297500", "163034.087500", "163032.495000", "163034.285000", "163032.695000", "163034.485000", "163032.892500", "163034.682500", "163032.097500", "163037.487500", "163034.902500", "163036.692500", "163035.100000", "163036.890000", "163035.300000", "163037.090000", "163035.497500", "163037.287500", "163035.897500", "163037.687500", "163036.095000", "163037.885000", "163036.295000", "163038.085000", "163036.492500", "163038.282500", "163035.697500", "163037.487500", "163034.902500", "163036.692500", "163035.100000", "163036.890000", "163035.300000", "163037.090000", "163035.497500", "163037.287500", "163035.897500", "163037.687500", "163036.095000", "163037.885000", "163036.295000", "163038.085000", "163036.492500", "163038.282500", "163035.697500", "163037.487500", "163034.902500", "163036.692500", "163035.100000", "163036.890000", "163035.300000", "163037.090000", "163035.497500", "163037.287500", "163035.897500", "163037.687500", "163036.095000", "163037.885000", "163036.295000", "163038.085000", "163036.492500", "163038.282500", "163035.697500", "163037.487500", "163034.902500", "163036.692500", "163035.100000", "163036.890000", "163035.300000", "163037.090000", "163035.497500", "163037.287500", "163035.897500", "163037.687500", "163036.095000", "163037.885000", "163036.295000", "163038.085000", "163036.492500", "163038.282500", "163035.697500", "163041.087500", "163038.502500", "163040.292500", "163038.700000", "163040.490000", "163038.900000", "163040.690000", "163039.097500", "163040.887500", "163039.497500", "163041.287500", "163039.695000", "163041.485000", "163039.895000", "163041.685000", "163040.092500", "163041.882500", "163039.297500", "163041.087500", "163038.502500", "163040.292500", "163038.700000", "163040.490000", "163038.900000", "163040.690000", "163039.097500", "163040.887500", "163039.497500", "163041.287500", "163039.695000", "163041.485000", "163039.895000", "163041.685000", "163040.092500", "163041.882500", "163039.297500", "163041.087500", "163038.502500", "163040.292500", "163038.700000", "163040.490000", "163038.900000", "163040.690000", "163039.097500", "163040.887500", "163039.497500", "163041.287500", "163039.695000", "163041.485000", "163039.895000", "163041.685000", "163040.092500", "163041.882500", "163039.297500", "163041.087500", "163038.502500", "163040.292500", "163038.700000", "163040.490000", "163038.900000", "163040.690000", "163039.097500", "163040.887500", "163039.497500", "163041.287500", "163039.695000", "163041.485000", "163039.895000", "163041.685000", "163040.092500", "163041.882500", "163039.297500", "163044.687500", "163042.102500", "163043.892500", "163042.300000", "163044.090000", "163042.500000", "163044.290000", "163042.697500", "163044.487500", "163043.097500", "163044.887500", "163043.295000", "163045.085000", "163043.495000", "163045.285000", "163043.692500", "163045.482500", "163042.897500", "163044.687500", "163042.102500", "163043.892500", "163042.300000", "163044.090000", "163042.500000", "163044.290000", "163042.697500", "163044.487500", "163043.097500", "163044.887500", "163043.295000", "163045.085000", "163043.495000", "163045.285000", "163043.692500", "163045.482500", "163042.897500", "163044.687500", "163042.102500", "163043.892500", "163042.300000", "163044.090000", "163042.500000", "163044.290000", "163042.697500", "163044.487500", "163043.097500", "163044.887500", "163043.295000", "163045.085000", "163043.495000", "163045.285000", "163043.692500", "163045.482500", "163042.897500", "163044.687500", "163042.102500", "163043.892500", "163042.300000", "163044.090000", "163042.500000", "163044.290000", "163042.697500", "163044.487500", "163043.097500", "163044.887500", "163043.295000", "163045.085000", "163043.495000", "163045.285000", "163043.692500", "163045.482500", "163042.897500", "163048.287500", "163045.702500", "163047.492500", "163045.900000", "163047.690000", "163046.100000", "163047.890000", "163046.297500", "163048.087500", "163046.697500", "163048.487500", "163046.895000", "163048.685000", "163047.095000", "163048.885000", "163047.292500", "163049.082500", "163046.497500", "163048.287500", "163045.702500", "163047.492500", "163045.900000", "163047.690000", "163046.100000", "163047.890000", "163046.297500", "163048.087500", "163046.697500", "163048.487500", "163046.895000", "163048.685000", "163047.095000", "163048.885000", "163047.292500", "163049.082500", "163046.497500", "163048.287500", "163045.702500", "163047.492500", "163045.900000", "163047.690000", "163046.100000", "163047.890000", "163046.297500", "163048.087500", "163046.697500", "163048.487500", "163046.895000", "163048.685000", "163047.095000", "163048.885000", "163047.292500", "163049.082500", "163046.497500", "163048.287500", "163045.702500", "163047.492500", "163045.900000", "163047.690000", "163046.100000", "163047.890000", "163046.297500", "163048.087500", "163046.697500", "163048.487500", "163046.895000", "163048.685000", "163047.095000", "163048.885000", "163047.292500", "163049.082500", "163046.497500", "163051.887500", "163049.302500", "163051.092500", "163049.500000", "163051.290000", "163049.700000", "163051.490000", "163049.897500", "163051.687500", "163050.297500", "163052.087500", "163050.495000", "163052.285000", "163050.695000", "163052.485000", "163050.892500", "163052.682500", "163050.097500", "163051.887500", "163049.302500", "163051.092500", "163049.500000", "163051.290000", "163049.700000", "163051.490000", "163049.897500", "163051.687500", "163050.297500", "163052.087500", "163050.495000", "163052.285000", "163050.695000", "163052.485000", "163050.892500", "163052.682500", "163050.097500", "163051.887500", "163049.302500", "163051.092500", "163049.500000", "163051.290000", "163049.700000", "163051.490000", "163049.897500", "163051.687500", "163050.297500", "163052.087500", "163050.495000", "163052.285000", "163050.695000", "163052.485000", "163050.892500", "163052.682500", "163050.097500", "163051.887500", "163049.302500", "163051.092500", "163049.500000", "163051.290000", "163049.700000", "163051.490000", "163049.897500", "163051.687500", "163050.297500", "163052.087500", "163050.495000", "163052.285000