{
  "AcquisitionMatrixPE": 80,
  "AcquisitionNumber": 1,
  "AcquisitionTime": "08:59:46.590000",
  "BandwidthPerPixelPhaseEncode": 25,
  "BaseResolution": 80,
  "BodyPartExamined": "BRAIN",
  "CoilCombinationMethod": "Sum of Squares",
  "ConsistencyInfo": "N4_VE11C_LATEST_20160120",
  "ConversionSoftware": "dcm2niix",
  "ConversionSoftwareVersion": "v1.0.20220720",
  "DerivedVendorReportedEchoSpacing": 0.0005,
  "DeviceSerialNumber": "66112",
  "DwellTime": 2.7e-06,
  "EchoTime": 0.03,
  "EchoTrainLength": 80,
  "EffectiveEchoSpacing": 0.0005,
  "FlipAngle": 77,
  "HeudiconvVersion": "0.13.1",
  "ImageOrientationPatientDICOM": [1, 0, -4.327e-12, 0, 1, 3.2214e-11],
  "ImageOrientationText": "Tra",
  "ImageType": [
    "ORIGINAL",
    "PRIMARY",
    "M",
    "ND",
    "NORM",
    "MOSAIC"
],
  "ImagingFrequency": 123.252,
  "InPlanePhaseEncodingDirectionDICOM": "COL",
  "InstitutionAddress": "Maynard 3,Hanover,NH,US,03755",
  "InstitutionName": "Dartmouth College - PBS",
  "InstitutionalDepartmentName": "Department",
  "MRAcquisitionType": "2D",
  "MagneticFieldStrength": 3,
  "Manufacturer": "Siemens",
  "ManufacturersModelName": "Prisma",
  "MatrixCoilMode": "SENSE",
  "Modality": "MR",
  "NonlinearGradientCorrection": false,
  "PartialFourier": 1,
  "PatientPosition": "HFS",
  "PercentPhaseFOV": 100,
  "PercentSampling": 100,
  "PhaseEncodingDirection": "j-",
  "PhaseEncodingSteps": 80,
  "PhaseResolution": 1,
  "PixelBandwidth": 2315,
  "ProcedureStepDescription": "dbic^QA",
  "ProtocolName": "func-bold_fa-77",
  "PulseSequenceDetails": "%SiemensSeq%\\ep2d_bold",
  "ReceiveCoilActiveElements": "HC1-7;NC1,2",
  "ReceiveCoilName": "HeadNeck_64",
  "ReconMatrixPE": 80,
  "RepetitionTime": 2,
  "SAR": 0.0265761,
  "ScanOptions": "FS",
  "ScanningSequence": "EP",
  "SequenceName": "*epfid2d1_80",
  "SequenceVariant": "SK",
  "SeriesDescription": "func-bold_fa-77",
  "SeriesNumber": 7,
  "ShimSetting": [4142, -7664, -7510, 194, -63, -404, -72, 102],
  "SliceThickness": 3.5,
  "SliceTiming": [0.99, 0, 1.0575, 0.0675, 1.1225, 0.1325, 1.1875, 0.2, 1.255, 0.265, 1.32, 0.33, 1.3875, 0.3975, 1.4525, 0.4625, 1.5175, 0.53, 1.585, 0.595, 1.65, 0.66, 1.7175, 0.7275, 1.7825, 0.7925, 1.8475, 0.86, 1.915, 0.925],
  "SoftwareVersions": "syngo MR E11",
  "SpacingBetweenSlices": 3.99,
  "StationName": "AWP66112",
  "TotalReadoutTime": 0.0395,
  "TxRefAmp": 222.666,
  "dcmmeta_affine": [
    [-3.0, 0.0, -1.7264729576527138e-11, 120.0],
    [0.0, 3.0, 1.2853386410771606e-10, -112.5254135131836],
    [-1.2980999955503059e-11, -9.664199995818024e-11, 3.990000009536743, -92.40282440185547],
    [0.0, 0.0, 0.0, 1.0]
],
  "dcmmeta_reorient_transform": [
    [0.0, -1.0, 0.0, 79.0],
    [1.0, 0.0, 0.0, 0.0],
    [0.0, 0.0, 1.0, 0.0],
    [0.0, 0.0, 0.0, 1.0]
],
  "dcmmeta_shape": [80, 80, 30, 200],
  "dcmmeta_slice_dim": 2,
  "dcmmeta_version": 0.6,
  "global": {
    "const": {
      "AccessionNumber": "qa64",
      "AcquisitionMatrix": [80, 0, 0, 80],
      "AngioFlag": "N",
      "BitsAllocated": 16,
      "BitsStored": 12,
      "BodyPartExamined": "BRAIN",
      "Columns": 480,
      "EchoNumbers": 1,
      "EchoTime": 30.0,
      "EchoTrainLength": 80,
      "FlipAngle": 77.0,
      "HighBit": 11,
      "ImageOrientationPatient": [1.0, 0.0, -4.327e-12, 0.0, 1.0, 3.2214e-11],
      "ImagePositionPatient": [-720.00000000016, -724.474588871, -92.402824421934],
      "ImageType": [
        "ORIGINAL",
        "PRIMARY",
        "M",
        "ND",
        "NORM",
        "MOSAIC"
],
      "ImagedNucleus": "1H",
      "ImagingFrequency": 123.252377,
      "InPlanePhaseEncodingDirection": "COL",
      "MRAcquisitionType": "2D",
      "MagneticFieldStrength": 3.0,
      "Manufacturer": "SIEMENS",
      "ManufacturerModelName": "Prisma",
      "Modality": "MR",
      "NumberOfAverages": 1.0,
      "NumberOfPhaseEncodingSteps": 80,
      "PercentPhaseFieldOfView": 100.0,
      "PercentSampling": 100.0,
      "PerformedProcedureStepStartTime": "085112.238000",
      "PhotometricInterpretation": "MONOCHROME2",
      "PixelBandwidth": 2315.0,
      "PixelRepresentation": 0,
      "PixelSpacing": [3.0, 3.0],
      "ProtocolName": "func-bold_fa-77",
      "RepetitionTime": 2000.0,
      "Rows": 480,
      "SAR": 0.02657606348721,
      "SamplesPerPixel": 1,
      "ScanOptions": "FS",
      "ScanningSequence": "EP",
      "SequenceName": "*epfid2d1_80",
      "SequenceVariant": "SK",
      "SeriesDescription": "func-bold_fa-77",
      "SeriesNumber": 7,
      "SeriesTime": "090030.166000",
      "SliceLocation": -92.402824401711,
      "SliceThickness": 3.5,
      "SmallestImagePixelValue": 0,
      "SoftwareVersions": "syngo MR E11",
      "SpacingBetweenSlices": 3.9899999684301,
      "SpecificCharacterSet": "ISO_IR 100",
      "StudyID": "9",
      "StudyTime": "085112.161000",
      "TransmitCoilName": "Body",
      "VariableFlipAngleFlag": "N",
      "WindowCenterWidthExplanation": "Algo1",
      "dBdt": 0.0},
    "slices": {}
  },
  "time": {
    "samples": {
      "AcquisitionNumber": [1, 2, 3, 4, 5, 6, 7, 8, 9, 10, 11, 12, 13, 14, 15, 16, 17, 18, 19, 20, 21, 22, 23, 24, 25, 26, 27, 28, 29, 30, 31, 32, 33, 34, 35, 36, 37, 38, 39, 40, 41, 42, 43, 44, 45, 46, 47, 48, 49, 50, 51, 52, 53, 54, 55, 56, 57, 58, 59, 60, 61, 62, 63, 64, 65, 66, 67, 68, 69, 70, 71, 72, 73, 74, 75, 76, 77, 78, 79, 80, 81, 82, 83, 84, 85, 86, 87, 88, 89, 90, 91, 92, 93, 94, 95, 96, 97, 98, 99, 100, 101, 102, 103, 104, 105, 106, 107, 108, 109, 110, 111, 112, 113, 114, 115, 116, 117, 118, 119, 120, 121, 122, 123, 124, 125, 126, 127, 128, 129, 130, 131, 132, 133, 134, 135, 136, 137, 138, 139, 140, 141, 142, 143, 144, 145, 146, 147, 148, 149, 150, 151, 152, 153, 154, 155, 156, 157, 158, 159, 160, 161, 162, 163, 164, 165, 166, 167, 168, 169, 170, 171, 172, 173, 174, 175, 176, 177, 178, 179, 180, 181, 182, 183, 184, 185, 186, 187, 188, 189, 190, 191, 192, 193, 194, 195, 196, 197, 198, 199, 200],
      "AcquisitionTime": ["085946.590000", "085948.590000", "085950.590000", "085952.590000", "085954.590000", "085956.590000", "085958.590000", "090000.590000", "090002.590000", "090004.590000", "090006.590000", "090008.590000", "090010.590000", "090012.590000", "090014.590000", "090016.590000", "090018.590000", "090020.590000", "090022.590000", "090024.590000", "090026.590000", "090028.590000", "090030.590000", "090032.590000", "090034.590000", "090036.590000", "090038.590000", "090040.590000", "090042.590000", "090044.590000", "090046.590000", "090048.590000", "090050.590000", "090052.590000", "090054.590000", "090056.590000", "090058.590000", "090100.590000", "090102.590000", "090104.590000", "090106.590000", "090108.590000", "090110.590000", "090112.590000", "090114.590000", "090116.590000", "090118.590000", "090120.590000", "090122.590000", "090124.590000", "090126.590000", "090128.590000", "090130.590000", "090132.590000", "090134.590000", "090136.590000", "090138.590000", "090140.590000", "090142.590000", "090144.590000", "090146.590000", "090148.590000", "090150.590000", "090152.590000", "090154.590000", "090156.590000", "090158.590000", "090200.590000", "090202.590000", "090204.590000", "090206.590000", "090208.590000", "090210.590000", "090212.590000", "090214.590000", "090216.590000", "090218.590000", "090220.590000", "090222.590000", "090224.590000", "090226.590000", "090228.590000", "090230.590000", "090232.590000", "090234.590000", "090236.590000", "090238.590000", "090240.590000", "090242.590000", "090244.590000", "090246.590000", "090248.590000", "090250.590000", "090252.590000", "090254.590000", "090256.590000", "090258.590000", "090300.590000", "090302.590000", "090304.590000", "090306.590000", "090308.590000", "090310.590000", "090312.590000", "090314.590000", "090316.590000", "090318.590000", "090320.590000", "090322.590000", "090324.590000", "090326.590000", "090328.590000", "090330.590000", "090332.590000", "090334.590000", "090336.590000", "090338.590000", "090340.590000", "090342.590000", "090344.590000", "090346.590000", "090348.590000", "090350.590000", "090352.590000", "090354.590000", "090356.590000", "090358.590000", "090400.590000", "090402.590000", "090404.590000", "090406.590000", "090408.590000", "090410.590000", "090412.590000", "090414.590000", "090416.590000", "090418.590000", "090420.590000", "090422.590000", "090424.590000", "090426.590000", "090428.590000", "090430.590000", "090432.590000", "090434.590000", "090436.590000", "090438.590000", "090440.590000", "090442.590000", "090444.590000", "090446.590000", "090448.590000", "090450.590000", "090452.590000", "090454.590000", "090456.590000", "090458.590000", "090500.590000", "090502.590000", "090504.590000", "090506.590000", "090508.590000", "090510.590000", "090512.590000", "090514.590000", "090516.590000", "090518.590000", "090520.590000", "090522.590000", "090524.590000", "090526.590000", "090528.590000", "090530.590000", "090532.590000", "090534.590000", "090536.590000", "090538.590000", "090540.590000", "090542.590000", "090544.590000", "090546.590000", "090548.590000", "090550.590000", "090552.590000", "090554.590000", "090556.590000", "090558.590000", "090600.590000", "090602.590000", "090604.590000", "090606.590000", "090608.590000", "090610.590000", "090612.590000", "090614.590000", "090616.590000", "090618.590000", "090620.590000", "090622.590000", "090624.590000"],
      "ContentTime": ["090030.169000", "090030.173000", "090030.175000", "090030.178000", "090030.180000", "090030.183000", "090030.185000", "090030.188000", "090030.191000", "090030.193000", "090030.204000", "090030.207000", "090030.209000", "090030.212000", "090030.214000", "090030.217000", "090030.220000", "090030.222000", "090030.225000", "090030.227000", "090030.230000", "090110.164000", "090110.167000", "090110.170000", "090110.172000", "090110.175000", "090110.178000", "090110.180000", "090110.183000", "090110.186000", "090110.188000", "090110.191000", "090110.193000", "090110.196000", "090110.199000", "090110.201000", "090110.204000", "090110.206000", "090110.209000", "090110.211000", "090110.214000", "090150.163000", "090150.166000", "090150.169000", "090150.171000", "090150.174000", "090150.177000", "090150.179000", "090150.182000", "090150.184000", "090150.187000", "090150.190000", "090150.192000", "090150.195000", "090150.197000", "090150.200000", "090150.202000", "090150.205000", "090150.208000", "090150.210000", "090150.213000", "090230.163000", "090230.166000", "090230.169000", "090230.171000", "090230.174000", "090230.191000", "090230.194000", "090230.196000", "090230.199000", "090230.202000", "090230.204000", "090230.207000", "090230.209000", "090230.212000", "090230.214000", "090230.217000", "090230.220000", "090230.222000", "090230.225000", "090230.227000", "090310.164000", "090310.167000", "090310.170000", "090310.173000", "090310.175000", "090310.178000", "090310.180000", "090310.183000", "090310.186000", "090310.188000", "090310.191000", "090310.194000", "090310.196000", "090310.199000", "090310.201000", "090310.204000", "090310.207000", "090310.209000", "090310.212000", "090310.214000", "090350.164000", "090350.167000", "090350.170000", "090350.172000", "090350.175000", "090350.178000", "090350.180000", "090350.183000", "090350.186000", "090350.188000", "090350.191000", "090350.193000", "090350.196000", "090350.199000", "090350.201000", "090350.204000", "090350.206000", "090350.209000", "090350.211000", "090350.214000", "090430.164000", "090430.166000", "090430.169000", "090430.171000", "090430.174000", "090430.177000", "090430.179000", "090430.182000", "090430.185000", "090430.187000", "090430.190000", "090430.192000", "090430.195000", "090430.198000", "090430.200000", "090430.203000", "090430.205000", "090430.208000", "090430.210000", "090430.213000", "090510.164000", "090510.167000", "090510.170000", "090510.172000", "090510.175000", "090510.178000", "090510.180000", "090510.183000", "090510.186000", "090510.188000", "090510.191000", "090510.193000", "090510.196000", "090510.199000", "090510.201000", "090510.204000", "090510.207000", "090510.209000", "090510.212000", "090510.214000", "090550.164000", "090550.167000", "090550.177000", "090550.179000", "090550.182000", "090550.185000", "090550.187000", "090550.190000", "090550.192000", "090550.195000", "090550.198000", "090550.200000", "090550.203000", "090550.205000", "090550.208000", "090550.211000", "090550.213000", "090550.216000", "090550.218000", "090550.221000", "090626.473000", "090626.476000", "090626.479000", "090626.481000", "090626.484000", "090626.487000", "090626.489000", "090626.492000", "090626.495000", "090626.497000", "090626.500000", "090626.508000", "090626.515000", "090626.518000", "090626.521000", "090626.524000", "090626.528000", "090626.531000", "090626.534000"],
      "InstanceCreationTime": ["090030.169000", "090030.173000", "090030.175000", "090030.178000", "090030.180000", "090030.183000", "090030.185000", "090030.188000", "090030.191000", "090030.193000", "090030.204000", "090030.207000", "090030.209000", "090030.212000", "090030.214000", "090030.217000", "090030.220000", "090030.222000", "090030.225000", "090030.227000", "090030.230000", "090110.164000", "090110.167000", "090110.170000", "090110.172000", "090110.175000", "090110.178000", "090110.180000", "090110.183000", "090110.186000", "090110.188000", "090110.191000", "090110.193000", "090110.196000", "090110.199000", "090110.201000", "090110.204000", "090110.206000", "090110.209000", "090110.211000", "090110.214000", "090150.163000", "090150.166000", "090150.169000", "090150.171000", "090150.174000", "090150.177000", "090150.179000", "090150.182000", "090150.184000", "090150.187000", "090150.190000", "090150.192000", "090150.195000", "090150.197000", "090150.200000", "090150.202000", "090150.205000", "090150.208000", "090150.210000", "090150.213000", "090230.163000", "090230.166000", "090230.169000", "090230.171000", "090230.174000", "090230.191000", "090230.194000", "090230.196000", "090230.199000", "090230.202000", "090230.204000", "090230.207000", "090230.209000", "090230.212000", "090230.214000", "090230.217000", "090230.220000", "090230.222000", "090230.225000", "090230.227000", "090310.164000", "090310.167000", "090310.170000", "090310.173000", "090310.175000", "090310.178000", "090310.180000", "090310.183000", "090310.186000", "090310.188000", "090310.191000", "090310.194000", "090310.196000", "090310.199000", "090310.201000", "090310.204000", "090310.207000", "090310.209000", "090310.212000", "090310.214000", "090350.164000", "090350.167000", "090350.170000", "090350.172000", "090350.175000", "090350.178000", "090350.180000", "090350.183000", "090350.186000", "090350.188000", "090350.191000", "090350.193000", "090350.196000", "090350.199000", "090350.201000", "090350.204000", "090350.206000", "090350.209000", "090350.211000", "090350.214000", "090430.164000", "090430.166000", "090430.169000", "090430.171000", "090430.174000", "090430.177000", "090430.179000", "090430.182000", "090430.185000", "090430.187000", "090430.190000", "090430.192000", "090430.195000", "090430.198000", "090430.200000", "090430.203000", "090430.205000", "090430.208000", "090430.210000", "090430.213000", "090510.164000", "090510.167000", "090510.170000", "090510.172000", "090510.175000", "090510.178000", "090510.180000", "090510.183000", "090510.186000", "090510.188000", "090510.191000", "090510.193000", "090510.196000", "090510.199000", "090510.201000", "090510.204000", "090510.207000", "090510.209000", "090510.212000", "090510.214000", "090550.164000", "090550.167000", "090550.177000", "090550.179000", "090550.182000", "090550.185000", "090550.187000", "090550.190000", "090550.192000", "090550.195000", "090550.198000", "090550.200000", "090550.203000", "090550.205000", "090550.208000", "090550.211000", "090550.213000", "090550.216000", "090550.218000", "090550.221000", "090626.473000", "090626.476000", "090626.479000", "090626.481000", "090626.484000", "090626.487000", "090626.489000", "090626.492000", "090626.495000", "090626.497000", "090626.500000", "090626.508000", "090626.515000", "090626.518000", "090626.521000", "090626.524000", "090626.528000", "090626.531000", "090626.534000"],
      "InstanceNumber": [1, 2, 3, 4, 5, 6, 7, 8, 9, 10, 11, 12, 13, 14, 15, 16, 17, 18, 19, 20, 21, 22, 23, 24, 25, 26, 27, 28, 29, 30, 31, 32, 33, 34, 35, 36, 37, 38, 39, 40, 41, 42, 43, 44, 45, 46, 47, 48, 49, 50, 51, 52, 53, 54, 55, 56, 57, 58, 59, 60, 61, 62, 63, 64, 65, 66, 67, 68, 69, 70, 71, 72, 73, 74, 75, 76, 77, 78, 79, 80, 81, 82, 83, 84, 85, 86, 87, 88, 89, 90, 91, 92, 93, 94, 95, 96, 97, 98, 99, 100, 101, 102, 103, 104, 105, 106, 107, 108, 109, 110, 111, 112, 113, 114, 115, 116, 117, 118, 119, 120, 121, 122, 123, 124, 125, 126, 127, 128, 129, 130, 131, 132, 133, 134, 135, 136, 137, 138, 139, 140, 141, 142, 143, 144, 145, 146, 147, 148, 149, 150, 151, 152, 153, 154, 155, 156, 157, 158, 159, 160, 161, 162, 163, 164, 165, 166, 167, 168, 169, 170, 171, 172, 173, 174, 175, 176, 177, 178, 179, 180, 181, 182, 183, 184, 185, 186, 187, 188, 189, 190, 191, 192, 193, 194, 195, 196, 197, 198, 199, 200],
      "LargestImagePixelValue": [4079, 4077, 4075, 4079, 4077, 4077, 4074, 4077, 4079, 4070, 4067, 4073, 4070, 4071, 4067, 4070, 4072, 4070, 4069, 4067, 4072, 4071, 4068, 4075, 4073, 4071, 4071, 4071, 4072, 4068, 4066, 4064, 4063, 4067, 4061, 4064, 4063, 4067, 4069, 4073, 4076, 4072, 4079, 4078, 4078, 4085, 4084, 4082, 4082, 4085, 4076, 4073, 4066, 4061, 4052, 4032, 4033, 4017, 4004, 4000, 4007, 4007, 3998, 3982, 3975, 3974, 3978, 3983, 3980, 3980, 3975, 3979, 3982, 3981, 3983, 3983, 3989, 3989, 3991, 3994, 3993, 3995, 4000, 3999, 3995, 3997, 3999, 3998, 4003, 4006, 4003, 4010, 4005, 4005, 4009, 4006, 4009, 4007, 4002, 4011, 4005, 4012, 4005, 4015, 4000, 4009, 4003, 4005, 4000, 4014, 4005, 4021, 4011, 4005, 3999, 4017, 3993, 4008, 3985, 4003, 3994, 3990, 3997, 3979, 3997, 3976, 4000, 3981, 3997, 3984, 3998, 3985, 3999, 3983, 3988, 3982, 3990, 3989, 3988, 3994, 3989, 3980, 3985, 3980, 3984, 3989, 3985, 3984, 3988, 3983, 3988, 3982, 3991, 3987, 3983, 3986, 3996, 3992, 3994, 3989, 4001, 3992, 4005, 3995, 4009, 3997, 4009, 4004, 4008, 4002, 4004, 4001, 4008, 4001, 4006, 4005, 4007, 4003, 4004, 4003, 4006, 4009, 4003, 4005, 4002, 4003, 4007, 4001, 4004, 3998, 4016, 4002, 4012, 4018, 4028, 4028, 4026, 4029, 4033, 4027],
      "WindowCenter": [1403.0, 1403.0, 1403.0, 1404.0, 1403.0, 1403.0, 1403.0, 1403.0, 1404.0, 1402.0, 1403.0, 1402.0, 1403.0, 1401.0, 1402.0, 1402.0, 1402.0, 1402.0, 1401.0, 1402.0, 1402.0, 1401.0, 1401.0, 1402.0, 1402.0, 1402.0, 1402.0, 1401.0, 1401.0, 1402.0, 1402.0, 1401.0, 1401.0, 1401.0, 1401.0, 1401.0, 1402.0, 1401.0, 1401.0, 1401.0, 1401.0, 1402.0, 1401.0, 1401.0, 1401.0, 1401.0, 1401.0, 1401.0, 1401.0, 1401.0, 1400.0, 1401.0, 1401.0, 1401.0, 1401.0, 1401.0, 1400.0, 1401.0, 1401.0, 1401.0, 1401.0, 1401.0, 1401.0, 1401.0, 1398.0, 1398.0, 1398.0, 1398.0, 1398.0, 1398.0, 1398.0, 1397.0, 1398.0, 1398.0, 1397.0, 1397.0, 1397.0, 1397.0, 1397.0, 1397.0, 1397.0, 1397.0, 1397.0, 1397.0, 1397.0, 1398.0, 1397.0, 1397.0, 1397.0, 1397.0, 1397.0, 1397.0, 1397.0, 1397.0, 1397.0, 1397.0, 1397.0, 1397.0, 1397.0, 1397.0, 1396.0, 1396.0, 1397.0, 1397.0, 1396.0, 1396.0, 1397.0, 1397.0, 1397.0, 1396.0, 1396.0, 1396.0, 1396.0, 1396.0, 1396.0, 1396.0, 1396.0, 1396.0, 1396.0, 1396.0, 1396.0, 1396.0, 1395.0, 1396.0, 1396.0, 1396.0, 1396.0, 1396.0, 1396.0, 1396.0, 1396.0, 1396.0, 1396.0, 1396.0, 1395.0, 1396.0, 1396.0, 1396.0, 1396.0, 1396.0, 1396.0, 1396.0, 1396.0, 1396.0, 1396.0, 1395.0, 1395.0, 1395.0, 1395.0, 1395.0, 1396.0, 1395.0, 1395.0, 1396.0, 1395.0, 1395.0, 1396.0, 1396.0, 1395.0, 1395.0, 1395.0, 1395.0, 1395.0, 1395.0, 1396.0, 1395.0, 1395.0, 1395.0, 1395.0, 1395.0, 1395.0, 1394.0, 1394.0, 1395.0, 1394.0, 1394.0, 1394.0, 1394.0, 1394.0, 1394.0, 1395.0, 1394.0, 1395.0, 1395.0, 1394.0, 1394.0, 1395.0, 1394.0, 1394.0, 1394.0, 1394.0, 1394.0, 1394.0, 1394.0, 1395.0, 1394.0, 1394.0, 1394.0, 1394.0, 1394.0],
      "WindowWidth": [3331.0, 3331.0, 3331.0, 3331.0, 3331.0, 3331.0, 3331.0, 3331.0, 3331.0, 3330.0, 3329.0, 3330.0, 3329.0, 3329.0, 3329.0, 3329.0, 3329.0, 3329.0, 3329.0, 3329.0, 3329.0, 3329.0, 3329.0, 3329.0, 3329.0, 3329.0, 3329.0, 3329.0, 3329.0, 3329.0, 3329.0, 3329.0, 3329.0, 3329.0, 3329.0, 3329.0, 3328.0, 3329.0, 3329.0, 3329.0, 3329.0, 3328.0, 3328.0, 3328.0, 3328.0, 3328.0, 3328.0, 3329.0, 3328.0, 3328.0, 3329.0, 3328.0, 3328.0, 3328.0, 3328.0, 3328.0, 3328.0, 3328.0, 3328.0, 3328.0, 3328.0, 3328.0, 3328.0, 3326.0, 3323.0, 3323.0, 3323.0, 3323.0, 3323.0, 3323.0, 3323.0, 3324.0, 3323.0, 3323.0, 3323.0, 3323.0, 3323.0, 3323.0, 3323.0, 3323.0, 3323.0, 3323.0, 3323.0, 3323.0, 3323.0, 3322.0, 3322.0, 3322.0, 3322.0, 3323.0, 3322.0, 3323.0, 3323.0, 3322.0, 3323.0, 3323.0, 3322.0, 3322.0, 3322.0, 3322.0, 3323.0, 3323.0, 3322.0, 3322.0, 3323.0, 3323.0, 3322.0, 3322.0, 3322.0, 3322.0, 3322.0, 3322.0, 3322.0, 3322.0, 3322.0, 3322.0, 3322.0, 3322.0, 3322.0, 3322.0, 3322.0, 3322.0, 3322.0, 3322.0, 3322.0, 3322.0, 3322.0, 3322.0, 3322.0, 3322.0, 3322.0, 3321.0, 3321.0, 3321.0, 3322.0, 3321.0, 3321.0, 3321.0, 3321.0, 3321.0, 3321.0, 3321.0, 3321.0, 3321.0, 3321.0, 3321.0, 3321.0, 3321.0, 3321.0, 3321.0, 3321.0, 3321.0, 3321.0, 3321.0, 3321.0, 3321.0, 3321.0, 3321.0, 3321.0, 3321.0, 3321.0, 3321.0, 3321.0, 3321.0, 3321.0, 3321.0, 3321.0, 3321.0, 3321.0, 3321.0, 3321.0, 3321.0, 3321.0, 3321.0, 3321.0, 3321.0, 3321.0, 3321.0, 3321.0, 3321.0, 3320.0, 3321.0, 3320.0, 3320.0, 3320.0, 3320.0, 3320.0, 3320.0, 3320.0, 3320.0, 3320.0, 3320.0, 3320.0, 3320.0, 3320.0, 3320.0, 3320.0, 3320.0, 3320.0, 3320.0]
    },
    "slices": {}
  }
}