{
  "AcquisitionMatrixPE": 80,
  "AcquisitionNumber": 1,
  "AcquisitionTime": "08:52:55.265000",
  "BandwidthPerPixelPhaseEncode": 48.077,
  "BaseResolution": 80,
  "BodyPartExamined": "BRAIN",
  "CoilCombinationMethod": "Sum of Squares",
  "ConsistencyInfo": "N4_VE11C_LATEST_20160120",
  "ConversionSoftware": "dcm2niix",
  "ConversionSoftwareVersion": "v1.0.20220720",
  "DerivedVendorReportedEchoSpacing": 0.000519999,
  "DeviceSerialNumber": "66112",
  "DwellTime": 2.7e-06,
  "EchoTime": 0.035,
  "EchoTrainLength": 39,
  "EffectiveEchoSpacing": 0.00026,
  "FlipAngle": 90,
  "HeudiconvVersion": "0.13.1",
  "ImageOrientationPatientDICOM": [1, 0, -3.645e-12, 0, 1, 2.0906e-11],
  "ImageOrientationText": "Tra",
  "ImageType": [
    "ORIGINAL",
    "PRIMARY",
    "M",
    "ND",
    "NORM",
    "MOSAIC"
],
  "ImagingFrequency": 123.252,
  "InPlanePhaseEncodingDirectionDICOM": "COL",
  "InstitutionAddress": "Maynard 3,Hanover,NH,US,03755",
  "InstitutionName": "Dartmouth College - PBS",
  "InstitutionalDepartmentName": "Department",
  "MRAcquisitionType": "2D",
  "MagneticFieldStrength": 3,
  "Manufacturer": "Siemens",
  "ManufacturersModelName": "Prisma",
  "MatrixCoilMode": "GRAPPA",
  "Modality": "MR",
  "NonlinearGradientCorrection": false,
  "ParallelReductionFactorInPlane": 2,
  "PartialFourier": 1,
  "PatientPosition": "HFS",
  "PercentPhaseFOV": 100,
  "PercentSampling": 100,
  "PhaseEncodingDirection": "j-",
  "PhaseEncodingSteps": 79,
  "PhaseResolution": 1,
  "PixelBandwidth": 2315,
  "ProcedureStepDescription": "dbic^QA",
  "ProtocolName": "func-bold_task-rest_acq-p2",
  "PulseSequenceDetails": "%SiemensSeq%\\ep2d_bold",
  "ReceiveCoilActiveElements": "HC1-7;NC1,2",
  "ReceiveCoilName": "HeadNeck_64",
  "ReconMatrixPE": 80,
  "RefLinesPE": 24,
  "RepetitionTime": 2,
  "SAR": 0.0338182,
  "ScanOptions": "FS",
  "ScanningSequence": "EP",
  "SequenceName": "*epfid2d1_80",
  "SequenceVariant": "SK",
  "SeriesDescription": "func-bold_task-rest_acq-p2",
  "SeriesNumber": 5,
  "ShimSetting": [4142, -7663, -7510, 193, -63, -415, -72, 102],
  "SliceThickness": 3.5,
  "SliceTiming": [0.99, 0, 1.055, 0.065, 1.1225, 0.1325, 1.1875, 0.1975, 1.2525, 0.2625, 1.32, 0.33, 1.385, 0.395, 1.4525, 0.4625, 1.5175, 0.5275, 1.5825, 0.5925, 1.65, 0.66, 1.715, 0.725, 1.7825, 0.7925, 1.8475, 0.8575, 1.9125, 0.9225],
  "SoftwareVersions": "syngo MR E11",
  "SpacingBetweenSlices": 3.99,
  "StationName": "AWP66112",
  "TaskName": "rest",
  "TotalReadoutTime": 0.02054,
  "TxRefAmp": 222.666,
  "dcmmeta_affine": [
    [-3.0, 0.0, -1.4543550391765692e-11, 121.91999816894531],
    [0.0, 3.0, 8.34149416206742e-11, -108.68738555908203],
    [-1.0935000301082187e-11, -6.271799746215834e-11, 3.990000009536743, -88.5617904663086],
    [0.0, 0.0, 0.0, 1.0]
],
  "dcmmeta_reorient_transform": [
    [0.0, -1.0, 0.0, 79.0],
    [1.0, 0.0, 0.0, 0.0],
    [0.0, 0.0, 1.0, 0.0],
    [0.0, 0.0, 0.0, 1.0]
],
  "dcmmeta_shape": [80, 80, 30, 200],
  "dcmmeta_slice_dim": 2,
  "dcmmeta_version": 0.6,
  "global": {
    "const": {
      "AccessionNumber": "qa64",
      "AcquisitionMatrix": [80, 0, 0, 80],
      "AngioFlag": "N",
      "BitsAllocated": 16,
      "BitsStored": 12,
      "BodyPartExamined": "BRAIN",
      "Columns": 480,
      "EchoNumbers": 1,
      "EchoTime": 35.0,
      "EchoTrainLength": 39,
      "FlipAngle": 90.0,
      "HighBit": 11,
      "ImageOrientationPatient": [1.0, 0.0, -3.645e-12, 0.0, 1.0, 2.0906e-11],
      "ImagePositionPatient": [-721.92000007629, -728.31261634827, -88.561790478737],
      "ImageType": [
        "ORIGINAL",
        "PRIMARY",
        "M",
        "ND",
        "NORM",
        "MOSAIC"
],
      "ImagedNucleus": "1H",
      "ImagingFrequency": 123.25238,
      "InPlanePhaseEncodingDirection": "COL",
      "MRAcquisitionType": "2D",
      "MagneticFieldStrength": 3.0,
      "Manufacturer": "SIEMENS",
      "ManufacturerModelName": "Prisma",
      "Modality": "MR",
      "NumberOfAverages": 1.0,
      "NumberOfPhaseEncodingSteps": 79,
      "PercentPhaseFieldOfView": 100.0,
      "PercentSampling": 100.0,
      "PerformedProcedureStepStartTime": "085112.238000",
      "PhotometricInterpretation": "MONOCHROME2",
      "PixelBandwidth": 2315.0,
      "PixelRepresentation": 0,
      "PixelSpacing": [3.0, 3.0],
      "ProtocolName": "func-bold_task-rest_acq-p2",
      "RepetitionTime": 2000.0,
      "Rows": 480,
      "SAR": 0.03381824508768,
      "SamplesPerPixel": 1,
      "ScanOptions": "FS",
      "ScanningSequence": "EP",
      "SequenceName": "*epfid2d1_80",
      "SequenceVariant": "SK",
      "SeriesDescription": "func-bold_task-rest_acq-p2",
      "SeriesNumber": 5,
      "SeriesTime": "085350.097000",
      "SliceLocation": -88.561790466142,
      "SliceThickness": 3.5,
      "SmallestImagePixelValue": 0,
      "SoftwareVersions": "syngo MR E11",
      "SpacingBetweenSlices": 3.9900000999714,
      "SpecificCharacterSet": "ISO_IR 100",
      "StudyID": "9",
      "StudyTime": "085112.161000",
      "TransmitCoilName": "Body",
      "VariableFlipAngleFlag": "N",
      "WindowCenterWidthExplanation": "Algo1",
      "dBdt": 0.0},
    "slices": {}
  },
  "time": {
    "samples": {
      "AcquisitionNumber": [1, 2, 3, 4, 5, 6, 7, 8, 9, 10, 11, 12, 13, 14, 15, 16, 17, 18, 19, 20, 21, 22, 23, 24, 25, 26, 27, 28, 29, 30, 31, 32, 33, 34, 35, 36, 37, 38, 39, 40, 41, 42, 43, 44, 45, 46, 47, 48, 49, 50, 51, 52, 53, 54, 55, 56, 57, 58, 59, 60, 61, 62, 63, 64, 65, 66, 67, 68, 69, 70, 71, 72, 73, 74, 75, 76, 77, 78, 79, 80, 81, 82, 83, 84, 85, 86, 87, 88, 89, 90, 91, 92, 93, 94, 95, 96, 97, 98, 99, 100, 101, 102, 103, 104, 105, 106, 107, 108, 109, 110, 111, 112, 113, 114, 115, 116, 117, 118, 119, 120, 121, 122, 123, 124, 125, 126, 127, 128, 129, 130, 131, 132, 133, 134, 135, 136, 137, 138, 139, 140, 141, 142, 143, 144, 145, 146, 147, 148, 149, 150, 151, 152, 153, 154, 155, 156, 157, 158, 159, 160, 161, 162, 163, 164, 165, 166, 167, 168, 169, 170, 171, 172, 173, 174, 175, 176, 177, 178, 179, 180, 181, 182, 183, 184, 185, 186, 187, 188, 189, 190, 191, 192, 193, 194, 195, 196, 197, 198, 199, 200],
      "AcquisitionTime": ["085255.265000", "085257.265000", "085259.265000", "085301.265000", "085303.265000", "085305.265000", "085307.265000", "085309.265000", "085311.265000", "085313.265000", "085315.265000", "085317.265000", "085319.265000", "085321.265000", "085323.265000", "085325.265000", "085327.265000", "085329.265000", "085331.265000", "085333.265000", "085335.265000", "085337.265000", "085339.265000", "085341.265000", "085343.265000", "085345.265000", "085347.265000", "085349.265000", "085351.265000", "085353.265000", "085355.265000", "085357.265000", "085359.265000", "085401.265000", "085403.265000", "085405.265000", "085407.265000", "085409.265000", "085411.265000", "085413.265000", "085415.265000", "085417.265000", "085419.265000", "085421.265000", "085423.265000", "085425.265000", "085427.265000", "085429.265000", "085431.265000", "085433.265000", "085435.265000", "085437.265000", "085439.265000", "085441.265000", "085443.265000", "085445.265000", "085447.265000", "085449.265000", "085451.265000", "085453.265000", "085455.265000", "085457.265000", "085459.265000", "085501.265000", "085503.265000", "085505.265000", "085507.265000", "085509.265000", "085511.265000", "085513.265000", "085515.265000", "085517.265000", "085519.265000", "085521.265000", "085523.265000", "085525.265000", "085527.265000", "085529.265000", "085531.265000", "085533.265000", "085535.265000", "085537.265000", "085539.265000", "085541.265000", "085543.265000", "085545.265000", "085547.265000", "085549.265000", "085551.265000", "085553.265000", "085555.265000", "085557.265000", "085559.265000", "085601.265000", "085603.265000", "085605.265000", "085607.265000", "085609.265000", "085611.265000", "085613.265000", "085615.265000", "085617.265000", "085619.265000", "085621.265000", "085623.265000", "085625.265000", "085627.265000", "085629.265000", "085631.265000", "085633.265000", "085635.265000", "085637.265000", "085639.265000", "085641.265000", "085643.265000", "085645.265000", "085647.265000", "085649.265000", "085651.265000", "085653.265000", "085655.265000", "085657.265000", "085659.265000", "085701.265000", "085703.265000", "085705.265000", "085707.265000", "085709.265000", "085711.265000", "085713.265000", "085715.265000", "085717.265000", "085719.265000", "085721.265000", "085723.265000", "085725.265000", "085727.265000", "085729.265000", "085731.265000", "085733.265000", "085735.265000", "085737.265000", "085739.265000", "085741.265000", "085743.265000", "085745.265000", "085747.265000", "085749.265000", "085751.265000", "085753.265000", "085755.265000", "085757.265000", "085759.265000", "085801.265000", "085803.265000", "085805.265000", "085807.265000", "085809.265000", "085811.265000", "085813.265000", "085815.265000", "085817.265000", "085819.265000", "085821.265000", "085823.265000", "085825.265000", "085827.265000", "085829.265000", "085831.265000", "085833.265000", "085835.265000", "085837.265000", "085839.265000", "085841.265000", "085843.265000", "085845.265000", "085847.265000", "085849.265000", "085851.265000", "085853.265000", "085855.265000", "085857.265000", "085859.265000", "085901.265000", "085903.265000", "085905.265000", "085907.265000", "085909.265000", "085911.265000", "085913.265000", "085915.265000", "085917.265000", "085919.265000", "085921.265000", "085923.265000", "085925.265000", "085927.265000", "085929.265000", "085931.265000", "085933.265000"],
      "ContentTime": ["085350.101000", "085350.104000", "085350.107000", "085350.110000", "085350.112000", "085350.115000", "085350.118000", "085350.120000", "085350.123000", "085350.126000", "085350.128000", "085350.131000", "085350.133000", "085350.136000", "085350.139000", "085350.141000", "085350.144000", "085350.146000", "085350.149000", "085350.152000", "085350.154000", "085350.157000", "085350.160000", "085350.162000", "085350.174000", "085350.176000", "085350.179000", "085430.096000", "085430.099000", "085430.101000", "085430.104000", "085430.107000", "085430.109000", "085430.112000", "085430.120000", "085430.123000", "085430.126000", "085430.128000", "085430.131000", "085430.133000", "085430.136000", "085430.139000", "085430.141000", "085430.144000", "085430.146000", "085430.149000", "085430.152000", "085510.095000", "085510.098000", "085510.100000", "085510.103000", "085510.105000", "085510.108000", "085510.111000", "085510.113000", "085510.116000", "085510.119000", "085510.121000", "085510.124000", "085510.127000", "085510.129000", "085510.132000", "085510.134000", "085510.137000", "085510.140000", "085510.142000", "085510.145000", "085550.096000", "085550.099000", "085550.101000", "085550.104000", "085550.106000", "085550.109000", "085550.112000", "085550.114000", "085550.117000", "085550.119000", "085550.122000", "085550.125000", "085550.127000", "085550.130000", "085550.133000", "085550.135000", "085550.138000", "085550.140000", "085550.143000", "085550.145000", "085630.095000", "085630.099000", "085630.101000", "085630.104000", "085630.106000", "085630.109000", "085630.112000", "085630.114000", "085630.117000", "085630.120000", "085630.122000", "085630.125000", "085630.127000", "085630.130000", "085630.133000", "085630.135000", "085630.138000", "085630.141000", "085630.143000", "085630.146000", "085710.095000", "085710.098000", "085710.100000", "085710.103000", "085710.106000", "085710.108000", "085710.111000", "085710.114000", "085710.116000", "085710.119000", "085710.121000", "085710.124000", "085710.127000", "085710.129000", "085710.132000", "085710.135000", "085710.137000", "085710.140000", "085710.142000", "085710.145000", "085750.095000", "085750.098000", "085750.100000", "085750.103000", "085750.105000", "085750.108000", "085750.111000", "085750.113000", "085750.116000", "085750.119000", "085750.121000", "085750.124000", "085750.127000", "085750.129000", "085750.132000", "085750.134000", "085750.137000", "085750.140000", "085750.142000", "085750.145000", "085830.095000", "085830.098000", "085830.101000", "085830.113000", "085830.116000", "085830.118000", "085830.121000", "085830.124000", "085830.126000", "085830.129000", "085830.131000", "085830.134000", "085830.137000", "085830.139000", "085830.142000", "085830.144000", "085830.147000", "085830.150000", "085830.152000", "085830.155000", "085910.096000", "085910.099000", "085910.101000", "085910.104000", "085910.107000", "085910.109000", "085910.112000", "085910.115000", "085910.117000", "085910.120000", "085910.122000", "085910.125000", "085910.128000", "085910.130000", "085910.133000", "085910.136000", "085910.138000", "085910.141000", "085910.148000", "085910.151000", "085934.996000", "085934.999000", "085935.002000", "085935.004000", "085935.007000", "085935.010000", "085935.012000", "085935.015000", "085935.018000", "085935.021000", "085935.023000", "085935.029000", "085935.032000"],
      "InstanceCreationTime": ["085350.101000", "085350.104000", "085350.107000", "085350.110000", "085350.112000", "085350.115000", "085350.118000", "085350.120000", "085350.123000", "085350.126000", "085350.128000", "085350.131000", "085350.133000", "085350.136000", "085350.139000", "085350.141000", "085350.144000", "085350.146000", "085350.149000", "085350.152000", "085350.154000", "085350.157000", "085350.160000", "085350.162000", "085350.174000", "085350.176000", "085350.179000", "085430.096000", "085430.099000", "085430.101000", "085430.104000", "085430.107000", "085430.109000", "085430.112000", "085430.120000", "085430.123000", "085430.126000", "085430.128000", "085430.131000", "085430.133000", "085430.136000", "085430.139000", "085430.141000", "085430.144000", "085430.146000", "085430.149000", "085430.152000", "085510.095000", "085510.098000", "085510.100000", "085510.103000", "085510.105000", "085510.108000", "085510.111000", "085510.113000", "085510.116000", "085510.119000", "085510.121000", "085510.124000", "085510.127000", "085510.129000", "085510.132000", "085510.134000", "085510.137000", "085510.140000", "085510.142000", "085510.145000", "085550.096000", "085550.099000", "085550.101000", "085550.104000", "085550.106000", "085550.109000", "085550.112000", "085550.114000", "085550.117000", "085550.119000", "085550.122000", "085550.125000", "085550.127000", "085550.130000", "085550.133000", "085550.135000", "085550.138000", "085550.140000", "085550.143000", "085550.145000", "085630.095000", "085630.099000", "085630.101000", "085630.104000", "085630.106000", "085630.109000", "085630.112000", "085630.114000", "085630.117000", "085630.120000", "085630.122000", "085630.125000", "085630.127000", "085630.130000", "085630.133000", "085630.135000", "085630.138000", "085630.141000", "085630.143000", "085630.146000", "085710.095000", "085710.098000", "085710.100000", "085710.103000", "085710.106000", "085710.108000", "085710.111000", "085710.114000", "085710.116000", "085710.119000", "085710.121000", "085710.124000", "085710.127000", "085710.129000", "085710.132000", "085710.135000", "085710.137000", "085710.140000", "085710.142000", "085710.145000", "085750.095000", "085750.098000", "085750.100000", "085750.103000", "085750.105000", "085750.108000", "085750.111000", "085750.113000", "085750.116000", "085750.119000", "085750.121000", "085750.124000", "085750.127000", "085750.129000", "085750.132000", "085750.134000", "085750.137000", "085750.140000", "085750.142000", "085750.145000", "085830.095000", "085830.098000", "085830.101000", "085830.113000", "085830.116000", "085830.118000", "085830.121000", "085830.124000", "085830.126000", "085830.129000", "085830.131000", "085830.134000", "085830.137000", "085830.139000", "085830.142000", "085830.144000", "085830.147000", "085830.150000", "085830.152000", "085830.155000", "085910.096000", "085910.099000", "085910.101000", "085910.104000", "085910.107000", "085910.109000", "085910.112000", "085910.115000", "085910.117000", "085910.120000", "085910.122000", "085910.125000", "085910.128000", "085910.130000", "085910.133000", "085910.136000", "085910.138000", "085910.141000", "085910.148000", "085910.151000", "085934.996000", "085934.999000", "085935.002000", "085935.004000", "085935.007000", "085935.010000", "085935.012000", "085935.015000", "085935.018000", "085935.021000", "085935.023000", "085935.029000", "085935.032000"],
      "InstanceNumber": [1, 2, 3, 4, 5, 6, 7, 8, 9, 10, 11, 12, 13, 14, 15, 16, 17, 18, 19, 20, 21, 22, 23, 24, 25, 26, 27, 28, 29, 30, 31, 32, 33, 34, 35, 36, 37, 38, 39, 40, 41, 42, 43, 44, 45, 46, 47, 48, 49, 50, 51, 52, 53, 54, 55, 56, 57, 58, 59, 60, 61, 62, 63, 64, 65, 66, 67, 68, 69, 70, 71, 72, 73, 74, 75, 76, 77, 78, 79, 80, 81, 82, 83, 84, 85, 86, 87, 88, 89, 90, 91, 92, 93, 94, 95, 96, 97, 98, 99, 100, 101, 102, 103, 104, 105, 106, 107, 108, 109, 110, 111, 112, 113, 114, 115, 116, 117, 118, 119, 120, 121, 122, 123, 124, 125, 126, 127, 128, 129, 130, 131, 132, 133, 134, 135, 136, 137, 138, 139, 140, 141, 142, 143, 144, 145, 146, 147, 148, 149, 150, 151, 152, 153, 154, 155, 156, 157, 158, 159, 160, 161, 162, 163, 164, 165, 166, 167, 168, 169, 170, 171, 172, 173, 174, 175, 176, 177, 178, 179, 180, 181, 182, 183, 184, 185, 186, 187, 188, 189, 190, 191, 192, 193, 194, 195, 196, 197, 198, 199, 200],
      "LargestImagePixelValue": [3912, 3908, 3907, 3907, 3902, 3904, 3900, 3917, 3902, 3917, 3907, 3927, 3906, 3909, 3907, 3909, 3916, 3912, 3916, 3910, 3910, 3918, 3908, 3910, 3912, 3911, 3899, 3916, 3906, 3910, 3907, 3903, 3909, 3905, 3910, 3913, 3918, 3904, 3913, 3911, 3909, 3905, 3913, 3908, 3913, 3912, 3908, 3904, 3911, 3916, 3908, 3920, 3918, 3909, 3900, 3913, 3911, 3913, 3910, 3910, 3918, 3907, 3910, 3909, 3902, 3906, 3908, 3913, 3906, 3902, 3905, 3903, 3914, 3903, 3908, 3905, 3911, 3913, 3904, 3913, 3909, 3904, 3907, 3913, 3909, 3906, 3912, 3906, 3910, 3912, 3909, 3913, 3910, 3905, 3905, 3900, 3921, 3903, 3899, 3900, 3911, 3897, 3903, 3911, 3910, 3905, 3910, 3910, 3903, 3900, 3904, 3908, 3913, 3900, 3904, 3905, 3909, 3907, 3911, 3901, 3903, 3899, 3901, 3913, 3899, 3906, 3910, 3902, 3902, 3900, 3896, 3907, 3908, 3902, 3908, 3910, 3915, 3905, 3905, 3903, 3910, 3913, 3909, 3903, 3915, 3905, 3906, 3904, 3909, 3904, 3903, 3912, 3900, 3905, 3897, 3904, 3898, 3897, 3906, 3900, 3905, 3899, 3896, 3897, 3897, 3903, 3901, 3901, 3903, 3898, 3903, 3903, 3910, 3907, 3903, 3898, 3897, 3901, 3905, 3904, 3902, 3902, 3898, 3898, 3898, 3899, 3898, 3892, 3904, 3899, 3906, 3895, 3899, 3897, 3903, 3902, 3902, 3901, 3903, 3904],
      "WindowCenter": [1490.0, 1489.0, 1488.0, 1488.0, 1488.0, 1488.0, 1489.0, 1487.0, 1488.0, 1488.0, 1488.0, 1488.0, 1488.0, 1487.0, 1488.0, 1488.0, 1488.0, 1487.0, 1486.0, 1487.0, 1486.0, 1487.0, 1487.0, 1486.0, 1487.0, 1486.0, 1486.0, 1486.0, 1487.0, 1486.0, 1487.0, 1486.0, 1487.0, 1486.0, 1486.0, 1486.0, 1486.0, 1486.0, 1486.0, 1486.0, 1487.0, 1486.0, 1485.0, 1486.0, 1486.0, 1486.0, 1486.0, 1486.0, 1486.0, 1485.0, 1486.0, 1486.0, 1486.0, 1486.0, 1486.0, 1487.0, 1486.0, 1485.0, 1486.0, 1486.0, 1487.0, 1486.0, 1486.0, 1486.0, 1486.0, 1487.0, 1486.0, 1485.0, 1486.0, 1486.0, 1486.0, 1486.0, 1486.0, 1485.0, 1486.0, 1485.0, 1485.0, 1485.0, 1485.0, 1485.0, 1485.0, 1485.0, 1485.0, 1485.0, 1485.0, 1485.0, 1485.0, 1485.0, 1484.0, 1485.0, 1486.0, 1485.0, 1486.0, 1485.0, 1485.0, 1485.0, 1484.0, 1484.0, 1484.0, 1484.0, 1483.0, 1483.0, 1483.0, 1484.0, 1484.0, 1483.0, 1484.0, 1483.0, 1484.0, 1483.0, 1484.0, 1484.0, 1483.0, 1483.0, 1483.0, 1484.0, 1483.0, 1483.0, 1483.0, 1483.0, 1483.0, 1483.0, 1483.0, 1483.0, 1483.0, 1484.0, 1482.0, 1484.0, 1483.0, 1482.0, 1483.0, 1482.0, 1482.0, 1483.0, 1483.0, 1483.0, 1483.0, 1482.0, 1482.0, 1482.0, 1482.0, 1483.0, 1482.0, 1482.0, 1482.0, 1482.0, 1482.0, 1482.0, 1482.0, 1481.0, 1482.0, 1482.0, 1483.0, 1482.0, 1482.0, 1481.0, 1482.0, 1482.0, 1482.0, 1482.0, 1482.0, 1482.0, 1481.0, 1481.0, 1482.0, 1482.0, 1482.0, 1482.0, 1481.0, 1481.0, 1481.0, 1481.0, 1481.0, 1481.0, 1482.0, 1482.0, 1482.0, 1481.0, 1481.0, 1481.0, 1482.0, 1481.0, 1481.0, 1482.0, 1481.0, 1481.0, 1481.0, 1480.0, 1482.0, 1481.0, 1481.0, 1482.0, 1481.0, 1481.0, 1481.0, 1481.0, 1481.0, 1481.0, 1482.0, 1481.0],
      "WindowWidth": [3359.0, 3358.0, 3359.0, 3358.0, 3358.0, 3358.0, 3358.0, 3358.0, 3357.0, 3357.0, 3358.0, 3357.0, 3357.0, 3358.0, 3357.0, 3357.0, 3357.0, 3358.0, 3358.0, 3357.0, 3358.0, 3357.0, 3357.0, 3357.0, 3357.0, 3357.0, 3357.0, 3357.0, 3357.0, 3357.0, 3357.0, 3357.0, 3356.0, 3357.0, 3356.0, 3356.0, 3356.0, 3356.0, 3356.0, 3356.0, 3356.0, 3356.0, 3356.0, 3356.0, 3356.0, 3356.0, 3356.0, 3356.0, 3355.0, 3355.0, 3355.0, 3355.0, 3356.0, 3355.0, 3355.0, 3355.0, 3354.0, 3355.0, 3354.0, 3354.0, 3354.0, 3354.0, 3354.0, 3354.0, 3354.0, 3354.0, 3354.0, 3354.0, 3354.0, 3354.0, 3354.0, 3354.0, 3354.0, 3354.0, 3354.0, 3354.0, 3353.0, 3354.0, 3353.0, 3353.0, 3353.0, 3354.0, 3353.0, 3353.0, 3353.0, 3353.0, 3353.0, 3353.0, 3354.0, 3354.0, 3353.0, 3353.0, 3353.0, 3353.0, 3353.0, 3353.0, 3353.0, 3352.0, 3352.0, 3352.0, 3352.0, 3352.0, 3352.0, 3352.0, 3352.0, 3352.0, 3352.0, 3352.0, 3352.0, 3352.0, 3352.0, 3352.0, 3352.0, 3352.0, 3352.0, 3351.0, 3352.0, 3352.0, 3352.0, 3352.0, 3352.0, 3352.0, 3352.0, 3352.0, 3352.0, 3351.0, 3352.0, 3351.0, 3351.0, 3351.0, 3351.0, 3351.0, 3351.0, 3351.0, 3351.0, 3351.0, 3351.0, 3351.0, 3351.0, 3351.0, 3351.0, 3351.0, 3351.0, 3351.0, 3351.0, 3351.0, 3351.0, 3351.0, 3350.0, 3351.0, 3351.0, 3351.0, 3350.0, 3351.0, 3351.0, 3351.0, 3350.0, 3350.0, 3350.0, 3350.0, 3350.0, 3350.0, 3350.0, 3350.0, 3350.0, 3350.0, 3350.0, 3350.0, 3350.0, 3350.0, 3350.0, 3350.0, 3350.0, 3350.0, 3350.0, 3350.0, 3349.0, 3350.0, 3350.0, 3350.0, 3349.0, 3350.0, 3349.0, 3349.0, 3349.0, 3349.0, 3349.0, 3350.0, 3349.0, 3349.0, 3349.0, 3349.0, 3349.0, 3349.0, 3349.0, 3349.0, 3349.0, 3349.0, 3349.0, 3349.0]
    },
    "slices": {}
  }
}