{
  "AcquisitionMatrixPE": 80,
  "AcquisitionNumber": 1,
  "AcquisitionTime": "09:57:58.830000",
  "BandwidthPerPixelPhaseEncode": 48.077,
  "BaseResolution": 80,
  "BodyPartExamined": "BRAIN",
  "CoilCombinationMethod": "Sum of Squares",
  "ConsistencyInfo": "N4_VE11C_LATEST_20160120",
  "ConversionSoftware": "dcm2niix",
  "ConversionSoftwareVersion": "v1.0.20220720",
  "DerivedVendorReportedEchoSpacing": 0.000519999,
  "DeviceSerialNumber": "66112",
  "DwellTime": 2.7e-06,
  "EchoTime": 0.035,
  "EchoTrainLength": 39,
  "EffectiveEchoSpacing": 0.00026,
  "FlipAngle": 90,
  "HeudiconvVersion": "0.13.1",
  "ImageOrientationPatientDICOM": [0.999896, 0.014453, 0.000333064, -0.0137875, 0.946421, 0.322642],
  "ImageOrientationText": "Tra>Cor(18.8)>Sag(-0.2)",
  "ImageType": [
    "ORIGINAL",
    "PRIMARY",
    "M",
    "ND",
    "NORM",
    "MOSAIC"
],
  "ImagingFrequency": 123.252,
  "InPlanePhaseEncodingDirectionDICOM": "COL",
  "InstitutionAddress": "Maynard 3,Hanover,NH,US,03755",
  "InstitutionName": "Dartmouth College - PBS",
  "InstitutionalDepartmentName": "Department",
  "MRAcquisitionType": "2D",
  "MagneticFieldStrength": 3,
  "Manufacturer": "Siemens",
  "ManufacturersModelName": "Prisma",
  "MatrixCoilMode": "GRAPPA",
  "Modality": "MR",
  "NonlinearGradientCorrection": false,
  "ParallelReductionFactorInPlane": 2,
  "PartialFourier": 1,
  "PatientPosition": "HFS",
  "PercentPhaseFOV": 100,
  "PercentSampling": 100,
  "PhaseEncodingDirection": "j-",
  "PhaseEncodingSteps": 79,
  "PhaseResolution": 1,
  "PixelBandwidth": 2315,
  "ProcedureStepDescription": "dbic^QA",
  "ProtocolName": "func-bold_task-rest_acq-p2",
  "PulseSequenceDetails": "%SiemensSeq%\\ep2d_bold",
  "ReceiveCoilActiveElements": "HC1-7;NC1,2",
  "ReceiveCoilName": "HeadNeck_64",
  "ReconMatrixPE": 80,
  "RefLinesPE": 24,
  "RepetitionTime": 2,
  "SAR": 0.0408401,
  "ScanOptions": "FS",
  "ScanningSequence": "EP",
  "SequenceName": "*epfid2d1_80",
  "SequenceVariant": "SK",
  "SeriesDescription": "func-bold_task-rest_acq-p2",
  "SeriesNumber": 5,
  "ShimSetting": [4136, -7706, -7516, 202, -48, -339, -77, 111],
  "SliceThickness": 3.5,
  "SliceTiming": [0.99, 0, 1.0575, 0.0675, 1.1225, 0.1325, 1.19, 0.2, 1.255, 0.265, 1.32, 0.33, 1.3875, 0.3975, 1.4525, 0.4625, 1.52, 0.53, 1.585, 0.595, 1.65, 0.66, 1.7175, 0.7275, 1.7825, 0.7925, 1.85, 0.86, 1.915, 0.925],
  "SoftwareVersions": "syngo MR E11",
  "SpacingBetweenSlices": 3.99,
  "StationName": "AWP66112",
  "TaskName": "rest",
  "TotalReadoutTime": 0.02054,
  "TxRefAmp": 208.795,
  "dcmmeta_affine": [
    [-2.9996864795684814, -0.041362639516592026, -0.017348282039165497, 124.13676452636719],
    [-0.04335908964276314, 2.839261770248413, 1.2872264385223389, -129.43728637695312],
    [0.0009991909610107541, -0.9679268598556519, 3.776618242263794, -4.8224406242370605],
    [0.0, 0.0, 0.0, 1.0]
],
  "dcmmeta_reorient_transform": [
    [0.0, -1.0, 0.0, 79.0],
    [1.0, 0.0, 0.0, 0.0],
    [0.0, 0.0, 1.0, 0.0],
    [0.0, 0.0, 0.0, 1.0]
],
  "dcmmeta_shape": [80, 80, 30, 200],
  "dcmmeta_slice_dim": 2,
  "dcmmeta_version": 0.6,
  "global": {
    "const": {
      "AccessionNumber": "qa64",
      "AcquisitionMatrix": [80, 0, 0, 80],
      "AngioFlag": "N",
      "BitsAllocated": 16,
      "BitsStored": 12,
      "BodyPartExamined": "BRAIN",
      "Columns": 480,
      "EchoNumbers": 1,
      "EchoTime": 35.0,
      "EchoTrainLength": 39,
      "FlipAngle": 90.0,
      "HighBit": 11,
      "ImageOrientationPatient": [0.99989549403219, 0.01445303022569, 0.00033306367296, -0.0137875461505, 0.94642055212945, 0.32264228191316],
      "ImagePositionPatient": [-712.53388389758, -671.38854007145, -275.07386884764],
      "ImageType": [
        "ORIGINAL",
        "PRIMARY",
        "M",
        "ND",
        "NORM",
        "MOSAIC"
],
      "ImagedNucleus": "1H",
      "ImagingFrequency": 123.25236,
      "InPlanePhaseEncodingDirection": "COL",
      "LargestImagePixelValue": 4095,
      "MRAcquisitionType": "2D",
      "MagneticFieldStrength": 3.0,
      "Manufacturer": "SIEMENS",
      "ManufacturerModelName": "Prisma",
      "Modality": "MR",
      "NumberOfAverages": 1.0,
      "NumberOfPhaseEncodingSteps": 79,
      "PercentPhaseFieldOfView": 100.0,
      "PercentSampling": 100.0,
      "PerformedProcedureStepStartTime": "094732.305000",
      "PhotometricInterpretation": "MONOCHROME2",
      "PixelBandwidth": 2315.0,
      "PixelRepresentation": 0,
      "PixelSpacing": [3.0, 3.0],
      "ProtocolName": "func-bold_task-rest_acq-p2",
      "RepetitionTime": 2000.0,
      "Rows": 480,
      "SAR": 0.04084008235073,
      "SamplesPerPixel": 1,
      "ScanOptions": "FS",
      "ScanningSequence": "EP",
      "SequenceName": "*epfid2d1_80",
      "SequenceVariant": "SK",
      "SeriesDescription": "func-bold_task-rest_acq-p2",
      "SeriesNumber": 5,
      "SeriesTime": "095848.851000",
      "SliceLocation": -46.862449689992,
      "SliceThickness": 3.5,
      "SmallestImagePixelValue": 0,
      "SoftwareVersions": "syngo MR E11",
      "SpacingBetweenSlices": 3.989999854584,
      "SpecificCharacterSet": "ISO_IR 100",
      "StudyID": "30",
      "StudyTime": "094732.222000",
      "TransmitCoilName": "Body",
      "VariableFlipAngleFlag": "N",
      "WindowCenterWidthExplanation": "Algo1",
      "dBdt": 0.0},
    "slices": {}
  },
  "time": {
    "samples": {
      "AcquisitionNumber": [1, 2, 3, 4, 5, 6, 7, 8, 9, 10, 11, 12, 13, 14, 15, 16, 17, 18, 19, 20, 21, 22, 23, 24, 25, 26, 27, 28, 29, 30, 31, 32, 33, 34, 35, 36, 37, 38, 39, 40, 41, 42, 43, 44, 45, 46, 47, 48, 49, 50, 51, 52, 53, 54, 55, 56, 57, 58, 59, 60, 61, 62, 63, 64, 65, 66, 67, 68, 69, 70, 71, 72, 73, 74, 75, 76, 77, 78, 79, 80, 81, 82, 83, 84, 85, 86, 87, 88, 89, 90, 91, 92, 93, 94, 95, 96, 97, 98, 99, 100, 101, 102, 103, 104, 105, 106, 107, 108, 109, 110, 111, 112, 113, 114, 115, 116, 117, 118, 119, 120, 121, 122, 123, 124, 125, 126, 127, 128, 129, 130, 131, 132, 133, 134, 135, 136, 137, 138, 139, 140, 141, 142, 143, 144, 145, 146, 147, 148, 149, 150, 151, 152, 153, 154, 155, 156, 157, 158, 159, 160, 161, 162, 163, 164, 165, 166, 167, 168, 169, 170, 171, 172, 173, 174, 175, 176, 177, 178, 179, 180, 181, 182, 183, 184, 185, 186, 187, 188, 189, 190, 191, 192, 193, 194, 195, 196, 197, 198, 199, 200],
      "AcquisitionTime": ["095758.830000", "095800.830000", "095802.830000", "095804.830000", "095806.830000", "095808.830000", "095810.830000", "095812.830000", "095814.830000", "095816.830000", "095818.830000", "095820.830000", "095822.830000", "095824.830000", "095826.830000", "095828.830000", "095830.830000", "095832.830000", "095834.830000", "095836.830000", "095838.830000", "095840.830000", "095842.830000", "095844.830000", "095846.830000", "095848.830000", "095850.830000", "095852.830000", "095854.830000", "095856.830000", "095858.830000", "095900.830000", "095902.830000", "095904.830000", "095906.830000", "095908.830000", "095910.830000", "095912.830000", "095914.830000", "095916.830000", "095918.830000", "095920.830000", "095922.830000", "095924.830000", "095926.830000", "095928.830000", "095930.830000", "095932.830000", "095934.830000", "095936.830000", "095938.830000", "095940.830000", "095942.830000", "095944.830000", "095946.830000", "095948.830000", "095950.830000", "095952.830000", "095954.830000", "095956.830000", "095958.830000", "100000.830000", "100002.830000", "100004.830000", "100006.830000", "100008.830000", "100010.830000", "100012.830000", "100014.830000", "100016.830000", "100018.830000", "100020.830000", "100022.830000", "100024.830000", "100026.830000", "100028.830000", "100030.830000", "100032.830000", "100034.830000", "100036.830000", "100038.830000", "100040.830000", "100042.830000", "100044.830000", "100046.830000", "100048.830000", "100050.830000", "100052.830000", "100054.830000", "100056.830000", "100058.830000", "100100.830000", "100102.830000", "100104.830000", "100106.830000", "100108.830000", "100110.830000", "100112.830000", "100114.830000", "100116.830000", "100118.830000", "100120.830000", "100122.830000", "100124.830000", "100126.830000", "100128.830000", "100130.830000", "100132.830000", "100134.830000", "100136.830000", "100138.830000", "100140.830000", "100142.830000", "100144.830000", "100146.830000", "100148.830000", "100150.830000", "100152.830000", "100154.830000", "100156.830000", "100158.830000", "100200.830000", "100202.830000", "100204.830000", "100206.830000", "100208.830000", "100210.830000", "100212.830000", "100214.830000", "100216.830000", "100218.830000", "100220.830000", "100222.830000", "100224.830000", "100226.830000", "100228.830000", "100230.830000", "100232.830000", "100234.830000", "100236.830000", "100238.830000", "100240.830000", "100242.830000", "100244.830000", "100246.830000", "100248.830000", "100250.830000", "100252.830000", "100254.830000", "100256.830000", "100258.830000", "100300.830000", "100302.830000", "100304.830000", "100306.830000", "100308.830000", "100310.830000", "100312.830000", "100314.830000", "100316.830000", "100318.830000", "100320.830000", "100322.830000", "100324.830000", "100326.830000", "100328.830000", "100330.830000", "100332.830000", "100334.830000", "100336.830000", "100338.830000", "100340.830000", "100342.830000", "100344.830000", "100346.830000", "100348.830000", "100350.830000", "100352.830000", "100354.830000", "100356.830000", "100358.830000", "100400.830000", "100402.830000", "100404.830000", "100406.830000", "100408.830000", "100410.830000", "100412.830000", "100414.830000", "100416.830000", "100418.830000", "100420.830000", "100422.830000", "100424.830000", "100426.830000", "100428.830000", "100430.830000", "100432.830000", "100434.830000", "100436.830000"],
      "ContentTime": ["095848.854000", "095848.858000", "095848.860000", "095848.863000", "095848.865000", "095848.868000", "095848.880000", "095848.883000", "095848.885000", "095848.888000", "095848.890000", "095848.893000", "095848.895000", "095848.898000", "095848.901000", "095848.903000", "095848.906000", "095848.908000", "095848.911000", "095848.913000", "095848.916000", "095848.919000", "095848.921000", "095848.924000", "095848.926000", "095928.850000", "095928.852000", "095928.855000", "095928.858000", "095928.860000", "095928.863000", "095928.865000", "095928.868000", "095928.871000", "095928.873000", "095928.876000", "095928.878000", "095928.881000", "095928.883000", "095928.886000", "095928.889000", "095928.891000", "095928.894000", "095928.896000", "095928.899000", "100008.848000", "100008.851000", "100008.854000", "100008.856000", "100008.859000", "100008.862000", "100008.864000", "100008.867000", "100008.869000", "100008.872000", "100008.875000", "100008.883000", "100008.885000", "100008.888000", "100008.890000", "100008.893000", "100008.896000", "100008.898000", "100008.901000", "100008.903000", "100048.848000", "100048.852000", "100048.855000", "100048.857000", "100048.860000", "100048.862000", "100048.865000", "100048.867000", "100048.870000", "100048.872000", "100048.875000", "100048.877000", "100048.880000", "100048.882000", "100048.885000", "100048.887000", "100048.890000", "100048.892000", "100048.895000", "100048.898000", "100128.849000", "100128.852000", "100128.855000", "100128.857000", "100128.860000", "100128.862000", "100128.865000", "100128.867000", "100128.870000", "100128.872000", "100128.875000", "100128.878000", "100128.880000", "100128.883000", "100128.885000", "100128.888000", "100128.890000", "100128.893000", "100128.895000", "100128.898000", "100208.848000", "100208.851000", "100208.854000", "100208.856000", "100208.859000", "100208.861000", "100208.864000", "100208.866000", "100208.869000", "100208.871000", "100208.874000", "100208.876000", "100208.879000", "100208.881000", "100208.884000", "100208.887000", "100208.889000", "100208.892000", "100208.894000", "100208.897000", "100248.848000", "100248.851000", "100248.854000", "100248.856000", "100248.859000", "100248.861000", "100248.864000", "100248.866000", "100248.869000", "100248.871000", "100248.874000", "100248.877000", "100248.879000", "100248.882000", "100248.885000", "100248.887000", "100248.890000", "100248.892000", "100248.895000", "100248.902000", "100328.849000", "100328.852000", "100328.855000", "100328.857000", "100328.860000", "100328.862000", "100328.865000", "100328.868000", "100328.870000", "100328.873000", "100328.875000", "100328.878000", "100328.880000", "100328.883000", "100328.885000", "100328.888000", "100328.890000", "100328.893000", "100328.896000", "100328.898000", "100408.849000", "100408.861000", "100408.863000", "100408.866000", "100408.869000", "100408.871000", "100408.874000", "100408.876000", "100408.879000", "100408.881000", "100408.884000", "100408.887000", "100408.889000", "100408.892000", "100408.894000", "100408.897000", "100408.899000", "100408.902000", "100408.904000", "100408.907000", "100438.017000", "100438.020000", "100438.023000", "100438.025000", "100438.028000", "100438.030000", "100438.033000", "100438.036000", "100438.038000", "100438.041000", "100438.044000", "100438.047000", "100438.053000", "100438.056000", "100438.060000"],
      "InstanceCreationTime": ["095848.854000", "095848.858000", "095848.860000", "095848.863000", "095848.865000", "095848.868000", "095848.880000", "095848.883000", "095848.885000", "095848.888000", "095848.890000", "095848.893000", "095848.895000", "095848.898000", "095848.901000", "095848.903000", "095848.906000", "095848.908000", "095848.911000", "095848.913000", "095848.916000", "095848.919000", "095848.921000", "095848.924000", "095848.926000", "095928.850000", "095928.852000", "095928.855000", "095928.858000", "095928.860000", "095928.863000", "095928.865000", "095928.868000", "095928.871000", "095928.873000", "095928.876000", "095928.878000", "095928.881000", "095928.883000", "095928.886000", "095928.889000", "095928.891000", "095928.894000", "095928.896000", "095928.899000", "100008.848000", "100008.851000", "100008.854000", "100008.856000", "100008.859000", "100008.862000", "100008.864000", "100008.867000", "100008.869000", "100008.872000", "100008.875000", "100008.883000", "100008.885000", "100008.888000", "100008.890000", "100008.893000", "100008.896000", "100008.898000", "100008.901000", "100008.903000", "100048.848000", "100048.852000", "100048.855000", "100048.857000", "100048.860000", "100048.862000", "100048.865000", "100048.867000", "100048.870000", "100048.872000", "100048.875000", "100048.877000", "100048.880000", "100048.882000", "100048.885000", "100048.887000", "100048.890000", "100048.892000", "100048.895000", "100048.898000", "100128.849000", "100128.852000", "100128.855000", "100128.857000", "100128.860000", "100128.862000", "100128.865000", "100128.867000", "100128.870000", "100128.872000", "100128.875000", "100128.878000", "100128.880000", "100128.883000", "100128.885000", "100128.888000", "100128.890000", "100128.893000", "100128.895000", "100128.898000", "100208.848000", "100208.851000", "100208.854000", "100208.856000", "100208.859000", "100208.861000", "100208.864000", "100208.866000", "100208.869000", "100208.871000", "100208.874000", "100208.876000", "100208.879000", "100208.881000", "100208.884000", "100208.887000", "100208.889000", "100208.892000", "100208.894000", "100208.897000", "100248.848000", "100248.851000", "100248.854000", "100248.856000", "100248.859000", "100248.861000", "100248.864000", "100248.866000", "100248.869000", "100248.871000", "100248.874000", "100248.877000", "100248.879000", "100248.882000", "100248.885000", "100248.887000", "100248.890000", "100248.892000", "100248.895000", "100248.902000", "100328.849000", "100328.852000", "100328.855000", "100328.857000", "100328.860000", "100328.862000", "100328.865000", "100328.868000", "100328.870000", "100328.873000", "100328.875000", "100328.878000", "100328.880000", "100328.883000", "100328.885000", "100328.888000", "100328.890000", "100328.893000", "100328.896000", "100328.898000", "100408.849000", "100408.861000", "100408.863000", "100408.866000", "100408.869000", "100408.871000", "100408.874000", "100408.876000", "100408.879000", "100408.881000", "100408.884000", "100408.887000", "100408.889000", "100408.892000", "100408.894000", "100408.897000", "100408.899000", "100408.902000", "100408.904000", "100408.907000", "100438.017000", "100438.020000", "100438.023000", "100438.025000", "100438.028000", "100438.030000", "100438.033000", "100438.036000", "100438.038000", "100438.041000", "100438.044000", "100438.047000", "100438.053000", "100438.056000", "100438.060000"],
      "InstanceNumber": [1, 2, 3, 4, 5, 6, 7, 8, 9, 10, 11, 12, 13, 14, 15, 16, 17, 18, 19, 20, 21, 22, 23, 24, 25, 26, 27, 28, 29, 30, 31, 32, 33, 34, 35, 36, 37, 38, 39, 40, 41, 42, 43, 44, 45, 46, 47, 48, 49, 50, 51, 52, 53, 54, 55, 56, 57, 58, 59, 60, 61, 62, 63, 64, 65, 66, 67, 68, 69, 70, 71, 72, 73, 74, 75, 76, 77, 78, 79, 80, 81, 82, 83, 84, 85, 86, 87, 88, 89, 90, 91, 92, 93, 94, 95, 96, 97, 98, 99, 100, 101, 102, 103, 104, 105, 106, 107, 108, 109, 110, 111, 112, 113, 114, 115, 116, 117, 118, 119, 120, 121, 122, 123, 124, 125, 126, 127, 128, 129, 130, 131, 132, 133, 134, 135, 136, 137, 138, 139, 140, 141, 142, 143, 144, 145, 146, 147, 148, 149, 150, 151, 152, 153, 154, 155, 156, 157, 158, 159, 160, 161, 162, 163, 164, 165, 166, 167, 168, 169, 170, 171, 172, 173, 174, 175, 176, 177, 178, 179, 180, 181, 182, 183, 184, 185, 186, 187, 188, 189, 190, 191, 192, 193, 194, 195, 196, 197, 198, 199, 200],
      "WindowCenter": [1558.0, 1557.0, 1556.0, 1557.0, 1556.0, 1556.0, 1557.0, 1557.0, 1556.0, 1556.0, 1557.0, 1556.0, 1556.0, 1556.0, 1556.0, 1556.0, 1556.0, 1555.0, 1556.0, 1555.0, 1555.0, 1555.0, 1555.0, 1556.0, 1555.0, 1556.0, 1555.0, 1555.0, 1555.0, 1555.0, 1555.0, 1554.0, 1555.0, 1554.0, 1555.0, 1555.0, 1555.0, 1554.0, 1555.0, 1554.0, 1554.0, 1554.0, 1555.0, 1554.0, 1554.0, 1555.0, 1554.0, 1555.0, 1554.0, 1554.0, 1554.0, 1554.0, 1555.0, 1555.0, 1554.0, 1554.0, 1553.0, 1554.0, 1553.0, 1554.0, 1553.0, 1554.0, 1554.0, 1554.0, 1553.0, 1553.0, 1553.0, 1553.0, 1553.0, 1553.0, 1553.0, 1554.0, 1553.0, 1553.0, 1553.0, 1553.0, 1554.0, 1553.0, 1553.0, 1553.0, 1553.0, 1553.0, 1553.0, 1553.0, 1553.0, 1553.0, 1553.0, 1553.0, 1552.0, 1553.0, 1553.0, 1551.0, 1552.0, 1553.0, 1552.0, 1553.0, 1552.0, 1553.0, 1553.0, 1552.0, 1552.0, 1552.0, 1553.0, 1552.0, 1552.0, 1552.0, 1552.0, 1552.0, 1552.0, 1552.0, 1552.0, 1552.0, 1552.0, 1552.0, 1552.0, 1552.0, 1552.0, 1552.0, 1552.0, 1551.0, 1552.0, 1552.0, 1552.0, 1552.0, 1551.0, 1551.0, 1551.0, 1553.0, 1552.0, 1551.0, 1551.0, 1552.0, 1551.0, 1552.0, 1553.0, 1551.0, 1552.0, 1551.0, 1553.0, 1552.0, 1553.0, 1552.0, 1552.0, 1552.0, 1552.0, 1552.0, 1552.0, 1551.0, 1552.0, 1551.0, 1552.0, 1552.0, 1551.0, 1552.0, 1552.0, 1552.0, 1551.0, 1552.0, 1551.0, 1552.0, 1551.0, 1551.0, 1552.0, 1551.0, 1551.0, 1551.0, 1551.0, 1552.0, 1551.0, 1551.0, 1551.0, 1551.0, 1551.0, 1551.0, 1552.0, 1551.0, 1551.0, 1551.0, 1550.0, 1551.0, 1551.0, 1551.0, 1551.0, 1551.0, 1551.0, 1550.0, 1550.0, 1551.0, 1551.0, 1550.0, 1550.0, 1551.0, 1551.0, 1551.0, 1550.0, 1551.0, 1551.0, 1551.0, 1551.0, 1551.0],
      "WindowWidth": [3480.0, 3479.0, 3479.0, 3479.0, 3479.0, 3479.0, 3479.0, 3479.0, 3479.0, 3478.0, 3478.0, 3478.0, 3478.0, 3478.0, 3478.0, 3478.0, 3478.0, 3478.0, 3478.0, 3478.0, 3478.0, 3478.0, 3478.0, 3477.0, 3478.0, 3477.0, 3478.0, 3478.0, 3478.0, 3478.0, 3477.0, 3477.0, 3477.0, 3477.0, 3476.0, 3476.0, 3477.0, 3477.0, 3476.0, 3477.0, 3477.0, 3477.0, 3476.0, 3476.0, 3476.0, 3476.0, 3476.0, 3476.0, 3476.0, 3476.0, 3476.0, 3476.0, 3476.0, 3476.0, 3476.0, 3476.0, 3476.0, 3476.0, 3476.0, 3476.0, 3476.0, 3476.0, 3476.0, 3475.0, 3476.0, 3475.0, 3475.0, 3475.0, 3475.0, 3475.0, 3475.0, 3476.0, 3475.0, 3475.0, 3475.0, 3475.0, 3475.0, 3475.0, 3475.0, 3475.0, 3475.0, 3475.0, 3475.0, 3475.0, 3475.0, 3475.0, 3475.0, 3475.0, 3475.0, 3475.0, 3475.0, 3475.0, 3475.0, 3475.0, 3475.0, 3475.0, 3475.0, 3475.0, 3474.0, 3474.0, 3474.0, 3474.0, 3474.0, 3474.0, 3474.0, 3474.0, 3474.0, 3474.0, 3474.0, 3474.0, 3474.0, 3474.0, 3474.0, 3474.0, 3474.0, 3474.0, 3474.0, 3474.0, 3474.0, 3474.0, 3474.0, 3474.0, 3474.0, 3474.0, 3474.0, 3474.0, 3474.0, 3473.0, 3473.0, 3474.0, 3474.0, 3473.0, 3474.0, 3473.0, 3474.0, 3475.0, 3474.0, 3474.0, 3474.0, 3474.0, 3474.0, 3474.0, 3475.0, 3475.0, 3475.0, 3475.0, 3474.0, 3474.0, 3474.0, 3474.0, 3474.0, 3474.0, 3474.0, 3474.0, 3474.0, 3474.0, 3474.0, 3474.0, 3474.0, 3474.0, 3474.0, 3474.0, 3474.0, 3474.0, 3474.0, 3474.0, 3474.0, 3473.0, 3474.0, 3474.0, 3474.0, 3474.0, 3474.0, 3473.0, 3473.0, 3474.0, 3474.0, 3474.0, 3474.0, 3473.0, 3474.0, 3473.0, 3474.0, 3473.0, 3473.0, 3473.0, 3473.0, 3473.0, 3473.0, 3473.0, 3473.0, 3473.0, 3473.0, 3473.0, 3473.0, 3473.0, 3473.0, 3473.0, 3473.0, 3473.0]
    },
    "slices": {}
  }
}