{
  "AcquisitionMatrixPE": 80,
  "AcquisitionNumber": 1,
  "AcquisitionTime": "10:11:35.537500",
  "BandwidthPerPixelPhaseEncode": 25,
  "BaseResolution": 80,
  "BodyPartExamined": "BRAIN",
  "CoilCombinationMethod": "Sum of Squares",
  "ConsistencyInfo": "N4_VE11C_LATEST_20160120",
  "ConversionSoftware": "dcm2niix",
  "ConversionSoftwareVersion": "v1.0.20220720",
  "DerivedVendorReportedEchoSpacing": 0.0005,
  "DeviceSerialNumber": "66112",
  "DwellTime": 2.7e-06,
  "EchoTime": 0.03,
  "EchoTrainLength": 80,
  "EffectiveEchoSpacing": 0.0005,
  "FlipAngle": 10,
  "HeudiconvVersion": "0.13.1",
  "ImageOrientationPatientDICOM": [0.999896, 0.014453, 0.000333064, -0.0137875, 0.946421, 0.322642],
  "ImageOrientationText": "Tra>Cor(18.8)>Sag(-0.2)",
  "ImageType": [
    "ORIGINAL",
    "PRIMARY",
    "M",
    "ND",
    "NORM",
    "MOSAIC"
],
  "ImagingFrequency": 123.252,
  "InPlanePhaseEncodingDirectionDICOM": "COL",
  "InstitutionAddress": "Maynard 3,Hanover,NH,US,03755",
  "InstitutionName": "Dartmouth College - PBS",
  "InstitutionalDepartmentName": "Department",
  "MRAcquisitionType": "2D",
  "MagneticFieldStrength": 3,
  "Manufacturer": "Siemens",
  "ManufacturersModelName": "Prisma",
  "MatrixCoilMode": "SENSE",
  "Modality": "MR",
  "NonlinearGradientCorrection": false,
  "PartialFourier": 1,
  "PatientPosition": "HFS",
  "PercentPhaseFOV": 100,
  "PercentSampling": 100,
  "PhaseEncodingDirection": "j-",
  "PhaseEncodingSteps": 80,
  "PhaseResolution": 1,
  "PixelBandwidth": 2315,
  "ProcedureStepDescription": "dbic^QA",
  "ProtocolName": "func-bold_fa-10",
  "PulseSequenceDetails": "%SiemensSeq%\\ep2d_bold",
  "ReceiveCoilActiveElements": "HC1-7;NC1,2",
  "ReceiveCoilName": "HeadNeck_64",
  "ReconMatrixPE": 80,
  "RepetitionTime": 2,
  "SAR": 0.00860923,
  "ScanOptions": "FS",
  "ScanningSequence": "EP",
  "SequenceName": "*epfid2d1_80",
  "SequenceVariant": "SK",
  "SeriesDescription": "func-bold_fa-10",
  "SeriesNumber": 9,
  "ShimSetting": [4136, -7705, -7516, 201, -47, -339, -76, 111],
  "SliceThickness": 3.5,
  "SliceTiming": [0.99, 0, 1.055, 0.065, 1.12, 0.13, 1.1875, 0.1975, 1.2525, 0.2625, 1.32, 0.33, 1.385, 0.395, 1.45, 0.46, 1.5175, 0.5275, 1.5825, 0.5925, 1.65, 0.66, 1.715, 0.725, 1.78, 0.79, 1.8475, 0.8575, 1.9125, 0.9225],
  "SoftwareVersions": "syngo MR E11",
  "SpacingBetweenSlices": 3.99,
  "StationName": "AWP66112",
  "TotalReadoutTime": 0.0395,
  "TxRefAmp": 208.795,
  "dcmmeta_affine": [
    [-2.9996864795684814, -0.041362639516592026, -0.017348282039165497, 122.13297271728516],
    [-0.04335908964276314, 2.839261770248413, 1.2872264385223389, -123.68755340576172],
    [0.0009991909610107541, -0.9679268598556519, 3.776618480682373, -5.590930461883545],
    [0.0, 0.0, 0.0, 1.0]
],
  "dcmmeta_reorient_transform": [
    [0.0, -1.0, 0.0, 79.0],
    [1.0, 0.0, 0.0, 0.0],
    [0.0, 0.0, 1.0, 0.0],
    [0.0, 0.0, 0.0, 1.0]
],
  "dcmmeta_shape": [80, 80, 30, 200],
  "dcmmeta_slice_dim": 2,
  "dcmmeta_version": 0.6,
  "global": {
    "const": {
      "AccessionNumber": "qa64",
      "AcquisitionMatrix": [80, 0, 0, 80],
      "AngioFlag": "N",
      "BitsAllocated": 16,
      "BitsStored": 12,
      "BodyPartExamined": "BRAIN",
      "Columns": 480,
      "EchoNumbers": 1,
      "EchoTime": 30.0,
      "EchoTrainLength": 80,
      "FlipAngle": 10.0,
      "HighBit": 11,
      "ImageOrientationPatient": [0.99989549403219, 0.01445303022569, 0.00033306367296, -0.0137875461505, 0.94642055212945, 0.32264228191316],
      "ImagePositionPatient": [-710.5300959628, -677.13826541325, -275.84235868529],
      "ImageType": [
        "ORIGINAL",
        "PRIMARY",
        "M",
        "ND",
        "NORM",
        "MOSAIC"
],
      "ImagedNucleus": "1H",
      "ImagingFrequency": 123.252362,
      "InPlanePhaseEncodingDirection": "COL",
      "MRAcquisitionType": "2D",
      "MagneticFieldStrength": 3.0,
      "Manufacturer": "SIEMENS",
      "ManufacturerModelName": "Prisma",
      "Modality": "MR",
      "NumberOfAverages": 1.0,
      "NumberOfPhaseEncodingSteps": 80,
      "PercentPhaseFieldOfView": 100.0,
      "PercentSampling": 100.0,
      "PerformedProcedureStepStartTime": "094732.305000",
      "PhotometricInterpretation": "MONOCHROME2",
      "PixelBandwidth": 2315.0,
      "PixelRepresentation": 0,
      "PixelSpacing": [3.0, 3.0],
      "ProtocolName": "func-bold_fa-10",
      "RepetitionTime": 2000.0,
      "Rows": 480,
      "SAR": 0.00860923269326,
      "SamplesPerPixel": 1,
      "ScanOptions": "FS",
      "ScanningSequence": "EP",
      "SequenceName": "*epfid2d1_80",
      "SequenceVariant": "SK",
      "SeriesDescription": "func-bold_fa-10",
      "SeriesNumber": 9,
      "SeriesTime": "101228.782000",
      "SliceLocation": -45.72619200704,
      "SliceThickness": 3.5,
      "SmallestImagePixelValue": 0,
      "SoftwareVersions": "syngo MR E11",
      "SpacingBetweenSlices": 3.9899999790937,
      "SpecificCharacterSet": "ISO_IR 100",
      "StudyID": "30",
      "StudyTime": "094732.222000",
      "TransmitCoilName": "Body",
      "VariableFlipAngleFlag": "N",
      "WindowCenterWidthExplanation": "Algo1",
      "dBdt": 0.0},
    "slices": {}
  },
  "time": {
    "samples": {
      "AcquisitionNumber": [1, 2, 3, 4, 5, 6, 7, 8, 9, 10, 11, 12, 13, 14, 15, 16, 17, 18, 19, 20, 21, 22, 23, 24, 25, 26, 27, 28, 29, 30, 31, 32, 33, 34, 35, 36, 37, 38, 39, 40, 41, 42, 43, 44, 45, 46, 47, 48, 49, 50, 51, 52, 53, 54, 55, 56, 57, 58, 59, 60, 61, 62, 63, 64, 65, 66, 67, 68, 69, 70, 71, 72, 73, 74, 75, 76, 77, 78, 79, 80, 81, 82, 83, 84, 85, 86, 87, 88, 89, 90, 91, 92, 93, 94, 95, 96, 97, 98, 99, 100, 101, 102, 103, 104, 105, 106, 107, 108, 109, 110, 111, 112, 113, 114, 115, 116, 117, 118, 119, 120, 121, 122, 123, 124, 125, 126, 127, 128, 129, 130, 131, 132, 133, 134, 135, 136, 137, 138, 139, 140, 141, 142, 143, 144, 145, 146, 147, 148, 149, 150, 151, 152, 153, 154, 155, 156, 157, 158, 159, 160, 161, 162, 163, 164, 165, 166, 167, 168, 169, 170, 171, 172, 173, 174, 175, 176, 177, 178, 179, 180, 181, 182, 183, 184, 185, 186, 187, 188, 189, 190, 191, 192, 193, 194, 195, 196, 197, 198, 199, 200],
      "AcquisitionTime": ["101135.537500", "101137.537500", "101139.537500", "101141.537500", "101143.537500", "101145.537500", "101147.537500", "101149.537500", "101151.537500", "101153.537500", "101155.537500", "101157.537500", "101159.537500", "101201.537500", "101203.537500", "101205.537500", "101207.537500", "101209.537500", "101211.537500", "101213.537500", "101215.537500", "101217.537500", "101219.537500", "101221.537500", "101223.537500", "101225.537500", "101227.537500", "101229.537500", "101231.537500", "101233.537500", "101235.537500", "101237.537500", "101239.537500", "101241.537500", "101243.537500", "101245.537500", "101247.537500", "101249.537500", "101251.537500", "101253.537500", "101255.537500", "101257.537500", "101259.537500", "101301.537500", "101303.537500", "101305.537500", "101307.537500", "101309.537500", "101311.537500", "101313.537500", "101315.537500", "101317.537500", "101319.537500", "101321.537500", "101323.537500", "101325.537500", "101327.537500", "101329.537500", "101331.537500", "101333.537500", "101335.537500", "101337.537500", "101339.537500", "101341.537500", "101343.537500", "101345.537500", "101347.537500", "101349.537500", "101351.537500", "101353.537500", "101355.537500", "101357.537500", "101359.537500", "101401.537500", "101403.537500", "101405.537500", "101407.537500", "101409.537500", "101411.537500", "101413.537500", "101415.537500", "101417.537500", "101419.537500", "101421.537500", "101423.537500", "101425.537500", "101427.537500", "101429.537500", "101431.537500", "101433.537500", "101435.537500", "101437.537500", "101439.537500", "101441.537500", "101443.537500", "101445.537500", "101447.537500", "101449.537500", "101451.537500", "101453.537500", "101455.537500", "101457.537500", "101459.537500", "101501.537500", "101503.537500", "101505.537500", "101507.537500", "101509.537500", "101511.537500", "101513.537500", "101515.537500", "101517.537500", "101519.537500", "101521.537500", "101523.537500", "101525.537500", "101527.537500", "101529.537500", "101531.537500", "101533.537500", "101535.537500", "101537.537500", "101539.537500", "101541.537500", "101543.537500", "101545.537500", "101547.537500", "101549.537500", "101551.537500", "101553.537500", "101555.537500", "101557.537500", "101559.537500", "101601.537500", "101603.537500", "101605.537500", "101607.537500", "101609.537500", "101611.537500", "101613.537500", "101615.537500", "101617.537500", "101619.537500", "101621.537500", "101623.537500", "101625.537500", "101627.537500", "101629.537500", "101631.537500", "101633.537500", "101635.537500", "101637.537500", "101639.537500", "101641.537500", "101643.537500", "101645.537500", "101647.537500", "101649.537500", "101651.537500", "101653.537500", "101655.537500", "101657.537500", "101659.537500", "101701.537500", "101703.537500", "101705.537500", "101707.537500", "101709.537500", "101711.537500", "101713.537500", "101715.537500", "101717.537500", "101719.537500", "101721.537500", "101723.537500", "101725.537500", "101727.537500", "101729.537500", "101731.537500", "101733.537500", "101735.537500", "101737.537500", "101739.537500", "101741.537500", "101743.537500", "101745.537500", "101747.537500", "101749.537500", "101751.537500", "101753.537500", "101755.537500", "101757.537500", "101759.537500", "101801.537500", "101803.537500", "101805.537500", "101807.537500", "101809.537500", "101811.537500", "101813.537500"],
      "ContentTime": ["101228.794000", "101228.797000", "101228.800000", "101228.802000", "101228.805000", "101228.807000", "101228.810000", "101228.812000", "101228.814000", "101228.817000", "101228.819000", "101228.822000", "101228.824000", "101228.827000", "101228.829000", "101228.832000", "101228.834000", "101228.837000", "101228.839000", "101228.841000", "101228.844000", "101228.846000", "101228.849000", "101228.852000", "101228.854000", "101228.856000", "101308.781000", "101308.783000", "101308.786000", "101308.788000", "101308.791000", "101308.793000", "101308.796000", "101308.798000", "101308.801000", "101308.803000", "101308.806000", "101308.808000", "101308.811000", "101308.813000", "101308.816000", "101308.818000", "101308.821000", "101308.823000", "101308.826000", "101308.828000", "101348.779000", "101348.788000", "101348.790000", "101348.793000", "101348.795000", "101348.798000", "101348.800000", "101348.803000", "101348.805000", "101348.807000", "101348.810000", "101348.812000", "101348.815000", "101348.817000", "101348.820000", "101348.822000", "101348.825000", "101348.827000", "101348.830000", "101348.832000", "101408.779000", "101408.782000", "101408.785000", "101408.787000", "101408.790000", "101408.792000", "101408.795000", "101408.797000", "101408.800000", "101408.802000", "101448.780000", "101448.783000", "101448.786000", "101448.788000", "101448.791000", "101448.793000", "101448.796000", "101448.798000", "101448.801000", "101448.803000", "101448.806000", "101448.808000", "101448.811000", "101448.813000", "101448.815000", "101448.818000", "101448.821000", "101448.823000", "101448.826000", "101448.828000", "101528.780000", "101528.783000", "101528.786000", "101528.792000", "101528.794000", "101528.797000", "101528.799000", "101528.802000", "101528.804000", "101528.807000", "101528.809000", "101528.812000", "101528.814000", "101528.817000", "101528.819000", "101528.822000", "101528.824000", "101528.826000", "101528.829000", "101528.832000", "101608.779000", "101608.782000", "101608.785000", "101608.787000", "101608.790000", "101608.792000", "101608.795000", "101608.797000", "101608.800000", "101608.802000", "101608.804000", "101608.807000", "101608.810000", "101608.812000", "101608.815000", "101608.817000", "101608.819000", "101608.822000", "101608.824000", "101608.827000", "101648.779000", "101648.782000", "101648.785000", "101648.787000", "101648.790000", "101648.792000", "101648.795000", "101648.797000", "101648.800000", "101648.802000", "101648.805000", "101648.807000", "101648.810000", "101648.812000", "101648.814000", "101648.817000", "101648.819000", "101648.822000", "101648.824000", "101648.827000", "101728.781000", "101728.783000", "101728.786000", "101728.788000", "101728.791000", "101728.793000", "101728.796000", "101728.798000", "101728.801000", "101728.803000", "101728.806000", "101728.808000", "101728.811000", "101728.813000", "101728.816000", "101728.818000", "101728.821000", "101728.823000", "101728.826000", "101728.828000", "101808.780000", "101808.783000", "101808.786000", "101808.788000", "101808.791000", "101808.793000", "101808.796000", "101808.798000", "101808.801000", "101808.803000", "101808.806000", "101808.808000", "101808.811000", "101808.813000", "101808.816000", "101808.818000", "101808.821000", "101808.823000", "101808.826000", "101808.828000", "101815.570000", "101815.573000", "101815.575000", "101815.578000"],
      "InstanceCreationTime": ["101228.794000", "101228.797000", "101228.800000", "101228.802000", "101228.805000", "101228.807000", "101228.810000", "101228.812000", "101228.814000", "101228.817000", "101228.819000", "101228.822000", "101228.824000", "101228.827000", "101228.829000", "101228.832000", "101228.834000", "101228.837000", "101228.839000", "101228.841000", "101228.844000", "101228.846000", "101228.849000", "101228.852000", "101228.854000", "101228.856000", "101308.781000", "101308.783000", "101308.786000", "101308.788000", "101308.791000", "101308.793000", "101308.796000", "101308.798000", "101308.801000", "101308.803000", "101308.806000", "101308.808000", "101308.811000", "101308.813000", "101308.816000", "101308.818000", "101308.821000", "101308.823000", "101308.826000", "101308.828000", "101348.779000", "101348.788000", "101348.790000", "101348.793000", "101348.795000", "101348.798000", "101348.800000", "101348.803000", "101348.805000", "101348.807000", "101348.810000", "101348.812000", "101348.815000", "101348.817000", "101348.820000", "101348.822000", "101348.825000", "101348.827000", "101348.830000", "101348.832000", "101408.779000", "101408.782000", "101408.785000", "101408.787000", "101408.790000", "101408.792000", "101408.795000", "101408.797000", "101408.800000", "101408.802000", "101448.780000", "101448.783000", "101448.786000", "101448.788000", "101448.791000", "101448.793000", "101448.796000", "101448.798000", "101448.801000", "101448.803000", "101448.806000", "101448.808000", "101448.811000", "101448.813000", "101448.815000", "101448.818000", "101448.821000", "101448.823000", "101448.826000", "101448.828000", "101528.780000", "101528.783000", "101528.786000", "101528.792000", "101528.794000", "101528.797000", "101528.799000", "101528.802000", "101528.804000", "101528.807000", "101528.809000", "101528.812000", "101528.814000", "101528.817000", "101528.819000", "101528.822000", "101528.824000", "101528.826000", "101528.829000", "101528.832000", "101608.779000", "101608.782000", "101608.785000", "101608.787000", "101608.790000", "101608.792000", "101608.795000", "101608.797000", "101608.800000", "101608.802000", "101608.804000", "101608.807000", "101608.810000", "101608.812000", "101608.815000", "101608.817000", "101608.819000", "101608.822000", "101608.824000", "101608.827000", "101648.779000", "101648.782000", "101648.785000", "101648.787000", "101648.790000", "101648.792000", "101648.795000", "101648.797000", "101648.800000", "101648.802000", "101648.805000", "101648.807000", "101648.810000", "101648.812000", "101648.814000", "101648.817000", "101648.819000", "101648.822000", "101648.824000", "101648.827000", "101728.781000", "101728.783000", "101728.786000", "101728.788000", "101728.791000", "101728.793000", "101728.796000", "101728.798000", "101728.801000", "101728.803000", "101728.806000", "101728.808000", "101728.811000", "101728.813000", "101728.816000", "101728.818000", "101728.821000", "101728.823000", "101728.826000", "101728.828000", "101808.780000", "101808.783000", "101808.786000", "101808.788000", "101808.791000", "101808.793000", "101808.796000", "101808.798000", "101808.801000", "101808.803000", "101808.806000", "101808.808000", "101808.811000", "101808.813000", "101808.816000", "101808.818000", "101808.821000", "101808.823000", "101808.826000", "101808.828000", "101815.570000", "101815.573000", "101815.575000", "101815.578000"],
      "InstanceNumber": [1, 2, 3, 4, 5, 6, 7, 8, 9, 10, 11, 12, 13, 14, 15, 16, 17, 18, 19, 20, 21, 22, 23, 24, 25, 26, 27, 28, 29, 30, 31, 32, 33, 34, 35, 36, 37, 38, 39, 40, 41, 42, 43, 44, 45, 46, 47, 48, 49, 50, 51, 52, 53, 54, 55, 56, 57, 58, 59, 60, 61, 62, 63, 64, 65, 66, 67, 68, 69, 70, 71, 72, 73, 74, 75, 76, 77, 78, 79, 80, 81, 82, 83, 84, 85, 86, 87, 88, 89, 90, 91, 92, 93, 94, 95, 96, 97, 98, 99, 100, 101, 102, 103, 104, 105, 106, 107, 108, 109, 110, 111, 112, 113, 114, 115, 116, 117, 118, 119, 120, 121, 122, 123, 124, 125, 126, 127, 128, 129, 130, 131, 132, 133, 134, 135, 136, 137, 138, 139, 140, 141, 142, 143, 144, 145, 146, 147, 148, 149, 150, 151, 152, 153, 154, 155, 156, 157, 158, 159, 160, 161, 162, 163, 164, 165, 166, 167, 168, 169, 170, 171, 172, 173, 174, 175, 176, 177, 178, 179, 180, 181, 182, 183, 184, 185, 186, 187, 188, 189, 190, 191, 192, 193, 194, 195, 196, 197, 198, 199, 200],
      "LargestImagePixelValue": [701, 703, 700, 702, 703, 701, 700, 702, 700, 701, 703, 699, 701, 702, 700, 702, 701, 702, 701, 697, 697, 702, 700, 699, 701, 700, 699, 701, 698, 699, 702, 702, 701, 698, 700, 702, 699, 697, 701, 699, 699, 701, 699, 697, 702, 701, 696, 701, 699, 700, 700, 697, 699, 700, 700, 702, 699, 698, 698, 700, 697, 700, 701, 698, 699, 698, 699, 698, 697, 700, 695, 696, 700, 696, 700, 701, 699, 700, 701, 699, 695, 700, 697, 702, 700, 698, 698, 700, 700, 698, 699, 699, 700, 704, 701, 698, 701, 697, 701, 698, 700, 701, 698, 698, 699, 698, 700, 699, 699, 701, 700, 698, 695, 697, 699, 699, 701, 698, 699, 699, 702, 701, 699, 700, 697, 701, 700, 699, 697, 697, 700, 700, 697, 701, 698, 701, 696, 699, 701, 697, 703, 702, 701, 702, 701, 699, 697, 699, 701, 699, 701, 700, 700, 701, 700, 696, 697, 700, 699, 699, 697, 699, 699, 698, 700, 699, 696, 699, 698, 700, 697, 697, 699, 699, 700, 701, 698, 698, 698, 701, 699, 699, 699, 701, 699, 698, 700, 698, 701, 700, 698, 702, 702, 699, 697, 700, 698, 698, 699, 699],
      "WindowCenter": [479.0, 479.0, 479.0, 479.0, 479.0, 479.0, 479.0, 479.0, 479.0, 479.0, 479.0, 478.0, 479.0, 479.0, 479.0, 478.0, 479.0, 478.0, 478.0, 478.0, 478.0, 479.0, 478.0, 478.0, 478.0, 478.0, 478.0, 478.0, 478.0, 479.0, 478.0, 478.0, 478.0, 478.0, 478.0, 478.0, 478.0, 478.0, 478.0, 478.0, 478.0, 478.0, 478.0, 478.0, 478.0, 478.0, 478.0, 478.0, 478.0, 478.0, 478.0, 478.0, 478.0, 478.0, 478.0, 478.0, 478.0, 478.0, 478.0, 478.0, 478.0, 478.0, 478.0, 478.0, 478.0, 478.0, 478.0, 478.0, 478.0, 478.0, 478.0, 478.0, 478.0, 478.0, 478.0, 478.0, 478.0, 478.0, 478.0, 478.0, 478.0, 478.0, 478.0, 479.0, 478.0, 478.0, 478.0, 477.0, 478.0, 478.0, 478.0, 478.0, 478.0, 478.0, 478.0, 478.0, 478.0, 477.0, 478.0, 477.0, 478.0, 478.0, 477.0, 478.0, 478.0, 478.0, 477.0, 478.0, 478.0, 477.0, 477.0, 478.0, 477.0, 478.0, 477.0, 477.0, 478.0, 478.0, 478.0, 478.0, 477.0, 478.0, 477.0, 478.0, 477.0, 478.0, 477.0, 477.0, 477.0, 477.0, 477.0, 477.0, 477.0, 477.0, 477.0, 477.0, 477.0, 478.0, 477.0, 477.0, 478.0, 477.0, 477.0, 477.0, 477.0, 477.0, 477.0, 478.0, 477.0, 477.0, 477.0, 477.0, 477.0, 477.0, 477.0, 477.0, 477.0, 477.0, 477.0, 477.0, 477.0, 477.0, 477.0, 477.0, 477.0, 477.0, 477.0, 477.0, 477.0, 477.0, 477.0, 477.0, 477.0, 477.0, 477.0, 477.0, 477.0, 477.0, 477.0, 477.0, 477.0, 477.0, 477.0, 477.0, 477.0, 477.0, 477.0, 477.0, 477.0, 477.0, 477.0, 477.0, 477.0, 477.0, 477.0, 477.0, 477.0, 477.0, 477.0, 477.0],
      "WindowWidth": [992.0, 992.0, 991.0, 991.0, 991.0, 991.0, 991.0, 991.0, 991.0, 991.0, 991.0, 991.0, 991.0, 991.0, 991.0, 990.0, 991.0, 990.0, 990.0, 990.0, 990.0, 991.0, 990.0, 990.0, 990.0, 990.0, 990.0, 990.0, 990.0, 991.0, 990.0, 990.0, 990.0, 990.0, 990.0, 990.0, 990.0, 990.0, 990.0, 990.0, 990.0, 990.0, 990.0, 990.0, 990.0, 990.0, 990.0, 990.0, 990.0, 990.0, 990.0, 990.0, 990.0, 990.0, 990.0, 990.0, 990.0, 990.0, 990.0, 990.0, 990.0, 990.0, 990.0, 990.0, 990.0, 990.0, 990.0, 990.0, 990.0, 990.0, 990.0, 990.0, 990.0, 990.0, 990.0, 990.0, 990.0, 990.0, 990.0, 990.0, 990.0, 990.0, 990.0, 991.0, 990.0, 990.0, 990.0, 989.0, 990.0, 990.0, 990.0, 990.0, 990.0, 990.0, 990.0, 990.0, 990.0, 989.0, 990.0, 989.0, 990.0, 990.0, 989.0, 990.0, 990.0, 990.0, 989.0, 990.0, 990.0, 989.0, 989.0, 990.0, 989.0, 990.0, 989.0, 989.0, 990.0, 990.0, 989.0, 990.0, 989.0, 990.0, 989.0, 989.0, 989.0, 989.0, 989.0, 989.0, 989.0, 989.0, 989.0, 989.0, 989.0, 989.0, 989.0, 989.0, 989.0, 989.0, 989.0, 989.0, 989.0, 989.0, 989.0, 989.0, 989.0, 989.0, 989.0, 989.0, 989.0, 989.0, 989.0, 989.0, 989.0, 989.0, 989.0, 989.0, 989.0, 989.0, 989.0, 989.0, 989.0, 989.0, 989.0, 989.0, 989.0, 989.0, 989.0, 989.0, 989.0, 989.0, 988.0, 988.0, 989.0, 988.0, 988.0, 988.0, 988.0, 988.0, 988.0, 988.0, 988.0, 988.0, 988.0, 988.0, 988.0, 988.0, 988.0, 988.0, 988.0, 988.0, 988.0, 988.0, 988.0, 988.0, 988.0, 988.0, 988.0, 988.0, 988.0, 988.0]
    },
    "slices": {}
  }
}