{
  "AcquisitionMatrixPE": 80,
  "AcquisitionNumber": 1,
  "AcquisitionTime": "09:03:23.232500",
  "BandwidthPerPixelPhaseEncode": 48.077,
  "BaseResolution": 80,
  "BodyPartExamined": "BRAIN",
  "CoilCombinationMethod": "Sum of Squares",
  "ConsistencyInfo": "N4_VE11C_LATEST_20160120",
  "ConversionSoftware": "dcm2niix",
  "ConversionSoftwareVersion": "v1.0.20220720",
  "DerivedVendorReportedEchoSpacing": 0.000519999,
  "DeviceSerialNumber": "66112",
  "DwellTime": 2.7e-06,
  "EchoTime": 0.035,
  "EchoTrainLength": 39,
  "EffectiveEchoSpacing": 0.00026,
  "FlipAngle": 90,
  "HeudiconvVersion": "0.13.1",
  "ImageOrientationPatientDICOM": [0.983819, 0.17904, 0.00662234, -0.171881, 0.932757, 0.316894],
  "ImageOrientationText": "Tra>Cor(18.3)>Sag(-2.9)",
  "ImageType": [
    "ORIGINAL",
    "PRIMARY",
    "M",
    "ND",
    "NORM",
    "MOSAIC"
],
  "ImagingFrequency": 123.252,
  "InPlanePhaseEncodingDirectionDICOM": "COL",
  "InstitutionAddress": "Maynard 3,Hanover,NH,US,03755",
  "InstitutionName": "Dartmouth College - PBS",
  "InstitutionalDepartmentName": "Department",
  "MRAcquisitionType": "2D",
  "MagneticFieldStrength": 3,
  "Manufacturer": "Siemens",
  "ManufacturersModelName": "Prisma",
  "MatrixCoilMode": "GRAPPA",
  "Modality": "MR",
  "NonlinearGradientCorrection": false,
  "ParallelReductionFactorInPlane": 2,
  "PartialFourier": 1,
  "PatientPosition": "HFS",
  "PercentPhaseFOV": 100,
  "PercentSampling": 100,
  "PhaseEncodingDirection": "j-",
  "PhaseEncodingSteps": 79,
  "PhaseResolution": 1,
  "PixelBandwidth": 2315,
  "ProcedureStepDescription": "dbic^QA",
  "ProtocolName": "func-bold_task-rest_acq-p2",
  "PulseSequenceDetails": "%SiemensSeq%\\ep2d_bold",
  "ReceiveCoilActiveElements": "HC1-7;NC1,2",
  "ReceiveCoilName": "HeadNeck_64",
  "ReconMatrixPE": 80,
  "RefLinesPE": 24,
  "RepetitionTime": 2,
  "SAR": 0.0361016,
  "ScanOptions": "FS",
  "ScanningSequence": "EP",
  "SequenceName": "*epfid2d1_80",
  "SequenceVariant": "SK",
  "SeriesDescription": "func-bold_task-rest_acq-p2",
  "SeriesNumber": 5,
  "ShimSetting": [4142, -7700, -7520, 209, -92, -303, -44, 46],
  "SliceThickness": 3.5,
  "SliceTiming": [0.99, 0, 1.0575, 0.0675, 1.1225, 0.1325, 1.19, 0.2, 1.255, 0.265, 1.32, 0.33, 1.3875, 0.3975, 1.4525, 0.4625, 1.5175, 0.53, 1.585, 0.595, 1.65, 0.66, 1.7175, 0.7275, 1.7825, 0.7925, 1.8475, 0.86, 1.915, 0.925],
  "SoftwareVersions": "syngo MR E11",
  "SpacingBetweenSlices": 3.99,
  "StationName": "AWP66112",
  "TaskName": "rest",
  "TotalReadoutTime": 0.02054,
  "TxRefAmp": 211.127,
  "dcmmeta_affine": [
    [-2.951458215713501, -0.5156428217887878, -0.20173346996307373, 143.32449340820312],
    [-0.5371214151382446, 2.7982704639434814, 1.2484886646270752, -97.21765899658203],
    [0.01986701413989067, -0.9506810903549194, 3.7842674255371094, -14.212292671203613],
    [0.0, 0.0, 0.0, 1.0]
],
  "dcmmeta_reorient_transform": [
    [0.0, -1.0, 0.0, 79.0],
    [1.0, 0.0, 0.0, 0.0],
    [0.0, 0.0, 1.0, 0.0],
    [0.0, 0.0, 0.0, 1.0]
],
  "dcmmeta_shape": [80, 80, 30, 200],
  "dcmmeta_slice_dim": 2,
  "dcmmeta_version": 0.6,
  "global": {
    "const": {
      "AccessionNumber": "qa64",
      "AcquisitionMatrix": [80, 0, 0, 80],
      "AngioFlag": "N",
      "BitsAllocated": 16,
      "BitsStored": 12,
      "BodyPartExamined": "BRAIN",
      "Columns": 480,
      "EchoNumbers": 1,
      "EchoTime": 35.0,
      "EchoTrainLength": 39,
      "FlipAngle": 90.0,
      "HighBit": 11,
      "ImageOrientationPatient": [0.98381942167449, 0.17904047077629, 0.00662233797615, -0.17188093413, 0.93275684141029, 0.31689370344785],
      "ImagePositionPatient": [-589.7518079673, -790.92410322649, -283.42572478256],
      "ImageType": [
        "ORIGINAL",
        "PRIMARY",
        "M",
        "ND",
        "NORM",
        "MOSAIC"
],
      "ImagedNucleus": "1H",
      "ImagingFrequency": 123.252341,
      "InPlanePhaseEncodingDirection": "COL",
      "LargestImagePixelValue": 4095,
      "MRAcquisitionType": "2D",
      "MagneticFieldStrength": 3.0,
      "Manufacturer": "SIEMENS",
      "ManufacturerModelName": "Prisma",
      "Modality": "MR",
      "NumberOfAverages": 1.0,
      "NumberOfPhaseEncodingSteps": 79,
      "PercentPhaseFieldOfView": 100.0,
      "PercentSampling": 100.0,
      "PerformedProcedureStepStartTime": "085950.734000",
      "PhotometricInterpretation": "MONOCHROME2",
      "PixelBandwidth": 2315.0,
      "PixelRepresentation": 0,
      "PixelSpacing": [3.0, 3.0],
      "ProtocolName": "func-bold_task-rest_acq-p2",
      "RepetitionTime": 2000.0,
      "Rows": 480,
      "SAR": 0.03610162295042,
      "SamplesPerPixel": 1,
      "ScanOptions": "FS",
      "ScanningSequence": "EP",
      "SequenceName": "*epfid2d1_80",
      "SequenceVariant": "SK",
      "SeriesDescription": "func-bold_task-rest_acq-p2",
      "SeriesNumber": 5,
      "SeriesTime": "090412.848000",
      "SliceLocation": -51.145765717723,
      "SliceThickness": 3.5,
      "SmallestImagePixelValue": 0,
      "SoftwareVersions": "syngo MR E11",
      "SpacingBetweenSlices": 3.9900000544402,
      "SpecificCharacterSet": "ISO_IR 100",
      "StudyID": "9",
      "StudyTime": "085950.662000",
      "TransmitCoilName": "Body",
      "VariableFlipAngleFlag": "N",
      "WindowCenterWidthExplanation": "Algo1",
      "dBdt": 0.0},
    "slices": {}
  },
  "time": {
    "samples": {
      "AcquisitionNumber": [1, 2, 3, 4, 5, 6, 7, 8, 9, 10, 11, 12, 13, 14, 15, 16, 17, 18, 19, 20, 21, 22, 23, 24, 25, 26, 27, 28, 29, 30, 31, 32, 33, 34, 35, 36, 37, 38, 39, 40, 41, 42, 43, 44, 45, 46, 47, 48, 49, 50, 51, 52, 53, 54, 55, 56, 57, 58, 59, 60, 61, 62, 63, 64, 65, 66, 67, 68, 69, 70, 71, 72, 73, 74, 75, 76, 77, 78, 79, 80, 81, 82, 83, 84, 85, 86, 87, 88, 89, 90, 91, 92, 93, 94, 95, 96, 97, 98, 99, 100, 101, 102, 103, 104, 105, 106, 107, 108, 109, 110, 111, 112, 113, 114, 115, 116, 117, 118, 119, 120, 121, 122, 123, 124, 125, 126, 127, 128, 129, 130, 131, 132, 133, 134, 135, 136, 137, 138, 139, 140, 141, 142, 143, 144, 145, 146, 147, 148, 149, 150, 151, 152, 153, 154, 155, 156, 157, 158, 159, 160, 161, 162, 163, 164, 165, 166, 167, 168, 169, 170, 171, 172, 173, 174, 175, 176, 177, 178, 179, 180, 181, 182, 183, 184, 185, 186, 187, 188, 189, 190, 191, 192, 193, 194, 195, 196, 197, 198, 199, 200],
      "AcquisitionTime": ["090323.232500", "090325.232500", "090327.232500", "090329.232500", "090331.232500", "090333.232500", "090335.232500", "090337.232500", "090339.232500", "090341.232500", "090343.232500", "090345.232500", "090347.232500", "090349.232500", "090351.232500", "090353.232500", "090355.232500", "090357.232500", "090359.232500", "090401.232500", "090403.232500", "090405.232500", "090407.232500", "090409.232500", "090411.232500", "090413.232500", "090415.232500", "090417.232500", "090419.232500", "090421.232500", "090423.232500", "090425.232500", "090427.232500", "090429.232500", "090431.232500", "090433.232500", "090435.232500", "090437.232500", "090439.232500", "090441.232500", "090443.232500", "090445.232500", "090447.232500", "090449.232500", "090451.232500", "090453.232500", "090455.232500", "090457.232500", "090459.232500", "090501.232500", "090503.232500", "090505.232500", "090507.232500", "090509.232500", "090511.232500", "090513.232500", "090515.232500", "090517.232500", "090519.232500", "090521.232500", "090523.232500", "090525.232500", "090527.232500", "090529.232500", "090531.232500", "090533.232500", "090535.232500", "090537.232500", "090539.232500", "090541.232500", "090543.232500", "090545.232500", "090547.232500", "090549.232500", "090551.232500", "090553.232500", "090555.232500", "090557.232500", "090559.232500", "090601.232500", "090603.232500", "090605.232500", "090607.232500", "090609.232500", "090611.232500", "090613.232500", "090615.232500", "090617.232500", "090619.232500", "090621.232500", "090623.232500", "090625.232500", "090627.232500", "090629.232500", "090631.232500", "090633.232500", "090635.232500", "090637.232500", "090639.232500", "090641.232500", "090643.232500", "090645.232500", "090647.232500", "090649.232500", "090651.232500", "090653.232500", "090655.232500", "090657.232500", "090659.232500", "090701.232500", "090703.232500", "090705.232500", "090707.232500", "090709.232500", "090711.232500", "090713.232500", "090715.232500", "090717.232500", "090719.232500", "090721.232500", "090723.232500", "090725.232500", "090727.232500", "090729.232500", "090731.232500", "090733.232500", "090735.232500", "090737.232500", "090739.232500", "090741.232500", "090743.232500", "090745.232500", "090747.232500", "090749.232500", "090751.232500", "090753.232500", "090755.232500", "090757.232500", "090759.232500", "090801.232500", "090803.232500", "090805.232500", "090807.232500", "090809.232500", "090811.232500", "090813.232500", "090815.232500", "090817.232500", "090819.232500", "090821.232500", "090823.232500", "090825.232500", "090827.232500", "090829.232500", "090831.232500", "090833.232500", "090835.232500", "090837.232500", "090839.232500", "090841.232500", "090843.232500", "090845.232500", "090847.232500", "090849.232500", "090851.232500", "090853.232500", "090855.232500", "090857.232500", "090859.232500", "090901.232500", "090903.232500", "090905.232500", "090907.232500", "090909.232500", "090911.232500", "090913.232500", "090915.232500", "090917.232500", "090919.232500", "090921.232500", "090923.232500", "090925.232500", "090927.232500", "090929.232500", "090931.232500", "090933.232500", "090935.232500", "090937.232500", "090939.232500", "090941.232500", "090943.232500", "090945.232500", "090947.232500", "090949.232500", "090951.232500", "090953.232500", "090955.232500", "090957.232500", "090959.232500", "091001.232500"],
      "ContentTime": ["090412.852000", "090412.855000", "090412.858000", "090412.860000", "090412.863000", "090412.865000", "090412.868000", "090412.870000", "090412.873000", "090412.875000", "090412.878000", "090412.880000", "090412.883000", "090412.885000", "090412.888000", "090412.901000", "090412.903000", "090412.906000", "090412.908000", "090412.911000", "090412.913000", "090412.916000", "090412.918000", "090412.921000", "090452.846000", "090452.849000", "090452.852000", "090452.854000", "090452.857000", "090452.859000", "090452.862000", "090452.864000", "090452.867000", "090452.869000", "090452.872000", "090452.874000", "090452.877000", "090452.880000", "090452.882000", "090452.885000", "090452.887000", "090452.890000", "090452.892000", "090452.895000", "090532.846000", "090532.849000", "090532.852000", "090532.855000", "090532.857000", "090532.860000", "090532.863000", "090532.865000", "090532.868000", "090532.870000", "090532.873000", "090532.875000", "090532.878000", "090532.880000", "090532.883000", "090532.885000", "090532.888000", "090532.890000", "090532.893000", "090532.895000", "090612.847000", "090612.849000", "090612.852000", "090612.855000", "090612.857000", "090612.860000", "090612.862000", "090612.865000", "090612.867000", "090612.870000", "090612.872000", "090612.875000", "090612.877000", "090612.880000", "090612.882000", "090612.885000", "090612.887000", "090612.890000", "090612.892000", "090612.895000", "090632.846000", "090632.849000", "090632.852000", "090632.854000", "090632.857000", "090632.859000", "090632.862000", "090632.864000", "090632.867000", "090632.869000", "090712.846000", "090712.849000", "090712.852000", "090712.854000", "090712.857000", "090712.859000", "090712.862000", "090712.864000", "090712.867000", "090712.869000", "090712.872000", "090712.874000", "090712.877000", "090712.879000", "090712.882000", "090712.884000", "090712.887000", "090712.890000", "090712.892000", "090712.895000", "090752.847000", "090752.849000", "090752.852000", "090752.854000", "090752.857000", "090752.870000", "090752.873000", "090752.876000", "090752.878000", "090752.881000", "090752.883000", "090752.886000", "090752.901000", "090752.904000", "090752.907000", "090752.909000", "090752.912000", "090752.914000", "090752.917000", "090752.919000", "090832.846000", "090832.849000", "090832.852000", "090832.854000", "090832.857000", "090832.859000", "090832.862000", "090832.864000", "090832.867000", "090832.870000", "090832.872000", "090832.875000", "090832.877000", "090832.880000", "090832.882000", "090832.885000", "090832.887000", "090832.890000", "090832.892000", "090832.895000", "090912.847000", "090912.850000", "090912.853000", "090912.855000", "090912.858000", "090912.860000", "090912.863000", "090912.865000", "090912.868000", "090912.870000", "090912.873000", "090912.876000", "090912.878000", "090912.881000", "090912.883000", "090912.886000", "090912.888000", "090912.891000", "090912.893000", "090912.896000", "090952.846000", "090952.849000", "090952.852000", "090952.854000", "090952.857000", "090952.859000", "090952.862000", "090952.864000", "090952.867000", "090952.869000", "090952.872000", "090952.874000", "090952.877000", "090952.880000", "090952.882000", "090952.885000", "090952.887000", "090952.890000", "090952.892000", "090952.895000", "091003.129000", "091003.132000", "091003.134000", "091003.137000", "091003.140000", "091003.142000"],
      "InstanceCreationTime": ["090412.852000", "090412.855000", "090412.858000", "090412.860000", "090412.863000", "090412.865000", "090412.868000", "090412.870000", "090412.873000", "090412.875000", "090412.878000", "090412.880000", "090412.883000", "090412.885000", "090412.888000", "090412.901000", "090412.903000", "090412.906000", "090412.908000", "090412.911000", "090412.913000", "090412.916000", "090412.918000", "090412.921000", "090452.846000", "090452.849000", "090452.852000", "090452.854000", "090452.857000", "090452.859000", "090452.862000", "090452.864000", "090452.867000", "090452.869000", "090452.872000", "090452.874000", "090452.877000", "090452.880000", "090452.882000", "090452.885000", "090452.887000", "090452.890000", "090452.892000", "090452.895000", "090532.846000", "090532.849000", "090532.852000", "090532.855000", "090532.857000", "090532.860000", "090532.863000", "090532.865000", "090532.868000", "090532.870000", "090532.873000", "090532.875000", "090532.878000", "090532.880000", "090532.883000", "090532.885000", "090532.888000", "090532.890000", "090532.893000", "090532.895000", "090612.847000", "090612.849000", "090612.852000", "090612.855000", "090612.857000", "090612.860000", "090612.862000", "090612.865000", "090612.867000", "090612.870000", "090612.872000", "090612.875000", "090612.877000", "090612.880000", "090612.882000", "090612.885000", "090612.887000", "090612.890000", "090612.892000", "090612.895000", "090632.846000", "090632.849000", "090632.852000", "090632.854000", "090632.857000", "090632.859000", "090632.862000", "090632.864000", "090632.867000", "090632.869000", "090712.846000", "090712.849000", "090712.852000", "090712.854000", "090712.857000", "090712.859000", "090712.862000", "090712.864000", "090712.867000", "090712.869000", "090712.872000", "090712.874000", "090712.877000", "090712.879000", "090712.882000", "090712.884000", "090712.887000", "090712.890000", "090712.892000", "090712.895000", "090752.847000", "090752.849000", "090752.852000", "090752.854000", "090752.857000", "090752.870000", "090752.873000", "090752.876000", "090752.878000", "090752.881000", "090752.883000", "090752.886000", "090752.901000", "090752.904000", "090752.907000", "090752.909000", "090752.912000", "090752.914000", "090752.917000", "090752.919000", "090832.846000", "090832.849000", "090832.852000", "090832.854000", "090832.857000", "090832.859000", "090832.862000", "090832.864000", "090832.867000", "090832.870000", "090832.872000", "090832.875000", "090832.877000", "090832.880000", "090832.882000", "090832.885000", "090832.887000", "090832.890000", "090832.892000", "090832.895000", "090912.847000", "090912.850000", "090912.853000", "090912.855000", "090912.858000", "090912.860000", "090912.863000", "090912.865000", "090912.868000", "090912.870000", "090912.873000", "090912.876000", "090912.878000", "090912.881000", "090912.883000", "090912.886000", "090912.888000", "090912.891000", "090912.893000", "090912.896000", "090952.846000", "090952.849000", "090952.852000", "090952.854000", "090952.857000", "090952.859000", "090952.862000", "090952.864000", "090952.867000", "090952.869000", "090952.872000", "090952.874000", "090952.877000", "090952.880000", "090952.882000", "090952.885000", "090952.887000", "090952.890000", "090952.892000", "090952.895000", "091003.129000", "091003.132000", "091003.134000", "091003.137000", "091003.140000", "091003.142000"],
      "InstanceNumber": [1, 2, 3, 4, 5, 6, 7, 8, 9, 10, 11, 12, 13, 14, 15, 16, 17, 18, 19, 20, 21, 22, 23, 24, 25, 26, 27, 28, 29, 30, 31, 32, 33, 34, 35, 36, 37, 38, 39, 40, 41, 42, 43, 44, 45, 46, 47, 48, 49, 50, 51, 52, 53, 54, 55, 56, 57, 58, 59, 60, 61, 62, 63, 64, 65, 66, 67, 68, 69, 70, 71, 72, 73, 74, 75, 76, 77, 78, 79, 80, 81, 82, 83, 84, 85, 86, 87, 88, 89, 90, 91, 92, 93, 94, 95, 96, 97, 98, 99, 100, 101, 102, 103, 104, 105, 106, 107, 108, 109, 110, 111, 112, 113, 114, 115, 116, 117, 118, 119, 120, 121, 122, 123, 124, 125, 126, 127, 128, 129, 130, 131, 132, 133, 134, 135, 136, 137, 138, 139, 140, 141, 142, 143, 144, 145, 146, 147, 148, 149, 150, 151, 152, 153, 154, 155, 156, 157, 158, 159, 160, 161, 162, 163, 164, 165, 166, 167, 168, 169, 170, 171, 172, 173, 174, 175, 176, 177, 178, 179, 180, 181, 182, 183, 184, 185, 186, 187, 188, 189, 190, 191, 192, 193, 194, 195, 196, 197, 198, 199, 200],
      "WindowCenter": [1532.0, 1531.0, 1531.0, 1532.0, 1532.0, 1531.0, 1531.0, 1532.0, 1531.0, 1530.0, 1530.0, 1529.0, 1529.0, 1529.0, 1529.0, 1529.0, 1529.0, 1529.0, 1529.0, 1528.0, 1528.0, 1528.0, 1528.0, 1527.0, 1529.0, 1528.0, 1527.0, 1528.0, 1527.0, 1527.0, 1528.0, 1527.0, 1526.0, 1526.0, 1525.0, 1526.0, 1525.0, 1525.0, 1525.0, 1525.0, 1525.0, 1524.0, 1526.0, 1524.0, 1524.0, 1525.0, 1524.0, 1525.0, 1523.0, 1524.0, 1525.0, 1524.0, 1523.0, 1525.0, 1524.0, 1523.0, 1524.0, 1524.0, 1523.0, 1523.0, 1523.0, 1523.0, 1522.0, 1523.0, 1522.0, 1523.0, 1523.0, 1523.0, 1523.0, 1522.0, 1522.0, 1521.0, 1522.0, 1521.0, 1521.0, 1521.0, 1522.0, 1521.0, 1520.0, 1521.0, 1520.0, 1521.0, 1521.0, 1521.0, 1520.0, 1520.0, 1520.0, 1520.0, 1521.0, 1520.0, 1520.0, 1520.0, 1521.0, 1520.0, 1521.0, 1520.0, 1520.0, 1520.0, 1520.0, 1520.0, 1520.0, 1520.0, 1520.0, 1519.0, 1519.0, 1519.0, 1519.0, 1520.0, 1519.0, 1519.0, 1519.0, 1519.0, 1519.0, 1518.0, 1519.0, 1519.0, 1518.0, 1519.0, 1518.0, 1517.0, 1518.0, 1518.0, 1518.0, 1517.0, 1517.0, 1518.0, 1517.0, 1518.0, 1519.0, 1517.0, 1517.0, 1517.0, 1517.0, 1517.0, 1516.0, 1516.0, 1517.0, 1516.0, 1517.0, 1516.0, 1516.0, 1516.0, 1517.0, 1516.0, 1516.0, 1516.0, 1516.0, 1516.0, 1516.0, 1516.0, 1516.0, 1516.0, 1516.0, 1516.0, 1516.0, 1515.0, 1515.0, 1515.0, 1515.0, 1516.0, 1515.0, 1517.0, 1515.0, 1516.0, 1516.0, 1516.0, 1515.0, 1516.0, 1515.0, 1516.0, 1516.0, 1515.0, 1515.0, 1515.0, 1515.0, 1515.0, 1516.0, 1515.0, 1515.0, 1515.0, 1515.0, 1515.0, 1516.0, 1515.0, 1515.0, 1515.0, 1515.0, 1515.0, 1515.0, 1515.0, 1515.0, 1515.0, 1515.0, 1515.0, 1515.0, 1516.0, 1515.0, 1514.0, 1514.0, 1515.0],
      "WindowWidth": [3425.0, 3425.0, 3424.0, 3424.0, 3424.0, 3423.0, 3423.0, 3423.0, 3424.0, 3423.0, 3423.0, 3424.0, 3424.0, 3424.0, 3423.0, 3423.0, 3423.0, 3423.0, 3423.0, 3423.0, 3423.0, 3423.0, 3423.0, 3423.0, 3422.0, 3423.0, 3422.0, 3423.0, 3423.0, 3423.0, 3422.0, 3422.0, 3423.0, 3422.0, 3423.0, 3423.0, 3422.0, 3423.0, 3422.0, 3423.0, 3422.0, 3422.0, 3422.0, 3422.0, 3422.0, 3422.0, 3422.0, 3422.0, 3422.0, 3422.0, 3422.0, 3422.0, 3422.0, 3422.0, 3422.0, 3422.0, 3422.0, 3422.0, 3422.0, 3422.0, 3422.0, 3422.0, 3422.0, 3422.0, 3422.0, 3421.0, 3421.0, 3421.0, 3421.0, 3422.0, 3422.0, 3422.0, 3421.0, 3422.0, 3422.0, 3422.0, 3421.0, 3421.0, 3421.0, 3421.0, 3421.0, 3421.0, 3421.0, 3420.0, 3421.0, 3421.0, 3421.0, 3421.0, 3420.0, 3421.0, 3421.0, 3421.0, 3420.0, 3420.0, 3420.0, 3420.0, 3420.0, 3420.0, 3420.0, 3420.0, 3420.0, 3419.0, 3420.0, 3420.0, 3420.0, 3420.0, 3420.0, 3419.0, 3420.0, 3420.0, 3420.0, 3420.0, 3419.0, 3420.0, 3420.0, 3420.0, 3420.0, 3420.0, 3420.0, 3420.0, 3420.0, 3419.0, 3420.0, 3420.0, 3420.0, 3420.0, 3420.0, 3420.0, 3420.0, 3420.0, 3420.0, 3420.0, 3420.0, 3420.0, 3420.0, 3420.0, 3420.0, 3420.0, 3419.0, 3420.0, 3420.0, 3420.0, 3419.0, 3420.0, 3420.0, 3420.0, 3420.0, 3420.0, 3420.0, 3420.0, 3420.0, 3420.0, 3419.0, 3419.0, 3420.0, 3419.0, 3420.0, 3420.0, 3420.0, 3420.0, 3420.0, 3419.0, 3419.0, 3419.0, 3419.0, 3419.0, 3420.0, 3419.0, 3419.0, 3419.0, 3419.0, 3420.0, 3420.0, 3420.0, 3420.0, 3420.0, 3419.0, 3419.0, 3419.0, 3420.0, 3420.0, 3420.0, 3419.0, 3419.0, 3419.0, 3419.0, 3419.0, 3419.0, 3419.0, 3419.0, 3419.0, 3419.0, 3419.0, 3419.0, 3418.0, 3418.0, 3418.0, 3419.0, 3419.0, 3418.0]
    },
    "slices": {}
  }
}