{
  "AcquisitionMatrixPE": 80,
  "AcquisitionNumber": 1,
  "AcquisitionTime": "09:10:14.555000",
  "BandwidthPerPixelPhaseEncode": 25,
  "BaseResolution": 80,
  "BodyPartExamined": "BRAIN",
  "CoilCombinationMethod": "Sum of Squares",
  "ConsistencyInfo": "N4_VE11C_LATEST_20160120",
  "ConversionSoftware": "dcm2niix",
  "ConversionSoftwareVersion": "v1.0.20220720",
  "DerivedVendorReportedEchoSpacing": 0.0005,
  "DeviceSerialNumber": "66112",
  "DwellTime": 2.7e-06,
  "EchoTime": 0.03,
  "EchoTrainLength": 80,
  "EffectiveEchoSpacing": 0.0005,
  "FlipAngle": 77,
  "HeudiconvVersion": "0.13.1",
  "ImageOrientationPatientDICOM": [0.983789, 0.179203, 0.00667764, -0.172053, 0.932726, 0.316893],
  "ImageOrientationText": "Tra>Cor(18.3)>Sag(-2.9)",
  "ImageType": [
    "ORIGINAL",
    "PRIMARY",
    "M",
    "ND",
    "NORM",
    "MOSAIC"
],
  "ImagingFrequency": 123.252,
  "InPlanePhaseEncodingDirectionDICOM": "COL",
  "InstitutionAddress": "Maynard 3,Hanover,NH,US,03755",
  "InstitutionName": "Dartmouth College - PBS",
  "InstitutionalDepartmentName": "Department",
  "MRAcquisitionType": "2D",
  "MagneticFieldStrength": 3,
  "Manufacturer": "Siemens",
  "ManufacturersModelName": "Prisma",
  "MatrixCoilMode": "SENSE",
  "Modality": "MR",
  "NonlinearGradientCorrection": false,
  "PartialFourier": 1,
  "PatientPosition": "HFS",
  "PercentPhaseFOV": 100,
  "PercentSampling": 100,
  "PhaseEncodingDirection": "j-",
  "PhaseEncodingSteps": 80,
  "PhaseResolution": 1,
  "PixelBandwidth": 2315,
  "ProcedureStepDescription": "dbic^QA",
  "ProtocolName": "func-bold_fa-77",
  "PulseSequenceDetails": "%SiemensSeq%\\ep2d_bold",
  "ReceiveCoilActiveElements": "HC1-7;NC1,2",
  "ReceiveCoilName": "HeadNeck_64",
  "ReconMatrixPE": 80,
  "RepetitionTime": 2,
  "SAR": 0.0283705,
  "ScanOptions": "FS",
  "ScanningSequence": "EP",
  "SequenceName": "*epfid2d1_80",
  "SequenceVariant": "SK",
  "SeriesDescription": "func-bold_fa-77",
  "SeriesNumber": 7,
  "ShimSetting": [4142, -7700, -7520, 210, -93, -302, -43, 46],
  "SliceThickness": 3.5,
  "SliceTiming": [0.99, 0, 1.0575, 0.0675, 1.1225, 0.1325, 1.1875, 0.2, 1.255, 0.265, 1.32, 0.33, 1.3875, 0.3975, 1.4525, 0.4625, 1.5175, 0.5275, 1.585, 0.595, 1.65, 0.66, 1.7175, 0.7275, 1.7825, 0.7925, 1.8475, 0.8575, 1.915, 0.925],
  "SoftwareVersions": "syngo MR E11",
  "SpacingBetweenSlices": 3.99,
  "StationName": "AWP66112",
  "TotalReadoutTime": 0.0395,
  "TxRefAmp": 211.127,
  "dcmmeta_affine": [
    [-2.9513683319091797, -0.516157865524292, -0.20173346996307373, 141.05722045898438],
    [-0.5376097559928894, 2.7981767654418945, 1.2484886646270752, -95.34683227539062],
    [0.02003292180597782, -0.9506776332855225, 3.7842674255371094, -13.602761268615723],
    [0.0, 0.0, 0.0, 1.0]
],
  "dcmmeta_reorient_transform": [
    [0.0, -1.0, 0.0, 79.0],
    [1.0, 0.0, 0.0, 0.0],
    [0.0, 0.0, 1.0, 0.0],
    [0.0, 0.0, 0.0, 1.0]
],
  "dcmmeta_shape": [80, 80, 30, 200],
  "dcmmeta_slice_dim": 2,
  "dcmmeta_version": 0.6,
  "global": {
    "const": {
      "AccessionNumber": "qa64",
      "AcquisitionMatrix": [80, 0, 0, 80],
      "AngioFlag": "N",
      "BitsAllocated": 16,
      "BitsStored": 12,
      "BodyPartExamined": "BRAIN",
      "Columns": 480,
      "EchoNumbers": 1,
      "EchoTime": 30.0,
      "EchoTrainLength": 80,
      "FlipAngle": 77.0,
      "HighBit": 11,
      "ImageOrientationPatient": [0.9837894119226, 0.17920324245376, 0.00667764052978, -0.1720526172658, 0.93272558224035, 0.3168925450786],
      "ImagePositionPatient": [-587.32283211682, -792.86642845475, -282.84840610508],
      "ImageType": [
        "ORIGINAL",
        "PRIMARY",
        "M",
        "ND",
        "NORM",
        "MOSAIC"
],
      "ImagedNucleus": "1H",
      "ImagingFrequency": 123.25234,
      "InPlanePhaseEncodingDirection": "COL",
      "MRAcquisitionType": "2D",
      "MagneticFieldStrength": 3.0,
      "Manufacturer": "SIEMENS",
      "ManufacturerModelName": "Prisma",
      "Modality": "MR",
      "NumberOfAverages": 1.0,
      "NumberOfPhaseEncodingSteps": 80,
      "PercentPhaseFieldOfView": 100.0,
      "PercentSampling": 100.0,
      "PerformedProcedureStepStartTime": "085950.734000",
      "PhotometricInterpretation": "MONOCHROME2",
      "PixelBandwidth": 2315.0,
      "PixelRepresentation": 0,
      "PixelSpacing": [3.0, 3.0],
      "ProtocolName": "func-bold_fa-77",
      "RepetitionTime": 2000.0,
      "Rows": 480,
      "SAR": 0.02837045661424,
      "SamplesPerPixel": 1,
      "ScanOptions": "FS",
      "ScanningSequence": "EP",
      "SequenceName": "*epfid2d1_80",
      "SequenceVariant": "SK",
      "SeriesDescription": "func-bold_fa-77",
      "SeriesNumber": 7,
      "SeriesTime": "091112.918000",
      "SliceLocation": -49.867641246559,
      "SliceThickness": 3.5,
      "SmallestImagePixelValue": 0,
      "SoftwareVersions": "syngo MR E11",
      "SpacingBetweenSlices": 3.9900000442541,
      "SpecificCharacterSet": "ISO_IR 100",
      "StudyID": "9",
      "StudyTime": "085950.662000",
      "TransmitCoilName": "Body",
      "VariableFlipAngleFlag": "N",
      "WindowCenterWidthExplanation": "Algo1",
      "dBdt": 0.0},
    "slices": {}
  },
  "time": {
    "samples": {
      "AcquisitionNumber": [1, 2, 3, 4, 5, 6, 7, 8, 9, 10, 11, 12, 13, 14, 15, 16, 17, 18, 19, 20, 21, 22, 23, 24, 25, 26, 27, 28, 29, 30, 31, 32, 33, 34, 35, 36, 37, 38, 39, 40, 41, 42, 43, 44, 45, 46, 47, 48, 49, 50, 51, 52, 53, 54, 55, 56, 57, 58, 59, 60, 61, 62, 63, 64, 65, 66, 67, 68, 69, 70, 71, 72, 73, 74, 75, 76, 77, 78, 79, 80, 81, 82, 83, 84, 85, 86, 87, 88, 89, 90, 91, 92, 93, 94, 95, 96, 97, 98, 99, 100, 101, 102, 103, 104, 105, 106, 107, 108, 109, 110, 111, 112, 113, 114, 115, 116, 117, 118, 119, 120, 121, 122, 123, 124, 125, 126, 127, 128, 129, 130, 131, 132, 133, 134, 135, 136, 137, 138, 139, 140, 141, 142, 143, 144, 145, 146, 147, 148, 149, 150, 151, 152, 153, 154, 155, 156, 157, 158, 159, 160, 161, 162, 163, 164, 165, 166, 167, 168, 169, 170, 171, 172, 173, 174, 175, 176, 177, 178, 179, 180, 181, 182, 183, 184, 185, 186, 187, 188, 189, 190, 191, 192, 193, 194, 195, 196, 197, 198, 199, 200],
      "AcquisitionTime": ["091014.555000", "091016.555000", "091018.555000", "091020.555000", "091022.555000", "091024.555000", "091026.555000", "091028.555000", "091030.555000", "091032.555000", "091034.555000", "091036.555000", "091038.555000", "091040.555000", "091042.555000", "091044.555000", "091046.555000", "091048.555000", "091050.555000", "091052.555000", "091054.555000", "091056.555000", "091058.555000", "091100.555000", "091102.555000", "091104.555000", "091106.555000", "091108.555000", "091110.555000", "091112.555000", "091114.555000", "091116.555000", "091118.555000", "091120.555000", "091122.555000", "091124.555000", "091126.555000", "091128.555000", "091130.555000", "091132.555000", "091134.555000", "091136.555000", "091138.555000", "091140.555000", "091142.555000", "091144.555000", "091146.555000", "091148.555000", "091150.555000", "091152.555000", "091154.555000", "091156.555000", "091158.555000", "091200.555000", "091202.555000", "091204.555000", "091206.555000", "091208.555000", "091210.555000", "091212.555000", "091214.555000", "091216.555000", "091218.555000", "091220.555000", "091222.555000", "091224.555000", "091226.555000", "091228.555000", "091230.555000", "091232.555000", "091234.555000", "091236.555000", "091238.555000", "091240.555000", "091242.555000", "091244.555000", "091246.555000", "091248.555000", "091250.555000", "091252.555000", "091254.555000", "091256.555000", "091258.555000", "091300.555000", "091302.555000", "091304.555000", "091306.555000", "091308.555000", "091310.555000", "091312.555000", "091314.555000", "091316.555000", "091318.555000", "091320.555000", "091322.555000", "091324.555000", "091326.555000", "091328.555000", "091330.555000", "091332.555000", "091334.555000", "091336.555000", "091338.555000", "091340.555000", "091342.555000", "091344.555000", "091346.555000", "091348.555000", "091350.555000", "091352.555000", "091354.555000", "091356.555000", "091358.555000", "091400.555000", "091402.555000", "091404.555000", "091406.555000", "091408.555000", "091410.555000", "091412.555000", "091414.555000", "091416.555000", "091418.555000", "091420.555000", "091422.555000", "091424.555000", "091426.555000", "091428.555000", "091430.555000", "091432.555000", "091434.555000", "091436.555000", "091438.555000", "091440.555000", "091442.555000", "091444.555000", "091446.555000", "091448.555000", "091450.555000", "091452.555000", "091454.555000", "091456.555000", "091458.555000", "091500.555000", "091502.555000", "091504.555000", "091506.555000", "091508.555000", "091510.555000", "091512.555000", "091514.555000", "091516.555000", "091518.555000", "091520.555000", "091522.555000", "091524.555000", "091526.555000", "091528.555000", "091530.555000", "091532.555000", "091534.555000", "091536.555000", "091538.555000", "091540.555000", "091542.555000", "091544.555000", "091546.555000", "091548.555000", "091550.555000", "091552.555000", "091554.555000", "091556.555000", "091558.555000", "091600.555000", "091602.555000", "091604.555000", "091606.555000", "091608.555000", "091610.555000", "091612.555000", "091614.555000", "091616.555000", "091618.555000", "091620.555000", "091622.555000", "091624.555000", "091626.555000", "091628.555000", "091630.555000", "091632.555000", "091634.555000", "091636.555000", "091638.555000", "091640.555000", "091642.555000", "091644.555000", "091646.555000", "091648.555000", "091650.555000", "091652.555000"],
      "ContentTime": ["091112.921000", "091112.925000", "091112.927000", "091112.930000", "091112.932000", "091112.935000", "091112.937000", "091112.940000", "091112.942000", "091112.945000", "091112.947000", "091112.950000", "091112.952000", "091112.955000", "091112.962000", "091112.964000", "091112.967000", "091112.969000", "091112.972000", "091112.974000", "091112.976000", "091112.979000", "091112.982000", "091112.984000", "091112.987000", "091112.989000", "091112.992000", "091112.994000", "091112.996000", "091152.916000", "091152.919000", "091152.922000", "091152.924000", "091152.927000", "091152.929000", "091152.932000", "091152.934000", "091152.937000", "091152.939000", "091152.942000", "091152.944000", "091152.947000", "091152.949000", "091152.952000", "091152.954000", "091152.957000", "091152.959000", "091152.962000", "091152.964000", "091232.917000", "091232.919000", "091232.922000", "091232.924000", "091232.927000", "091232.929000", "091232.932000", "091232.934000", "091232.937000", "091232.939000", "091232.942000", "091232.944000", "091232.947000", "091232.949000", "091232.952000", "091232.954000", "091232.957000", "091232.959000", "091232.962000", "091232.964000", "091312.916000", "091312.919000", "091312.922000", "091312.924000", "091312.927000", "091312.929000", "091312.932000", "091312.934000", "091312.937000", "091312.939000", "091312.942000", "091312.952000", "091312.954000", "091312.957000", "091312.959000", "091312.962000", "091312.964000", "091312.967000", "091312.969000", "091312.971000", "091352.917000", "091352.920000", "091352.923000", "091352.925000", "091352.928000", "091352.930000", "091352.933000", "091352.935000", "091352.938000", "091352.940000", "091352.943000", "091352.945000", "091352.947000", "091352.950000", "091352.953000", "091352.955000", "091352.958000", "091352.960000", "091352.963000", "091352.965000", "091432.916000", "091432.919000", "091432.922000", "091432.924000", "091432.927000", "091432.929000", "091432.932000", "091432.934000", "091432.937000", "091432.939000", "091432.942000", "091432.944000", "091432.947000", "091432.949000", "091432.952000", "091432.954000", "091432.957000", "091432.959000", "091432.962000", "091432.964000", "091512.916000", "091512.919000", "091512.922000", "091512.924000", "091512.927000", "091512.929000", "091512.932000", "091512.934000", "091512.937000", "091512.939000", "091512.942000", "091512.944000", "091512.947000", "091512.949000", "091512.951000", "091512.954000", "091512.956000", "091512.959000", "091512.961000", "091512.964000", "091552.916000", "091552.919000", "091552.922000", "091552.924000", "091552.927000", "091552.929000", "091552.932000", "091552.934000", "091552.937000", "091552.939000", "091552.942000", "091552.944000", "091552.947000", "091552.949000", "091552.951000", "091552.954000", "091552.956000", "091552.959000", "091552.962000", "091552.964000", "091612.918000", "091612.920000", "091612.939000", "091612.941000", "091612.944000", "091612.946000", "091612.949000", "091612.951000", "091612.954000", "091612.956000", "091652.917000", "091652.919000", "091652.922000", "091652.925000", "091652.927000", "091652.930000", "091652.932000", "091652.934000", "091652.937000", "091652.940000", "091652.942000", "091652.945000", "091652.947000", "091652.949000", "091652.952000", "091652.954000", "091652.957000", "091652.959000", "091652.962000", "091652.964000", "091654.176000"],
      "InstanceCreationTime": ["091112.921000", "091112.925000", "091112.927000", "091112.930000", "091112.932000", "091112.935000", "091112.937000", "091112.940000", "091112.942000", "091112.945000", "091112.947000", "091112.950000", "091112.952000", "091112.955000", "091112.962000", "091112.964000", "091112.967000", "091112.969000", "091112.972000", "091112.974000", "091112.976000", "091112.979000", "091112.982000", "091112.984000", "091112.987000", "091112.989000", "091112.992000", "091112.994000", "091112.996000", "091152.916000", "091152.919000", "091152.922000", "091152.924000", "091152.927000", "091152.929000", "091152.932000", "091152.934000", "091152.937000", "091152.939000", "091152.942000", "091152.944000", "091152.947000", "091152.949000", "091152.952000", "091152.954000", "091152.957000", "091152.959000", "091152.962000", "091152.964000", "091232.917000", "091232.919000", "091232.922000", "091232.924000", "091232.927000", "091232.929000", "091232.932000", "091232.934000", "091232.937000", "091232.939000", "091232.942000", "091232.944000", "091232.947000", "091232.949000", "091232.952000", "091232.954000", "091232.957000", "091232.959000", "091232.962000", "091232.964000", "091312.916000", "091312.919000", "091312.922000", "091312.924000", "091312.927000", "091312.929000", "091312.932000", "091312.934000", "091312.937000", "091312.939000", "091312.942000", "091312.952000", "091312.954000", "091312.957000", "091312.959000", "091312.962000", "091312.964000", "091312.967000", "091312.969000", "091312.971000", "091352.917000", "091352.920000", "091352.923000", "091352.925000", "091352.928000", "091352.930000", "091352.933000", "091352.935000", "091352.938000", "091352.940000", "091352.943000", "091352.945000", "091352.947000", "091352.950000", "091352.953000", "091352.955000", "091352.958000", "091352.960000", "091352.963000", "091352.965000", "091432.916000", "091432.919000", "091432.922000", "091432.924000", "091432.927000", "091432.929000", "091432.932000", "091432.934000", "091432.937000", "091432.939000", "091432.942000", "091432.944000", "091432.947000", "091432.949000", "091432.952000", "091432.954000", "091432.957000", "091432.959000", "091432.962000", "091432.964000", "091512.916000", "091512.919000", "091512.922000", "091512.924000", "091512.927000", "091512.929000", "091512.932000", "091512.934000", "091512.937000", "091512.939000", "091512.942000", "091512.944000", "091512.947000", "091512.949000", "091512.951000", "091512.954000", "091512.956000", "091512.959000", "091512.961000", "091512.964000", "091552.916000", "091552.919000", "091552.922000", "091552.924000", "091552.927000", "091552.929000", "091552.932000", "091552.934000", "091552.937000", "091552.939000", "091552.942000", "091552.944000", "091552.947000", "091552.949000", "091552.951000", "091552.954000", "091552.956000", "091552.959000", "091552.962000", "091552.964000", "091612.918000", "091612.920000", "091612.939000", "091612.941000", "091612.944000", "091612.946000", "091612.949000", "091612.951000", "091612.954000", "091612.956000", "091652.917000", "091652.919000", "091652.922000", "091652.925000", "091652.927000", "091652.930000", "091652.932000", "091652.934000", "091652.937000", "091652.940000", "091652.942000", "091652.945000", "091652.947000", "091652.949000", "091652.952000", "091652.954000", "091652.957000", "091652.959000", "091652.962000", "091652.964000", "091654.176000"],
      "InstanceNumber": [1, 2, 3, 4, 5, 6, 7, 8, 9, 10, 11, 12, 13, 14, 15, 16, 17, 18, 19, 20, 21, 22, 23, 24, 25, 26, 27, 28, 29, 30, 31, 32, 33, 34, 35, 36, 37, 38, 39, 40, 41, 42, 43, 44, 45, 46, 47, 48, 49, 50, 51, 52, 53, 54, 55, 56, 57, 58, 59, 60, 61, 62, 63, 64, 65, 66, 67, 68, 69, 70, 71, 72, 73, 74, 75, 76, 77, 78, 79, 80, 81, 82, 83, 84, 85, 86, 87, 88, 89, 90, 91, 92, 93, 94, 95, 96, 97, 98, 99, 100, 101, 102, 103, 104, 105, 106, 107, 108, 109, 110, 111, 112, 113, 114, 115, 116, 117, 118, 119, 120, 121, 122, 123, 124, 125, 126, 127, 128, 129, 130, 131, 132, 133, 134, 135, 136, 137, 138, 139, 140, 141, 142, 143, 144, 145, 146, 147, 148, 149, 150, 151, 152, 153, 154, 155, 156, 157, 158, 159, 160, 161, 162, 163, 164, 165, 166, 167, 168, 169, 170, 171, 172, 173, 174, 175, 176, 177, 178, 179, 180, 181, 182, 183, 184, 185, 186, 187, 188, 189, 190, 191, 192, 193, 194, 195, 196, 197, 198, 199, 200],
      "LargestImagePixelValue": [4095, 4095, 4095, 4095, 4095, 4095, 4095, 4095, 4095, 4095, 4095, 4095, 4095, 4095, 4095, 4095, 4095, 4095, 4095, 4095, 4095, 4095, 4095, 4095, 4095, 4095, 4095, 4095, 4095, 4095, 4095, 4095, 4095, 4095, 4095, 4095, 4095, 4095, 4095, 4095, 4095, 4095, 4095, 4095, 4095, 4095, 4095, 4095, 4095, 4095, 4095, 4095, 4095, 4095, 4095, 4095, 4095, 4095, 4095, 4095, 4095, 4095, 4095, 4095, 4095, 4095, 4095, 4095, 4095, 4095, 4095, 4095, 4095, 4095, 4095, 4095, 4095, 4095, 4095, 4095, 4095, 4095, 4095, 4095, 4095, 4095, 4095, 4095, 4095, 4095, 4095, 4095, 4095, 4095, 4095, 4095, 4095, 4095, 4095, 4095, 4095, 4095, 4095, 4095, 4095, 4095, 4095, 4095, 4095, 4095, 4095, 4095, 4095, 4095, 4095, 4095, 4095, 4095, 4095, 4095, 4095, 4095, 4095, 4095, 4095, 4095, 4095, 4095, 4095, 4095, 4095, 4095, 4095, 4095, 4095, 4095, 4095, 4095, 4095, 4095, 4095, 4095, 4095, 4095, 4095, 4095, 4095, 4088, 4090, 4083, 4073, 4076, 4075, 4080, 4071, 4076, 4078, 4081, 4079, 4092, 4093, 4089, 4083, 4095, 4095, 4084, 4094, 4095, 4095, 4095, 4095, 4095, 4095, 4095, 4093, 4090, 4095, 4095, 4095, 4095, 4095, 4095, 4095, 4095, 4095, 4095, 4095, 4095, 4095, 4095, 4095, 4095, 4095, 4095, 4095, 4095, 4095, 4095, 4095, 4095],
      "WindowCenter": [1431.0, 1430.0, 1430.0, 1430.0, 1430.0, 1430.0, 1430.0, 1429.0, 1429.0, 1429.0, 1429.0, 1430.0, 1430.0, 1429.0, 1430.0, 1429.0, 1429.0, 1430.0, 1429.0, 1429.0, 1428.0, 1428.0, 1428.0, 1429.0, 1429.0, 1429.0, 1429.0, 1429.0, 1429.0, 1429.0, 1429.0, 1429.0, 1428.0, 1428.0, 1429.0, 1429.0, 1428.0, 1429.0, 1428.0, 1428.0, 1429.0, 1427.0, 1429.0, 1429.0, 1429.0, 1428.0, 1428.0, 1428.0, 1428.0, 1428.0, 1428.0, 1428.0, 1428.0, 1428.0, 1428.0, 1428.0, 1428.0, 1427.0, 1427.0, 1428.0, 1427.0, 1427.0, 1427.0, 1428.0, 1427.0, 1427.0, 1427.0, 1427.0, 1427.0, 1428.0, 1427.0, 1427.0, 1427.0, 1427.0, 1426.0, 1426.0, 1427.0, 1427.0, 1427.0, 1426.0, 1426.0, 1426.0, 1426.0, 1427.0, 1426.0, 1427.0, 1426.0, 1426.0, 1426.0, 1425.0, 1426.0, 1426.0, 1426.0, 1425.0, 1425.0, 1426.0, 1426.0, 1426.0, 1426.0, 1426.0, 1426.0, 1425.0, 1425.0, 1425.0, 1426.0, 1426.0, 1425.0, 1426.0, 1426.0, 1425.0, 1426.0, 1425.0, 1425.0, 1425.0, 1425.0, 1426.0, 1425.0, 1425.0, 1425.0, 1425.0, 1425.0, 1426.0, 1425.0, 1425.0, 1424.0, 1424.0, 1425.0, 1425.0, 1425.0, 1425.0, 1425.0, 1425.0, 1425.0, 1425.0, 1425.0, 1424.0, 1424.0, 1425.0, 1424.0, 1425.0, 1424.0, 1425.0, 1424.0, 1425.0, 1424.0, 1424.0, 1424.0, 1424.0, 1424.0, 1424.0, 1424.0, 1424.0, 1424.0, 1425.0, 1424.0, 1424.0, 1424.0, 1425.0, 1425.0, 1424.0, 1423.0, 1424.0, 1424.0, 1424.0, 1424.0, 1424.0, 1424.0, 1424.0, 1423.0, 1424.0, 1424.0, 1424.0, 1423.0, 1423.0, 1423.0, 1424.0, 1424.0, 1423.0, 1423.0, 1423.0, 1423.0, 1423.0, 1423.0, 1423.0, 1422.0, 1423.0, 1423.0, 1423.0, 1423.0, 1423.0, 1423.0, 1423.0, 1424.0, 1423.0, 1422.0, 1423.0, 1422.0, 1423.0, 1423.0, 1422.0],
      "WindowWidth": [3373.0, 3374.0, 3374.0, 3374.0, 3374.0, 3373.0, 3374.0, 3373.0, 3373.0, 3373.0, 3374.0, 3373.0, 3373.0, 3373.0, 3373.0, 3373.0, 3373.0, 3374.0, 3373.0, 3373.0, 3374.0, 3374.0, 3373.0, 3373.0, 3373.0, 3373.0, 3373.0, 3373.0, 3373.0, 3373.0, 3373.0, 3373.0, 3373.0, 3373.0, 3373.0, 3373.0, 3373.0, 3373.0, 3373.0, 3373.0, 3373.0, 3373.0, 3373.0, 3373.0, 3373.0, 3373.0, 3372.0, 3372.0, 3373.0, 3372.0, 3372.0, 3372.0, 3372.0, 3372.0, 3372.0, 3372.0, 3372.0, 3372.0, 3372.0, 3372.0, 3372.0, 3373.0, 3372.0, 3372.0, 3372.0, 3372.0, 3372.0, 3372.0, 3372.0, 3372.0, 3372.0, 3372.0, 3372.0, 3372.0, 3372.0, 3372.0, 3372.0, 3372.0, 3372.0, 3372.0, 3372.0, 3372.0, 3372.0, 3371.0, 3372.0, 3371.0, 3372.0, 3371.0, 3372.0, 3372.0, 3372.0, 3371.0, 3371.0, 3372.0, 3372.0, 3371.0, 3371.0, 3371.0, 3371.0, 3371.0, 3371.0, 3372.0, 3372.0, 3371.0, 3371.0, 3371.0, 3371.0, 3371.0, 3371.0, 3372.0, 3371.0, 3372.0, 3371.0, 3372.0, 3372.0, 3371.0, 3372.0, 3372.0, 3372.0, 3372.0, 3372.0, 3371.0, 3372.0, 3372.0, 3371.0, 3371.0, 3371.0, 3371.0, 3371.0, 3371.0, 3371.0, 3371.0, 3371.0, 3371.0, 3371.0, 3371.0, 3371.0, 3371.0, 3371.0, 3370.0, 3371.0, 3370.0, 3371.0, 3370.0, 3371.0, 3371.0, 3371.0, 3371.0, 3371.0, 3371.0, 3371.0, 3370.0, 3371.0, 3370.0, 3371.0, 3370.0, 3370.0, 3370.0, 3370.0, 3370.0, 3371.0, 3370.0, 3370.0, 3370.0, 3370.0, 3370.0, 3370.0, 3370.0, 3370.0, 3370.0, 3370.0, 3370.0, 3370.0, 3370.0, 3370.0, 3370.0, 3370.0, 3370.0, 3370.0, 3370.0, 3370.0, 3370.0, 3370.0, 3370.0, 3370.0, 3370.0, 3370.0, 3370.0, 3370.0, 3370.0, 3370.0, 3370.0, 3369.0, 3369.0, 3370.0, 3370.0, 3370.0, 3369.0, 3369.0, 3370.0]
    },
    "slices": {}
  }
}