{
  "AcquisitionMatrixPE": 122,
  "AcquisitionNumber": 1,
  "AcquisitionTime": "09:41:8.460000",
  "BandwidthPerPixelPhaseEncode": 27.785,
  "BaseResolution": 122,
  "BodyPartExamined": "BRAIN",
  "CoilCombinationMethod": "Adaptive Combine",
  "ConsistencyInfo": "N4_VE11C_LATEST_20160120",
  "ConversionSoftware": "dcm2niix",
  "ConversionSoftwareVersion": "v1.0.20220720",
  "DerivedVendorReportedEchoSpacing": 0.000590011,
  "DeviceSerialNumber": "66112",
  "DiffusionScheme": "Monopolar",
  "DwellTime": 2e-06,
  "EchoTime": 0.068,
  "EchoTrainLength": 61,
  "EffectiveEchoSpacing": 0.000295005,
  "FlipAngle": 90,
  "HeudiconvVersion": "0.13.1",
  "ImageOrientationPatientDICOM": [0.979581, 0.200691, 0.0120055, -0.195206, 0.935119, 0.295714],
  "ImageOrientationText": "Tra>Cor(17.0)>Sag(-2.8)",
  "ImageType": [
    "ORIGINAL",
    "PRIMARY",
    "DIFFUSION",
    "NONE",
    "ND",
    "NORM"
],
  "ImagingFrequency": 123.252,
  "InPlanePhaseEncodingDirectionDICOM": "COL",
  "InstitutionAddress": "Maynard 3,Hanover,NH,US,03755",
  "InstitutionName": "Dartmouth College - PBS",
  "InstitutionalDepartmentName": "Department",
  "MRAcquisitionType": "2D",
  "MagneticFieldStrength": 3,
  "Manufacturer": "Siemens",
  "ManufacturersModelName": "Prisma",
  "Modality": "MR",
  "MultibandAccelerationFactor": 4,
  "NonlinearGradientCorrection": false,
  "ParallelReductionFactorInPlane": 2,
  "PartialFourier": 1,
  "PatientPosition": "HFS",
  "PercentPhaseFOV": 100,
  "PercentSampling": 100,
  "PhaseEncodingDirection": "j-",
  "PhaseEncodingSteps": 122,
  "PhaseResolution": 1,
  "PixelBandwidth": 2050,
  "ProcedureStepDescription": "dbic^QA",
  "ProtocolName": "dwi_acq-DTI-30-p2-s4",
  "PulseSequenceDetails": "%SiemensSeq%\\ep2d_diff",
  "ReceiveCoilActiveElements": "HEA;HEP",
  "ReceiveCoilName": "Head_32",
  "ReconMatrixPE": 122,
  "RefLinesPE": 38,
  "RepetitionTime": 3.6,
  "SAR": 0.16187,
  "ScanOptions": "FS",
  "ScanningSequence": "EP",
  "SequenceName": "*ep_b0",
  "SequenceVariant": "SK\\SP",
  "SeriesDescription": "dwi_acq-DTI-30-p2-s4",
  "SeriesNumber": 10,
  "ShimSetting": [4152, -7699, -7528, 278, -29, -169, 4, 82],
  "SliceThickness": 2,
  "SliceTiming": [2.58594, 0, 1.78906, 0.19531, 1.98438, 0.39844, 2.1875, 0.59375, 2.38281, 0.99219, 2.78125, 1.19531, 2.98438, 1.39062, 3.17969, 1.59375, 3.38281, 0.79688, 2.58594, 0, 1.78906, 0.19531, 1.98438, 0.39844, 2.1875, 0.59375, 2.38281, 0.99219, 2.78125, 1.19531, 2.98438, 1.39062, 3.17969, 1.59375, 3.38281, 0.79688, 2.58594, 0, 1.78906, 0.19531, 1.98438, 0.39844, 2.1875, 0.59375, 2.38281, 0.99219, 2.78125, 1.19531, 2.98438, 1.39062, 3.17969, 1.59375, 3.38281, 0.79688, 2.58594, 0, 1.78906, 0.19531, 1.98438, 0.39844, 2.1875, 0.59375, 2.38281, 0.99219, 2.78125, 1.19531, 2.98438, 1.39062, 3.17969, 1.59375, 3.38281, 0.79688],
  "SoftwareVersions": "syngo MR E11",
  "SpacingBetweenSlices": 2,
  "SpoilingState": true,
  "StationName": "AWP66112",
  "TotalReadoutTime": 0.0356956,
  "TxRefAmp": 230.03,
  "dcmmeta_affine": [
    [-1.9270446300506592, -0.38401228189468384, -0.09624111652374268, 149.19418334960938],
    [-0.3948022127151489, 1.8395788669586182, 0.5840377807617188, -106.82988739013672],
    [0.02361738309264183, -0.5817316174507141, 1.910400390625, -31.783559799194336],
    [0.0, 0.0, 0.0, 1.0]
],
  "dcmmeta_reorient_transform": [
    [0.0, -1.0, 0.0, 121.0],
    [1.0, 0.0, 0.0, 0.0],
    [0.0, 0.0, -1.0, 71.0],
    [0.0, 0.0, 0.0, 1.0]
],
  "dcmmeta_shape": [122, 122, 72, 31],
  "dcmmeta_slice_dim": 2,
  "dcmmeta_version": 0.6,
  "global": {
    "const": {
      "AccessionNumber": "qa",
      "AcquisitionMatrix": [122, 0, 0, 122],
      "AngioFlag": "N",
      "BitsAllocated": 16,
      "BitsStored": 12,
      "BodyPartExamined": "BRAIN",
      "Columns": 122,
      "EchoNumbers": 1,
      "EchoTime": 68.0,
      "EchoTrainLength": 61,
      "FlipAngle": 90.0,
      "HighBit": 11,
      "ImageOrientationPatient": [0.97958100209944, 0.20069112642578, 0.01200550289746, -0.1952062413791, 0.93511924925349, 0.2957135658069],
      "ImageType": [
        "ORIGINAL",
        "PRIMARY",
        "DIFFUSION",
        "NONE",
        "ND",
        "NORM"
],
      "ImagedNucleus": "1H",
      "ImagingFrequency": 123.252471,
      "InPlanePhaseEncodingDirection": "COL",
      "MRAcquisitionType": "2D",
      "MagneticFieldStrength": 3.0,
      "Manufacturer": "SIEMENS",
      "ManufacturerModelName": "Prisma",
      "Modality": "MR",
      "NumberOfAverages": 1.0,
      "NumberOfPhaseEncodingSteps": 122,
      "PercentPhaseFieldOfView": 100.0,
      "PercentSampling": 100.0,
      "PerformedProcedureStepStartTime": "091858.499000",
      "PhotometricInterpretation": "MONOCHROME2",
      "PixelBandwidth": 2050.0,
      "PixelRepresentation": 0,
      "PixelSpacing": [1.9672131538391, 1.9672131538391],
      "ProtocolName": "dwi_acq-DTI-30-p2-s4",
      "RepetitionTime": 3600.0,
      "Rows": 122,
      "SAR": 0.16186993901322,
      "SamplesPerPixel": 1,
      "ScanOptions": "FS",
      "ScanningSequence": "EP",
      "SequenceVariant": [
        "SK",
        "SP"
],
      "SeriesDescription": "dwi_acq-DTI-30-p2-s4",
      "SeriesNumber": 10,
      "SeriesTime": "094117.991000",
      "SliceThickness": 2.0,
      "SmallestImagePixelValue": 0,
      "SoftwareVersions": "syngo MR E11",
      "SpacingBetweenSlices": 2.0,
      "SpecificCharacterSet": "ISO_IR 100",
      "StudyID": "37",
      "StudyTime": "091858.382000",
      "TransmitCoilName": "Body",
      "VariableFlipAngleFlag": "N",
      "WindowCenterWidthExplanation": "Algo1",
      "dBdt": 0.0},
    "slices": {
      "AcquisitionTime": ["094108.460000", "094105.872500", "094107.662500", "094106.072500", "094107.862500", "094106.272500", "094108.062500", "094106.470000", "094108.260000", "094106.867500", "094108.657500", "094107.067500", "094108.857500", "094107.265000", "094109.055000", "094107.465000", "094109.255000", "094106.670000", "094108.460000", "094105.872500", "094107.662500", "094106.072500", "094107.862500", "094106.272500", "094108.062500", "094106.470000", "094108.260000", "094106.867500", "094108.657500", "094107.067500", "094108.857500", "094107.265000", "094109.055000", "094107.465000", "094109.255000", "094106.670000", "094108.460000", "094105.872500", "094107.662500", "094106.072500", "094107.862500", "094106.272500", "094108.062500", "094106.470000", "094108.260000", "094106.867500", "094108.657500", "094107.067500", "094108.857500", "094107.265000", "094109.055000", "094107.465000", "094109.255000", "094106.670000", "094108.460000", "094105.872500", "094107.662500", "094106.072500", "094107.862500", "094106.272500", "094108.062500", "094106.470000", "094108.260000", "094106.867500", "094108.657500", "094107.067500", "094108.857500", "094107.265000", "094109.055000", "094107.465000", "094109.255000", "094106.670000", "094112.060000", "094109.472500", "094111.262500", "094109.672500", "094111.462500", "094109.872500", "094111.662500", "094110.070000", "094111.860000", "094110.467500", "094112.257500", "094110.667500", "094112.457500", "094110.865000", "094112.655000", "094111.065000", "094112.855000", "094110.270000", "094112.060000", "094109.472500", "094111.262500", "094109.672500", "094111.462500", "094109.872500", "094111.662500", "094110.070000", "094111.860000", "094110.467500", "094112.257500", "094110.667500", "094112.457500", "094110.865000", "094112.655000", "094111.065000", "094112.855000", "094110.270000", "094112.060000", "094109.472500", "094111.262500", "094109.672500", "094111.462500", "094109.872500", "094111.662500", "094110.070000", "094111.860000", "094110.467500", "094112.257500", "094110.667500", "094112.457500", "094110.865000", "094112.655000", "094111.065000", "094112.855000", "094110.270000", "094112.060000", "094109.472500", "094111.262500", "094109.672500", "094111.462500", "094109.872500", "094111.662500", "094110.070000", "094111.860000", "094110.467500", "094112.257500", "094110.667500", "094112.457500", "094110.865000", "094112.655000", "094111.065000", "094112.855000", "094110.270000", "094115.660000", "094113.072500", "094114.862500", "094113.272500", "094115.062500", "094113.472500", "094115.262500", "094113.670000", "094115.460000", "094114.067500", "094115.857500", "094114.267500", "094116.057500", "094114.465000", "094116.255000", "094114.665000", "094116.455000", "094113.870000", "094115.660000", "094113.072500", "094114.862500", "094113.272500", "094115.062500", "094113.472500", "094115.262500", "094113.670000", "094115.460000", "094114.067500", "094115.857500", "094114.267500", "094116.057500", "094114.465000", "094116.255000", "094114.665000", "094116.455000", "094113.870000", "094115.660000", "094113.072500", "094114.862500", "094113.272500", "094115.062500", "094113.472500", "094115.262500", "094113.670000", "094115.460000", "094114.067500", "094115.857500", "094114.267500", "094116.057500", "094114.465000", "094116.255000", "094114.665000", "094116.455000", "094113.870000", "094115.660000", "094113.072500", "094114.862500", "094113.272500", "094115.062500", "094113.472500", "094115.262500", "094113.670000", "094115.460000", "094114.067500", "094115.857500", "094114.267500", "094116.057500", "094114.465000", "094116.255000", "094114.665000", "094116.455000", "094113.870000", "094119.260000", "094116.672500", "094118.462500", "094116.872500", "094118.662500", "094117.072500", "094118.862500", "094117.270000", "094119.060000", "094117.667500", "094119.457500", "094117.867500", "094119.657500", "094118.065000", "094119.855000", "094118.265000", "094120.055000", "094117.470000", "094119.260000", "094116.672500", "094118.462500", "094116.872500", "094118.662500", "094117.072500", "094118.862500", "094117.270000", "094119.060000", "094117.667500", "094119.457500", "094117.867500", "094119.657500", "094118.065000", "094119.855000", "094118.265000", "094120.055000", "094117.470000", "094119.260000", "094116.672500", "094118.462500", "094116.872500", "094118.662500", "094117.072500", "094118.862500", "094117.270000", "094119.060000", "094117.667500", "094119.457500", "094117.867500", "094119.657500", "094118.065000", "094119.855000", "094118.265000", "094120.055000", "094117.470000", "094119.260000", "094116.672500", "094118.462500", "094116.872500", "094118.662500", "094117.072500", "094118.862500", "094117.270000", "094119.060000", "094117.667500", "094119.457500", "094117.867500", "094119.657500", "094118.065000", "094119.855000", "094118.265000", "094120.055000", "094117.470000", "094122.860000", "094120.272500", "094122.062500", "094120.472500", "094122.262500", "094120.672500", "094122.462500", "094120.870000", "094122.660000", "094121.267500", "094123.057500", "094121.467500", "094123.257500", "094121.665000", "094123.455000", "094121.865000", "094123.655000", "094121.070000", "094122.860000", "094120.272500", "094122.062500", "094120.472500", "094122.262500", "094120.672500", "094122.462500", "094120.870000", "094122.660000", "094121.267500", "094123.057500", "094121.467500", "094123.257500", "094121.665000", "094123.455000", "094121.865000", "094123.655000", "094121.070000", "094122.860000", "094120.272500", "094122.062500", "094120.472500", "094122.262500", "094120.672500", "094122.462500", "094120.870000", "094122.660000", "094121.267500", "094123.057500", "094121.467500", "094123.257500", "094121.665000", "094123.455000", "094121.865000", "094123.655000", "094121.070000", "094122.860000", "094120.272500", "094122.062500", "094120.472500", "094122.262500", "094120.672500", "094122.462500", "094120.870000", "094122.660000", "094121.267500", "094123.057500", "094121.467500", "094123.257500", "094121.665000", "094123.455000", "094121.865000", "094123.655000", "094121.070000", "094126.460000", "094123.872500", "094125.662500", "094124.072500", "094125.862500", "094124.272500", "094126.062500", "094124.470000", "094126.260000", "094124.867500", "094126.657500", "094125.067500", "094126.857500", "094125.265000", "094127.055000", "094125.465000", "094127.255000", "094124.670000", "094126.460000", "094123.872500", "094125.662500", "094124.072500", "094125.862500", "094124.272500", "094126.062500", "094124.470000", "094126.260000", "094124.867500", "094126.657500", "094125.067500", "094126.857500", "094125.265000", "094127.055000", "094125.465000", "094127.255000", "094124.670000", "094126.460000", "094123.872500", "094125.662500", "094124.072500", "094125.862500", "094124.272500", "094126.062500", "094124.470000", "094126.260000", "094124.867500", "094126.657500", "094125.067500", "094126.857500", "094125.265000", "094127.055000", "094125.465000", "094127.255000", "094124.670000", "094126.460000", "094123.872500", "094125.662500", "094124.072500", "094125.862500", "094124.272500", "094126.062500", "094124.470000", "094126.260000", "094124.867500", "094126.657500", "094125.067500", "094126.857500", "094125.265000", "094127.055000", "094125.465000", "094127.255000", "094124.670000", "094130.060000", "094127.472500", "094129.262500", "094127.672500", "094129.462500", "094127.872500", "094129.662500", "094128.070000", "094129.860000", "094128.467500", "094130.257500", "094128.667500", "094130.457500", "094128.865000", "094130.655000", "094129.065000", "094130.855000", "094128.270000", "094130.060000", "094127.472500", "094129.262500", "094127.672500", "094129.462500", "094127.872500", "094129.662500", "094128.070000", "094129.860000", "094128.467500", "094130.257500", "094128.667500", "094130.457500", "094128.865000", "094130.655000", "094129.065000", "094130.855000", "094128.270000", "094130.060000", "094127.472500", "094129.262500", "094127.672500", "094129.462500", "094127.872500", "094129.662500", "094128.070000", "094129.860000", "094128.467500", "094130.257500", "094128.667500", "094130.457500", "094128.865000", "094130.655000", "094129.065000", "094130.855000", "094128.270000", "094130.060000", "094127.472500", "094129.262500", "094127.672500", "094129.462500", "094127.872500", "094129.662500", "094128.070000", "094129.860000", "094128.467500", "094130.257500", "094128.667500", "094130.457500", "094128.865000", "094130.655000", "094129.065000", "094130.855000", "094128.270000", "094133.660000", "094131.072500", "094132.862500", "094131.272500", "094133.062500", "094131.472500", "094133.262500", "094131.670000", "094133.460000", "094132.067500", "094133.857500", "094132.267500", "094134.057500", "094132.465000", "094134.255000", "094132.665000", "094134.455000", "094131.870000", "094133.660000", "094131.072500", "094132.862500", "094131.272500", "094133.062500", "094131.472500", "094133.262500", "094131.670000", "094133.460000", "094132.067500", "094133.857500", "094132.267500", "094134.057500", "094132.465000", "094134.255000", "094132.665000", "094134.455000", "094131.870000", "094133.660000", "094131.072500", "094132.862500", "094131.272500", "094133.062500", "094131.472500", "094133.262500", "094131.670000", "094133.460000", "094132.067500", "094133.857500", "094132.267500", "094134.057500", "094132.465000", "094134.255000", "094132.665000", "094134.455000", "094131.870000", "094133.660000", "094131.072500", "094132.862500", "094131.272500", "094133.062500", "094131.472500", "094133.262500", "094131.670000", "094133.460000", "094132.067500", "094133.857500", "094132.267500", "094134.057500", "094132.465000", "094134.255000", "094132.665000", "094134.455000", "094131.870000", "094137.260000", "094134.672500", "094136.462500", "094134.872500", "094136.662500", "094135.072500", "094136.862500", "094135.270000", "094137.060000", "094135.667500", "094137.457500", "094135.867500", "094137.657500", "094136.065000", "094137.855000", "094136.265000", "094138.055000", "094135.470000", "094137.260000", "094134.672500", "094136.462500", "094134.872500", "094136.662500", "094135.072500", "094136.862500", "094135.270000", "094137.060000", "094135.667500", "094137.457500", "094135.867500", "094137.657500", "094136.065000", "094137.855000", "094136.265000", "094138.055000", "094135.470000", "094137.260000", "094134.672500", "094136.462500", "094134.872500", "094136.662500", "094135.072500", "094136.862500", "094135.270000", "094137.060000", "094135.667500", "094137.457500", "094135.867500", "094137.657500", "094136.065000", "094137.855000", "094136.265000", "094138.055000", "094135.470000", "094137.260000", "094134.672500", "094136.462500", "094134.872500", "094136.662500", "094135.072500", "094136.862500", "094135.270000", "094137.060000", "094135.667500", "094137.457500", "094135.867500", "094137.657500", "094136.065000", "094137.855000", "094136.265000", "094138.055000", "094135.470000", "094140.860000", "094138.272500", "094140.062500", "094138.472500", "094140.262500", "094138.672500", "094140.462500", "094138.870000", "094140.660000", "094139.267500", "094141.057500", "094139.467500", "094141.257500", "094139.665000", "094141.455000", "094139.865000", "094141.655000", "094139.070000", "094140.860000", "094138.272500", "094140.062500", "094138.472500", "094140.262500", "094138.672500", "094140.462500", "094138.870000", "094140.660000", "094139.267500", "094141.057500", "094139.467500", "094141.257500", "094139.665000", "094141.455000", "094139.865000", "094141.655000", "094139.070000", "094140.860000", "094138.272500", "094140.062500", "094138.472500", "094140.262500", "094138.672500", "094140.462500", "094138.870000", "094140.660000", "094139.267500", "094141.057500", "094139.467500", "094141.257500", "094139.665000", "094141.455000", "094139.865000", "094141.655000", "094139.070000", "094140.860000", "094138.272500", "094140.062500", "094138.472500", "094140.262500", "094138.672500", "094140.462500", "094138.870000", "094140.660000", "094139.267500", "094141.057500", "094139.467500", "094141.257500", "094139.665000", "094141.455000", "094139.865000", "094141.655000", "094139.070000", "094144.460000", "094141.872500", "094143.662500", "094142.072500", "094143.862500", "094142.272500", "094144.062500", "094142.470000", "094144.260000", "094142.867500", "094144.657500", "094143.067500", "094144.857500", "094143.265000", "094145.055000", "094143.465000", "094145.255000", "094142.670000", "094144.460000", "094141.872500", "094143.662500", "094142.072500", "094143.862500", "094142.272500", "094144.062500", "094142.470000", "094144.260000", "094142.867500", "094144.657500", "094143.067500", "094144.857500", "094143.265000", "094145.055000", "094143.465000", "094145.255000", "094142.670000", "094144.460000", "094141.872500", "094143.662500", "094142.072500", "094143.862500", "094142.272500", "094144.062500", "094142.470000", "094144.260000", "094142.867500", "094144.657500", "094143.067500", "094144.857500", "094143.265000", "094145.055000", "094143.465000", "094145.255000", "094142.670000", "094144.460000", "094141.872500", "094143.662500", "094142.072500", "094143.862500", "094142.272500", "094144.062500", "094142.470000", "094144.260000", "094142.867500", "094144.657500", "094143.067500", "094144.857500", "094143.265000", "094145.055000", "094143.465000", "094145.255000", "094142.670000", "094148.060000", "094145.472500", "094147.262500", "094145.672500", "094147.462500", "094145.872500", "094147.662500", "094146.070000", "094147.860000", "094146.467500", "094148.257500", "094146.667500", "094148.457500", "094146.865000", "094148.655000", "094147.065000", "094148.855000", "094146.270000", "094148.060000", "094145.472500", "094147.262500", "094145.672500", "094147.462500", "094145.872500", "094147.662500", "094146.070000", "094147.860000", "094146.467500", "094148.257500", "094146.667500", "094148.457500", "094146.865000", "094148.655000", "094147.065000", "094148.855000", "094146.270000", "094148.060000", "094145.472500", "094147.262500", "094145.672500", "094147.462500", "094145.872500", "094147.662500", "094146.070000", "094147.860000", "094146.467500", "094148.257500", "094146.667500", "094148.457500", "094146.865000", "094148.655000", "094147.065000", "094148.855000", "094146.270000", "094148.060000", "094145.472500", "094147.262500", "094145.672500", "094147.462500", "094145.872500", "094147.662500", "094146.070000", "094147.860000", "094146.467500", "094148.257500", "094146.667500", "094148.457500", "094146.865000", "094148.655000", "094147.065000", "094148.855000", "094146.270000", "094151.660000", "094149.072500", "094150.862500", "094149.272500", "094151.062500", "094149.472500", "094151.262500", "094149.670000", "094151.460000", "094150.067500", "094151.857500", "094150.267500", "094152.057500", "094150.465000", "094152.255000", "094150.665000", "094152.455000", "094149.870000", "094151.660000", "094149.072500", "094150.862500", "094149.272500", "094151.062500", "094149.472500", "094151.262500", "094149.670000", "094151.460000", "094150.067500", "094151.857500", "094150.267500", "094152.057500", "094150.465000", "094152.255000", "094150.665000", "094152.455000", "094149.870000", "094151.660000", "094149.072500", "094150.862500", "094149.272500", "094151.062500", "094149.472500", "094151.262500", "094149.670000", "094151.460000", "094150.067500", "094151.857500", "094150.267500", "094152.057500", "094150.465000", "094152.255000", "094150.665000", "094152.455000", "094149.870000", "094151.660000", "094149.072500", "094150.862500", "094149.272500", "094151.062500", "094149.472500", "094151.262500", "094149.670000", "094151.460000", "094150.067500", "094151.857500", "094150.267500", "094152.057500", "094150.465000", "094152.255000", "094150.665000", "094152.455000", "094149.870000", "094155.260000", "094152.672500", "094154.462500", "094152.872500", "094154.662500", "094153.072500", "094154.862500", "094153.270000", "094155.060000", "094153.667500", "094155.457500", "094153.867500", "094155.657500", "094154.065000", "094155.855000", "094154.265000", "094156.055000", "094153.470000", "094155.260000", "094152.672500", "094154.462500", "094152.872500", "094154.662500", "094153.072500", "094154.862500", "094153.270000", "094155.060000", "094153.667500", "094155.457500", "094153.867500", "094155.657500", "094154.065000", "094155.855000", "094154.265000", "094156.055000", "094153.470000", "094155.260000", "094152.672500", "094154.462500", "094152.872500", "094154.662500", "094153.072500", "094154.862500", "094153.270000", "094155.060000", "094153.667500", "094155.457500", "094153.867500", "094155.657500", "094154.065000", "094155.855000", "094154.265000", "094156.055000", "094153.470000", "094155.260000", "094152.672500", "094154.462500", "094152.872500", "094154.662500", "094153.072500", "094154.862500", "094153.270000", "094155.060000", "094153.667500", "094155.457500", "094153.867500", "094155.657500", "094154.065000", "094155.855000", "094154.265000", "094156.055000", "094153.470000", "094158.860000", "094156.272500", "094158.062500", "094156.472500", "094158.262500", "094156.672500", "094158.462500", "094156.870000", "094158.660000", "094157.267500", "094159.057500", "094157.467500", "094159.257500", "094157.665000", "094159.455000", "094157.865000", "094159.655000", "094157.070000", "094158.860000", "094156.272500", "094158.062500", "094156.472500", "094158.262500", "094156.672500", "094158.462500", "094156.870000", "094158.660000", "094157.267500", "094159.057500", "094157.467500", "094159.257500", "094157.665000", "094159.455000", "094157.865000", "094159.655000", "094157.070000", "094158.860000", "094156.272500", "094158.062500", "094156.472500", "094158.262500", "094156.672500", "094158.462500", "094156.870000", "094158.660000", "094157.267500", "094159.057500", "094157.467500", "094159.257500", "094157.665000", "094159.455000", "094157.865000", "094159.655000", "094157.070000", "094158.860000", "094156.272500", "094158.062500", "094156.472500", "094158.262500", "094156.672500", "094158.462500", "094156.870000", "094158.660000", "094157.267500", "094159.057500", "094157.467500", "094159.257500", "094157.665000", "094159.455000", "094157.865000", "094159.655000", "094157.070000", "094202.460000", "094159.872500", "094201.662500", "094200.072500", "094201.862500", "094200.272500", "094202.062500", "094200.470000", "094202.260000", "094200.867500", "094202.657500", "094201.067500", "094202.857500", "094201.265000", "094203.055000", "094201.465000", "094203.255000", "094200.670000", "094202.460000", "094159.872500", "094201.662500", "094200.072500", "094201.862500", "094200.272500", "094202.062500", "094200.470000", "094202.260000", "094200.867500", "094202.657500", "094201.067500", "094202.857500", "094201.265000", "094203.055000", "094201.465000", "094203.255000", "094200.670000", "094202.460000", "094159.872500", "094201.662500", "094200.072500", "094201.862500", "094200.272500", "094202.062500", "094200.470000", "094202.260000", "094200.867500", "094202.657500", "094201.067500", "094202.857500", "094201.265000", "094203.055000", "094201.465000", "094203.255000", "094200.670000", "094202.460000", "094159.872500", "094201.662500", "094200.072500", "094201.862500", "094200.272500", "094202.062500", "094200.470000", "094202.260000", "094200.867500", "094202.657500", "094201.067500", "094202.857500", "094201.265000", "094203.055000", "094201.465000", "094203.255000", "094200.670000", "094206.060000", "094203.472500", "094205.262500", "094203.672500", "094205.462500", "094203.872500", "094205.662500", "094204.070000", "094205.860000", "094204.467500", "094206.257500", "094204.667500", "094206.457500", "094204.865000", "094206.655000", "094205.065000", "094206.855000", "094204.270000", "094206.060000", "094203.472500", "094205.262500", "094203.672500", "094205.462500", "094203.872500", "094205.662500", "094204.070000", "094205.860000", "094204.467500", "094206.257500", "094204.667500", "094206.457500", "094204.865000", "094206.655000", "094205.065000", "094206.855000", "094204.270000", "094206.060000", "094203.472500", "094205.262500", "094203.672500", "094205.462500", "094203.872500", "094205.662500", "094204.070000", "094205.860000", "094204.467500", "094206.257500", "094204.667500", "094206.457500", "094204.865000", "094206.655000", "094205.065000", "094206.855000", "094204.270000", "094206.060000", "094203.472500", "094205.262500", "094203.672500", "094205.462500", "094203.872500", "094205.662500", "094204.070000", "094205.860000", "094204.467500", "094206.257500", "094204.667500", "094206.457500", "094204.865000", "094206.655000", "094205.065000", "094206.855000", "094204.270000", "094209.660000", "094207.072500", "094208.862500", "094207.272500", "094209.062500", "094207.472500", "094209.262500", "094207.670000", "094209.460000", "094208.067500", "094209.857500", "094208.267500", "094210.057500", "094208.465000", "094210.255000", "094208.665000", "094210.455000", "094207.870000", "094209.660000", "094207.072500", "094208.862500", "094207.272500", "094209.062500", "094207.472500", "094209.262500", "094207.670000", "094209.460000", "094208.067500", "094209.857500", "094208.267500", "094210.057500", "094208.465000", "094210.255000", "094208.665000", "094210.455000", "094207.870000", "094209.660000", "094207.072500", "094208.862500", "094207.272500", "094209.062500", "094207.472500", "094209.262500", "094207.670000", "094209.460000", "094208.067500", "094209.857500", "094208.267500", "094210.057500", "094208.465000", "094210.255000", "094208.665000", "094210.455000", "094207.870000", "094209.660000", "094207.072500", "094208.862500", "094207.272500", "094209.062500", "094207.472500", "094209.262500", "094207.670000", "094209.460000", "094208.067500", "094209.857500", "094208.267500", "094210.057500", "094208.465000", "094210.255000", "094208.665000", "094210.455000", "094207.870000", "094213.260000", "094210.672500", "094212.462500", "094210.872500", "094212.662500", "094211.072500", "094212.862500", "094211.270000", "094213.060000", "094211.667500", "094213.457500", "094211.867500", "094213.657500", "094212.065000", "094213.855000", "094212.265000", "094214.055000", "094211.470000", "094213.260000", "094210.672500", "094212.462500", "094210.872500", "094212.662500", "094211.072500", "094212.862500", "094211.270000", "094213.060000", "094211.667500", "094213.457500", "094211.867500", "094213.657500", "094212.065000", "094213.855000", "094212.265000", "094214.055000", "094211.470000", "094213.260000", "094210.672500", "094212.462500", "094210.872500", "094212.662500", "094211.072500", "094212.862500", "094211.270000", "094213.060000", "094211.667500", "094213.457500", "094211.867500", "094213.657500", "094212.065000", "094213.855000", "094212.265000", "094214.055000", "094211.470000", "094213.260000", "094210.672500", "094212.462500", "094210.872500", "094212.662500", "094211.072500", "094212.862500", "094211.270000", "094213.060000", "094211.667500", "094213.457500", "094211.867500", "094213.657500", "094212.065000", "094213.855000", "094212.265000", "094214.055000", "094211.470000", "094216.860000", "094214.272500", "094216.062500", "094214.472500", "094216.262500", "094214.672500", "094216.462500", "094214.870000", "094216.660000", "094215.267500", "094217.057500", "094215.467500", "094217.257500", "094215.665000", "094217.455000", "094215.865000", "094217.655000", "094215.070000", "094216.860000", "094214.272500", "094216.062500", "094214.472500", "094216.262500", "094214.672500", "094216.462500", "094214.870000", "094216.660000", "094215.267500", "094217.057500", "094215.467500", "094217.257500", "094215.665000", "094217.455000", "094215.865000", "094217.655000", "094215.070000", "094216.860000", "094214.272500", "094216.062500", "094214.472500", "094216.262500", "094214.672500", "094216.462500", "094214.870000", "094216.660000", "094215.267500", "094217.057500", "094215.467500", "094217.257500", "094215.665000", "094217.455000", "094215.865000", "094217.655000", "094215.070000", "094216.860000", "094214.272500", "094216.062500", "094214.472500", "094216.262500", "094214.672500", "094216.462500", "094214.870000", "094216.660000", "094215.267500", "094217.057500", "094215.