{
  "AcquisitionMatrixPE": 122,
  "AcquisitionNumber": 1,
  "AcquisitionTime": "09:36:46.510000",
  "BandwidthPerPixelPhaseEncode": 28.76,
  "BaseResolution": 122,
  "BodyPartExamined": "BRAIN",
  "CoilCombinationMethod": "Adaptive Combine",
  "ConsistencyInfo": "N4_VE11C_LATEST_20160120",
  "ConversionSoftware": "dcm2niix",
  "ConversionSoftwareVersion": "v1.0.20220720",
  "DerivedVendorReportedEchoSpacing": 0.000570008,
  "DeviceSerialNumber": "66112",
  "DiffusionScheme": "Monopolar",
  "DwellTime": 2e-06,
  "EchoTime": 0.075,
  "EchoTrainLength": 61,
  "EffectiveEchoSpacing": 0.000285004,
  "FlipAngle": 90,
  "HeudiconvVersion": "0.13.1",
  "ImageOrientationPatientDICOM": [0.979581, 0.200691, 0.0120055, -0.195206, 0.935119, 0.295714],
  "ImageOrientationText": "Tra>Cor(17.0)>Sag(-2.8)",
  "ImageType": [
    "ORIGINAL",
    "PRIMARY",
    "DIFFUSION",
    "NONE",
    "ND",
    "NORM"
],
  "ImagingFrequency": 123.252,
  "InPlanePhaseEncodingDirectionDICOM": "COL",
  "InstitutionAddress": "Maynard 3,Hanover,NH,US,03755",
  "InstitutionName": "Dartmouth College - PBS",
  "InstitutionalDepartmentName": "Department",
  "MRAcquisitionType": "2D",
  "MagneticFieldStrength": 3,
  "Manufacturer": "Siemens",
  "ManufacturersModelName": "Prisma",
  "MatrixCoilMode": "GRAPPA",
  "Modality": "MR",
  "NonlinearGradientCorrection": false,
  "ParallelReductionFactorInPlane": 2,
  "PartialFourier": 1,
  "PatientPosition": "HFS",
  "PercentPhaseFOV": 100,
  "PercentSampling": 100,
  "PhaseEncodingDirection": "j-",
  "PhaseEncodingSteps": 122,
  "PhaseResolution": 1,
  "PixelBandwidth": 2050,
  "ProcedureStepDescription": "dbic^QA",
  "ProtocolName": "dwi_acq-DTI-30-p2",
  "PulseSequenceDetails": "%SiemensSeq%\\ep2d_diff",
  "ReceiveCoilActiveElements": "HEA;HEP",
  "ReceiveCoilName": "Head_32",
  "ReconMatrixPE": 122,
  "RefLinesPE": 38,
  "RepetitionTime": 7.7,
  "SAR": 0.101976,
  "ScanOptions": "FS",
  "ScanningSequence": "EP",
  "SequenceName": "*ep_b0",
  "SequenceVariant": "SK\\SP",
  "SeriesDescription": "dwi_acq-DTI-30-p2",
  "SeriesNumber": 9,
  "ShimSetting": [4152, -7699, -7529, 281, -28, -172, 5, 82],
  "SliceThickness": 2,
  "SliceTiming": [3.83594, 0, 3.94531, 0.10938, 4.05469, 0.21875, 4.17188, 0.32812, 4.27344, 0.4375, 4.38281, 0.54688, 4.49219, 0.65625, 4.60938, 0.76562, 4.71875, 0.875, 4.82812, 0.98438, 4.9375, 1.09375, 5.04688, 1.20312, 5.15625, 1.3125, 5.26562, 1.42188, 5.375, 1.53125, 5.48438, 1.64062, 5.59375, 1.75, 5.70312, 1.85938, 5.8125, 1.97656, 5.92188, 2.08594, 6.03125, 2.19531, 6.14062, 2.30469, 6.25, 2.41406, 6.35938, 2.52344, 6.46875, 2.63281, 6.57812, 2.74219, 6.6875, 2.85156, 6.79688, 2.96094, 6.91406, 3.07031, 7.02344, 3.17969, 7.125, 3.28906, 7.23438, 3.39844, 7.35156, 3.50781, 7.46094, 3.61719, 7.57031, 3.72656],
  "SoftwareVersions": "syngo MR E11",
  "SpacingBetweenSlices": 2,
  "SpoilingState": true,
  "StationName": "AWP66112",
  "TotalReadoutTime": 0.0344855,
  "TxRefAmp": 230.03,
  "dcmmeta_affine": [
    [-1.9270446300506592, -0.38401228189468384, -0.09624099731445312, 149.09793090820312],
    [-0.3948022127151489, 1.8395788669586182, 0.5840377807617188, -106.245849609375],
    [0.02361738309264183, -0.5817316174507141, 1.9104080200195312, -29.873685836791992],
    [0.0, 0.0, 0.0, 1.0]
],
  "dcmmeta_reorient_transform": [
    [0.0, -1.0, 0.0, 121.0],
    [1.0, 0.0, 0.0, 0.0],
    [0.0, 0.0, -1.0, 69.0],
    [0.0, 0.0, 0.0, 1.0]
],
  "dcmmeta_shape": [122, 122, 70, 31],
  "dcmmeta_slice_dim": 2,
  "dcmmeta_version": 0.6,
  "global": {
    "const": {
      "AccessionNumber": "qa",
      "AcquisitionMatrix": [122, 0, 0, 122],
      "AngioFlag": "N",
      "BitsAllocated": 16,
      "BitsStored": 12,
      "BodyPartExamined": "BRAIN",
      "Columns": 122,
      "EchoNumbers": 1,
      "EchoTime": 75.0,
      "EchoTrainLength": 61,
      "FlipAngle": 90.0,
      "HighBit": 11,
      "ImageOrientationPatient": [0.97958100209944, 0.20069112642578, 0.01200550289746, -0.1952062413791, 0.93511924925349, 0.2957135658069],
      "ImageType": [
        "ORIGINAL",
        "PRIMARY",
        "DIFFUSION",
        "NONE",
        "ND",
        "NORM"
],
      "ImagedNucleus": "1H",
      "ImagingFrequency": 123.252471,
      "InPlanePhaseEncodingDirection": "COL",
      "MRAcquisitionType": "2D",
      "MagneticFieldStrength": 3.0,
      "Manufacturer": "SIEMENS",
      "ManufacturerModelName": "Prisma",
      "Modality": "MR",
      "NumberOfAverages": 1.0,
      "NumberOfPhaseEncodingSteps": 122,
      "PercentPhaseFieldOfView": 100.0,
      "PercentSampling": 100.0,
      "PerformedProcedureStepStartTime": "091858.499000",
      "PhotometricInterpretation": "MONOCHROME2",
      "PixelBandwidth": 2050.0,
      "PixelRepresentation": 0,
      "PixelSpacing": [1.9672131538391, 1.9672131538391],
      "ProtocolName": "dwi_acq-DTI-30-p2",
      "RepetitionTime": 7700.0,
      "Rows": 122,
      "SAR": 0.10197643842804,
      "SamplesPerPixel": 1,
      "ScanOptions": "FS",
      "ScanningSequence": "EP",
      "SequenceVariant": [
        "SK",
        "SP"
],
      "SeriesDescription": "dwi_acq-DTI-30-p2",
      "SeriesNumber": 9,
      "SeriesTime": "093658.132000",
      "SliceThickness": 2.0,
      "SmallestImagePixelValue": 0,
      "SoftwareVersions": "syngo MR E11",
      "SpacingBetweenSlices": 2.0,
      "SpecificCharacterSet": "ISO_IR 100",
      "StudyID": "37",
      "StudyTime": "091858.382000",
      "TransmitCoilName": "Body",
      "VariableFlipAngleFlag": "N",
      "WindowCenterWidthExplanation": "Algo1",
      "dBdt": 0.0},
    "slices": {
      "AcquisitionTime": ["093646.510000", "093642.670000", "093646.620000", "093642.780000", "093646.730000", "093642.890000", "093646.840000", "093643.000000", "093646.947500", "093643.110000", "093647.057500", "093643.217500", "093647.167500", "093643.327500", "093647.277500", "093643.437500", "093647.387500", "093643.547500", "093647.497500", "093643.657500", "093647.607500", "093643.767500", "093647.717500", "093643.877500", "093647.827500", "093643.987500", "093647.935000", "093644.095000", "093648.045000", "093644.205000", "093648.155000", "093644.315000", "093648.265000", "093644.425000", "093648.375000", "093644.535000", "093648.485000", "093644.645000", "093648.595000", "093644.755000", "093648.705000", "093644.865000", "093648.812500", "093644.975000", "093648.922500", "093645.082500", "093649.032500", "093645.192500", "093649.142500", "093645.302500", "093649.252500", "093645.412500", "093649.362500", "093645.522500", "093649.472500", "093645.632500", "093649.582500", "093645.742500", "093649.692500", "093645.852500", "093649.800000", "093645.962500", "093649.910000", "093646.070000", "093650.020000", "093646.180000", "093650.130000", "093646.290000", "093650.240000", "093646.400000", "093654.210000", "093650.370000", "093654.320000", "093650.480000", "093654.430000", "093650.590000", "093654.540000", "093650.700000", "093654.647500", "093650.810000", "093654.757500", "093650.917500", "093654.867500", "093651.027500", "093654.977500", "093651.137500", "093655.087500", "093651.247500", "093655.197500", "093651.357500", "093655.307500", "093651.467500", "093655.417500", "093651.577500", "093655.527500", "093651.687500", "093655.635000", "093651.795000", "093655.745000", "093651.905000", "093655.855000", "093652.015000", "093655.965000", "093652.125000", "093656.075000", "093652.235000", "093656.185000", "093652.345000", "093656.295000", "093652.455000", "093656.405000", "093652.565000", "093656.512500", "093652.675000", "093656.622500", "093652.782500", "093656.732500", "093652.892500", "093656.842500", "093653.002500", "093656.952500", "093653.112500", "093657.062500", "093653.222500", "093657.172500", "093653.332500", "093657.282500", "093653.442500", "093657.392500", "093653.552500", "093657.500000", "093653.662500", "093657.610000", "093653.770000", "093657.720000", "093653.880000", "093657.830000", "093653.990000", "093657.940000", "093654.100000", "093701.910000", "093658.070000", "093702.020000", "093658.180000", "093702.130000", "093658.290000", "093702.240000", "093658.400000", "093702.347500", "093658.510000", "093702.457500", "093658.617500", "093702.567500", "093658.727500", "093702.677500", "093658.837500", "093702.787500", "093658.947500", "093702.897500", "093659.057500", "093703.007500", "093659.167500", "093703.117500", "093659.277500", "093703.227500", "093659.387500", "093703.335000", "093659.495000", "093703.445000", "093659.605000", "093703.555000", "093659.715000", "093703.665000", "093659.825000", "093703.775000", "093659.935000", "093703.885000", "093700.045000", "093703.995000", "093700.155000", "093704.105000", "093700.265000", "093704.212500", "093700.375000", "093704.322500", "093700.482500", "093704.432500", "093700.592500", "093704.542500", "093700.702500", "093704.652500", "093700.812500", "093704.762500", "093700.922500", "093704.872500", "093701.032500", "093704.982500", "093701.142500", "093705.092500", "093701.252500", "093705.200000", "093701.362500", "093705.310000", "093701.470000", "093705.420000", "093701.580000", "093705.530000", "093701.690000", "093705.640000", "093701.800000", "093709.610000", "093705.770000", "093709.720000", "093705.880000", "093709.830000", "093705.990000", "093709.940000", "093706.100000", "093710.047500", "093706.210000", "093710.157500", "093706.317500", "093710.267500", "093706.427500", "093710.377500", "093706.537500", "093710.487500", "093706.647500", "093710.597500", "093706.757500", "093710.707500", "093706.867500", "093710.817500", "093706.977500", "093710.927500", "093707.087500", "093711.035000", "093707.195000", "093711.145000", "093707.305000", "093711.255000", "093707.415000", "093711.365000", "093707.525000", "093711.475000", "093707.635000", "093711.585000", "093707.745000", "093711.695000", "093707.855000", "093711.805000", "093707.965000", "093711.912500", "093708.075000", "093712.022500", "093708.182500", "093712.132500", "093708.292500", "093712.242500", "093708.402500", "093712.352500", "093708.512500", "093712.462500", "093708.622500", "093712.572500", "093708.732500", "093712.682500", "093708.842500", "093712.792500", "093708.952500", "093712.900000", "093709.062500", "093713.010000", "093709.170000", "093713.120000", "093709.280000", "093713.230000", "093709.390000", "093713.340000", "093709.500000", "093717.310000", "093713.470000", "093717.420000", "093713.580000", "093717.530000", "093713.690000", "093717.640000", "093713.800000", "093717.747500", "093713.910000", "093717.857500", "093714.017500", "093717.967500", "093714.127500", "093718.077500", "093714.237500", "093718.187500", "093714.347500", "093718.297500", "093714.457500", "093718.407500", "093714.567500", "093718.517500", "093714.677500", "093718.627500", "093714.787500", "093718.735000", "093714.895000", "093718.845000", "093715.005000", "093718.955000", "093715.115000", "093719.065000", "093715.225000", "093719.175000", "093715.335000", "093719.285000", "093715.445000", "093719.395000", "093715.555000", "093719.505000", "093715.665000", "093719.612500", "093715.775000", "093719.722500", "093715.882500", "093719.832500", "093715.992500", "093719.942500", "093716.102500", "093720.052500", "093716.212500", "093720.162500", "093716.322500", "093720.272500", "093716.432500", "093720.382500", "093716.542500", "093720.492500", "093716.652500", "093720.600000", "093716.762500", "093720.710000", "093716.870000", "093720.820000", "093716.980000", "093720.930000", "093717.090000", "093721.040000", "093717.200000", "093725.010000", "093721.170000", "093725.120000", "093721.280000", "093725.230000", "093721.390000", "093725.340000", "093721.500000", "093725.447500", "093721.610000", "093725.557500", "093721.717500", "093725.667500", "093721.827500", "093725.777500", "093721.937500", "093725.887500", "093722.047500", "093725.997500", "093722.157500", "093726.107500", "093722.267500", "093726.217500", "093722.377500", "093726.327500", "093722.487500", "093726.435000", "093722.595000", "093726.545000", "093722.705000", "093726.655000", "093722.815000", "093726.765000", "093722.925000", "093726.875000", "093723.035000", "093726.985000", "093723.145000", "093727.095000", "093723.255000", "093727.205000", "093723.365000", "093727.312500", "093723.475000", "093727.422500", "093723.582500", "093727.532500", "093723.692500", "093727.642500", "093723.802500", "093727.752500", "093723.912500", "093727.862500", "093724.022500", "093727.972500", "093724.132500", "093728.082500", "093724.242500", "093728.192500", "093724.352500", "093728.300000", "093724.462500", "093728.410000", "093724.570000", "093728.520000", "093724.680000", "093728.630000", "093724.790000", "093728.740000", "093724.900000", "093732.710000", "093728.870000", "093732.820000", "093728.980000", "093732.930000", "093729.090000", "093733.040000", "093729.200000", "093733.147500", "093729.310000", "093733.257500", "093729.417500", "093733.367500", "093729.527500", "093733.477500", "093729.637500", "093733.587500", "093729.747500", "093733.697500", "093729.857500", "093733.807500", "093729.967500", "093733.917500", "093730.077500", "093734.027500", "093730.187500", "093734.135000", "093730.295000", "093734.245000", "093730.405000", "093734.355000", "093730.515000", "093734.465000", "093730.625000", "093734.575000", "093730.735000", "093734.685000", "093730.845000", "093734.795000", "093730.955000", "093734.905000", "093731.065000", "093735.012500", "093731.175000", "093735.122500", "093731.282500", "093735.232500", "093731.392500", "093735.342500", "093731.502500", "093735.452500", "093731.612500", "093735.562500", "093731.722500", "093735.672500", "093731.832500", "093735.782500", "093731.942500", "093735.892500", "093732.052500", "093736.000000", "093732.162500", "093736.110000", "093732.270000", "093736.220000", "093732.380000", "093736.330000", "093732.490000", "093736.440000", "093732.600000", "093740.410000", "093736.570000", "093740.520000", "093736.680000", "093740.630000", "093736.790000", "093740.740000", "093736.900000", "093740.847500", "093737.010000", "093740.957500", "093737.117500", "093741.067500", "093737.227500", "093741.177500", "093737.337500", "093741.287500", "093737.447500", "093741.397500", "093737.557500", "093741.507500", "093737.667500", "093741.617500", "093737.777500", "093741.727500", "093737.887500", "093741.835000", "093737.995000", "093741.945000", "093738.105000", "093742.055000", "093738.215000", "093742.165000", "093738.325000", "093742.275000", "093738.435000", "093742.385000", "093738.545000", "093742.495000", "093738.655000", "093742.605000", "093738.765000", "093742.712500", "093738.875000", "093742.822500", "093738.982500", "093742.932500", "093739.092500", "093743.042500", "093739.202500", "093743.152500", "093739.312500", "093743.262500", "093739.422500", "093743.372500", "093739.532500", "093743.482500", "093739.642500", "093743.592500", "093739.752500", "093743.700000", "093739.862500", "093743.810000", "093739.970000", "093743.920000", "093740.080000", "093744.030000", "093740.190000", "093744.140000", "093740.300000", "093748.110000", "093744.270000", "093748.220000", "093744.380000", "093748.330000", "093744.490000", "093748.440000", "093744.600000", "093748.547500", "093744.710000", "093748.657500", "093744.817500", "093748.767500", "093744.927500", "093748.877500", "093745.037500", "093748.987500", "093745.147500", "093749.097500", "093745.257500", "093749.207500", "093745.367500", "093749.317500", "093745.477500", "093749.427500", "093745.587500", "093749.535000", "093745.695000", "093749.645000", "093745.805000", "093749.755000", "093745.915000", "093749.865000", "093746.025000", "093749.975000", "093746.135000", "093750.085000", "093746.245000", "093750.195000", "093746.355000", "093750.305000", "093746.465000", "093750.412500", "093746.575000", "093750.522500", "093746.682500", "093750.632500", "093746.792500", "093750.742500", "093746.902500", "093750.852500", "093747.012500", "093750.962500", "093747.122500", "093751.072500", "093747.232500", "093751.182500", "093747.342500", "093751.292500", "093747.452500", "093751.400000", "093747.562500", "093751.510000", "093747.670000", "093751.620000", "093747.780000", "093751.730000", "093747.890000", "093751.840000", "093748.000000", "093755.810000", "093751.970000", "093755.920000", "093752.080000", "093756.030000", "093752.190000", "093756.140000", "093752.300000", "093756.247500", "093752.410000", "093756.357500", "093752.517500", "093756.467500", "093752.627500", "093756.577500", "093752.737500", "093756.687500", "093752.847500", "093756.797500", "093752.957500", "093756.907500", "093753.067500", "093757.017500", "093753.177500", "093757.127500", "093753.287500", "093757.235000", "093753.395000", "093757.345000", "093753.505000", "093757.455000", "093753.615000", "093757.565000", "093753.725000", "093757.675000", "093753.835000", "093757.785000", "093753.945000", "093757.895000", "093754.055000", "093758.005000", "093754.165000", "093758.112500", "093754.275000", "093758.222500", "093754.382500", "093758.332500", "093754.492500", "093758.442500", "093754.602500", "093758.552500", "093754.712500", "093758.662500", "093754.822500", "093758.772500", "093754.932500", "093758.882500", "093755.042500", "093758.992500", "093755.152500", "093759.100000", "093755.262500", "093759.210000", "093755.370000", "093759.320000", "093755.480000", "093759.430000", "093755.590000", "093759.540000", "093755.700000", "093803.510000", "093759.670000", "093803.620000", "093759.780000", "093803.730000", "093759.890000", "093803.840000", "093800.000000", "093803.947500", "093800.110000", "093804.057500", "093800.217500", "093804.167500", "093800.327500", "093804.277500", "093800.437500", "093804.387500", "093800.547500", "093804.497500", "093800.657500", "093804.607500", "093800.767500", "093804.717500", "093800.877500", "093804.827500", "093800.987500", "093804.935000", "093801.095000", "093805.045000", "093801.205000", "093805.155000", "093801.315000", "093805.265000", "093801.425000", "093805.375000", "093801.535000", "093805.485000", "093801.645000", "093805.595000", "093801.755000", "093805.705000", "093801.865000", "093805.812500", "093801.975000", "093805.922500", "093802.082500", "093806.032500", "093802.192500", "093806.142500", "093802.302500", "093806.252500", "093802.412500", "093806.362500", "093802.522500", "093806.472500", "093802.632500", "093806.582500", "093802.742500", "093806.692500", "093802.852500", "093806.800000", "093802.962500", "093806.910000", "093803.070000", "093807.020000", "093803.180000", "093807.130000", "093803.290000", "093807.240000", "093803.400000", "093811.210000", "093807.370000", "093811.320000", "093807.480000", "093811.430000", "093807.590000", "093811.540000", "093807.700000", "093811.647500", "093807.810000", "093811.757500", "093807.917500", "093811.867500", "093808.027500", "093811.977500", "093808.137500", "093812.087500", "093808.247500", "093812.197500", "093808.357500", "093812.307500", "093808.467500", "093812.417500", "093808.577500", "093812.527500", "093808.687500", "093812.635000", "093808.795000", "093812.745000", "093808.905000", "093812.855000", "093809.015000", "093812.965000", "093809.125000", "093813.075000", "093809.235000", "093813.185000", "093809.345000", "093813.295000", "093809.455000", "093813.405000", "093809.565000", "093813.512500", "093809.675000", "093813.622500", "093809.782500", "093813.732500", "093809.892500", "093813.842500", "093810.002500", "093813.952500", "093810.112500", "093814.062500", "093810.222500", "093814.172500", "093810.332500", "093814.282500", "093810.442500", "093814.392500", "093810.552500", "093814.500000", "093810.662500", "093814.610000", "093810.770000", "093814.720000", "093810.880000", "093814.830000", "093810.990000", "093814.940000", "093811.100000", "093818.910000", "093815.070000", "093819.020000", "093815.180000", "093819.130000", "093815.290000", "093819.240000", "093815.400000", "093819.347500", "093815.510000", "093819.457500", "093815.617500", "093819.567500", "093815.727500", "093819.677500", "093815.837500", "093819.787500", "093815.947500", "093819.897500", "093816.057500", "093820.007500", "093816.167500", "093820.117500", "093816.277500", "093820.227500", "093816.387500", "093820.335000", "093816.495000", "093820.445000", "093816.605000", "093820.555000", "093816.715000", "093820.665000", "093816.825000", "093820.775000", "093816.935000", "093820.885000", "093817.045000", "093820.995000", "093817.155000", "093821.105000", "093817.265000", "093821.212500", "093817.375000", "093821.322500", "093817.482500", "093821.432500", "093817.592500", "093821.542500", "093817.702500", "093821.652500", "093817.812500", "093821.762500", "093817.922500", "093821.872500", "093818.032500", "093821.982500", "093818.142500", "093822.092500", "093818.252500", "093822.200000", "093818.362500", "093822.310000", "093818.470000", "093822.420000", "093818.580000", "093822.530000", "093818.690000", "093822.640000", "093818.800000", "093826.610000", "093822.770000", "093826.720000", "093822.880000", "093826.830000", "093822.990000", "093826.940000", "093823.100000", "093827.047500", "093823.210000", "093827.157500", "093823.317500", "093827.267500", "093823.427500", "093827.377500", "093823.537500", "093827.487500", "093823.647500", "093827.597500", "093823.757500", "093827.707500", "093823.867500", "093827.817500", "093823.977500", "093827.927500", "093824.087500", "093828.035000", "093824.195000", "093828.145000", "093824.305000", "093828.255000", "093824.415000", "093828.365000", "093824.525000", "093828.475000", "093824.635000", "093828.585000", "093824.745000", "093828.695000", "093824.855000", "093828.805000", "093824.965000", "093828.912500", "093825.075000", "093829.022500", "093825.182500", "093829.132500", "093825.292500", "093829.242500", "093825.402500", "093829.352500", "093825.512500", "093829.462500", "093825.622500", "093829.572500", "093825.732500", "093829.682500", "093825.842500", "093829.792500", "093825.952500", "093829.900000", "093826.062500", "093830.010000", "093826.170000", "093830.120000", "093826.280000", "093830.230000", "093826.390000", "093830.340000", "093826.500000", "093834.310000", "093830.470000", "093834.420000", "093830.580000", "093834.530000", "093830.690000", "093834.640000", "093830.800000", "093834.747500", "093830.910000", "093834.857500", "093831.017500", "093834.967500", "093831.127500", "093835.077500", "093831.237500", "093835.187500", "093831.347500", "093835.297500", "093831.457500", "093835.407500", "093831.567500", "093835.517500", "093831.677500", "093835.627500", "093831.787500", "093835.735000", "093831.895000", "093835.845000", "093832.005000", "093835.955000", "093832.115000", "093836.065000", "093832.225000", "093836.175000", "093832.335000", "093836.285000", "093832.445000", "093836.395000", "093832.555000", "093836.505000", "093832.665000", "093836.612500", "093832.775000", "093836.722500", "093832.882500", "093836.832500", "093832.992500", "093836.942500", "093833.102500", "093837.052500", "093833.212500", "093837.162500", "093833.322500", "093837.272500", "093833.432500", "093837.382500", "093833.542500", "093837.492500", "093833.652500", "093837.600000", "093833.762500", "093837.710000", "093833.870000", "093837.820000", "093833.980000", "093837.930000", "093834.090000", "093838.040000", "093834.200000", "093842.010000", "093838.170000", "093842.120000", "093838.280000", "093842.230000", "093838.390000", "093842.340000", "093838.500000", "093842.447500", "093838.610000", "093842.557500", "093838.717500", "093842.667500", "093838.827500", "093842.777500", "093838.937500", "093842.887500", "093839.047500", "093842.997500", "093839.157500", "093843.107500", "093839.267500", "093843.217500", "093839.377500", "093843.327500", "093839.487500", "093843.435000", "093839.595000", "093843.545000", "093839.705000", "093843.655000", "093839.815000", "093843.765000", "093839.925000", "093843.875000", "093840.035000", "093843.985000", "093840.145000", "093844.095000", "093840.255000", "093844.205000", "093840.365000", "093844.312500", "093840.475000", "093844.422500", "093840.582500", "093844.532500", "093840.692500", "093844.642500", "093840.802500", "093844.752500", "093840.912500", "093844.862500", "093841.022500", "093844.972500", "093841.132500", "093845.082500", "093841.242500", "093845.192500", "093841.352500", "093845.300000", "093841.462500", "093845.410000", "093841.570000", "093845.520000", "093841.680000", "093845.630000", "093841.790000", "093845.740000", "093841.900000", "093849.710000", "093845.870000", "093849.820000", "093845.980000", "093849.930000", "093846.090000", "093850.040000", "093846.200000", "093850.147500", "093846.310000", "093850.257500", "093846.417500", "093850.367500", "093846.527500", "093850.477500", "093846.637500", "093850.587500", "093846.747500", "093850.697500", "093846.857500", "093850.807500", "093846.967500", "093850.917500", "093847.077500", "093851.027500", "093847.187500", "093851.135000", "093847.295000", "093851.245000", "093847.405000", "093851.355000", "093847.515000", "093851.465000", "093847.625000", "093851.575000", "093847.735000", "093851.685000", "093847.845000", "093851.795000", "093847.955000", "093851.905000", "093848.065000", "093852.012500", "093848.175000", "093852.122500", "093848.282500", "093852.232500", "093848.392500", "093852.342500", "093848.502500", "093852.452500", "093848.612500", "093852.562500", "093848.722500", "093852.672500", "093848.832500", "093852.782500", "093848.942500", "093852.892500", "093849.052500", "093853.000000", "093849.162500", "093853.110000", "093849.270000", "093853.220000", "093849.380000", "093853.330000", "093849.490000", "093853.440000", "093849.600000", "093857.410000", "093853.570000", "093857.520000", "093853.680000", "093857.630000", "093853.790000", "093857.740000", "093853.900000", "093857.847500", "093854.010000", "093857.957500", "093854.117500", "093858.067500", "093854.227500", "093858.177500", "093854.337500", "093858.287500", "093854.447500", "093858.397500", "093854.557500", "093858.507500", "093854.667500", "093858.617500", "093854.777500", "093858.727500", "093854.887500", "093858.835000", "093854.995000", "093858.945000", "093855.105000", "093859.055000", "093855.215000", "093859.165000", "093855.325000", "093859.275000", "093855.435000", "093859.385000", "093855.545000", "093859.495000", "093855.655000", "093859.605000", "093855.765000", "093859.712500", "093855.875000", "093859.822500", "093855.982500", "093859.932500", "093856.092500", "093900.042500", "093856.202500", "093900.152500", "093856.312500", "093900.262500", "093856.422500", "093900.372500", "093856.532500", "093900.482500", "093856.642500", "093900.592500", "093856.752500", "093900.700000", "093856.862500", "093900.810000", "093856.970000", "093900.920000", "093857.080000", "093901.030000", "093857.190000", "093901.140000", "093857.300000", "093905.110000", "093901.270000", "093905.220000", "093901.380000", "093905.330000", "093901.490000", "093905.440000", "093901.600000", "093905.547500", "093901.710000", "093905.657500", "093901.817500", "093905.767500", "093901.927500", "093905.877500", "093902.037500", "093905.987500", "093902.147500", "093906.097500", "093902.257500", "093906.207500", "093902.367500", "093906.317500", "093902.477500", "093906.427500", "093902.587500", "093906.535000", "093902.695000", "093906.645000", "093902.805000", "093906.755000", "093902.915000", "093906.865000", "093903.025000", "093906.975000", "093903.135000", "093907.085000", "093903.245000", "093907.195000", "093903.355000", "093907.305000", "093903.465000", "093907.412500", "093903.575000", "093907.522500", "093903.682500", "093907.632500", "093903.792500", "093907.742500", "093903.902500", "093907.852500", "093904.012500", "093907.962500", "093904.122500", "093908.072500", "093904.232500", "093908.182500", "093904.342500", "093908.292500", "093904.452500", "093908.400000", "093904.562500", "093908.510000", "093904.670000", "093908.620000", "093904.780000", "093908.730000", "093904.890000", "093908.840000", "093905.000000", "093912.810000", "093908.970000", "093912.920000", "093909.080000", "093913.030000", "093909.190000", "093913.140000", "093909.300000", "093913.247500", "093909.410000", "093913.357500", "093909.517500", "093913.467500", "093909.627500", "093913.577500", "093909.737500", "093913.687500", "093909.847500", "093913.797500", "093909.957500", "093913.907500", "093910.067500", "093914.017500", "093910.177500", "093914.127500", "093910.287500", "093914.235000", "093910.395000", "093914.345000", "093910.505000", "093914.455000", "093910.615000", "093914.565000", "093910.725000", "093914.675000", "093910.835000", "093914.785000", "093910.945000", "093914.895000", "093911.055000", "093915.005000", "093911.165000", "093915.112500", "093911.275000", "093915.222500", "093911.382500", "093915.332500", "093911.492500", "093915.442500", "093911.602500", "093915.552500", "093911.712500", "093915.662500", "093911.822500", "093915.772500", "093911.932500", "093915.882500", "093912.042500", "093915.992500", "093912.152500", "093916.100000", "093912.262500", "093916.210000", "093912.370000", "093916.320000", "093912.480000", "093916.430000", "093912.590000", "093916.540000", "093912.700000", "093920.510000", "093916.670000", "093920.620000", "093916.780000", "093920.730000", "093916.890000", "093920.840000", "093917.000000", "093920.947500", "093917.110000", "093921.057500", "093917.217500", "093921.167500", "093917.327500", "093921.277500", "093917.437500", "093921.387500", "093917.547500", "093921.497500", "093917.657500", "093921.607500", "093917.767500", "093921.717500", "093917.877500", "093921.827500", "093917.987500", "093921.935000", "093918.095000", "093922.045000", "093918.205000", "093922.155000", "093918.315000", "093922.265000", "093918.425000", "093922.375000", "093