{
  "AcquisitionMatrixPE": 80,
  "AcquisitionNumber": 1,
  "AcquisitionTime": "09:48:34.067500",
  "BandwidthPerPixelPhaseEncode": 46.296,
  "BaseResolution": 80,
  "BodyPartExamined": "BRAIN",
  "CoilCombinationMethod": "Sum of Squares",
  "ConsistencyInfo": "N4_VE11E_LATEST_20181129",
  "ConversionSoftware": "dcm2niix",
  "ConversionSoftwareVersion": "v1.0.20220720",
  "DerivedVendorReportedEchoSpacing": 0.000540003,
  "DeviceSerialNumber": "66112",
  "DwellTime": 2.7e-06,
  "EchoTime": 0.035,
  "EchoTrainLength": 39,
  "EffectiveEchoSpacing": 0.000270002,
  "FlipAngle": 90,
  "HeudiconvVersion": "0.13.1",
  "ImageOrientationPatientDICOM": [0.986269, 0.164928, 0.00850068, -0.159741, 0.939652, 0.30255],
  "ImageOrientationText": "Tra>Cor(17.5)>Sag(-2.4)",
  "ImageType": [
    "ORIGINAL",
    "PRIMARY",
    "M",
    "ND",
    "NORM",
    "MOSAIC"
],
  "ImagingFrequency": 123.259,
  "InPlanePhaseEncodingDirectionDICOM": "COL",
  "InstitutionAddress": "Maynard 3,Hanover,NH,US,03755",
  "InstitutionName": "Dartmouth College - PBS",
  "InstitutionalDepartmentName": "Department",
  "MRAcquisitionType": "2D",
  "MagneticFieldStrength": 3,
  "Manufacturer": "Siemens",
  "ManufacturersModelName": "Prisma",
  "Modality": "MR",
  "MultibandAccelerationFactor": 4,
  "NonlinearGradientCorrection": false,
  "ParallelReductionFactorInPlane": 2,
  "PartialFourier": 1,
  "PatientPosition": "HFS",
  "PercentPhaseFOV": 100,
  "PercentSampling": 100,
  "PhaseEncodingDirection": "j-",
  "PhaseEncodingSteps": 79,
  "PhaseResolution": 1,
  "PixelBandwidth": 2315,
  "ProcedureStepDescription": "dbic^QA",
  "ProtocolName": "func-bold_task-rest_acq-p2-s4-3.5mm",
  "PulseSequenceDetails": "%SiemensSeq%\\ep2d_bold",
  "ReceiveCoilActiveElements": "HEA;HEP",
  "ReceiveCoilName": "Head_32",
  "ReconMatrixPE": 80,
  "RefLinesPE": 24,
  "RepetitionTime": 2,
  "SAR": 0.0176259,
  "ScanOptions": "FS",
  "ScanningSequence": "EP",
  "SequenceName": "*epfid2d1_80",
  "SequenceVariant": "SK",
  "SeriesDescription": "func-bold_task-rest_acq-p2-s4-3.5mm",
  "SeriesNumber": 6,
  "ShimSetting": [4219, -7737, -7498, -44, -140, -62, -18, 87],
  "SliceThickness": 3.5,
  "SliceTiming": [1.485, 0, 0.99, 0.2475, 1.2375, 0.7425, 1.7325, 0.495, 1.485, 0, 0.99, 0.2475, 1.2375, 0.7425, 1.7325, 0.495, 1.485, 0, 0.99, 0.2475, 1.2375, 0.7425, 1.7325, 0.495, 1.485, 0, 0.99, 0.2475, 1.2375, 0.7425, 1.7325, 0.495],
  "SoftwareVersions": "syngo MR E11",
  "SpacingBetweenSlices": 3.99,
  "StationName": "AWP66112",
  "TaskName": "rest",
  "TotalReadoutTime": 0.0213301,
  "TxRefAmp": 222.785,
  "dcmmeta_affine": [
    [-2.9588067531585693, -0.4792221784591675, -0.1672264188528061, 142.6046600341797],
    [-0.4947854280471802, 2.8189570903778076, 1.19601571559906, -111.5344009399414],
    [0.025502033531665802, -0.9076491594314575, 3.802851915359497, -30.94892692565918],
    [0.0, 0.0, 0.0, 1.0]
],
  "dcmmeta_reorient_transform": [
    [0.0, -1.0, 0.0, 79.0],
    [1.0, 0.0, 0.0, 0.0],
    [0.0, 0.0, 1.0, 0.0],
    [0.0, 0.0, 0.0, 1.0]
],
  "dcmmeta_shape": [80, 80, 32, 200],
  "dcmmeta_slice_dim": 2,
  "dcmmeta_version": 0.6,
  "global": {
    "const": {
      "AccessionNumber": "qa",
      "AcquisitionMatrix": [80, 0, 0, 80],
      "AngioFlag": "N",
      "BitsAllocated": 16,
      "BitsStored": 12,
      "BodyPartExamined": "BRAIN",
      "Columns": 480,
      "EchoNumbers": 1,
      "EchoTime": 35.0,
      "EchoTrainLength": 39,
      "FlipAngle": 90.0,
      "HighBit": 11,
      "ImageOrientationPatient": [0.98626889715333, 0.16492847231996, 0.00850067798269, -0.1597407228268, 0.93965236282821, 0.30254972897385],
      "ImagePositionPatient": [-600.66300676755, -773.91170762382, -289.283456705],
      "ImageType": [
        "ORIGINAL",
        "PRIMARY",
        "M",
        "ND",
        "NORM",
        "MOSAIC"
],
      "ImagedNucleus": "1H",
      "ImagingFrequency": 123.25913,
      "InPlanePhaseEncodingDirection": "COL",
      "MRAcquisitionType": "2D",
      "MagneticFieldStrength": 3.0,
      "Manufacturer": "SIEMENS",
      "ManufacturerModelName": "Prisma",
      "Modality": "MR",
      "NumberOfAverages": 1.0,
      "NumberOfPhaseEncodingSteps": 79,
      "PercentPhaseFieldOfView": 100.0,
      "PercentSampling": 100.0,
      "PerformedProcedureStepStartTime": "093429.302000",
      "PhotometricInterpretation": "MONOCHROME2",
      "PixelBandwidth": 2315.0,
      "PixelRepresentation": 0,
      "PixelSpacing": [3.0, 3.0],
      "ProtocolName": "func-bold_task-rest_acq-p2-s4-3.5mm",
      "RepetitionTime": 2000.0,
      "Rows": 480,
      "SAR": 0.01762585369028,
      "SamplesPerPixel": 1,
      "ScanOptions": "FS",
      "ScanningSequence": "EP",
      "SequenceName": "*epfid2d1_80",
      "SequenceVariant": "SK",
      "SeriesDescription": "func-bold_task-rest_acq-p2-s4-3.5mm",
      "SeriesNumber": 6,
      "SeriesTime": "094928.716000",
      "SliceLocation": -68.906851576445,
      "SliceThickness": 3.5,
      "SmallestImagePixelValue": 0,
      "SoftwareVersions": "syngo MR E11",
      "SpacingBetweenSlices": 3.9900000728155,
      "SpecificCharacterSet": "ISO_IR 100",
      "StudyID": "7",
      "StudyTime": "093429.208000",
      "TransmitCoilName": "Body",
      "VariableFlipAngleFlag": "N",
      "WindowCenterWidthExplanation": "Algo1"
    },
    "slices": {}
  },
  "time": {
    "samples": {
      "AcquisitionNumber": [1, 2, 3, 4, 5, 6, 7, 8, 9, 10, 11, 12, 13, 14, 15, 16, 17, 18, 19, 20, 21, 22, 23, 24, 25, 26, 27, 28, 29, 30, 31, 32, 33, 34, 35, 36, 37, 38, 39, 40, 41, 42, 43, 44, 45, 46, 47, 48, 49, 50, 51, 52, 53, 54, 55, 56, 57, 58, 59, 60, 61, 62, 63, 64, 65, 66, 67, 68, 69, 70, 71, 72, 73, 74, 75, 76, 77, 78, 79, 80, 81, 82, 83, 84, 85, 86, 87, 88, 89, 90, 91, 92, 93, 94, 95, 96, 97, 98, 99, 100, 101, 102, 103, 104, 105, 106, 107, 108, 109, 110, 111, 112, 113, 114, 115, 116, 117, 118, 119, 120, 121, 122, 123, 124, 125, 126, 127, 128, 129, 130, 131, 132, 133, 134, 135, 136, 137, 138, 139, 140, 141, 142, 143, 144, 145, 146, 147, 148, 149, 150, 151, 152, 153, 154, 155, 156, 157, 158, 159, 160, 161, 162, 163, 164, 165, 166, 167, 168, 169, 170, 171, 172, 173, 174, 175, 176, 177, 178, 179, 180, 181, 182, 183, 184, 185, 186, 187, 188, 189, 190, 191, 192, 193, 194, 195, 196, 197, 198, 199, 200],
      "AcquisitionTime": ["094834.067500", "094836.067500", "094838.067500", "094840.067500", "094842.067500", "094844.067500", "094846.067500", "094848.067500", "094850.067500", "094852.067500", "094854.067500", "094856.067500", "094858.067500", "094900.067500", "094902.067500", "094904.067500", "094906.067500", "094908.067500", "094910.067500", "094912.067500", "094914.067500", "094916.067500", "094918.067500", "094920.067500", "094922.067500", "094924.067500", "094926.067500", "094928.067500", "094930.067500", "094932.067500", "094934.067500", "094936.067500", "094938.067500", "094940.067500", "094942.067500", "094944.067500", "094946.067500", "094948.067500", "094950.067500", "094952.067500", "094954.067500", "094956.067500", "094958.067500", "095000.067500", "095002.067500", "095004.067500", "095006.067500", "095008.067500", "095010.067500", "095012.067500", "095014.067500", "095016.067500", "095018.067500", "095020.067500", "095022.067500", "095024.067500", "095026.067500", "095028.067500", "095030.067500", "095032.067500", "095034.067500", "095036.067500", "095038.067500", "095040.067500", "095042.067500", "095044.067500", "095046.067500", "095048.067500", "095050.067500", "095052.067500", "095054.067500", "095056.067500", "095058.067500", "095100.067500", "095102.067500", "095104.067500", "095106.067500", "095108.067500", "095110.067500", "095112.067500", "095114.067500", "095116.067500", "095118.067500", "095120.067500", "095122.067500", "095124.067500", "095126.067500", "095128.067500", "095130.067500", "095132.067500", "095134.067500", "095136.067500", "095138.067500", "095140.067500", "095142.067500", "095144.067500", "095146.067500", "095148.067500", "095150.067500", "095152.067500", "095154.067500", "095156.067500", "095158.067500", "095200.067500", "095202.067500", "095204.067500", "095206.067500", "095208.067500", "095210.067500", "095212.067500", "095214.067500", "095216.067500", "095218.067500", "095220.067500", "095222.067500", "095224.067500", "095226.067500", "095228.067500", "095230.067500", "095232.067500", "095234.067500", "095236.067500", "095238.067500", "095240.067500", "095242.067500", "095244.067500", "095246.067500", "095248.067500", "095250.067500", "095252.067500", "095254.067500", "095256.067500", "095258.067500", "095300.067500", "095302.067500", "095304.067500", "095306.067500", "095308.067500", "095310.067500", "095312.067500", "095314.067500", "095316.067500", "095318.067500", "095320.067500", "095322.067500", "095324.067500", "095326.067500", "095328.067500", "095330.067500", "095332.067500", "095334.067500", "095336.067500", "095338.067500", "095340.067500", "095342.067500", "095344.067500", "095346.067500", "095348.067500", "095350.067500", "095352.067500", "095354.067500", "095356.067500", "095358.067500", "095400.067500", "095402.067500", "095404.067500", "095406.067500", "095408.067500", "095410.067500", "095412.067500", "095414.067500", "095416.067500", "095418.067500", "095420.067500", "095422.067500", "095424.067500", "095426.067500", "095428.067500", "095430.067500", "095432.067500", "095434.067500", "095436.067500", "095438.067500", "095440.067500", "095442.067500", "095444.067500", "095446.067500", "095448.067500", "095450.067500", "095452.067500", "095454.067500", "095456.067500", "095458.067500", "095500.067500", "095502.067500", "095504.067500", "095506.067500", "095508.067500", "095510.067500", "095512.067500"],
      "ContentTime": ["094928.719000", "094928.722000", "094928.725000", "094928.727000", "094928.729000", "094928.732000", "094928.734000", "094928.736000", "094928.739000", "094928.741000", "094928.744000", "094928.746000", "094928.748000", "094928.751000", "094928.753000", "094928.755000", "094928.767000", "094928.775000", "094928.777000", "094928.780000", "094928.790000", "094928.792000", "094928.795000", "094928.797000", "094928.799000", "094928.802000", "094928.804000", "095008.715000", "095008.718000", "095008.721000", "095008.723000", "095008.725000", "095008.728000", "095008.730000", "095008.732000", "095008.735000", "095008.737000", "095008.740000", "095008.742000", "095008.744000", "095008.747000", "095008.749000", "095008.751000", "095008.754000", "095008.756000", "095008.759000", "095008.761000", "095048.714000", "095048.724000", "095048.727000", "095048.729000", "095048.731000", "095048.734000", "095048.736000", "095048.746000", "095048.749000", "095048.751000", "095048.753000", "095048.756000", "095048.758000", "095048.761000", "095048.763000", "095048.765000", "095048.768000", "095048.770000", "095048.773000", "095048.775000", "095128.714000", "095128.717000", "095128.719000", "095128.722000", "095128.724000", "095128.726000", "095128.740000", "095128.742000", "095128.745000", "095128.747000", "095128.749000", "095128.752000", "095128.754000", "095128.757000", "095128.759000", "095128.761000", "095128.764000", "095128.766000", "095128.769000", "095128.771000", "095208.714000", "095208.717000", "095208.719000", "095208.722000", "095208.724000", "095208.726000", "095208.729000", "095208.731000", "095208.733000", "095208.736000", "095208.738000", "095208.741000", "095208.743000", "095208.745000", "095208.748000", "095208.750000", "095208.752000", "095208.755000", "095208.757000", "095208.770000", "095248.715000", "095248.718000", "095248.720000", "095248.722000", "095248.725000", "095248.727000", "095248.730000", "095248.732000", "095248.734000", "095248.737000", "095248.739000", "095248.742000", "095248.744000", "095248.747000", "095248.749000", "095248.751000", "095248.754000", "095248.756000", "095248.758000", "095248.761000", "095328.714000", "095328.717000", "095328.719000", "095328.722000", "095328.724000", "095328.727000", "095328.729000", "095328.732000", "095328.734000", "095328.737000", "095328.739000", "095328.741000", "095328.744000", "095328.746000", "095328.749000", "095328.751000", "095328.753000", "095328.756000", "095328.758000", "095328.760000", "095408.714000", "095408.717000", "095408.719000", "095408.721000", "095408.724000", "095408.726000", "095408.729000", "095408.731000", "095408.733000", "095408.736000", "095408.738000", "095408.741000", "095408.743000", "095408.745000", "095408.748000", "095408.750000", "095408.752000", "095408.755000", "095408.757000", "095408.760000", "095448.715000", "095448.718000", "095448.720000", "095448.723000", "095448.725000", "095448.727000", "095448.730000", "095448.732000", "095448.734000", "095448.737000", "095448.739000", "095448.742000", "095448.744000", "095448.746000", "095448.749000", "095448.751000", "095448.753000", "095448.756000", "095448.758000", "095448.761000", "095513.314000", "095513.316000", "095513.319000", "095513.322000", "095513.324000", "095513.327000", "095513.329000", "095513.332000", "095513.334000", "095513.337000", "095513.339000", "095513.342000", "095513.344000"],
      "InstanceCreationTime": ["094928.719000", "094928.722000", "094928.725000", "094928.727000", "094928.729000", "094928.732000", "094928.734000", "094928.736000", "094928.739000", "094928.741000", "094928.744000", "094928.746000", "094928.748000", "094928.751000", "094928.753000", "094928.755000", "094928.767000", "094928.775000", "094928.777000", "094928.780000", "094928.790000", "094928.792000", "094928.795000", "094928.797000", "094928.799000", "094928.802000", "094928.804000", "095008.715000", "095008.718000", "095008.721000", "095008.723000", "095008.725000", "095008.728000", "095008.730000", "095008.732000", "095008.735000", "095008.737000", "095008.740000", "095008.742000", "095008.744000", "095008.747000", "095008.749000", "095008.751000", "095008.754000", "095008.756000", "095008.759000", "095008.761000", "095048.714000", "095048.724000", "095048.727000", "095048.729000", "095048.731000", "095048.734000", "095048.736000", "095048.746000", "095048.749000", "095048.751000", "095048.753000", "095048.756000", "095048.758000", "095048.761000", "095048.763000", "095048.765000", "095048.768000", "095048.770000", "095048.773000", "095048.775000", "095128.714000", "095128.717000", "095128.719000", "095128.722000", "095128.724000", "095128.726000", "095128.740000", "095128.742000", "095128.745000", "095128.747000", "095128.749000", "095128.752000", "095128.754000", "095128.757000", "095128.759000", "095128.761000", "095128.764000", "095128.766000", "095128.769000", "095128.771000", "095208.714000", "095208.717000", "095208.719000", "095208.722000", "095208.724000", "095208.726000", "095208.729000", "095208.731000", "095208.733000", "095208.736000", "095208.738000", "095208.741000", "095208.743000", "095208.745000", "095208.748000", "095208.750000", "095208.752000", "095208.755000", "095208.757000", "095208.770000", "095248.715000", "095248.718000", "095248.720000", "095248.722000", "095248.725000", "095248.727000", "095248.730000", "095248.732000", "095248.734000", "095248.737000", "095248.739000", "095248.742000", "095248.744000", "095248.747000", "095248.749000", "095248.751000", "095248.754000", "095248.756000", "095248.758000", "095248.761000", "095328.714000", "095328.717000", "095328.719000", "095328.722000", "095328.724000", "095328.727000", "095328.729000", "095328.732000", "095328.734000", "095328.737000", "095328.739000", "095328.741000", "095328.744000", "095328.746000", "095328.749000", "095328.751000", "095328.753000", "095328.756000", "095328.758000", "095328.760000", "095408.714000", "095408.717000", "095408.719000", "095408.721000", "095408.724000", "095408.726000", "095408.729000", "095408.731000", "095408.733000", "095408.736000", "095408.738000", "095408.741000", "095408.743000", "095408.745000", "095408.748000", "095408.750000", "095408.752000", "095408.755000", "095408.757000", "095408.760000", "095448.715000", "095448.718000", "095448.720000", "095448.723000", "095448.725000", "095448.727000", "095448.730000", "095448.732000", "095448.734000", "095448.737000", "095448.739000", "095448.742000", "095448.744000", "095448.746000", "095448.749000", "095448.751000", "095448.753000", "095448.756000", "095448.758000", "095448.761000", "095513.314000", "095513.316000", "095513.319000", "095513.322000", "095513.324000", "095513.327000", "095513.329000", "095513.332000", "095513.334000", "095513.337000", "095513.339000", "095513.342000", "095513.344000"],
      "InstanceNumber": [1, 2, 3, 4, 5, 6, 7, 8, 9, 10, 11, 12, 13, 14, 15, 16, 17, 18, 19, 20, 21, 22, 23, 24, 25, 26, 27, 28, 29, 30, 31, 32, 33, 34, 35, 36, 37, 38, 39, 40, 41, 42, 43, 44, 45, 46, 47, 48, 49, 50, 51, 52, 53, 54, 55, 56, 57, 58, 59, 60, 61, 62, 63, 64, 65, 66, 67, 68, 69, 70, 71, 72, 73, 74, 75, 76, 77, 78, 79, 80, 81, 82, 83, 84, 85, 86, 87, 88, 89, 90, 91, 92, 93, 94, 95, 96, 97, 98, 99, 100, 101, 102, 103, 104, 105, 106, 107, 108, 109, 110, 111, 112, 113, 114, 115, 116, 117, 118, 119, 120, 121, 122, 123, 124, 125, 126, 127, 128, 129, 130, 131, 132, 133, 134, 135, 136, 137, 138, 139, 140, 141, 142, 143, 144, 145, 146, 147, 148, 149, 150, 151, 152, 153, 154, 155, 156, 157, 158, 159, 160, 161, 162, 163, 164, 165, 166, 167, 168, 169, 170, 171, 172, 173, 174, 175, 176, 177, 178, 179, 180, 181, 182, 183, 184, 185, 186, 187, 188, 189, 190, 191, 192, 193, 194, 195, 196, 197, 198, 199, 200],
      "LargestImagePixelValue": [2264, 2264, 2265, 2268, 2260, 2267, 2258, 2261, 2267, 2265, 2265, 2264, 2266, 2265, 2267, 2270, 2270, 2266, 2264, 2266, 2264, 2264, 2261, 2264, 2260, 2264, 2262, 2266, 2262, 2262, 2267, 2267, 2266, 2261, 2265, 2268, 2263, 2266, 2263, 2263, 2264, 2262, 2265, 2265, 2264, 2264, 2263, 2268, 2262, 2263, 2267, 2263, 2266, 2267, 2263, 2266, 2262, 2266, 2267, 2265, 2266, 2263, 2267, 2268, 2266, 2269, 2267, 2264, 2264, 2265, 2264, 2263, 2267, 2263, 2262, 2267, 2263, 2266, 2264, 2265, 2268, 2263, 2266, 2266, 2264, 2262, 2266, 2268, 2266, 2267, 2263, 2267, 2265, 2266, 2264, 2263, 2264, 2268, 2265, 2266, 2264, 2263, 2267, 2267, 2269, 2262, 2261, 2267, 2266, 2269, 2267, 2265, 2268, 2263, 2269, 2265, 2263, 2266, 2264, 2263, 2266, 2267, 2263, 2265, 2266, 2261, 2268, 2267, 2265, 2266, 2267, 2264, 2266, 2263, 2266, 2264, 2266, 2267, 2267, 2266, 2266, 2264, 2266, 2264, 2267, 2268, 2268, 2267, 2267, 2266, 2262, 2268, 2265, 2265, 2268, 2266, 2268, 2265, 2265, 2269, 2265, 2271, 2263, 2265, 2266, 2268, 2267, 2265, 2266, 2266, 2262, 2268, 2265, 2266, 2265, 2264, 2267, 2265, 2268, 2264, 2269, 2267, 2264, 2271, 2269, 2265, 2267, 2263, 2267, 2271, 2265, 2270, 2268, 2268, 2267, 2264, 2267, 2262, 2268, 2269],
      "WindowCenter": [961.0, 961.0, 961.0, 961.0, 961.0, 962.0, 961.0, 961.0, 961.0, 961.0, 961.0, 961.0, 960.0, 961.0, 959.0, 960.0, 960.0, 961.0, 961.0, 960.0, 962.0, 960.0, 961.0, 961.0, 961.0, 961.0, 961.0, 961.0, 960.0, 961.0, 960.0, 961.0, 961.0, 960.0, 961.0, 961.0, 961.0, 961.0, 960.0, 961.0, 961.0, 961.0, 962.0, 960.0, 960.0, 961.0, 961.0, 962.0, 960.0, 961.0, 961.0, 960.0, 961.0, 962.0, 961.0, 961.0, 962.0, 961.0, 959.0, 962.0, 962.0, 962.0, 960.0, 961.0, 962.0, 962.0, 961.0, 961.0, 962.0, 962.0, 961.0, 962.0, 961.0, 962.0, 962.0, 961.0, 961.0, 962.0, 960.0, 961.0, 961.0, 961.0, 962.0, 962.0, 961.0, 962.0, 960.0, 960.0, 962.0, 961.0, 961.0, 962.0, 961.0, 961.0, 960.0, 962.0, 961.0, 961.0, 961.0, 960.0, 961.0, 960.0, 961.0, 961.0, 962.0, 961.0, 961.0, 962.0, 961.0, 962.0, 962.0, 960.0, 961.0, 962.0, 962.0, 961.0, 961.0, 962.0, 961.0, 962.0, 962.0, 961.0, 961.0, 960.0, 962.0, 961.0, 961.0, 961.0, 961.0, 960.0, 961.0, 960.0, 961.0, 962.0, 961.0, 961.0, 962.0, 962.0, 962.0, 962.0, 961.0, 961.0, 962.0, 962.0, 961.0, 961.0, 961.0, 962.0, 962.0, 959.0, 961.0, 960.0, 961.0, 961.0, 962.0, 961.0, 962.0, 961.0, 961.0, 961.0, 960.0, 960.0, 961.0, 962.0, 961.0, 961.0, 962.0, 962.0, 962.0, 961.0, 962.0, 961.0, 961.0, 961.0, 961.0, 962.0, 961.0, 961.0, 962.0, 961.0, 961.0, 961.0, 961.0, 961.0, 960.0, 961.0, 962.0, 961.0, 961.0, 961.0, 962.0, 960.0, 961.0, 961.0, 961.0, 961.0, 962.0, 961.0, 960.0, 962.0],
      "WindowWidth": [2262.0, 2262.0, 2262.0, 2262.0, 2261.0, 2263.0, 2261.0, 2261.0, 2262.0, 2262.0, 2262.0, 2262.0, 2260.0, 2262.0, 2260.0, 2262.0, 2260.0, 2262.0, 2262.0, 2260.0, 2263.0, 2261.0, 2263.0, 2262.0, 2261.0, 2261.0, 2262.0, 2262.0, 2260.0, 2261.0, 2262.0, 2261.0, 2262.0, 2260.0, 2262.0, 2263.0, 2261.0, 2261.0, 2260.0, 2261.0, 2262.0, 2262.0, 2262.0, 2261.0, 2261.0, 2262.0, 2262.0, 2262.0, 2260.0, 2263.0, 2261.0, 2261.0, 2262.0, 2262.0, 2261.0, 2261.0, 2262.0, 2263.0, 2260.0, 2262.0, 2262.0, 2262.0, 2261.0, 2261.0, 2262.0, 2263.0, 2262.0, 2262.0, 2262.0, 2262.0, 2261.0, 2262.0, 2261.0, 2263.0, 2262.0, 2263.0, 2262.0, 2262.0, 2261.0, 2261.0, 2261.0, 2261.0, 2262.0, 2263.0, 2262.0, 2264.0, 2261.0, 2261.0, 2262.0, 2263.0, 2261.0, 2262.0, 2262.0, 2262.0, 2261.0, 2262.0, 2262.0, 2262.0, 2261.0, 2261.0, 2262.0, 2262.0, 2262.0, 2261.0, 2262.0, 2262.0, 2263.0, 2262.0, 2262.0, 2262.0, 2262.0, 2261.0, 2262.0, 2262.0, 2262.0, 2262.0, 2262.0, 2262.0, 2261.0, 2262.0, 2262.0, 2261.0, 2262.0, 2261.0, 2262.0, 2262.0, 2262.0, 2262.0, 2261.0, 2261.0, 2262.0, 2261.0, 2262.0, 2262.0, 2262.0, 2261.0, 2262.0, 2262.0, 2262.0, 2262.0, 2263.0, 2263.0, 2263.0, 2262.0, 2263.0, 2262.0, 2262.0, 2263.0, 2262.0, 2260.0, 2262.0, 2261.0, 2262.0, 2262.0, 2262.0, 2261.0, 2262.0, 2262.0, 2262.0, 2262.0, 2260.0, 2261.0, 2261.0, 2262.0, 2262.0, 2262.0, 2262.0, 2262.0, 2262.0, 2262.0, 2262.0, 2262.0, 2262.0, 2262.0, 2261.0, 2262.0, 2262.0, 2262.0, 2263.0, 2261.0, 2262.0, 2261.0, 2262.0, 2262.0, 2260.0, 2262.0, 2262.0, 2262.0, 2262.0, 2261.0, 2262.0, 2261.0, 2262.0, 2262.0, 2261.0, 2262.0, 2263.0, 2262.0, 2260.0, 2263.0]
    },
    "slices": {}
  }
}