{
  "AcquisitionMatrixPE": 80,
  "AcquisitionNumber": 1,
  "AcquisitionTime": "09:41:39.755000",
  "BandwidthPerPixelPhaseEncode": 48.077,
  "BaseResolution": 80,
  "BodyPartExamined": "BRAIN",
  "CoilCombinationMethod": "Sum of Squares",
  "ConsistencyInfo": "N4_VE11E_LATEST_20181129",
  "ConversionSoftware": "dcm2niix",
  "ConversionSoftwareVersion": "v1.0.20220720",
  "DerivedVendorReportedEchoSpacing": 0.000519999,
  "DeviceSerialNumber": "66112",
  "DwellTime": 2.7e-06,
  "EchoTime": 0.035,
  "EchoTrainLength": 39,
  "EffectiveEchoSpacing": 0.00026,
  "FlipAngle": 90,
  "HeudiconvVersion": "0.13.1",
  "ImageOrientationPatientDICOM": [0.986269, 0.164928, 0.00850068, -0.159741, 0.939652, 0.30255],
  "ImageOrientationText": "Tra>Cor(17.5)>Sag(-2.4)",
  "ImageType": [
    "ORIGINAL",
    "PRIMARY",
    "M",
    "ND",
    "NORM",
    "MOSAIC"
],
  "ImagingFrequency": 123.259,
  "InPlanePhaseEncodingDirectionDICOM": "COL",
  "InstitutionAddress": "Maynard 3,Hanover,NH,US,03755",
  "InstitutionName": "Dartmouth College - PBS",
  "InstitutionalDepartmentName": "Department",
  "MRAcquisitionType": "2D",
  "MagneticFieldStrength": 3,
  "Manufacturer": "Siemens",
  "ManufacturersModelName": "Prisma",
  "MatrixCoilMode": "GRAPPA",
  "Modality": "MR",
  "NonlinearGradientCorrection": false,
  "ParallelReductionFactorInPlane": 2,
  "PartialFourier": 1,
  "PatientPosition": "HFS",
  "PercentPhaseFOV": 100,
  "PercentSampling": 100,
  "PhaseEncodingDirection": "j-",
  "PhaseEncodingSteps": 79,
  "PhaseResolution": 1,
  "PixelBandwidth": 2315,
  "ProcedureStepDescription": "dbic^QA",
  "ProtocolName": "func-bold_task-rest_acq-p2",
  "PulseSequenceDetails": "%SiemensSeq%\\ep2d_bold",
  "ReceiveCoilActiveElements": "HEA;HEP",
  "ReceiveCoilName": "Head_32",
  "ReconMatrixPE": 80,
  "RefLinesPE": 24,
  "RepetitionTime": 2,
  "SAR": 0.0468706,
  "ScanOptions": "FS",
  "ScanningSequence": "EP",
  "SequenceName": "*epfid2d1_80",
  "SequenceVariant": "SK",
  "SeriesDescription": "func-bold_task-rest_acq-p2",
  "SeriesNumber": 5,
  "ShimSetting": [4219, -7736, -7498, -48, -142, -60, -19, 88],
  "SliceThickness": 3.5,
  "SliceTiming": [0.99, 0, 1.055, 0.0675, 1.1225, 0.1325, 1.1875, 0.1975, 1.255, 0.265, 1.32, 0.33, 1.385, 0.395, 1.4525, 0.4625, 1.5175, 0.5275, 1.585, 0.595, 1.65, 0.66, 1.715, 0.725, 1.7825, 0.7925, 1.8475, 0.8575, 1.915, 0.925],
  "SoftwareVersions": "syngo MR E11",
  "SpacingBetweenSlices": 3.99,
  "StationName": "AWP66112",
  "TaskName": "rest",
  "TotalReadoutTime": 0.02054,
  "TxRefAmp": 222.785,
  "dcmmeta_affine": [
    [-2.9588067531585693, -0.4792221784591675, -0.1672264188528061, 142.4374237060547],
    [-0.4947854280471802, 2.8189570903778076, 1.1960155963897705, -110.33838653564453],
    [0.025502033531665802, -0.9076491594314575, 3.802851915359497, -27.146074295043945],
    [0.0, 0.0, 0.0, 1.0]
],
  "dcmmeta_reorient_transform": [
    [0.0, -1.0, 0.0, 79.0],
    [1.0, 0.0, 0.0, 0.0],
    [0.0, 0.0, 1.0, 0.0],
    [0.0, 0.0, 0.0, 1.0]
],
  "dcmmeta_shape": [80, 80, 30, 200],
  "dcmmeta_slice_dim": 2,
  "dcmmeta_version": 0.6,
  "global": {
    "const": {
      "AccessionNumber": "qa",
      "AcquisitionMatrix": [80, 0, 0, 80],
      "AngioFlag": "N",
      "BitsAllocated": 16,
      "BitsStored": 12,
      "BodyPartExamined": "BRAIN",
      "Columns": 480,
      "EchoNumbers": 1,
      "EchoTime": 35.0,
      "EchoTrainLength": 39,
      "FlipAngle": 90.0,
      "HighBit": 11,
      "ImageOrientationPatient": [0.98626889715333, 0.16492847231996, 0.00850067798269, -0.1597407228268, 0.93965236282821, 0.30254972897385],
      "ImagePositionPatient": [-600.49577997617, -775.10772393547, -285.48060407438],
      "ImageType": [
        "ORIGINAL",
        "PRIMARY",
        "M",
        "ND",
        "NORM",
        "MOSAIC"
],
      "ImagedNucleus": "1H",
      "ImagingFrequency": 123.259129,
      "InPlanePhaseEncodingDirection": "COL",
      "MRAcquisitionType": "2D",
      "MagneticFieldStrength": 3.0,
      "Manufacturer": "SIEMENS",
      "ManufacturerModelName": "Prisma",
      "Modality": "MR",
      "NumberOfAverages": 1.0,
      "NumberOfPhaseEncodingSteps": 79,
      "PercentPhaseFieldOfView": 100.0,
      "PercentSampling": 100.0,
      "PerformedProcedureStepStartTime": "093429.302000",
      "PhotometricInterpretation": "MONOCHROME2",
      "PixelBandwidth": 2315.0,
      "PixelRepresentation": 0,
      "PixelSpacing": [3.0, 3.0],
      "ProtocolName": "func-bold_task-rest_acq-p2",
      "RepetitionTime": 2000.0,
      "Rows": 480,
      "SAR": 0.0468706254787,
      "SamplesPerPixel": 1,
      "ScanOptions": "FS",
      "ScanningSequence": "EP",
      "SequenceName": "*epfid2d1_80",
      "SequenceVariant": "SK",
      "SeriesDescription": "func-bold_task-rest_acq-p2",
      "SeriesNumber": 5,
      "SeriesTime": "094228.887000",
      "SliceLocation": -64.916850580498,
      "SliceThickness": 3.5,
      "SmallestImagePixelValue": 0,
      "SoftwareVersions": "syngo MR E11",
      "SpacingBetweenSlices": 3.9900000195686,
      "SpecificCharacterSet": "ISO_IR 100",
      "StudyID": "7",
      "StudyTime": "093429.208000",
      "TransmitCoilName": "Body",
      "VariableFlipAngleFlag": "N",
      "WindowCenterWidthExplanation": "Algo1"
    },
    "slices": {}
  },
  "time": {
    "samples": {
      "AcquisitionNumber": [1, 2, 3, 4, 5, 6, 7, 8, 9, 10, 11, 12, 13, 14, 15, 16, 17, 18, 19, 20, 21, 22, 23, 24, 25, 26, 27, 28, 29, 30, 31, 32, 33, 34, 35, 36, 37, 38, 39, 40, 41, 42, 43, 44, 45, 46, 47, 48, 49, 50, 51, 52, 53, 54, 55, 56, 57, 58, 59, 60, 61, 62, 63, 64, 65, 66, 67, 68, 69, 70, 71, 72, 73, 74, 75, 76, 77, 78, 79, 80, 81, 82, 83, 84, 85, 86, 87, 88, 89, 90, 91, 92, 93, 94, 95, 96, 97, 98, 99, 100, 101, 102, 103, 104, 105, 106, 107, 108, 109, 110, 111, 112, 113, 114, 115, 116, 117, 118, 119, 120, 121, 122, 123, 124, 125, 126, 127, 128, 129, 130, 131, 132, 133, 134, 135, 136, 137, 138, 139, 140, 141, 142, 143, 144, 145, 146, 147, 148, 149, 150, 151, 152, 153, 154, 155, 156, 157, 158, 159, 160, 161, 162, 163, 164, 165, 166, 167, 168, 169, 170, 171, 172, 173, 174, 175, 176, 177, 178, 179, 180, 181, 182, 183, 184, 185, 186, 187, 188, 189, 190, 191, 192, 193, 194, 195, 196, 197, 198, 199, 200],
      "AcquisitionTime": ["094139.755000", "094141.755000", "094143.755000", "094145.755000", "094147.755000", "094149.755000", "094151.755000", "094153.755000", "094155.755000", "094157.755000", "094159.755000", "094201.755000", "094203.755000", "094205.755000", "094207.755000", "094209.755000", "094211.755000", "094213.755000", "094215.755000", "094217.755000", "094219.755000", "094221.755000", "094223.755000", "094225.755000", "094227.755000", "094229.755000", "094231.755000", "094233.755000", "094235.755000", "094237.755000", "094239.755000", "094241.755000", "094243.755000", "094245.755000", "094247.755000", "094249.755000", "094251.755000", "094253.755000", "094255.755000", "094257.755000", "094259.755000", "094301.755000", "094303.755000", "094305.755000", "094307.755000", "094309.755000", "094311.755000", "094313.755000", "094315.755000", "094317.755000", "094319.755000", "094321.755000", "094323.755000", "094325.755000", "094327.755000", "094329.755000", "094331.755000", "094333.755000", "094335.755000", "094337.755000", "094339.755000", "094341.755000", "094343.755000", "094345.755000", "094347.755000", "094349.755000", "094351.755000", "094353.755000", "094355.755000", "094357.755000", "094359.755000", "094401.755000", "094403.755000", "094405.755000", "094407.755000", "094409.755000", "094411.755000", "094413.755000", "094415.755000", "094417.755000", "094419.755000", "094421.755000", "094423.755000", "094425.755000", "094427.755000", "094429.755000", "094431.755000", "094433.755000", "094435.755000", "094437.755000", "094439.755000", "094441.755000", "094443.755000", "094445.755000", "094447.755000", "094449.755000", "094451.755000", "094453.755000", "094455.755000", "094457.755000", "094459.755000", "094501.755000", "094503.755000", "094505.755000", "094507.755000", "094509.755000", "094511.755000", "094513.755000", "094515.755000", "094517.755000", "094519.755000", "094521.755000", "094523.755000", "094525.755000", "094527.755000", "094529.755000", "094531.755000", "094533.755000", "094535.755000", "094537.755000", "094539.755000", "094541.755000", "094543.755000", "094545.755000", "094547.755000", "094549.755000", "094551.755000", "094553.755000", "094555.755000", "094557.755000", "094559.755000", "094601.755000", "094603.755000", "094605.755000", "094607.755000", "094609.755000", "094611.755000", "094613.755000", "094615.755000", "094617.755000", "094619.755000", "094621.755000", "094623.755000", "094625.755000", "094627.755000", "094629.755000", "094631.755000", "094633.755000", "094635.755000", "094637.755000", "094639.755000", "094641.755000", "094643.755000", "094645.755000", "094647.755000", "094649.755000", "094651.755000", "094653.755000", "094655.755000", "094657.755000", "094659.755000", "094701.755000", "094703.755000", "094705.755000", "094707.755000", "094709.755000", "094711.755000", "094713.755000", "094715.755000", "094717.755000", "094719.755000", "094721.755000", "094723.755000", "094725.755000", "094727.755000", "094729.755000", "094731.755000", "094733.755000", "094735.755000", "094737.755000", "094739.755000", "094741.755000", "094743.755000", "094745.755000", "094747.755000", "094749.755000", "094751.755000", "094753.755000", "094755.755000", "094757.755000", "094759.755000", "094801.755000", "094803.755000", "094805.755000", "094807.755000", "094809.755000", "094811.755000", "094813.755000", "094815.755000", "094817.755000"],
      "ContentTime": ["094228.891000", "094228.894000", "094228.896000", "094228.899000", "094228.901000", "094228.904000", "094228.906000", "094228.908000", "094228.911000", "094228.913000", "094228.915000", "094228.918000", "094228.920000", "094228.922000", "094228.925000", "094228.927000", "094228.935000", "094228.937000", "094228.939000", "094228.942000", "094228.944000", "094228.947000", "094228.949000", "094228.951000", "094308.886000", "094308.889000", "094308.891000", "094308.893000", "094308.896000", "094308.898000", "094308.900000", "094308.903000", "094308.905000", "094308.908000", "094308.910000", "094308.912000", "094308.915000", "094308.917000", "094308.925000", "094308.927000", "094308.930000", "094308.932000", "094308.935000", "094308.937000", "094348.885000", "094348.888000", "094348.890000", "094348.892000", "094348.895000", "094348.897000", "094348.900000", "094348.902000", "094348.904000", "094348.907000", "094348.920000", "094348.923000", "094348.925000", "094348.927000", "094348.930000", "094348.932000", "094348.935000", "094348.937000", "094348.939000", "094348.942000", "094428.885000", "094428.888000", "094428.890000", "094428.892000", "094428.895000", "094428.897000", "094428.900000", "094428.902000", "094428.904000", "094428.907000", "094428.909000", "094428.911000", "094428.914000", "094428.916000", "094428.919000", "094428.921000", "094428.923000", "094428.934000", "094428.936000", "094428.939000", "094508.885000", "094508.903000", "094508.905000", "094508.908000", "094508.910000", "094508.912000", "094508.915000", "094508.917000", "094508.919000", "094508.922000", "094508.924000", "094508.926000", "094508.929000", "094508.931000", "094508.933000", "094508.936000", "094508.938000", "094508.941000", "094508.943000", "094508.945000", "094548.886000", "094548.889000", "094548.891000", "094548.894000", "094548.896000", "094548.898000", "094548.901000", "094548.903000", "094548.906000", "094548.908000", "094548.911000", "094548.913000", "094548.915000", "094548.918000", "094548.920000", "094548.922000", "094548.925000", "094548.927000", "094548.930000", "094548.932000", "094628.885000", "094628.888000", "094628.890000", "094628.892000", "094628.895000", "094628.897000", "094628.900000", "094628.902000", "094628.904000", "094628.907000", "094628.909000", "094628.911000", "094628.914000", "094628.916000", "094628.918000", "094628.921000", "094628.923000", "094628.926000", "094628.928000", "094628.930000", "094708.885000", "094708.888000", "094708.890000", "094708.893000", "094708.895000", "094708.898000", "094708.900000", "094708.902000", "094708.905000", "094708.907000", "094708.910000", "094708.912000", "094708.914000", "094708.917000", "094708.919000", "094708.921000", "094708.924000", "094708.926000", "094708.928000", "094708.931000", "094748.886000", "094748.889000", "094748.891000", "094748.893000", "094748.896000", "094748.898000", "094748.901000", "094748.903000", "094748.905000", "094748.908000", "094748.910000", "094748.912000", "094748.915000", "094748.917000", "094748.919000", "094748.922000", "094748.924000", "094748.927000", "094748.929000", "094748.931000", "094819.411000", "094819.414000", "094819.416000", "094819.419000", "094819.421000", "094819.423000", "094819.426000", "094819.429000", "094819.431000", "094819.434000", "094819.436000", "094819.441000", "094819.451000", "094819.454000", "094819.457000", "094819.461000"],
      "InstanceCreationTime": ["094228.891000", "094228.894000", "094228.896000", "094228.899000", "094228.901000", "094228.904000", "094228.906000", "094228.908000", "094228.911000", "094228.913000", "094228.915000", "094228.918000", "094228.920000", "094228.922000", "094228.925000", "094228.927000", "094228.935000", "094228.937000", "094228.939000", "094228.942000", "094228.944000", "094228.947000", "094228.949000", "094228.951000", "094308.886000", "094308.889000", "094308.891000", "094308.893000", "094308.896000", "094308.898000", "094308.900000", "094308.903000", "094308.905000", "094308.908000", "094308.910000", "094308.912000", "094308.915000", "094308.917000", "094308.925000", "094308.927000", "094308.930000", "094308.932000", "094308.935000", "094308.937000", "094348.885000", "094348.888000", "094348.890000", "094348.892000", "094348.895000", "094348.897000", "094348.900000", "094348.902000", "094348.904000", "094348.907000", "094348.920000", "094348.923000", "094348.925000", "094348.927000", "094348.930000", "094348.932000", "094348.935000", "094348.937000", "094348.939000", "094348.942000", "094428.885000", "094428.888000", "094428.890000", "094428.892000", "094428.895000", "094428.897000", "094428.900000", "094428.902000", "094428.904000", "094428.907000", "094428.909000", "094428.911000", "094428.914000", "094428.916000", "094428.919000", "094428.921000", "094428.923000", "094428.934000", "094428.936000", "094428.939000", "094508.885000", "094508.903000", "094508.905000", "094508.908000", "094508.910000", "094508.912000", "094508.915000", "094508.917000", "094508.919000", "094508.922000", "094508.924000", "094508.926000", "094508.929000", "094508.931000", "094508.933000", "094508.936000", "094508.938000", "094508.941000", "094508.943000", "094508.945000", "094548.886000", "094548.889000", "094548.891000", "094548.894000", "094548.896000", "094548.898000", "094548.901000", "094548.903000", "094548.906000", "094548.908000", "094548.911000", "094548.913000", "094548.915000", "094548.918000", "094548.920000", "094548.922000", "094548.925000", "094548.927000", "094548.930000", "094548.932000", "094628.885000", "094628.888000", "094628.890000", "094628.892000", "094628.895000", "094628.897000", "094628.900000", "094628.902000", "094628.904000", "094628.907000", "094628.909000", "094628.911000", "094628.914000", "094628.916000", "094628.918000", "094628.921000", "094628.923000", "094628.926000", "094628.928000", "094628.930000", "094708.885000", "094708.888000", "094708.890000", "094708.893000", "094708.895000", "094708.898000", "094708.900000", "094708.902000", "094708.905000", "094708.907000", "094708.910000", "094708.912000", "094708.914000", "094708.917000", "094708.919000", "094708.921000", "094708.924000", "094708.926000", "094708.928000", "094708.931000", "094748.886000", "094748.889000", "094748.891000", "094748.893000", "094748.896000", "094748.898000", "094748.901000", "094748.903000", "094748.905000", "094748.908000", "094748.910000", "094748.912000", "094748.915000", "094748.917000", "094748.919000", "094748.922000", "094748.924000", "094748.927000", "094748.929000", "094748.931000", "094819.411000", "094819.414000", "094819.416000", "094819.419000", "094819.421000", "094819.423000", "094819.426000", "094819.429000", "094819.431000", "094819.434000", "094819.436000", "094819.441000", "094819.451000", "094819.454000", "094819.457000", "094819.461000"],
      "InstanceNumber": [1, 2, 3, 4, 5, 6, 7, 8, 9, 10, 11, 12, 13, 14, 15, 16, 17, 18, 19, 20, 21, 22, 23, 24, 25, 26, 27, 28, 29, 30, 31, 32, 33, 34, 35, 36, 37, 38, 39, 40, 41, 42, 43, 44, 45, 46, 47, 48, 49, 50, 51, 52, 53, 54, 55, 56, 57, 58, 59, 60, 61, 62, 63, 64, 65, 66, 67, 68, 69, 70, 71, 72, 73, 74, 75, 76, 77, 78, 79, 80, 81, 82, 83, 84, 85, 86, 87, 88, 89, 90, 91, 92, 93, 94, 95, 96, 97, 98, 99, 100, 101, 102, 103, 104, 105, 106, 107, 108, 109, 110, 111, 112, 113, 114, 115, 116, 117, 118, 119, 120, 121, 122, 123, 124, 125, 126, 127, 128, 129, 130, 131, 132, 133, 134, 135, 136, 137, 138, 139, 140, 141, 142, 143, 144, 145, 146, 147, 148, 149, 150, 151, 152, 153, 154, 155, 156, 157, 158, 159, 160, 161, 162, 163, 164, 165, 166, 167, 168, 169, 170, 171, 172, 173, 174, 175, 176, 177, 178, 179, 180, 181, 182, 183, 184, 185, 186, 187, 188, 189, 190, 191, 192, 193, 194, 195, 196, 197, 198, 199, 200],
      "LargestImagePixelValue": [2239, 2246, 2249, 2245, 2253, 2253, 2254, 2250, 2258, 2254, 2258, 2254, 2248, 2251, 2250, 2257, 2249, 2251, 2252, 2245, 2253, 2258, 2255, 2250, 2248, 2250, 2257, 2245, 2257, 2247, 2255, 2254, 2251, 2243, 2249, 2246, 2256, 2250, 2243, 2252, 2253, 2250, 2247, 2252, 2259, 2250, 2248, 2244, 2250, 2258, 2248, 2245, 2253, 2253, 2248, 2248, 2249, 2256, 2253, 2252, 2252, 2247, 2251, 2256, 2251, 2255, 2255, 2243, 2257, 2250, 2254, 2245, 2247, 2244, 2246, 2246, 2250, 2250, 2254, 2249, 2252, 2249, 2252, 2254, 2251, 2246, 2250, 2247, 2252, 2248, 2249, 2247, 2247, 2259, 2249, 2247, 2246, 2248, 2243, 2255, 2247, 2245, 2247, 2245, 2254, 2257, 2245, 2249, 2248, 2244, 2248, 2254, 2258, 2254, 2242, 2244, 2244, 2246, 2249, 2257, 2242, 2242, 2246, 2245, 2244, 2249, 2258, 2246, 2249, 2243, 2244, 2247, 2246, 2247, 2248, 2255, 2250, 2241, 2248, 2247, 2252, 2244, 2241, 2246, 2239, 2249, 2249, 2245, 2247, 2252, 2247, 2253, 2242, 2249, 2254, 2251, 2255, 2254, 2247, 2248, 2243, 2250, 2245, 2253, 2246, 2248, 2253, 2247, 2246, 2247, 2248, 2258, 2243, 2244, 2246, 2245, 2251, 2252, 2245, 2245, 2244, 2241, 2252, 2244, 2256, 2249, 2248, 2244, 2254, 2243, 2243, 2242, 2250, 2248, 2249, 2241, 2252, 2250, 2244, 2242],
      "WindowCenter": [1027.0, 1027.0, 1027.0, 1027.0, 1027.0, 1027.0, 1027.0, 1027.0, 1027.0, 1027.0, 1027.0, 1027.0, 1027.0, 1027.0, 1027.0, 1027.0, 1027.0, 1027.0, 1027.0, 1027.0, 1027.0, 1027.0, 1027.0, 1027.0, 1027.0, 1027.0, 1027.0, 1027.0, 1027.0, 1027.0, 1027.0, 1027.0, 1027.0, 1028.0, 1027.0, 1027.0, 1027.0, 1027.0, 1027.0, 1027.0, 1027.0, 1027.0, 1027.0, 1027.0, 1027.0, 1027.0, 1027.0, 1027.0, 1027.0, 1027.0, 1027.0, 1027.0, 1027.0, 1027.0, 1027.0, 1027.0, 1027.0, 1027.0, 1027.0, 1027.0, 1027.0, 1027.0, 1027.0, 1027.0, 1027.0, 1027.0, 1027.0, 1027.0, 1027.0, 1027.0, 1027.0, 1027.0, 1027.0, 1026.0, 1027.0, 1027.0, 1027.0, 1027.0, 1027.0, 1027.0, 1027.0, 1027.0, 1027.0, 1027.0, 1027.0, 1027.0, 1027.0, 1027.0, 1027.0, 1026.0, 1027.0, 1027.0, 1026.0, 1026.0, 1026.0, 1027.0, 1026.0, 1026.0, 1027.0, 1026.0, 1026.0, 1026.0, 1026.0, 1026.0, 1027.0, 1026.0, 1026.0, 1026.0, 1027.0, 1026.0, 1027.0, 1026.0, 1026.0, 1026.0, 1026.0, 1026.0, 1026.0, 1026.0, 1026.0, 1026.0, 1026.0, 1026.0, 1026.0, 1026.0, 1026.0, 1026.0, 1026.0, 1026.0, 1026.0, 1026.0, 1026.0, 1026.0, 1026.0, 1026.0, 1027.0, 1026.0, 1026.0, 1026.0, 1026.0, 1026.0, 1026.0, 1026.0, 1026.0, 1026.0, 1026.0, 1026.0, 1026.0, 1026.0, 1026.0, 1026.0, 1026.0, 1026.0, 1026.0, 1026.0, 1026.0, 1026.0, 1026.0, 1026.0, 1027.0, 1026.0, 1027.0, 1026.0, 1026.0, 1026.0, 1026.0, 1026.0, 1026.0, 1026.0, 1026.0, 1027.0, 1026.0, 1026.0, 1026.0, 1026.0, 1026.0, 1026.0, 1026.0, 1026.0, 1026.0, 1026.0, 1026.0, 1026.0, 1026.0, 1026.0, 1026.0, 1026.0, 1026.0, 1026.0, 1026.0, 1027.0, 1026.0, 1026.0, 1026.0, 1026.0, 1026.0, 1026.0, 1026.0, 1026.0, 1026.0, 1026.0],
      "WindowWidth": [2289.0, 2288.0, 2288.0, 2288.0, 2288.0, 2288.0, 2288.0, 2288.0, 2288.0, 2288.0, 2288.0, 2289.0, 2288.0, 2288.0, 2288.0, 2288.0, 2288.0, 2288.0, 2288.0, 2288.0, 2288.0, 2288.0, 2288.0, 2288.0, 2288.0, 2288.0, 2288.0, 2288.0, 2288.0, 2288.0, 2288.0, 2288.0, 2288.0, 2289.0, 2288.0, 2288.0, 2288.0, 2288.0, 2288.0, 2288.0, 2288.0, 2288.0, 2288.0, 2288.0, 2288.0, 2288.0, 2288.0, 2288.0, 2288.0, 2288.0, 2287.0, 2288.0, 2288.0, 2287.0, 2288.0, 2287.0, 2287.0, 2288.0, 2288.0, 2287.0, 2287.0, 2287.0, 2288.0, 2288.0, 2287.0, 2287.0, 2288.0, 2287.0, 2288.0, 2287.0, 2288.0, 2287.0, 2287.0, 2288.0, 2287.0, 2287.0, 2287.0, 2287.0, 2287.0, 2287.0, 2287.0, 2287.0, 2287.0, 2287.0, 2287.0, 2287.0, 2287.0, 2287.0, 2287.0, 2287.0, 2287.0, 2287.0, 2287.0, 2287.0, 2287.0, 2288.0, 2287.0, 2287.0, 2287.0, 2287.0, 2287.0, 2287.0, 2287.0, 2287.0, 2287.0, 2287.0, 2287.0, 2287.0, 2287.0, 2287.0, 2288.0, 2287.0, 2287.0, 2287.0, 2287.0, 2287.0, 2287.0, 2287.0, 2287.0, 2287.0, 2287.0, 2287.0, 2287.0, 2287.0, 2287.0, 2287.0, 2287.0, 2286.0, 2287.0, 2287.0, 2287.0, 2287.0, 2286.0, 2287.0, 2287.0, 2287.0, 2287.0, 2286.0, 2287.0, 2287.0, 2287.0, 2287.0, 2287.0, 2287.0, 2287.0, 2287.0, 2287.0, 2287.0, 2286.0, 2286.0, 2287.0, 2287.0, 2287.0, 2286.0, 2286.0, 2287.0, 2287.0, 2287.0, 2287.0, 2287.0, 2287.0, 2286.0, 2286.0, 2287.0, 2286.0, 2286.0, 2286.0, 2287.0, 2286.0, 2287.0, 2287.0, 2286.0, 2287.0, 2286.0, 2286.0, 2286.0, 2286.0, 2286.0, 2286.0, 2286.0, 2286.0, 2286.0, 2286.0, 2286.0, 2286.0, 2286.0, 2286.0, 2286.0, 2287.0, 2287.0, 2286.0, 2286.0, 2286.0, 2286.0, 2286.0, 2286.0, 2286.0, 2286.0, 2286.0, 2286.0]
    },
    "slices": {}
  }
}