{
  "AcquisitionMatrixPE": 80,
  "AcquisitionNumber": 1,
  "AcquisitionTime": "10:12:30.052500",
  "BandwidthPerPixelPhaseEncode": 46.296,
  "BaseResolution": 80,
  "BodyPartExamined": "BRAIN",
  "CoilCombinationMethod": "Sum of Squares",
  "ConsistencyInfo": "N4_VE11E_LATEST_20181129",
  "ConversionSoftware": "dcm2niix",
  "ConversionSoftwareVersion": "v1.0.20220720",
  "DerivedVendorReportedEchoSpacing": 0.000540003,
  "DeviceSerialNumber": "66112",
  "DwellTime": 2.7e-06,
  "EchoTime": 0.035,
  "EchoTrainLength": 39,
  "EffectiveEchoSpacing": 0.000270002,
  "FlipAngle": 90,
  "HeudiconvVersion": "0.13.1",
  "ImageOrientationPatientDICOM": [0.988372, 0.151926, 0.00630758, -0.146832, 0.942806, 0.299261],
  "ImageOrientationText": "Tra>Cor(17.3)>Sag(-2.3)",
  "ImageType": [
    "ORIGINAL",
    "PRIMARY",
    "M",
    "ND",
    "NORM",
    "MOSAIC"
],
  "ImagingFrequency": 123.259,
  "InPlanePhaseEncodingDirectionDICOM": "COL",
  "InstitutionAddress": "Maynard 3,Hanover,NH,US,03755",
  "InstitutionName": "Dartmouth College - PBS",
  "InstitutionalDepartmentName": "Department",
  "MRAcquisitionType": "2D",
  "MagneticFieldStrength": 3,
  "Manufacturer": "Siemens",
  "ManufacturersModelName": "Prisma",
  "Modality": "MR",
  "MultibandAccelerationFactor": 4,
  "NonlinearGradientCorrection": false,
  "ParallelReductionFactorInPlane": 2,
  "PartialFourier": 1,
  "PatientPosition": "HFS",
  "PercentPhaseFOV": 100,
  "PercentSampling": 100,
  "PhaseEncodingDirection": "j-",
  "PhaseEncodingSteps": 79,
  "PhaseResolution": 1,
  "PixelBandwidth": 2315,
  "ProcedureStepDescription": "dbic^QA",
  "ProtocolName": "func-bold_task-rest_acq-p2-s4-3.5mm",
  "PulseSequenceDetails": "%SiemensSeq%\\ep2d_bold",
  "ReceiveCoilActiveElements": "HEA;HEP",
  "ReceiveCoilName": "Head_32",
  "ReconMatrixPE": 80,
  "RefLinesPE": 24,
  "RepetitionTime": 2,
  "SAR": 0.0268862,
  "ScanOptions": "FS",
  "ScanningSequence": "EP",
  "SequenceName": "*epfid2d1_80",
  "SequenceVariant": "SK",
  "SeriesDescription": "func-bold_task-rest_acq-p2-s4-3.5mm",
  "SeriesNumber": 6,
  "ShimSetting": [4219, -7747, -7491, -35, -141, -88, 23, 59],
  "SliceThickness": 3.5,
  "SliceTiming": [1.485, 0, 0.99, 0.2475, 1.2375, 0.7425, 1.7325, 0.495, 1.485, 0, 0.99, 0.2475, 1.2375, 0.7425, 1.7325, 0.495, 1.485, 0, 0.99, 0.2475, 1.2375, 0.7425, 1.7325, 0.495, 1.485, 0, 0.99, 0.2475, 1.2375, 0.7425, 1.7325, 0.495],
  "SoftwareVersions": "syngo MR E11",
  "SpacingBetweenSlices": 3.99,
  "StationName": "AWP66112",
  "TaskName": "rest",
  "TotalReadoutTime": 0.0213301,
  "TxRefAmp": 222.993,
  "dcmmeta_affine": [
    [-2.9651153087615967, -0.440494567155838, -0.1576792448759079, 139.23675537109375],
    [-0.45577719807624817, 2.828418493270874, 1.1838616132736206, -114.9234390258789],
    [0.018922729417681694, -0.8977826833724976, 3.807060480117798, -21.900867462158203],
    [0.0, 0.0, 0.0, 1.0]
],
  "dcmmeta_reorient_transform": [
    [0.0, -1.0, 0.0, 79.0],
    [1.0, 0.0, 0.0, 0.0],
    [0.0, 0.0, 1.0, 0.0],
    [0.0, 0.0, 0.0, 1.0]
],
  "dcmmeta_shape": [80, 80, 32, 200],
  "dcmmeta_slice_dim": 2,
  "dcmmeta_version": 0.6,
  "global": {
    "const": {
      "AccessionNumber": "qa",
      "AcquisitionMatrix": [80, 0, 0, 80],
      "AngioFlag": "N",
      "BitsAllocated": 16,
      "BitsStored": 12,
      "BodyPartExamined": "BRAIN",
      "Columns": 480,
      "EchoNumbers": 1,
      "EchoTime": 35.0,
      "EchoTrainLength": 39,
      "FlipAngle": 90.0,
      "HighBit": 11,
      "ImageOrientationPatient": [0.98837178468106, 0.15192573753097, 0.00630757655948, -0.1468315182544, 0.94280614396796, 0.29926088976573],
      "ImagePositionPatient": [-609.3618395464, -765.36074610684, -276.16677790137],
      "ImageType": [
        "ORIGINAL",
        "PRIMARY",
        "M",
        "ND",
        "NORM",
        "MOSAIC"
],
      "ImagedNucleus": "1H",
      "ImagingFrequency": 123.259229,
      "InPlanePhaseEncodingDirection": "COL",
      "MRAcquisitionType": "2D",
      "MagneticFieldStrength": 3.0,
      "Manufacturer": "SIEMENS",
      "ManufacturerModelName": "Prisma",
      "Modality": "MR",
      "NumberOfAverages": 1.0,
      "NumberOfPhaseEncodingSteps": 79,
      "PercentPhaseFieldOfView": 100.0,
      "PercentSampling": 100.0,
      "PerformedProcedureStepStartTime": "100304.653000",
      "PhotometricInterpretation": "MONOCHROME2",
      "PixelBandwidth": 2315.0,
      "PixelRepresentation": 0,
      "PixelSpacing": [3.0, 3.0],
      "ProtocolName": "func-bold_task-rest_acq-p2-s4-3.5mm",
      "RepetitionTime": 2000.0,
      "Rows": 480,
      "SAR": 0.02688619965793,
      "SamplesPerPixel": 1,
      "ScanOptions": "FS",
      "ScanningSequence": "EP",
      "SequenceName": "*epfid2d1_80",
      "SequenceVariant": "SK",
      "SeriesDescription": "func-bold_task-rest_acq-p2-s4-3.5mm",
      "SeriesNumber": 6,
      "SeriesTime": "101320.784000",
      "SliceLocation": -60.497774072555,
      "SliceThickness": 3.5,
      "SmallestImagePixelValue": 0,
      "SoftwareVersions": "syngo MR E11",
      "SpacingBetweenSlices": 3.9899999688149,
      "SpecificCharacterSet": "ISO_IR 100",
      "StudyID": "29",
      "StudyTime": "100304.560000",
      "TransmitCoilName": "Body",
      "VariableFlipAngleFlag": "N",
      "WindowCenterWidthExplanation": "Algo1"
    },
    "slices": {}
  },
  "time": {
    "samples": {
      "AcquisitionNumber": [1, 2, 3, 4, 5, 6, 7, 8, 9, 10, 11, 12, 13, 14, 15, 16, 17, 18, 19, 20, 21, 22, 23, 24, 25, 26, 27, 28, 29, 30, 31, 32, 33, 34, 35, 36, 37, 38, 39, 40, 41, 42, 43, 44, 45, 46, 47, 48, 49, 50, 51, 52, 53, 54, 55, 56, 57, 58, 59, 60, 61, 62, 63, 64, 65, 66, 67, 68, 69, 70, 71, 72, 73, 74, 75, 76, 77, 78, 79, 80, 81, 82, 83, 84, 85, 86, 87, 88, 89, 90, 91, 92, 93, 94, 95, 96, 97, 98, 99, 100, 101, 102, 103, 104, 105, 106, 107, 108, 109, 110, 111, 112, 113, 114, 115, 116, 117, 118, 119, 120, 121, 122, 123, 124, 125, 126, 127, 128, 129, 130, 131, 132, 133, 134, 135, 136, 137, 138, 139, 140, 141, 142, 143, 144, 145, 146, 147, 148, 149, 150, 151, 152, 153, 154, 155, 156, 157, 158, 159, 160, 161, 162, 163, 164, 165, 166, 167, 168, 169, 170, 171, 172, 173, 174, 175, 176, 177, 178, 179, 180, 181, 182, 183, 184, 185, 186, 187, 188, 189, 190, 191, 192, 193, 194, 195, 196, 197, 198, 199, 200],
      "AcquisitionTime": ["101230.052500", "101232.052500", "101234.052500", "101236.052500", "101238.052500", "101240.052500", "101242.052500", "101244.052500", "101246.052500", "101248.052500", "101250.052500", "101252.052500", "101254.052500", "101256.052500", "101258.052500", "101300.052500", "101302.052500", "101304.052500", "101306.052500", "101308.052500", "101310.052500", "101312.052500", "101314.052500", "101316.052500", "101318.052500", "101320.052500", "101322.052500", "101324.052500", "101326.052500", "101328.052500", "101330.052500", "101332.052500", "101334.052500", "101336.052500", "101338.052500", "101340.052500", "101342.052500", "101344.052500", "101346.052500", "101348.052500", "101350.052500", "101352.052500", "101354.052500", "101356.052500", "101358.052500", "101400.052500", "101402.052500", "101404.052500", "101406.052500", "101408.052500", "101410.052500", "101412.052500", "101414.052500", "101416.052500", "101418.052500", "101420.052500", "101422.052500", "101424.052500", "101426.052500", "101428.052500", "101430.052500", "101432.052500", "101434.052500", "101436.052500", "101438.052500", "101440.052500", "101442.052500", "101444.052500", "101446.052500", "101448.052500", "101450.052500", "101452.052500", "101454.052500", "101456.052500", "101458.052500", "101500.052500", "101502.052500", "101504.052500", "101506.052500", "101508.052500", "101510.052500", "101512.052500", "101514.052500", "101516.052500", "101518.052500", "101520.052500", "101522.052500", "101524.052500", "101526.052500", "101528.052500", "101530.052500", "101532.052500", "101534.052500", "101536.052500", "101538.052500", "101540.052500", "101542.052500", "101544.052500", "101546.052500", "101548.052500", "101550.052500", "101552.052500", "101554.052500", "101556.052500", "101558.052500", "101600.052500", "101602.052500", "101604.052500", "101606.052500", "101608.052500", "101610.052500", "101612.052500", "101614.052500", "101616.052500", "101618.052500", "101620.052500", "101622.052500", "101624.052500", "101626.052500", "101628.052500", "101630.052500", "101632.052500", "101634.052500", "101636.052500", "101638.052500", "101640.052500", "101642.052500", "101644.052500", "101646.052500", "101648.052500", "101650.052500", "101652.052500", "101654.052500", "101656.052500", "101658.052500", "101700.052500", "101702.052500", "101704.052500", "101706.052500", "101708.052500", "101710.052500", "101712.052500", "101714.052500", "101716.052500", "101718.052500", "101720.052500", "101722.052500", "101724.052500", "101726.052500", "101728.052500", "101730.052500", "101732.052500", "101734.052500", "101736.052500", "101738.052500", "101740.052500", "101742.052500", "101744.052500", "101746.052500", "101748.052500", "101750.052500", "101752.052500", "101754.052500", "101756.052500", "101758.052500", "101800.052500", "101802.052500", "101804.052500", "101806.052500", "101808.052500", "101810.052500", "101812.052500", "101814.052500", "101816.052500", "101818.052500", "101820.052500", "101822.052500", "101824.052500", "101826.052500", "101828.052500", "101830.052500", "101832.052500", "101834.052500", "101836.052500", "101838.052500", "101840.052500", "101842.052500", "101844.052500", "101846.052500", "101848.052500", "101850.052500", "101852.052500", "101854.052500", "101856.052500", "101858.052500", "101900.052500", "101902.052500", "101904.052500", "101906.052500", "101908.052500"],
      "ContentTime": ["101320.787000", "101320.790000", "101320.792000", "101320.795000", "101320.845000", "101320.848000", "101320.850000", "101320.852000", "101320.855000", "101320.857000", "101320.859000", "101320.862000", "101320.864000", "101320.866000", "101320.868000", "101320.899000", "101320.905000", "101320.907000", "101320.910000", "101320.912000", "101320.914000", "101320.917000", "101320.919000", "101320.921000", "101320.924000", "101400.782000", "101400.785000", "101400.787000", "101400.790000", "101400.792000", "101400.794000", "101400.796000", "101400.799000", "101400.801000", "101400.804000", "101400.806000", "101400.808000", "101400.810000", "101400.813000", "101400.815000", "101400.817000", "101400.820000", "101400.822000", "101400.825000", "101400.830000", "101440.782000", "101440.785000", "101440.787000", "101440.789000", "101440.792000", "101440.794000", "101440.796000", "101440.799000", "101440.801000", "101440.803000", "101440.806000", "101440.808000", "101440.810000", "101440.812000", "101440.815000", "101440.817000", "101440.819000", "101440.822000", "101440.852000", "101440.855000", "101520.782000", "101520.785000", "101520.787000", "101520.789000", "101520.792000", "101520.794000", "101520.796000", "101520.799000", "101520.811000", "101520.814000", "101520.816000", "101520.818000", "101520.832000", "101520.834000", "101520.837000", "101520.839000", "101520.841000", "101520.844000", "101520.846000", "101520.848000", "101600.782000", "101600.785000", "101600.787000", "101600.789000", "101600.792000", "101600.794000", "101600.796000", "101600.799000", "101600.801000", "101600.803000", "101600.806000", "101600.808000", "101600.810000", "101600.813000", "101600.815000", "101600.817000", "101600.819000", "101600.822000", "101600.824000", "101600.826000", "101640.781000", "101640.784000", "101640.786000", "101640.788000", "101640.791000", "101640.793000", "101640.795000", "101640.798000", "101640.814000", "101640.816000", "101640.818000", "101640.821000", "101640.823000", "101640.825000", "101640.832000", "101640.834000", "101640.837000", "101640.839000", "101640.841000", "101640.844000", "101720.782000", "101720.785000", "101720.787000", "101720.789000", "101720.792000", "101720.794000", "101720.796000", "101720.799000", "101720.801000", "101720.804000", "101720.806000", "101720.808000", "101720.810000", "101720.813000", "101720.815000", "101720.817000", "101720.820000", "101720.822000", "101720.824000", "101720.827000", "101800.782000", "101800.785000", "101800.787000", "101800.789000", "101800.792000", "101800.794000", "101800.797000", "101800.799000", "101800.801000", "101800.803000", "101800.806000", "101800.808000", "101800.810000", "101800.813000", "101800.815000", "101800.817000", "101800.820000", "101800.822000", "101800.824000", "101800.826000", "101840.782000", "101840.785000", "101840.787000", "101840.789000", "101840.792000", "101840.794000", "101840.796000", "101840.799000", "101840.801000", "101840.804000", "101840.806000", "101840.808000", "101840.811000", "101840.813000", "101840.815000", "101840.818000", "101840.820000", "101840.822000", "101840.825000", "101840.827000", "101900.781000", "101900.784000", "101900.786000", "101900.788000", "101900.791000", "101900.793000", "101900.796000", "101900.798000", "101900.800000", "101900.803000", "101909.608000", "101909.610000", "101909.613000", "101909.615000", "101909.617000"],
      "InstanceCreationTime": ["101320.787000", "101320.790000", "101320.792000", "101320.795000", "101320.845000", "101320.848000", "101320.850000", "101320.852000", "101320.855000", "101320.857000", "101320.859000", "101320.862000", "101320.864000", "101320.866000", "101320.868000", "101320.899000", "101320.905000", "101320.907000", "101320.910000", "101320.912000", "101320.914000", "101320.917000", "101320.919000", "101320.921000", "101320.924000", "101400.782000", "101400.785000", "101400.787000", "101400.790000", "101400.792000", "101400.794000", "101400.796000", "101400.799000", "101400.801000", "101400.804000", "101400.806000", "101400.808000", "101400.810000", "101400.813000", "101400.815000", "101400.817000", "101400.820000", "101400.822000", "101400.825000", "101400.830000", "101440.782000", "101440.785000", "101440.787000", "101440.789000", "101440.792000", "101440.794000", "101440.796000", "101440.799000", "101440.801000", "101440.803000", "101440.806000", "101440.808000", "101440.810000", "101440.812000", "101440.815000", "101440.817000", "101440.819000", "101440.822000", "101440.852000", "101440.855000", "101520.782000", "101520.785000", "101520.787000", "101520.789000", "101520.792000", "101520.794000", "101520.796000", "101520.799000", "101520.811000", "101520.814000", "101520.816000", "101520.818000", "101520.832000", "101520.834000", "101520.837000", "101520.839000", "101520.841000", "101520.844000", "101520.846000", "101520.848000", "101600.782000", "101600.785000", "101600.787000", "101600.789000", "101600.792000", "101600.794000", "101600.796000", "101600.799000", "101600.801000", "101600.803000", "101600.806000", "101600.808000", "101600.810000", "101600.813000", "101600.815000", "101600.817000", "101600.819000", "101600.822000", "101600.824000", "101600.826000", "101640.781000", "101640.784000", "101640.786000", "101640.788000", "101640.791000", "101640.793000", "101640.795000", "101640.798000", "101640.814000", "101640.816000", "101640.818000", "101640.821000", "101640.823000", "101640.825000", "101640.832000", "101640.834000", "101640.837000", "101640.839000", "101640.841000", "101640.844000", "101720.782000", "101720.785000", "101720.787000", "101720.789000", "101720.792000", "101720.794000", "101720.796000", "101720.799000", "101720.801000", "101720.804000", "101720.806000", "101720.808000", "101720.810000", "101720.813000", "101720.815000", "101720.817000", "101720.820000", "101720.822000", "101720.824000", "101720.827000", "101800.782000", "101800.785000", "101800.787000", "101800.789000", "101800.792000", "101800.794000", "101800.797000", "101800.799000", "101800.801000", "101800.803000", "101800.806000", "101800.808000", "101800.810000", "101800.813000", "101800.815000", "101800.817000", "101800.820000", "101800.822000", "101800.824000", "101800.826000", "101840.782000", "101840.785000", "101840.787000", "101840.789000", "101840.792000", "101840.794000", "101840.796000", "101840.799000", "101840.801000", "101840.804000", "101840.806000", "101840.808000", "101840.811000", "101840.813000", "101840.815000", "101840.818000", "101840.820000", "101840.822000", "101840.825000", "101840.827000", "101900.781000", "101900.784000", "101900.786000", "101900.788000", "101900.791000", "101900.793000", "101900.796000", "101900.798000", "101900.800000", "101900.803000", "101909.608000", "101909.610000", "101909.613000", "101909.615000", "101909.617000"],
      "InstanceNumber": [1, 2, 3, 4, 5, 6, 7, 8, 9, 10, 11, 12, 13, 14, 15, 16, 17, 18, 19, 20, 21, 22, 23, 24, 25, 26, 27, 28, 29, 30, 31, 32, 33, 34, 35, 36, 37, 38, 39, 40, 41, 42, 43, 44, 45, 46, 47, 48, 49, 50, 51, 52, 53, 54, 55, 56, 57, 58, 59, 60, 61, 62, 63, 64, 65, 66, 67, 68, 69, 70, 71, 72, 73, 74, 75, 76, 77, 78, 79, 80, 81, 82, 83, 84, 85, 86, 87, 88, 89, 90, 91, 92, 93, 94, 95, 96, 97, 98, 99, 100, 101, 102, 103, 104, 105, 106, 107, 108, 109, 110, 111, 112, 113, 114, 115, 116, 117, 118, 119, 120, 121, 122, 123, 124, 125, 126, 127, 128, 129, 130, 131, 132, 133, 134, 135, 136, 137, 138, 139, 140, 141, 142, 143, 144, 145, 146, 147, 148, 149, 150, 151, 152, 153, 154, 155, 156, 157, 158, 159, 160, 161, 162, 163, 164, 165, 166, 167, 168, 169, 170, 171, 172, 173, 174, 175, 176, 177, 178, 179, 180, 181, 182, 183, 184, 185, 186, 187, 188, 189, 190, 191, 192, 193, 194, 195, 196, 197, 198, 199, 200],
      "LargestImagePixelValue": [2464, 2470, 2470, 2469, 2465, 2471, 2469, 2470, 2468, 2468, 2468, 2474, 2470, 2472, 2469, 2466, 2469, 2468, 2467, 2466, 2471, 2473, 2468, 2469, 2467, 2467, 2468, 2469, 2470, 2466, 2472, 2472, 2475, 2465, 2468, 2469, 2468, 2469, 2466, 2470, 2467, 2463, 2472, 2469, 2476, 2471, 2469, 2472, 2469, 2470, 2473, 2468, 2470, 2472, 2468, 2472, 2472, 2471, 2475, 2470, 2472, 2468, 2472, 2473, 2469, 2470, 2467, 2467, 2473, 2472, 2470, 2467, 2467, 2472, 2472, 2472, 2469, 2468, 2471, 2470, 2471, 2465, 2464, 2475, 2469, 2471, 2470, 2470, 2474, 2469, 2472, 2470, 2468, 2472, 2470, 2474, 2474, 2472, 2470, 2474, 2470, 2469, 2472, 2470, 2471, 2472, 2470, 2471, 2473, 2467, 2471, 2470, 2471, 2467, 2468, 2469, 2474, 2469, 2473, 2470, 2468, 2473, 2475, 2471, 2468, 2471, 2469, 2474, 2475, 2470, 2469, 2468, 2472, 2472, 2468, 2473, 2472, 2473, 2475, 2473, 2469, 2473, 2466, 2470, 2465, 2475, 2471, 2473, 2472, 2471, 2474, 2469, 2473, 2469, 2474, 2467, 2473, 2469, 2473, 2476, 2467, 2470, 2469, 2472, 2471, 2469, 2470, 2472, 2470, 2471, 2476, 2469, 2476, 2471, 2473, 2472, 2475, 2473, 2476, 2473, 2468, 2469, 2471, 2471, 2471, 2470, 2474, 2471, 2468, 2471, 2469, 2471, 2471, 2469, 2471, 2474, 2473, 2467, 2473, 2472],
      "WindowCenter": [987.0, 987.0, 987.0, 987.0, 987.0, 987.0, 987.0, 987.0, 987.0, 987.0, 987.0, 988.0, 987.0, 988.0, 987.0, 988.0, 987.0, 987.0, 987.0, 988.0, 987.0, 988.0, 987.0, 987.0, 987.0, 987.0, 987.0, 988.0, 987.0, 988.0, 987.0, 987.0, 987.0, 988.0, 987.0, 988.0, 987.0, 987.0, 987.0, 987.0, 988.0, 987.0, 987.0, 988.0, 988.0, 987.0, 987.0, 988.0, 988.0, 988.0, 988.0, 988.0, 987.0, 987.0, 987.0, 988.0, 988.0, 987.0, 988.0, 987.0, 987.0, 988.0, 987.0, 988.0, 987.0, 987.0, 987.0, 988.0, 987.0, 987.0, 988.0, 987.0, 987.0, 988.0, 987.0, 987.0, 989.0, 988.0, 988.0, 987.0, 988.0, 987.0, 987.0, 988.0, 987.0, 987.0, 988.0, 987.0, 988.0, 987.0, 987.0, 988.0, 988.0, 987.0, 988.0, 987.0, 988.0, 987.0, 987.0, 988.0, 988.0, 987.0, 989.0, 988.0, 987.0, 987.0, 987.0, 988.0, 988.0, 988.0, 988.0, 988.0, 988.0, 988.0, 988.0, 987.0, 987.0, 988.0, 987.0, 987.0, 987.0, 987.0, 987.0, 987.0, 987.0, 987.0, 987.0, 987.0, 987.0, 988.0, 989.0, 988.0, 988.0, 987.0, 987.0, 987.0, 988.0, 987.0, 987.0, 988.0, 987.0, 988.0, 988.0, 987.0, 987.0, 987.0, 987.0, 988.0, 988.0, 987.0, 987.0, 988.0, 988.0, 987.0, 988.0, 987.0, 988.0, 987.0, 987.0, 987.0, 988.0, 988.0, 987.0, 988.0, 987.0, 988.0, 987.0, 988.0, 987.0, 987.0, 987.0, 988.0, 987.0, 987.0, 987.0, 989.0, 988.0, 987.0, 988.0, 988.0, 987.0, 987.0, 988.0, 988.0, 988.0, 987.0, 987.0, 987.0, 987.0, 987.0, 988.0, 987.0, 987.0, 988.0, 988.0, 987.0, 988.0, 988.0, 987.0, 987.0],
      "WindowWidth": [2373.0, 2373.0, 2372.0, 2373.0, 2373.0, 2373.0, 2373.0, 2373.0, 2373.0, 2373.0, 2373.0, 2374.0, 2373.0, 2374.0, 2373.0, 2374.0, 2373.0, 2373.0, 2373.0, 2374.0, 2373.0, 2374.0, 2373.0, 2373.0, 2373.0, 2373.0, 2373.0, 2374.0, 2373.0, 2374.0, 2373.0, 2373.0, 2373.0, 2374.0, 2373.0, 2374.0, 2373.0, 2373.0, 2373.0, 2373.0, 2374.0, 2373.0, 2373.0, 2374.0, 2374.0, 2373.0, 2373.0, 2374.0, 2374.0, 2374.0, 2373.0, 2374.0, 2373.0, 2373.0, 2373.0, 2374.0, 2374.0, 2373.0, 2374.0, 2373.0, 2373.0, 2373.0, 2373.0, 2374.0, 2373.0, 2373.0, 2373.0, 2374.0, 2372.0, 2373.0, 2373.0, 2373.0, 2373.0, 2373.0, 2373.0, 2373.0, 2374.0, 2374.0, 2373.0, 2373.0, 2373.0, 2373.0, 2372.0, 2374.0, 2373.0, 2372.0, 2374.0, 2373.0, 2374.0, 2373.0, 2373.0, 2373.0, 2374.0, 2373.0, 2373.0, 2373.0, 2373.0, 2373.0, 2373.0, 2373.0, 2374.0, 2373.0, 2374.0, 2374.0, 2373.0, 2373.0, 2373.0, 2373.0, 2373.0, 2373.0, 2373.0, 2373.0, 2374.0, 2373.0, 2374.0, 2373.0, 2372.0, 2373.0, 2373.0, 2373.0, 2372.0, 2372.0, 2373.0, 2372.0, 2372.0, 2373.0, 2373.0, 2372.0, 2373.0, 2373.0, 2374.0, 2373.0, 2373.0, 2372.0, 2373.0, 2373.0, 2373.0, 2373.0, 2372.0, 2373.0, 2373.0, 2373.0, 2373.0, 2372.0, 2372.0, 2372.0, 2372.0, 2373.0, 2373.0, 2373.0, 2372.0, 2373.0, 2373.0, 2372.0, 2373.0, 2372.0, 2373.0, 2372.0, 2372.0, 2372.0, 2373.0, 2373.0, 2372.0, 2373.0, 2372.0, 2373.0, 2373.0, 2373.0, 2372.0, 2372.0, 2372.0, 2373.0, 2372.0, 2372.0, 2372.0, 2374.0, 2373.0, 2372.0, 2373.0, 2373.0, 2372.0, 2372.0, 2373.0, 2373.0, 2373.0, 2372.0, 2372.0, 2372.0, 2372.0, 2372.0, 2373.0, 2372.0, 2372.0, 2373.0, 2373.0, 2372.0, 2373.0, 2373.0, 2372.0, 2372.0]
    },
    "slices": {}
  }
}