{
  "AcquisitionMatrixPE": 80,
  "AcquisitionNumber": 1,
  "AcquisitionTime": "10:19:20.412500",
  "BandwidthPerPixelPhaseEncode": 25,
  "BaseResolution": 80,
  "BodyPartExamined": "BRAIN",
  "CoilCombinationMethod": "Sum of Squares",
  "ConsistencyInfo": "N4_VE11E_LATEST_20181129",
  "ConversionSoftware": "dcm2niix",
  "ConversionSoftwareVersion": "v1.0.20220720",
  "DerivedVendorReportedEchoSpacing": 0.0005,
  "DeviceSerialNumber": "66112",
  "DwellTime": 2.7e-06,
  "EchoTime": 0.03,
  "EchoTrainLength": 80,
  "EffectiveEchoSpacing": 0.0005,
  "FlipAngle": 77,
  "HeudiconvVersion": "0.13.1",
  "ImageOrientationPatientDICOM": [0.988372, 0.151926, 0.00630758, -0.146832, 0.942806, 0.299261],
  "ImageOrientationText": "Tra>Cor(17.3)>Sag(-2.3)",
  "ImageType": [
    "ORIGINAL",
    "PRIMARY",
    "M",
    "ND",
    "NORM",
    "MOSAIC"
],
  "ImagingFrequency": 123.259,
  "InPlanePhaseEncodingDirectionDICOM": "COL",
  "InstitutionAddress": "Maynard 3,Hanover,NH,US,03755",
  "InstitutionName": "Dartmouth College - PBS",
  "InstitutionalDepartmentName": "Department",
  "MRAcquisitionType": "2D",
  "MagneticFieldStrength": 3,
  "Manufacturer": "Siemens",
  "ManufacturersModelName": "Prisma",
  "MatrixCoilMode": "SENSE",
  "Modality": "MR",
  "NonlinearGradientCorrection": false,
  "PartialFourier": 1,
  "PatientPosition": "HFS",
  "PercentPhaseFOV": 100,
  "PercentSampling": 100,
  "PhaseEncodingDirection": "j-",
  "PhaseEncodingSteps": 80,
  "PhaseResolution": 1,
  "PixelBandwidth": 2315,
  "ProcedureStepDescription": "dbic^QA",
  "ProtocolName": "func-bold_fa-77",
  "PulseSequenceDetails": "%SiemensSeq%\\ep2d_bold",
  "ReceiveCoilActiveElements": "HEA;HEP",
  "ReceiveCoilName": "Head_32",
  "ReconMatrixPE": 80,
  "RepetitionTime": 2,
  "SAR": 0.0561849,
  "ScanOptions": "FS",
  "ScanningSequence": "EP",
  "SequenceName": "*epfid2d1_80",
  "SequenceVariant": "SK",
  "SeriesDescription": "func-bold_fa-77",
  "SeriesNumber": 7,
  "ShimSetting": [4219, -7746, -7491, -36, -142, -84, 24, 58],
  "SliceThickness": 3.5,
  "SliceTiming": [0.99, 0, 1.055, 0.065, 1.12, 0.13, 1.1875, 0.1975, 1.2525, 0.2625, 1.32, 0.33, 1.385, 0.395, 1.45, 0.46, 1.5175, 0.5275, 1.5825, 0.5925, 1.65, 0.66, 1.715, 0.725, 1.78, 0.79, 1.8475, 0.8575, 1.9125, 0.9225],
  "SoftwareVersions": "syngo MR E11",
  "SpacingBetweenSlices": 3.99,
  "StationName": "AWP66112",
  "TotalReadoutTime": 0.0395,
  "TxRefAmp": 222.993,
  "dcmmeta_affine": [
    [-2.9651153087615967, -0.440494567155838, -0.1576792448759079, 138.6708526611328],
    [-0.45577719807624817, 2.828418493270874, 1.1838616132736206, -110.9803695678711],
    [0.018922729417681694, -0.8977826833724976, 3.807060480117798, -15.611064910888672],
    [0.0, 0.0, 0.0, 1.0]
],
  "dcmmeta_reorient_transform": [
    [0.0, -1.0, 0.0, 79.0],
    [1.0, 0.0, 0.0, 0.0],
    [0.0, 0.0, 1.0, 0.0],
    [0.0, 0.0, 0.0, 1.0]
],
  "dcmmeta_shape": [80, 80, 30, 200],
  "dcmmeta_slice_dim": 2,
  "dcmmeta_version": 0.6,
  "global": {
    "const": {
      "AccessionNumber": "qa",
      "AcquisitionMatrix": [80, 0, 0, 80],
      "AngioFlag": "N",
      "BitsAllocated": 16,
      "BitsStored": 12,
      "BodyPartExamined": "BRAIN",
      "Columns": 480,
      "EchoNumbers": 1,
      "EchoTime": 30.0,
      "EchoTrainLength": 80,
      "FlipAngle": 77.0,
      "HighBit": 11,
      "ImageOrientationPatient": [0.98837178468106, 0.15192573753097, 0.00630757655948, -0.1468315182544, 0.94280614396796, 0.29926088976573],
      "ImagePositionPatient": [-608.79593731327, -769.3038136575, -269.8769753501],
      "ImageType": [
        "ORIGINAL",
        "PRIMARY",
        "M",
        "ND",
        "NORM",
        "MOSAIC"
],
      "ImagedNucleus": "1H",
      "ImagingFrequency": 123.259226,
      "InPlanePhaseEncodingDirection": "COL",
      "MRAcquisitionType": "2D",
      "MagneticFieldStrength": 3.0,
      "Manufacturer": "SIEMENS",
      "ManufacturerModelName": "Prisma",
      "Modality": "MR",
      "NumberOfAverages": 1.0,
      "NumberOfPhaseEncodingSteps": 80,
      "PercentPhaseFieldOfView": 100.0,
      "PercentSampling": 100.0,
      "PerformedProcedureStepStartTime": "100304.653000",
      "PhotometricInterpretation": "MONOCHROME2",
      "PixelBandwidth": 2315.0,
      "PixelRepresentation": 0,
      "PixelSpacing": [3.0, 3.0],
      "ProtocolName": "func-bold_fa-77",
      "RepetitionTime": 2000.0,
      "Rows": 480,
      "SAR": 0.05618489279882,
      "SamplesPerPixel": 1,
      "ScanOptions": "FS",
      "ScanningSequence": "EP",
      "SequenceName": "*epfid2d1_80",
      "SequenceVariant": "SK",
      "SeriesDescription": "func-bold_fa-77",
      "SeriesNumber": 7,
      "SeriesTime": "102000.870000",
      "SliceLocation": -53.304055876476,
      "SliceThickness": 3.5,
      "SmallestImagePixelValue": 0,
      "SoftwareVersions": "syngo MR E11",
      "SpacingBetweenSlices": 3.9899999654133,
      "SpecificCharacterSet": "ISO_IR 100",
      "StudyID": "29",
      "StudyTime": "100304.560000",
      "TransmitCoilName": "Body",
      "VariableFlipAngleFlag": "N",
      "WindowCenterWidthExplanation": "Algo1"
    },
    "slices": {}
  },
  "time": {
    "samples": {
      "AcquisitionNumber": [1, 2, 3, 4, 5, 6, 7, 8, 9, 10, 11, 12, 13, 14, 15, 16, 17, 18, 19, 20, 21, 22, 23, 24, 25, 26, 27, 28, 29, 30, 31, 32, 33, 34, 35, 36, 37, 38, 39, 40, 41, 42, 43, 44, 45, 46, 47, 48, 49, 50, 51, 52, 53, 54, 55, 56, 57, 58, 59, 60, 61, 62, 63, 64, 65, 66, 67, 68, 69, 70, 71, 72, 73, 74, 75, 76, 77, 78, 79, 80, 81, 82, 83, 84, 85, 86, 87, 88, 89, 90, 91, 92, 93, 94, 95, 96, 97, 98, 99, 100, 101, 102, 103, 104, 105, 106, 107, 108, 109, 110, 111, 112, 113, 114, 115, 116, 117, 118, 119, 120, 121, 122, 123, 124, 125, 126, 127, 128, 129, 130, 131, 132, 133, 134, 135, 136, 137, 138, 139, 140, 141, 142, 143, 144, 145, 146, 147, 148, 149, 150, 151, 152, 153, 154, 155, 156, 157, 158, 159, 160, 161, 162, 163, 164, 165, 166, 167, 168, 169, 170, 171, 172, 173, 174, 175, 176, 177, 178, 179, 180, 181, 182, 183, 184, 185, 186, 187, 188, 189, 190, 191, 192, 193, 194, 195, 196, 197, 198, 199, 200],
      "AcquisitionTime": ["101920.412500", "101922.412500", "101924.412500", "101926.412500", "101928.412500", "101930.412500", "101932.412500", "101934.412500", "101936.412500", "101938.412500", "101940.412500", "101942.412500", "101944.412500", "101946.412500", "101948.412500", "101950.412500", "101952.412500", "101954.412500", "101956.412500", "101958.412500", "102000.412500", "102002.412500", "102004.412500", "102006.412500", "102008.412500", "102010.412500", "102012.412500", "102014.412500", "102016.412500", "102018.412500", "102020.412500", "102022.412500", "102024.412500", "102026.412500", "102028.412500", "102030.412500", "102032.412500", "102034.412500", "102036.412500", "102038.412500", "102040.412500", "102042.412500", "102044.412500", "102046.412500", "102048.412500", "102050.412500", "102052.412500", "102054.412500", "102056.412500", "102058.412500", "102100.412500", "102102.412500", "102104.412500", "102106.412500", "102108.412500", "102110.412500", "102112.412500", "102114.412500", "102116.412500", "102118.412500", "102120.412500", "102122.412500", "102124.412500", "102126.412500", "102128.412500", "102130.412500", "102132.412500", "102134.412500", "102136.412500", "102138.412500", "102140.412500", "102142.412500", "102144.412500", "102146.412500", "102148.412500", "102150.412500", "102152.412500", "102154.412500", "102156.412500", "102158.412500", "102200.412500", "102202.412500", "102204.412500", "102206.412500", "102208.412500", "102210.412500", "102212.412500", "102214.412500", "102216.412500", "102218.412500", "102220.412500", "102222.412500", "102224.412500", "102226.412500", "102228.412500", "102230.412500", "102232.412500", "102234.412500", "102236.412500", "102238.412500", "102240.412500", "102242.412500", "102244.412500", "102246.412500", "102248.412500", "102250.412500", "102252.412500", "102254.412500", "102256.412500", "102258.412500", "102300.412500", "102302.412500", "102304.412500", "102306.412500", "102308.412500", "102310.412500", "102312.412500", "102314.412500", "102316.412500", "102318.412500", "102320.412500", "102322.412500", "102324.412500", "102326.412500", "102328.412500", "102330.412500", "102332.412500", "102334.412500", "102336.412500", "102338.412500", "102340.412500", "102342.412500", "102344.412500", "102346.412500", "102348.412500", "102350.412500", "102352.412500", "102354.412500", "102356.412500", "102358.412500", "102400.412500", "102402.412500", "102404.412500", "102406.412500", "102408.412500", "102410.412500", "102412.412500", "102414.412500", "102416.412500", "102418.412500", "102420.412500", "102422.412500", "102424.412500", "102426.412500", "102428.412500", "102430.412500", "102432.412500", "102434.412500", "102436.412500", "102438.412500", "102440.412500", "102442.412500", "102444.412500", "102446.412500", "102448.412500", "102450.412500", "102452.412500", "102454.412500", "102456.412500", "102458.412500", "102500.412500", "102502.412500", "102504.412500", "102506.412500", "102508.412500", "102510.412500", "102512.412500", "102514.412500", "102516.412500", "102518.412500", "102520.412500", "102522.412500", "102524.412500", "102526.412500", "102528.412500", "102530.412500", "102532.412500", "102534.412500", "102536.412500", "102538.412500", "102540.412500", "102542.412500", "102544.412500", "102546.412500", "102548.412500", "102550.412500", "102552.412500", "102554.412500", "102556.412500", "102558.412500"],
      "ContentTime": ["102000.873000", "102000.876000", "102000.888000", "102000.890000", "102000.893000", "102000.895000", "102000.897000", "102000.899000", "102000.902000", "102000.904000", "102000.906000", "102000.911000", "102000.913000", "102000.915000", "102000.918000", "102000.923000", "102000.925000", "102000.927000", "102000.929000", "102000.932000", "102040.868000", "102040.871000", "102040.873000", "102040.875000", "102040.877000", "102040.880000", "102040.882000", "102040.884000", "102040.887000", "102040.889000", "102040.891000", "102040.894000", "102040.896000", "102040.898000", "102040.900000", "102040.903000", "102040.905000", "102040.907000", "102040.910000", "102040.912000", "102120.867000", "102120.870000", "102120.880000", "102120.882000", "102120.885000", "102120.887000", "102120.889000", "102120.891000", "102120.894000", "102120.896000", "102120.898000", "102120.900000", "102120.903000", "102120.905000", "102120.907000", "102120.909000", "102120.912000", "102120.914000", "102120.916000", "102120.919000", "102200.868000", "102200.871000", "102200.873000", "102200.875000", "102200.878000", "102200.880000", "102200.882000", "102200.885000", "102200.887000", "102200.889000", "102200.891000", "102200.894000", "102200.896000", "102200.898000", "102200.900000", "102200.903000", "102200.905000", "102200.907000", "102200.909000", "102200.912000", "102240.868000", "102240.871000", "102240.873000", "102240.875000", "102240.878000", "102240.880000", "102240.882000", "102240.885000", "102240.887000", "102240.889000", "102240.891000", "102240.894000", "102240.896000", "102240.903000", "102240.906000", "102240.908000", "102240.910000", "102240.912000", "102240.915000", "102240.917000", "102320.868000", "102320.871000", "102320.873000", "102320.875000", "102320.877000", "102320.880000", "102320.892000", "102320.894000", "102320.896000", "102320.898000", "102320.901000", "102320.903000", "102320.905000", "102320.907000", "102320.910000", "102320.912000", "102320.914000", "102320.916000", "102320.919000", "102320.921000", "102400.868000", "102400.871000", "102400.873000", "102400.875000", "102400.877000", "102400.880000", "102400.882000", "102400.884000", "102400.887000", "102400.895000", "102400.898000", "102400.900000", "102400.902000", "102400.904000", "102400.907000", "102400.909000", "102400.911000", "102400.913000", "102400.916000", "102400.918000", "102440.868000", "102440.871000", "102440.873000", "102440.875000", "102440.878000", "102440.880000", "102440.882000", "102440.884000", "102440.887000", "102440.889000", "102440.891000", "102440.894000", "102440.896000", "102440.898000", "102440.900000", "102440.903000", "102440.905000", "102440.907000", "102440.909000", "102440.912000", "102520.868000", "102520.871000", "102520.873000", "102520.875000", "102520.878000", "102520.880000", "102520.882000", "102520.884000", "102520.887000", "102520.889000", "102520.891000", "102520.894000", "102520.896000", "102520.898000", "102520.900000", "102520.903000", "102520.905000", "102520.907000", "102520.910000", "102520.912000", "102559.484000", "102559.487000", "102559.489000", "102559.492000", "102559.494000", "102559.496000", "102559.499000", "102559.501000", "102559.503000", "102559.506000", "102559.508000", "102559.510000", "102559.512000", "102559.516000", "102559.524000", "102559.527000", "102559.529000", "102559.533000", "102559.538000", "102559.541000"],
      "InstanceCreationTime": ["102000.873000", "102000.876000", "102000.888000", "102000.890000", "102000.893000", "102000.895000", "102000.897000", "102000.899000", "102000.902000", "102000.904000", "102000.906000", "102000.911000", "102000.913000", "102000.915000", "102000.918000", "102000.923000", "102000.925000", "102000.927000", "102000.929000", "102000.932000", "102040.868000", "102040.871000", "102040.873000", "102040.875000", "102040.877000", "102040.880000", "102040.882000", "102040.884000", "102040.887000", "102040.889000", "102040.891000", "102040.894000", "102040.896000", "102040.898000", "102040.900000", "102040.903000", "102040.905000", "102040.907000", "102040.910000", "102040.912000", "102120.867000", "102120.870000", "102120.880000", "102120.882000", "102120.885000", "102120.887000", "102120.889000", "102120.891000", "102120.894000", "102120.896000", "102120.898000", "102120.900000", "102120.903000", "102120.905000", "102120.907000", "102120.909000", "102120.912000", "102120.914000", "102120.916000", "102120.919000", "102200.868000", "102200.871000", "102200.873000", "102200.875000", "102200.878000", "102200.880000", "102200.882000", "102200.885000", "102200.887000", "102200.889000", "102200.891000", "102200.894000", "102200.896000", "102200.898000", "102200.900000", "102200.903000", "102200.905000", "102200.907000", "102200.909000", "102200.912000", "102240.868000", "102240.871000", "102240.873000", "102240.875000", "102240.878000", "102240.880000", "102240.882000", "102240.885000", "102240.887000", "102240.889000", "102240.891000", "102240.894000", "102240.896000", "102240.903000", "102240.906000", "102240.908000", "102240.910000", "102240.912000", "102240.915000", "102240.917000", "102320.868000", "102320.871000", "102320.873000", "102320.875000", "102320.877000", "102320.880000", "102320.892000", "102320.894000", "102320.896000", "102320.898000", "102320.901000", "102320.903000", "102320.905000", "102320.907000", "102320.910000", "102320.912000", "102320.914000", "102320.916000", "102320.919000", "102320.921000", "102400.868000", "102400.871000", "102400.873000", "102400.875000", "102400.877000", "102400.880000", "102400.882000", "102400.884000", "102400.887000", "102400.895000", "102400.898000", "102400.900000", "102400.902000", "102400.904000", "102400.907000", "102400.909000", "102400.911000", "102400.913000", "102400.916000", "102400.918000", "102440.868000", "102440.871000", "102440.873000", "102440.875000", "102440.878000", "102440.880000", "102440.882000", "102440.884000", "102440.887000", "102440.889000", "102440.891000", "102440.894000", "102440.896000", "102440.898000", "102440.900000", "102440.903000", "102440.905000", "102440.907000", "102440.909000", "102440.912000", "102520.868000", "102520.871000", "102520.873000", "102520.875000", "102520.878000", "102520.880000", "102520.882000", "102520.884000", "102520.887000", "102520.889000", "102520.891000", "102520.894000", "102520.896000", "102520.898000", "102520.900000", "102520.903000", "102520.905000", "102520.907000", "102520.910000", "102520.912000", "102559.484000", "102559.487000", "102559.489000", "102559.492000", "102559.494000", "102559.496000", "102559.499000", "102559.501000", "102559.503000", "102559.506000", "102559.508000", "102559.510000", "102559.512000", "102559.516000", "102559.524000", "102559.527000", "102559.529000", "102559.533000", "102559.538000", "102559.541000"],
      "InstanceNumber": [1, 2, 3, 4, 5, 6, 7, 8, 9, 10, 11, 12, 13, 14, 15, 16, 17, 18, 19, 20, 21, 22, 23, 24, 25, 26, 27, 28, 29, 30, 31, 32, 33, 34, 35, 36, 37, 38, 39, 40, 41, 42, 43, 44, 45, 46, 47, 48, 49, 50, 51, 52, 53, 54, 55, 56, 57, 58, 59, 60, 61, 62, 63, 64, 65, 66, 67, 68, 69, 70, 71, 72, 73, 74, 75, 76, 77, 78, 79, 80, 81, 82, 83, 84, 85, 86, 87, 88, 89, 90, 91, 92, 93, 94, 95, 96, 97, 98, 99, 100, 101, 102, 103, 104, 105, 106, 107, 108, 109, 110, 111, 112, 113, 114, 115, 116, 117, 118, 119, 120, 121, 122, 123, 124, 125, 126, 127, 128, 129, 130, 131, 132, 133, 134, 135, 136, 137, 138, 139, 140, 141, 142, 143, 144, 145, 146, 147, 148, 149, 150, 151, 152, 153, 154, 155, 156, 157, 158, 159, 160, 161, 162, 163, 164, 165, 166, 167, 168, 169, 170, 171, 172, 173, 174, 175, 176, 177, 178, 179, 180, 181, 182, 183, 184, 185, 186, 187, 188, 189, 190, 191, 192, 193, 194, 195, 196, 197, 198, 199, 200],
      "LargestImagePixelValue": [2347, 2348, 2350, 2348, 2345, 2347, 2347, 2347, 2347, 2347, 2348, 2347, 2343, 2348, 2345, 2346, 2349, 2350, 2347, 2347, 2348, 2348, 2346, 2349, 2348, 2346, 2346, 2342, 2344, 2344, 2346, 2344, 2345, 2346, 2346, 2344, 2346, 2343, 2345, 2344, 2343, 2345, 2347, 2348, 2346, 2345, 2346, 2346, 2343, 2345, 2344, 2344, 2343, 2343, 2343, 2343, 2345, 2344, 2345, 2345, 2345, 2346, 2345, 2346, 2347, 2347, 2347, 2345, 2346, 2346, 2344, 2348, 2344, 2345, 2348, 2344, 2343, 2343, 2347, 2343, 2344, 2343, 2345, 2342, 2344, 2343, 2341, 2341, 2343, 2341, 2341, 2341, 2341, 2343, 2342, 2342, 2342, 2340, 2342, 2341, 2343, 2343, 2341, 2339, 2337, 2342, 2342, 2342, 2345, 2346, 2343, 2342, 2343, 2342, 2345, 2345, 2343, 2342, 2345, 2344, 2341, 2342, 2343, 2346, 2345, 2345, 2343, 2343, 2345, 2344, 2342, 2344, 2342, 2341, 2340, 2341, 2341, 2342, 2341, 2340, 2341, 2340, 2338, 2337, 2338, 2340, 2339, 2341, 2341, 2341, 2340, 2341, 2342, 2343, 2342, 2339, 2339, 2338, 2340, 2343, 2341, 2343, 2339, 2340, 2341, 2343, 2344, 2342, 2342, 2340, 2340, 2336, 2339, 2339, 2340, 2340, 2340, 2342, 2343, 2342, 2343, 2340, 2341, 2341, 2343, 2339, 2342, 2339, 2338, 2339, 2341, 2341, 2341, 2345, 2343, 2347, 2344, 2343, 2341, 2340],
      "WindowCenter": [1048.0, 1048.0, 1048.0, 1048.0, 1049.0, 1048.0, 1048.0, 1048.0, 1048.0, 1048.0, 1048.0, 1048.0, 1048.0, 1048.0, 1048.0, 1049.0, 1048.0, 1048.0, 1048.0, 1048.0, 1048.0, 1049.0, 1048.0, 1048.0, 1048.0, 1047.0, 1048.0, 1048.0, 1048.0, 1048.0, 1047.0, 1048.0, 1046.0, 1048.0, 1048.0, 1048.0, 1048.0, 1049.0, 1047.0, 1046.0, 1047.0, 1047.0, 1047.0, 1047.0, 1047.0, 1047.0, 1047.0, 1047.0, 1046.0, 1047.0, 1047.0, 1047.0, 1047.0, 1047.0, 1047.0, 1047.0, 1047.0, 1048.0, 1047.0, 1046.0, 1048.0, 1047.0, 1046.0, 1046.0, 1047.0, 1047.0, 1047.0, 1047.0, 1046.0, 1047.0, 1047.0, 1047.0, 1046.0, 1047.0, 1047.0, 1047.0, 1047.0, 1048.0, 1047.0, 1046.0, 1048.0, 1048.0, 1047.0, 1046.0, 1047.0, 1046.0, 1047.0, 1047.0, 1047.0, 1048.0, 1047.0, 1047.0, 1047.0, 1047.0, 1047.0, 1047.0, 1048.0, 1047.0, 1047.0, 1047.0, 1047.0, 1047.0, 1047.0, 1047.0, 1047.0, 1046.0, 1048.0, 1047.0, 1046.0, 1048.0, 1046.0, 1046.0, 1046.0, 1047.0, 1047.0, 1047.0, 1046.0, 1047.0, 1047.0, 1047.0, 1047.0, 1046.0, 1047.0, 1047.0, 1045.0, 1046.0, 1046.0, 1046.0, 1046.0, 1047.0, 1046.0, 1046.0, 1046.0, 1046.0, 1046.0, 1046.0, 1046.0, 1046.0, 1046.0, 1046.0, 1046.0, 1046.0, 1045.0, 1046.0, 1046.0, 1046.0, 1046.0, 1046.0, 1047.0, 1047.0, 1046.0, 1046.0, 1046.0, 1046.0, 1046.0, 1047.0, 1045.0, 1046.0, 1045.0, 1046.0, 1046.0, 1046.0, 1046.0, 1045.0, 1046.0, 1046.0, 1046.0, 1046.0, 1045.0, 1046.0, 1046.0, 1045.0, 1047.0, 1046.0, 1047.0, 1046.0, 1046.0, 1046.0, 1046.0, 1046.0, 1046.0, 1046.0, 1046.0, 1046.0, 1046.0, 1046.0, 1046.0, 1046.0, 1046.0, 1046.0, 1046.0, 1046.0, 1046.0, 1046.0, 1046.0, 1046.0, 1047.0, 1046.0, 1046.0, 1047.0],
      "WindowWidth": [2373.0, 2372.0, 2373.0, 2372.0, 2374.0, 2373.0, 2373.0, 2373.0, 2372.0, 2372.0, 2372.0, 2372.0, 2372.0, 2372.0, 2372.0, 2373.0, 2372.0, 2373.0, 2372.0, 2373.0, 2372.0, 2373.0, 2372.0, 2372.0, 2372.0, 2371.0, 2372.0, 2372.0, 2372.0, 2372.0, 2372.0, 2372.0, 2372.0, 2372.0, 2372.0, 2372.0, 2372.0, 2373.0, 2372.0, 2371.0, 2372.0, 2372.0, 2372.0, 2372.0, 2372.0, 2372.0, 2372.0, 2372.0, 2371.0, 2372.0, 2371.0, 2371.0, 2371.0, 2371.0, 2372.0, 2371.0, 2371.0, 2372.0, 2371.0, 2371.0, 2372.0, 2371.0, 2371.0, 2371.0, 2371.0, 2371.0, 2371.0, 2371.0, 2370.0, 2371.0, 2371.0, 2371.0, 2370.0, 2371.0, 2371.0, 2371.0, 2371.0, 2371.0, 2371.0, 2370.0, 2371.0, 2371.0, 2371.0, 2370.0, 2371.0, 2370.0, 2370.0, 2370.0, 2370.0, 2371.0, 2371.0, 2370.0, 2370.0, 2370.0, 2370.0, 2370.0, 2371.0, 2370.0, 2370.0, 2370.0, 2370.0, 2370.0, 2370.0, 2370.0, 2370.0, 2370.0, 2370.0, 2370.0, 2370.0, 2371.0, 2370.0, 2370.0, 2370.0, 2370.0, 2370.0, 2371.0, 2370.0, 2370.0, 2370.0, 2370.0, 2371.0, 2370.0, 2370.0, 2370.0, 2369.0, 2369.0, 2369.0, 2369.0, 2369.0, 2370.0, 2369.0, 2369.0, 2369.0, 2369.0, 2369.0, 2369.0, 2369.0, 2369.0, 2369.0, 2369.0, 2369.0, 2369.0, 2369.0, 2369.0, 2369.0, 2369.0, 2369.0, 2369.0, 2370.0, 2370.0, 2369.0, 2369.0, 2369.0, 2369.0, 2369.0, 2370.0, 2368.0, 2369.0, 2368.0, 2369.0, 2369.0, 2369.0, 2369.0, 2368.0, 2369.0, 2369.0, 2369.0, 2369.0, 2368.0, 2368.0, 2369.0, 2368.0, 2369.0, 2368.0, 2369.0, 2368.0, 2369.0, 2368.0, 2368.0, 2368.0, 2368.0, 2368.0, 2368.0, 2368.0, 2368.0, 2368.0, 2368.0, 2368.0, 2368.0, 2368.0, 2368.0, 2368.0, 2368.0, 2368.0, 2368.0, 2368.0, 2369.0, 2368.0, 2368.0, 2369.0]
    },
    "slices": {}
  }
}