{
  "AcquisitionMatrixPE": 80,
  "AcquisitionNumber": 1,
  "AcquisitionTime": "10:05:35.992500",
  "BandwidthPerPixelPhaseEncode": 48.077,
  "BaseResolution": 80,
  "BodyPartExamined": "BRAIN",
  "CoilCombinationMethod": "Sum of Squares",
  "ConsistencyInfo": "N4_VE11E_LATEST_20181129",
  "ConversionSoftware": "dcm2niix",
  "ConversionSoftwareVersion": "v1.0.20220720",
  "DerivedVendorReportedEchoSpacing": 0.000519999,
  "DeviceSerialNumber": "66112",
  "DwellTime": 2.7e-06,
  "EchoTime": 0.035,
  "EchoTrainLength": 39,
  "EffectiveEchoSpacing": 0.00026,
  "FlipAngle": 90,
  "HeudiconvVersion": "0.13.1",
  "ImageOrientationPatientDICOM": [0.988372, 0.151926, 0.00630758, -0.146832, 0.942806, 0.299261],
  "ImageOrientationText": "Tra>Cor(17.3)>Sag(-2.3)",
  "ImageType": [
    "ORIGINAL",
    "PRIMARY",
    "M",
    "ND",
    "NORM",
    "MOSAIC"
],
  "ImagingFrequency": 123.259,
  "InPlanePhaseEncodingDirectionDICOM": "COL",
  "InstitutionAddress": "Maynard 3,Hanover,NH,US,03755",
  "InstitutionName": "Dartmouth College - PBS",
  "InstitutionalDepartmentName": "Department",
  "MRAcquisitionType": "2D",
  "MagneticFieldStrength": 3,
  "Manufacturer": "Siemens",
  "ManufacturersModelName": "Prisma",
  "MatrixCoilMode": "GRAPPA",
  "Modality": "MR",
  "NonlinearGradientCorrection": false,
  "ParallelReductionFactorInPlane": 2,
  "PartialFourier": 1,
  "PatientPosition": "HFS",
  "PercentPhaseFOV": 100,
  "PercentSampling": 100,
  "PhaseEncodingDirection": "j-",
  "PhaseEncodingSteps": 79,
  "PhaseResolution": 1,
  "PixelBandwidth": 2315,
  "ProcedureStepDescription": "dbic^QA",
  "ProtocolName": "func-bold_task-rest_acq-p2",
  "PulseSequenceDetails": "%SiemensSeq%\\ep2d_bold",
  "ReceiveCoilActiveElements": "HEA;HEP",
  "ReceiveCoilName": "Head_32",
  "ReconMatrixPE": 80,
  "RefLinesPE": 24,
  "RepetitionTime": 2,
  "SAR": 0.0714957,
  "ScanOptions": "FS",
  "ScanningSequence": "EP",
  "SequenceName": "*epfid2d1_80",
  "SequenceVariant": "SK",
  "SeriesDescription": "func-bold_task-rest_acq-p2",
  "SeriesNumber": 5,
  "ShimSetting": [4219, -7746, -7492, -35, -143, -88, 20, 59],
  "SliceThickness": 3.5,
  "SliceTiming": [0.99, 0, 1.055, 0.0675, 1.1225, 0.1325, 1.1875, 0.1975, 1.255, 0.265, 1.32, 0.33, 1.385, 0.395, 1.4525, 0.4625, 1.5175, 0.5275, 1.585, 0.595, 1.65, 0.66, 1.715, 0.725, 1.7825, 0.7925, 1.8475, 0.8575, 1.915, 0.925],
  "SoftwareVersions": "syngo MR E11",
  "SpacingBetweenSlices": 3.99,
  "StationName": "AWP66112",
  "TaskName": "rest",
  "TotalReadoutTime": 0.02054,
  "TxRefAmp": 222.993,
  "dcmmeta_affine": [
    [-2.9651153087615967, -0.440494567155838, -0.1576792448759079, 139.07907104492188],
    [-0.45577719807624817, 2.828418493270874, 1.1838616132736206, -113.73957824707031],
    [0.018922729417681694, -0.8977826833724976, 3.807060480117798, -18.093807220458984],
    [0.0, 0.0, 0.0, 1.0]
],
  "dcmmeta_reorient_transform": [
    [0.0, -1.0, 0.0, 79.0],
    [1.0, 0.0, 0.0, 0.0],
    [0.0, 0.0, 1.0, 0.0],
    [0.0, 0.0, 0.0, 1.0]
],
  "dcmmeta_shape": [80, 80, 30, 200],
  "dcmmeta_slice_dim": 2,
  "dcmmeta_version": 0.6,
  "global": {
    "const": {
      "AccessionNumber": "qa",
      "AcquisitionMatrix": [80, 0, 0, 80],
      "AngioFlag": "N",
      "BitsAllocated": 16,
      "BitsStored": 12,
      "BodyPartExamined": "BRAIN",
      "Columns": 480,
      "EchoNumbers": 1,
      "EchoTime": 35.0,
      "EchoTrainLength": 39,
      "FlipAngle": 90.0,
      "HighBit": 11,
      "ImageOrientationPatient": [0.98837178468106, 0.15192573753097, 0.00630757655948, -0.1468315182544, 0.94280614396796, 0.29926088976573],
      "ImagePositionPatient": [-609.20416022701, -766.544608793, -272.35971765967],
      "ImageType": [
        "ORIGINAL",
        "PRIMARY",
        "M",
        "ND",
        "NORM",
        "MOSAIC"
],
      "ImagedNucleus": "1H",
      "ImagingFrequency": 123.25923,
      "InPlanePhaseEncodingDirection": "COL",
      "MRAcquisitionType": "2D",
      "MagneticFieldStrength": 3.0,
      "Manufacturer": "SIEMENS",
      "ManufacturerModelName": "Prisma",
      "Modality": "MR",
      "NumberOfAverages": 1.0,
      "NumberOfPhaseEncodingSteps": 79,
      "PercentPhaseFieldOfView": 100.0,
      "PercentSampling": 100.0,
      "PerformedProcedureStepStartTime": "100304.653000",
      "PhotometricInterpretation": "MONOCHROME2",
      "PixelBandwidth": 2315.0,
      "PixelRepresentation": 0,
      "PixelSpacing": [3.0, 3.0],
      "ProtocolName": "func-bold_task-rest_acq-p2",
      "RepetitionTime": 2000.0,
      "Rows": 480,
      "SAR": 0.07149571159857,
      "SamplesPerPixel": 1,
      "ScanOptions": "FS",
      "ScanningSequence": "EP",
      "SequenceName": "*epfid2d1_80",
      "SequenceVariant": "SK",
      "SeriesDescription": "func-bold_task-rest_acq-p2",
      "SeriesNumber": 5,
      "SeriesTime": "100620.957000",
      "SliceLocation": -56.507773908224,
      "SliceThickness": 3.5,
      "SmallestImagePixelValue": 0,
      "SoftwareVersions": "syngo MR E11",
      "SpacingBetweenSlices": 3.9899999652508,
      "SpecificCharacterSet": "ISO_IR 100",
      "StudyID": "29",
      "StudyTime": "100304.560000",
      "TransmitCoilName": "Body",
      "VariableFlipAngleFlag": "N",
      "WindowCenterWidthExplanation": "Algo1"
    },
    "slices": {}
  },
  "time": {
    "samples": {
      "AcquisitionNumber": [1, 2, 3, 4, 5, 6, 7, 8, 9, 10, 11, 12, 13, 14, 15, 16, 17, 18, 19, 20, 21, 22, 23, 24, 25, 26, 27, 28, 29, 30, 31, 32, 33, 34, 35, 36, 37, 38, 39, 40, 41, 42, 43, 44, 45, 46, 47, 48, 49, 50, 51, 52, 53, 54, 55, 56, 57, 58, 59, 60, 61, 62, 63, 64, 65, 66, 67, 68, 69, 70, 71, 72, 73, 74, 75, 76, 77, 78, 79, 80, 81, 82, 83, 84, 85, 86, 87, 88, 89, 90, 91, 92, 93, 94, 95, 96, 97, 98, 99, 100, 101, 102, 103, 104, 105, 106, 107, 108, 109, 110, 111, 112, 113, 114, 115, 116, 117, 118, 119, 120, 121, 122, 123, 124, 125, 126, 127, 128, 129, 130, 131, 132, 133, 134, 135, 136, 137, 138, 139, 140, 141, 142, 143, 144, 145, 146, 147, 148, 149, 150, 151, 152, 153, 154, 155, 156, 157, 158, 159, 160, 161, 162, 163, 164, 165, 166, 167, 168, 169, 170, 171, 172, 173, 174, 175, 176, 177, 178, 179, 180, 181, 182, 183, 184, 185, 186, 187, 188, 189, 190, 191, 192, 193, 194, 195, 196, 197, 198, 199, 200],
      "AcquisitionTime": ["100535.992500", "100537.992500", "100539.992500", "100541.992500", "100543.992500", "100545.992500", "100547.992500", "100549.992500", "100551.992500", "100553.992500", "100555.992500", "100557.992500", "100559.992500", "100601.992500", "100603.992500", "100605.992500", "100607.992500", "100609.992500", "100611.992500", "100613.992500", "100615.992500", "100617.992500", "100619.992500", "100621.992500", "100623.992500", "100625.992500", "100627.992500", "100629.992500", "100631.992500", "100633.992500", "100635.992500", "100637.992500", "100639.992500", "100641.992500", "100643.992500", "100645.992500", "100647.992500", "100649.992500", "100651.992500", "100653.992500", "100655.992500", "100657.992500", "100659.992500", "100701.992500", "100703.992500", "100705.992500", "100707.992500", "100709.992500", "100711.992500", "100713.992500", "100715.992500", "100717.992500", "100719.992500", "100721.992500", "100723.992500", "100725.992500", "100727.992500", "100729.992500", "100731.992500", "100733.992500", "100735.992500", "100737.992500", "100739.992500", "100741.992500", "100743.992500", "100745.992500", "100747.992500", "100749.992500", "100751.992500", "100753.992500", "100755.992500", "100757.992500", "100759.992500", "100801.992500", "100803.992500", "100805.992500", "100807.992500", "100809.992500", "100811.992500", "100813.992500", "100815.992500", "100817.992500", "100819.992500", "100821.992500", "100823.992500", "100825.992500", "100827.992500", "100829.992500", "100831.992500", "100833.992500", "100835.992500", "100837.992500", "100839.992500", "100841.992500", "100843.992500", "100845.992500", "100847.992500", "100849.992500", "100851.992500", "100853.992500", "100855.992500", "100857.992500", "100859.992500", "100901.992500", "100903.992500", "100905.992500", "100907.992500", "100909.992500", "100911.992500", "100913.992500", "100915.992500", "100917.992500", "100919.992500", "100921.992500", "100923.992500", "100925.992500", "100927.992500", "100929.992500", "100931.992500", "100933.992500", "100935.992500", "100937.992500", "100939.992500", "100941.992500", "100943.992500", "100945.992500", "100947.992500", "100949.992500", "100951.992500", "100953.992500", "100955.992500", "100957.992500", "100959.992500", "101001.992500", "101003.992500", "101005.992500", "101007.992500", "101009.992500", "101011.992500", "101013.992500", "101015.992500", "101017.992500", "101019.992500", "101021.992500", "101023.992500", "101025.992500", "101027.992500", "101029.992500", "101031.992500", "101033.992500", "101035.992500", "101037.992500", "101039.992500", "101041.992500", "101043.992500", "101045.992500", "101047.992500", "101049.992500", "101051.992500", "101053.992500", "101055.992500", "101057.992500", "101059.992500", "101101.992500", "101103.992500", "101105.992500", "101107.992500", "101109.992500", "101111.992500", "101113.992500", "101115.992500", "101117.992500", "101119.992500", "101121.992500", "101123.992500", "101125.992500", "101127.992500", "101129.992500", "101131.992500", "101133.992500", "101135.992500", "101137.992500", "101139.992500", "101141.992500", "101143.992500", "101145.992500", "101147.992500", "101149.992500", "101151.992500", "101153.992500", "101155.992500", "101157.992500", "101159.992500", "101201.992500", "101203.992500", "101205.992500", "101207.992500", "101209.992500", "101211.992500", "101213.992500"],
      "ContentTime": ["100620.960000", "100620.963000", "100620.965000", "100620.968000", "100620.989000", "100620.991000", "100620.996000", "100621.000000", "100621.002000", "100621.004000", "100621.007000", "100621.009000", "100621.011000", "100621.017000", "100621.020000", "100621.029000", "100621.031000", "100621.034000", "100621.036000", "100621.038000", "100621.041000", "100621.061000", "100700.955000", "100700.958000", "100700.960000", "100700.962000", "100700.965000", "100700.967000", "100700.969000", "100700.972000", "100700.974000", "100700.976000", "100700.978000", "100700.981000", "100700.983000", "100700.985000", "100700.988000", "100700.990000", "100700.992000", "100700.994000", "100700.997000", "100701.000000", "100740.955000", "100740.958000", "100740.960000", "100740.972000", "100740.974000", "100740.977000", "100740.979000", "100740.981000", "100740.983000", "100740.986000", "100740.988000", "100740.991000", "100740.993000", "100740.995000", "100740.997000", "100741.004000", "100741.007000", "100741.009000", "100741.012000", "100741.014000", "100820.955000", "100820.958000", "100820.960000", "100820.962000", "100820.965000", "100820.967000", "100820.969000", "100820.972000", "100820.974000", "100820.976000", "100820.978000", "100820.981000", "100820.983000", "100820.985000", "100820.988000", "100820.990000", "100820.992000", "100820.994000", "100820.997000", "100821.000000", "100900.955000", "100900.958000", "100900.960000", "100900.962000", "100900.965000", "100900.967000", "100900.969000", "100900.971000", "100900.974000", "100900.976000", "100900.978000", "100900.981000", "100900.983000", "100900.985000", "100900.987000", "100900.990000", "100900.992000", "100900.994000", "100900.997000", "100901.000000", "100920.955000", "100920.958000", "100920.960000", "100920.962000", "100920.965000", "100920.967000", "100920.969000", "100920.972000", "100920.974000", "100920.976000", "101000.955000", "101000.958000", "101000.960000", "101000.962000", "101000.965000", "101000.967000", "101000.969000", "101000.971000", "101000.974000", "101000.976000", "101000.978000", "101000.981000", "101000.983000", "101000.985000", "101000.987000", "101000.990000", "101000.992000", "101000.994000", "101000.997000", "101001.000000", "101040.955000", "101040.958000", "101040.960000", "101040.962000", "101040.964000", "101040.967000", "101040.969000", "101040.971000", "101040.974000", "101040.976000", "101040.978000", "101040.980000", "101040.983000", "101040.985000", "101040.987000", "101040.989000", "101040.992000", "101040.994000", "101040.996000", "101041.000000", "101120.955000", "101120.958000", "101120.960000", "101120.962000", "101120.965000", "101120.967000", "101120.969000", "101120.971000", "101120.974000", "101120.976000", "101120.978000", "101120.981000", "101120.983000", "101120.985000", "101120.988000", "101120.990000", "101120.992000", "101120.994000", "101120.997000", "101121.000000", "101200.954000", "101200.957000", "101200.959000", "101200.961000", "101200.963000", "101200.966000", "101200.968000", "101200.971000", "101200.973000", "101200.976000", "101200.978000", "101200.980000", "101200.982000", "101200.985000", "101200.987000", "101200.989000", "101200.991000", "101200.994000", "101200.996000", "101200.998000", "101215.770000", "101215.773000", "101215.775000", "101215.777000", "101215.780000", "101215.782000", "101215.784000", "101215.787000"],
      "InstanceCreationTime": ["100620.960000", "100620.963000", "100620.965000", "100620.968000", "100620.989000", "100620.991000", "100620.996000", "100621.000000", "100621.002000", "100621.004000", "100621.007000", "100621.009000", "100621.011000", "100621.017000", "100621.020000", "100621.029000", "100621.031000", "100621.034000", "100621.036000", "100621.038000", "100621.041000", "100621.061000", "100700.955000", "100700.958000", "100700.960000", "100700.962000", "100700.965000", "100700.967000", "100700.969000", "100700.972000", "100700.974000", "100700.976000", "100700.978000", "100700.981000", "100700.983000", "100700.985000", "100700.988000", "100700.990000", "100700.992000", "100700.994000", "100700.997000", "100701.000000", "100740.955000", "100740.958000", "100740.960000", "100740.972000", "100740.974000", "100740.977000", "100740.979000", "100740.981000", "100740.983000", "100740.986000", "100740.988000", "100740.991000", "100740.993000", "100740.995000", "100740.997000", "100741.004000", "100741.007000", "100741.009000", "100741.012000", "100741.014000", "100820.955000", "100820.958000", "100820.960000", "100820.962000", "100820.965000", "100820.967000", "100820.969000", "100820.972000", "100820.974000", "100820.976000", "100820.978000", "100820.981000", "100820.983000", "100820.985000", "100820.988000", "100820.990000", "100820.992000", "100820.994000", "100820.997000", "100821.000000", "100900.955000", "100900.958000", "100900.960000", "100900.962000", "100900.965000", "100900.967000", "100900.969000", "100900.971000", "100900.974000", "100900.976000", "100900.978000", "100900.981000", "100900.983000", "100900.985000", "100900.987000", "100900.990000", "100900.992000", "100900.994000", "100900.997000", "100901.000000", "100920.955000", "100920.958000", "100920.960000", "100920.962000", "100920.965000", "100920.967000", "100920.969000", "100920.972000", "100920.974000", "100920.976000", "101000.955000", "101000.958000", "101000.960000", "101000.962000", "101000.965000", "101000.967000", "101000.969000", "101000.971000", "101000.974000", "101000.976000", "101000.978000", "101000.981000", "101000.983000", "101000.985000", "101000.987000", "101000.990000", "101000.992000", "101000.994000", "101000.997000", "101001.000000", "101040.955000", "101040.958000", "101040.960000", "101040.962000", "101040.964000", "101040.967000", "101040.969000", "101040.971000", "101040.974000", "101040.976000", "101040.978000", "101040.980000", "101040.983000", "101040.985000", "101040.987000", "101040.989000", "101040.992000", "101040.994000", "101040.996000", "101041.000000", "101120.955000", "101120.958000", "101120.960000", "101120.962000", "101120.965000", "101120.967000", "101120.969000", "101120.971000", "101120.974000", "101120.976000", "101120.978000", "101120.981000", "101120.983000", "101120.985000", "101120.988000", "101120.990000", "101120.992000", "101120.994000", "101120.997000", "101121.000000", "101200.954000", "101200.957000", "101200.959000", "101200.961000", "101200.963000", "101200.966000", "101200.968000", "101200.971000", "101200.973000", "101200.976000", "101200.978000", "101200.980000", "101200.982000", "101200.985000", "101200.987000", "101200.989000", "101200.991000", "101200.994000", "101200.996000", "101200.998000", "101215.770000", "101215.773000", "101215.775000", "101215.777000", "101215.780000", "101215.782000", "101215.784000", "101215.787000"],
      "InstanceNumber": [1, 2, 3, 4, 5, 6, 7, 8, 9, 10, 11, 12, 13, 14, 15, 16, 17, 18, 19, 20, 21, 22, 23, 24, 25, 26, 27, 28, 29, 30, 31, 32, 33, 34, 35, 36, 37, 38, 39, 40, 41, 42, 43, 44, 45, 46, 47, 48, 49, 50, 51, 52, 53, 54, 55, 56, 57, 58, 59, 60, 61, 62, 63, 64, 65, 66, 67, 68, 69, 70, 71, 72, 73, 74, 75, 76, 77, 78, 79, 80, 81, 82, 83, 84, 85, 86, 87, 88, 89, 90, 91, 92, 93, 94, 95, 96, 97, 98, 99, 100, 101, 102, 103, 104, 105, 106, 107, 108, 109, 110, 111, 112, 113, 114, 115, 116, 117, 118, 119, 120, 121, 122, 123, 124, 125, 126, 127, 128, 129, 130, 131, 132, 133, 134, 135, 136, 137, 138, 139, 140, 141, 142, 143, 144, 145, 146, 147, 148, 149, 150, 151, 152, 153, 154, 155, 156, 157, 158, 159, 160, 161, 162, 163, 164, 165, 166, 167, 168, 169, 170, 171, 172, 173, 174, 175, 176, 177, 178, 179, 180, 181, 182, 183, 184, 185, 186, 187, 188, 189, 190, 191, 192, 193, 194, 195, 196, 197, 198, 199, 200],
      "LargestImagePixelValue": [2468, 2469, 2473, 2477, 2465, 2471, 2466, 2472, 2463, 2466, 2454, 2458, 2464, 2460, 2463, 2465, 2455, 2453, 2459, 2463, 2458, 2455, 2464, 2462, 2465, 2464, 2459, 2457, 2454, 2450, 2451, 2450, 2460, 2459, 2452, 2451, 2452, 2456, 2458, 2464, 2459, 2458, 2449, 2460, 2462, 2453, 2462, 2456, 2461, 2455, 2461, 2453, 2452, 2463, 2454, 2465, 2452, 2445, 2456, 2452, 2455, 2456, 2454, 2455, 2456, 2444, 2446, 2458, 2448, 2458, 2457, 2451, 2451, 2458, 2454, 2451, 2452, 2455, 2454, 2448, 2454, 2444, 2441, 2451, 2449, 2446, 2447, 2447, 2451, 2453, 2462, 2459, 2449, 2448, 2448, 2443, 2438, 2457, 2452, 2448, 2449, 2454, 2449, 2443, 2449, 2446, 2452, 2455, 2455, 2451, 2440, 2439, 2453, 2451, 2447, 2441, 2448, 2439, 2447, 2448, 2445, 2450, 2443, 2441, 2443, 2441, 2458, 2447, 2444, 2433, 2448, 2458, 2455, 2448, 2453, 2452, 2444, 2438, 2446, 2447, 2434, 2437, 2443, 2443, 2447, 2438, 2443, 2437, 2445, 2440, 2437, 2443, 2440, 2446, 2434, 2443, 2440, 2442, 2438, 2434, 2435, 2436, 2436, 2452, 2440, 2436, 2440, 2444, 2448, 2436, 2441, 2444, 2442, 2436, 2457, 2442, 2441, 2438, 2453, 2438, 2442, 2445, 2436, 2439, 2439, 2437, 2440, 2438, 2440, 2441, 2443, 2432, 2443, 2438, 2436, 2447, 2447, 2448, 2442, 2444],
      "WindowCenter": [1068.0, 1067.0, 1067.0, 1067.0, 1067.0, 1067.0, 1067.0, 1067.0, 1067.0, 1067.0, 1067.0, 1067.0, 1067.0, 1067.0, 1067.0, 1067.0, 1067.0, 1067.0, 1067.0, 1067.0, 1067.0, 1067.0, 1067.0, 1067.0, 1067.0, 1067.0, 1067.0, 1067.0, 1067.0, 1067.0, 1067.0, 1067.0, 1067.0, 1067.0, 1067.0, 1067.0, 1067.0, 1067.0, 1067.0, 1067.0, 1067.0, 1066.0, 1066.0, 1067.0, 1066.0, 1066.0, 1066.0, 1066.0, 1066.0, 1066.0, 1066.0, 1066.0, 1066.0, 1066.0, 1066.0, 1066.0, 1066.0, 1066.0, 1066.0, 1066.0, 1066.0, 1066.0, 1066.0, 1066.0, 1066.0, 1066.0, 1066.0, 1066.0, 1066.0, 1066.0, 1066.0, 1066.0, 1066.0, 1066.0, 1066.0, 1066.0, 1066.0, 1066.0, 1066.0, 1066.0, 1066.0, 1066.0, 1066.0, 1066.0, 1066.0, 1066.0, 1066.0, 1065.0, 1066.0, 1066.0, 1066.0, 1066.0, 1066.0, 1065.0, 1066.0, 1066.0, 1066.0, 1066.0, 1065.0, 1066.0, 1065.0, 1065.0, 1065.0, 1065.0, 1065.0, 1065.0, 1067.0, 1065.0, 1065.0, 1065.0, 1065.0, 1065.0, 1065.0, 1065.0, 1065.0, 1065.0, 1065.0, 1065.0, 1065.0, 1065.0, 1065.0, 1065.0, 1065.0, 1065.0, 1065.0, 1065.0, 1065.0, 1065.0, 1065.0, 1065.0, 1065.0, 1065.0, 1065.0, 1065.0, 1065.0, 1065.0, 1065.0, 1065.0, 1065.0, 1065.0, 1065.0, 1065.0, 1065.0, 1065.0, 1065.0, 1065.0, 1065.0, 1065.0, 1065.0, 1065.0, 1065.0, 1065.0, 1065.0, 1065.0, 1065.0, 1065.0, 1065.0, 1065.0, 1065.0, 1065.0, 1065.0, 1065.0, 1065.0, 1065.0, 1065.0, 1065.0, 1065.0, 1065.0, 1065.0, 1065.0, 1065.0, 1065.0, 1065.0, 1065.0, 1065.0, 1065.0, 1065.0, 1065.0, 1065.0, 1065.0, 1065.0, 1065.0, 1065.0, 1065.0, 1065.0, 1065.0, 1065.0, 1065.0, 1065.0, 1065.0, 1065.0, 1064.0, 1065.0, 1065.0, 1065.0, 1065.0, 1064.0, 1064.0, 1065.0, 1065.0],
      "WindowWidth": [2410.0, 2409.0, 2409.0, 2408.0, 2408.0, 2408.0, 2408.0, 2408.0, 2408.0, 2408.0, 2408.0, 2408.0, 2408.0, 2408.0, 2408.0, 2407.0, 2407.0, 2407.0, 2408.0, 2407.0, 2407.0, 2407.0, 2407.0, 2407.0, 2407.0, 2407.0, 2407.0, 2407.0, 2407.0, 2407.0, 2407.0, 2407.0, 2407.0, 2406.0, 2407.0, 2406.0, 2406.0, 2406.0, 2406.0, 2406.0, 2406.0, 2406.0, 2406.0, 2406.0, 2406.0, 2406.0, 2406.0, 2406.0, 2406.0, 2405.0, 2405.0, 2405.0, 2405.0, 2405.0, 2405.0, 2405.0, 2405.0, 2405.0, 2405.0, 2405.0, 2405.0, 2405.0, 2405.0, 2404.0, 2404.0, 2404.0, 2404.0, 2404.0, 2404.0, 2404.0, 2404.0, 2404.0, 2404.0, 2404.0, 2404.0, 2404.0, 2404.0, 2404.0, 2404.0, 2404.0, 2404.0, 2404.0, 2404.0, 2403.0, 2403.0, 2404.0, 2403.0, 2403.0, 2403.0, 2403.0, 2403.0, 2403.0, 2403.0, 2403.0, 2403.0, 2403.0, 2403.0, 2403.0, 2403.0, 2403.0, 2403.0, 2403.0, 2403.0, 2403.0, 2403.0, 2403.0, 2403.0, 2402.0, 2402.0, 2402.0, 2402.0, 2402.0, 2402.0, 2402.0, 2402.0, 2402.0, 2402.0, 2402.0, 2402.0, 2402.0, 2402.0, 2402.0, 2401.0, 2402.0, 2402.0, 2402.0, 2402.0, 2402.0, 2402.0, 2402.0, 2402.0, 2401.0, 2402.0, 2401.0, 2402.0, 2401.0, 2402.0, 2402.0, 2401.0, 2401.0, 2401.0, 2401.0, 2401.0, 2401.0, 2401.0, 2401.0, 2401.0, 2401.0, 2401.0, 2401.0, 2401.0, 2401.0, 2401.0, 2401.0, 2401.0, 2401.0, 2401.0, 2401.0, 2401.0, 2401.0, 2401.0, 2401.0, 2401.0, 2400.0, 2401.0, 2401.0, 2400.0, 2401.0, 2400.0, 2400.0, 2400.0, 2400.0, 2400.0, 2400.0, 2400.0, 2400.0, 2400.0, 2400.0, 2400.0, 2400.0, 2399.0, 2400.0, 2400.0, 2400.0, 2400.0, 2400.0, 2400.0, 2400.0, 2400.0, 2399.0, 2400.0, 2400.0, 2400.0, 2399.0, 2399.0, 2399.0, 2400.0, 2400.0, 2399.0, 2400.0]
    },
    "slices": {}
  }
}