{
  "AcquisitionMatrixPE": 80,
  "AcquisitionNumber": 1,
  "AcquisitionTime": "09:20:45.507500",
  "BandwidthPerPixelPhaseEncode": 25,
  "BaseResolution": 80,
  "BodyPartExamined": "BRAIN",
  "CoilCombinationMethod": "Sum of Squares",
  "ConsistencyInfo": "N4_VE11C_LATEST_20160120",
  "ConversionSoftware": "dcm2niix",
  "ConversionSoftwareVersion": "v1.0.20220720",
  "DerivedVendorReportedEchoSpacing": 0.0005,
  "DeviceSerialNumber": "66112",
  "DwellTime": 2.7e-06,
  "EchoTime": 0.03,
  "EchoTrainLength": 80,
  "EffectiveEchoSpacing": 0.0005,
  "FlipAngle": 77,
  "HeudiconvVersion": "0.13.1",
  "ImageOrientationPatientDICOM": [0.990911, -0.133564, -0.0159871, 0.133096, 0.956266, 0.260462],
  "ImageOrientationText": "Tra>Cor(15.1)>Sag(1.1)",
  "ImageType": [
    "ORIGINAL",
    "PRIMARY",
    "M",
    "ND",
    "NORM",
    "MOSAIC"
],
  "ImagingFrequency": 123.252,
  "InPlanePhaseEncodingDirectionDICOM": "COL",
  "InstitutionAddress": "Maynard 3,Hanover,NH,US,03755",
  "InstitutionName": "Dartmouth College - PBS",
  "InstitutionalDepartmentName": "Department",
  "MRAcquisitionType": "2D",
  "MagneticFieldStrength": 3,
  "Manufacturer": "Siemens",
  "ManufacturersModelName": "Prisma",
  "MatrixCoilMode": "SENSE",
  "Modality": "MR",
  "NonlinearGradientCorrection": false,
  "PartialFourier": 1,
  "PatientPosition": "HFS",
  "PercentPhaseFOV": 100,
  "PercentSampling": 100,
  "PhaseEncodingDirection": "j-",
  "PhaseEncodingSteps": 80,
  "PhaseResolution": 1,
  "PixelBandwidth": 2315,
  "ProcedureStepDescription": "dbic^QA",
  "ProtocolName": "func-bold_fa-77",
  "PulseSequenceDetails": "%SiemensSeq%\\ep2d_bold",
  "ReceiveCoilActiveElements": "HEA;HEP",
  "ReceiveCoilName": "Head_32",
  "ReconMatrixPE": 80,
  "RepetitionTime": 2,
  "SAR": 0.0374038,
  "ScanOptions": "FS",
  "ScanningSequence": "EP",
  "SequenceName": "*epfid2d1_80",
  "SequenceVariant": "SK",
  "SeriesDescription": "func-bold_fa-77",
  "SeriesNumber": 8,
  "ShimSetting": [4154, -7705, -7534, 281, -49, -97, 7, 100],
  "SliceThickness": 3.5,
  "SliceTiming": [0.99, 0, 1.055, 0.0675, 1.1225, 0.1325, 1.1875, 0.1975, 1.255, 0.265, 1.32, 0.33, 1.385, 0.395, 1.4525, 0.4625, 1.5175, 0.5275, 1.585, 0.595, 1.65, 0.66, 1.715, 0.725, 1.7825, 0.7925, 1.8475, 0.8575, 1.915, 0.925],
  "SoftwareVersions": "syngo MR E11",
  "SpacingBetweenSlices": 3.99,
  "StationName": "AWP66112",
  "TotalReadoutTime": 0.0395,
  "TxRefAmp": 222.748,
  "dcmmeta_affine": [
    [-2.972733974456787, 0.39928796887397766, 0.07780607789754868, 103.5477066040039],
    [0.40069058537483215, 2.8687984943389893, 1.0382877588272095, -133.90089416503906],
    [-0.04796136915683746, -0.7813857793807983, 3.8517537117004395, -32.79054260253906],
    [0.0, 0.0, 0.0, 1.0]
],
  "dcmmeta_reorient_transform": [
    [0.0, -1.0, 0.0, 79.0],
    [1.0, 0.0, 0.0, 0.0],
    [0.0, 0.0, 1.0, 0.0],
    [0.0, 0.0, 0.0, 1.0]
],
  "dcmmeta_shape": [80, 80, 30, 200],
  "dcmmeta_slice_dim": 2,
  "dcmmeta_version": 0.6,
  "global": {
    "const": {
      "AccessionNumber": "qa",
      "AcquisitionMatrix": [80, 0, 0, 80],
      "AngioFlag": "N",
      "BitsAllocated": 16,
      "BitsStored": 12,
      "BodyPartExamined": "BRAIN",
      "Columns": 480,
      "EchoNumbers": 1,
      "EchoTime": 30.0,
      "EchoTrainLength": 80,
      "FlipAngle": 77.0,
      "HighBit": 11,
      "ImageOrientationPatient": [0.99091129581607, -0.1335635269012, -0.0159871231257, 0.13309599295144, 0.95626619655195, 0.26046193194465],
      "ImagePositionPatient": [-809.4958324339, -586.35579410823, -241.20490678321],
      "ImageType": [
        "ORIGINAL",
        "PRIMARY",
        "M",
        "ND",
        "NORM",
        "MOSAIC"
],
      "ImagedNucleus": "1H",
      "ImagingFrequency": 123.252323,
      "InPlanePhaseEncodingDirection": "COL",
      "MRAcquisitionType": "2D",
      "MagneticFieldStrength": 3.0,
      "Manufacturer": "SIEMENS",
      "ManufacturerModelName": "Prisma",
      "Modality": "MR",
      "NumberOfAverages": 1.0,
      "NumberOfPhaseEncodingSteps": 80,
      "PercentPhaseFieldOfView": 100.0,
      "PercentSampling": 100.0,
      "PerformedProcedureStepStartTime": "090407.969000",
      "PhotometricInterpretation": "MONOCHROME2",
      "PixelBandwidth": 2315.0,
      "PixelRepresentation": 0,
      "PixelSpacing": [3.0, 3.0],
      "ProtocolName": "func-bold_fa-77",
      "RepetitionTime": 2000.0,
      "Rows": 480,
      "SAR": 0.03740383187985,
      "SamplesPerPixel": 1,
      "ScanOptions": "FS",
      "ScanningSequence": "EP",
      "SequenceName": "*epfid2d1_80",
      "SequenceVariant": "SK",
      "SeriesDescription": "func-bold_fa-77",
      "SeriesNumber": 8,
      "SeriesTime": "092126.134000",
      "SliceLocation": -64.479225361347,
      "SliceThickness": 3.5,
      "SmallestImagePixelValue": 0,
      "SoftwareVersions": "syngo MR E11",
      "SpacingBetweenSlices": 3.9900001555479,
      "SpecificCharacterSet": "ISO_IR 100",
      "StudyID": "68",
      "StudyTime": "090407.917000",
      "TransmitCoilName": "Body",
      "VariableFlipAngleFlag": "N",
      "WindowCenterWidthExplanation": "Algo1",
      "dBdt": 0.0},
    "slices": {}
  },
  "time": {
    "samples": {
      "AcquisitionNumber": [1, 2, 3, 4, 5, 6, 7, 8, 9, 10, 11, 12, 13, 14, 15, 16, 17, 18, 19, 20, 21, 22, 23, 24, 25, 26, 27, 28, 29, 30, 31, 32, 33, 34, 35, 36, 37, 38, 39, 40, 41, 42, 43, 44, 45, 46, 47, 48, 49, 50, 51, 52, 53, 54, 55, 56, 57, 58, 59, 60, 61, 62, 63, 64, 65, 66, 67, 68, 69, 70, 71, 72, 73, 74, 75, 76, 77, 78, 79, 80, 81, 82, 83, 84, 85, 86, 87, 88, 89, 90, 91, 92, 93, 94, 95, 96, 97, 98, 99, 100, 101, 102, 103, 104, 105, 106, 107, 108, 109, 110, 111, 112, 113, 114, 115, 116, 117, 118, 119, 120, 121, 122, 123, 124, 125, 126, 127, 128, 129, 130, 131, 132, 133, 134, 135, 136, 137, 138, 139, 140, 141, 142, 143, 144, 145, 146, 147, 148, 149, 150, 151, 152, 153, 154, 155, 156, 157, 158, 159, 160, 161, 162, 163, 164, 165, 166, 167, 168, 169, 170, 171, 172, 173, 174, 175, 176, 177, 178, 179, 180, 181, 182, 183, 184, 185, 186, 187, 188, 189, 190, 191, 192, 193, 194, 195, 196, 197, 198, 199, 200],
      "AcquisitionTime": ["092045.507500", "092047.507500", "092049.507500", "092051.507500", "092053.507500", "092055.507500", "092057.507500", "092059.507500", "092101.507500", "092103.507500", "092105.507500", "092107.507500", "092109.507500", "092111.507500", "092113.507500", "092115.507500", "092117.507500", "092119.507500", "092121.507500", "092123.507500", "092125.507500", "092127.507500", "092129.507500", "092131.507500", "092133.507500", "092135.507500", "092137.507500", "092139.507500", "092141.507500", "092143.507500", "092145.507500", "092147.507500", "092149.507500", "092151.507500", "092153.507500", "092155.507500", "092157.507500", "092159.507500", "092201.507500", "092203.507500", "092205.507500", "092207.507500", "092209.507500", "092211.507500", "092213.507500", "092215.507500", "092217.507500", "092219.507500", "092221.507500", "092223.507500", "092225.507500", "092227.507500", "092229.507500", "092231.507500", "092233.507500", "092235.507500", "092237.507500", "092239.507500", "092241.507500", "092243.507500", "092245.507500", "092247.507500", "092249.507500", "092251.507500", "092253.507500", "092255.507500", "092257.507500", "092259.507500", "092301.507500", "092303.507500", "092305.507500", "092307.507500", "092309.507500", "092311.507500", "092313.507500", "092315.507500", "092317.507500", "092319.507500", "092321.507500", "092323.507500", "092325.507500", "092327.507500", "092329.507500", "092331.507500", "092333.507500", "092335.507500", "092337.507500", "092339.507500", "092341.507500", "092343.507500", "092345.507500", "092347.507500", "092349.507500", "092351.507500", "092353.507500", "092355.507500", "092357.507500", "092359.507500", "092401.507500", "092403.507500", "092405.507500", "092407.507500", "092409.507500", "092411.507500", "092413.507500", "092415.507500", "092417.507500", "092419.507500", "092421.507500", "092423.507500", "092425.507500", "092427.507500", "092429.507500", "092431.507500", "092433.507500", "092435.507500", "092437.507500", "092439.507500", "092441.507500", "092443.507500", "092445.507500", "092447.507500", "092449.507500", "092451.507500", "092453.507500", "092455.507500", "092457.507500", "092459.507500", "092501.507500", "092503.507500", "092505.507500", "092507.507500", "092509.507500", "092511.507500", "092513.507500", "092515.507500", "092517.507500", "092519.507500", "092521.507500", "092523.507500", "092525.507500", "092527.507500", "092529.507500", "092531.507500", "092533.507500", "092535.507500", "092537.507500", "092539.507500", "092541.507500", "092543.507500", "092545.507500", "092547.507500", "092549.507500", "092551.507500", "092553.507500", "092555.507500", "092557.507500", "092559.507500", "092601.507500", "092603.507500", "092605.507500", "092607.507500", "092609.507500", "092611.507500", "092613.507500", "092615.507500", "092617.507500", "092619.507500", "092621.507500", "092623.507500", "092625.507500", "092627.507500", "092629.507500", "092631.507500", "092633.507500", "092635.507500", "092637.507500", "092639.507500", "092641.507500", "092643.507500", "092645.507500", "092647.507500", "092649.507500", "092651.507500", "092653.507500", "092655.507500", "092657.507500", "092659.507500", "092701.507500", "092703.507500", "092705.507500", "092707.507500", "092709.507500", "092711.507500", "092713.507500", "092715.507500", "092717.507500", "092719.507500", "092721.507500", "092723.507500"],
      "ContentTime": ["092126.137000", "092126.140000", "092126.143000", "092126.146000", "092126.148000", "092126.151000", "092126.153000", "092126.156000", "092126.158000", "092126.161000", "092126.163000", "092126.166000", "092126.168000", "092126.171000", "092126.174000", "092126.176000", "092126.178000", "092126.181000", "092126.184000", "092126.186000", "092206.134000", "092206.136000", "092206.139000", "092206.141000", "092206.144000", "092206.147000", "092206.149000", "092206.152000", "092206.154000", "092206.157000", "092206.159000", "092206.162000", "092206.164000", "092206.167000", "092206.169000", "092206.172000", "092206.174000", "092206.177000", "092206.179000", "092206.182000", "092246.134000", "092246.136000", "092246.145000", "092246.148000", "092246.151000", "092246.153000", "092246.156000", "092246.158000", "092246.161000", "092246.163000", "092246.166000", "092246.168000", "092246.171000", "092246.173000", "092246.176000", "092246.178000", "092246.181000", "092246.183000", "092246.186000", "092246.188000", "092326.133000", "092326.135000", "092326.138000", "092326.141000", "092326.143000", "092326.146000", "092326.149000", "092326.151000", "092326.154000", "092326.156000", "092326.159000", "092326.162000", "092326.164000", "092326.167000", "092326.169000", "092326.172000", "092326.175000", "092326.177000", "092326.180000", "092326.182000", "092406.132000", "092406.135000", "092406.138000", "092406.140000", "092406.143000", "092406.146000", "092406.148000", "092406.151000", "092406.153000", "092406.156000", "092406.158000", "092406.161000", "092406.163000", "092406.166000", "092406.168000", "092406.171000", "092406.174000", "092406.176000", "092406.179000", "092406.181000", "092446.133000", "092446.136000", "092446.139000", "092446.141000", "092446.144000", "092446.147000", "092446.149000", "092446.152000", "092446.161000", "092446.164000", "092446.166000", "092446.169000", "092446.172000", "092446.174000", "092446.177000", "092446.179000", "092446.182000", "092446.184000", "092446.187000", "092446.189000", "092526.133000", "092526.136000", "092526.139000", "092526.141000", "092526.144000", "092526.146000", "092526.149000", "092526.152000", "092526.154000", "092526.157000", "092526.159000", "092526.162000", "092526.165000", "092526.167000", "092526.170000", "092526.172000", "092526.175000", "092526.178000", "092526.180000", "092526.183000", "092606.132000", "092606.135000", "092606.138000", "092606.140000", "092606.143000", "092606.146000", "092606.148000", "092606.151000", "092606.153000", "092606.156000", "092606.158000", "092606.161000", "092606.164000", "092606.166000", "092606.169000", "092606.171000", "092606.174000", "092606.176000", "092606.179000", "092606.181000", "092646.134000", "092646.136000", "092646.139000", "092646.141000", "092646.144000", "092646.147000", "092646.149000", "092646.152000", "092646.159000", "092646.162000", "092646.173000", "092646.175000", "092646.178000", "092646.180000", "092646.183000", "092646.185000", "092646.188000", "092646.191000", "092646.193000", "092646.196000", "092725.087000", "092725.090000", "092725.092000", "092725.099000", "092725.102000", "092725.104000", "092725.107000", "092725.110000", "092725.112000", "092725.115000", "092725.117000", "092725.121000", "092725.125000", "092725.130000", "092725.133000", "092725.139000", "092725.142000", "092725.145000", "092725.147000", "092725.150000"],
      "InstanceCreationTime": ["092126.137000", "092126.140000", "092126.143000", "092126.146000", "092126.148000", "092126.151000", "092126.153000", "092126.156000", "092126.158000", "092126.161000", "092126.163000", "092126.166000", "092126.168000", "092126.171000", "092126.174000", "092126.176000", "092126.178000", "092126.181000", "092126.184000", "092126.186000", "092206.134000", "092206.136000", "092206.139000", "092206.141000", "092206.144000", "092206.147000", "092206.149000", "092206.152000", "092206.154000", "092206.157000", "092206.159000", "092206.162000", "092206.164000", "092206.167000", "092206.169000", "092206.172000", "092206.174000", "092206.177000", "092206.179000", "092206.182000", "092246.134000", "092246.136000", "092246.145000", "092246.148000", "092246.151000", "092246.153000", "092246.156000", "092246.158000", "092246.161000", "092246.163000", "092246.166000", "092246.168000", "092246.171000", "092246.173000", "092246.176000", "092246.178000", "092246.181000", "092246.183000", "092246.186000", "092246.188000", "092326.133000", "092326.135000", "092326.138000", "092326.141000", "092326.143000", "092326.146000", "092326.149000", "092326.151000", "092326.154000", "092326.156000", "092326.159000", "092326.162000", "092326.164000", "092326.167000", "092326.169000", "092326.172000", "092326.175000", "092326.177000", "092326.180000", "092326.182000", "092406.132000", "092406.135000", "092406.138000", "092406.140000", "092406.143000", "092406.146000", "092406.148000", "092406.151000", "092406.153000", "092406.156000", "092406.158000", "092406.161000", "092406.163000", "092406.166000", "092406.168000", "092406.171000", "092406.174000", "092406.176000", "092406.179000", "092406.181000", "092446.133000", "092446.136000", "092446.139000", "092446.141000", "092446.144000", "092446.147000", "092446.149000", "092446.152000", "092446.161000", "092446.164000", "092446.166000", "092446.169000", "092446.172000", "092446.174000", "092446.177000", "092446.179000", "092446.182000", "092446.184000", "092446.187000", "092446.189000", "092526.133000", "092526.136000", "092526.139000", "092526.141000", "092526.144000", "092526.146000", "092526.149000", "092526.152000", "092526.154000", "092526.157000", "092526.159000", "092526.162000", "092526.165000", "092526.167000", "092526.170000", "092526.172000", "092526.175000", "092526.178000", "092526.180000", "092526.183000", "092606.132000", "092606.135000", "092606.138000", "092606.140000", "092606.143000", "092606.146000", "092606.148000", "092606.151000", "092606.153000", "092606.156000", "092606.158000", "092606.161000", "092606.164000", "092606.166000", "092606.169000", "092606.171000", "092606.174000", "092606.176000", "092606.179000", "092606.181000", "092646.134000", "092646.136000", "092646.139000", "092646.141000", "092646.144000", "092646.147000", "092646.149000", "092646.152000", "092646.159000", "092646.162000", "092646.173000", "092646.175000", "092646.178000", "092646.180000", "092646.183000", "092646.185000", "092646.188000", "092646.191000", "092646.193000", "092646.196000", "092725.087000", "092725.090000", "092725.092000", "092725.099000", "092725.102000", "092725.104000", "092725.107000", "092725.110000", "092725.112000", "092725.115000", "092725.117000", "092725.121000", "092725.125000", "092725.130000", "092725.133000", "092725.139000", "092725.142000", "092725.145000", "092725.147000", "092725.150000"],
      "InstanceNumber": [1, 2, 3, 4, 5, 6, 7, 8, 9, 10, 11, 12, 13, 14, 15, 16, 17, 18, 19, 20, 21, 22, 23, 24, 25, 26, 27, 28, 29, 30, 31, 32, 33, 34, 35, 36, 37, 38, 39, 40, 41, 42, 43, 44, 45, 46, 47, 48, 49, 50, 51, 52, 53, 54, 55, 56, 57, 58, 59, 60, 61, 62, 63, 64, 65, 66, 67, 68, 69, 70, 71, 72, 73, 74, 75, 76, 77, 78, 79, 80, 81, 82, 83, 84, 85, 86, 87, 88, 89, 90, 91, 92, 93, 94, 95, 96, 97, 98, 99, 100, 101, 102, 103, 104, 105, 106, 107, 108, 109, 110, 111, 112, 113, 114, 115, 116, 117, 118, 119, 120, 121, 122, 123, 124, 125, 126, 127, 128, 129, 130, 131, 132, 133, 134, 135, 136, 137, 138, 139, 140, 141, 142, 143, 144, 145, 146, 147, 148, 149, 150, 151, 152, 153, 154, 155, 156, 157, 158, 159, 160, 161, 162, 163, 164, 165, 166, 167, 168, 169, 170, 171, 172, 173, 174, 175, 176, 177, 178, 179, 180, 181, 182, 183, 184, 185, 186, 187, 188, 189, 190, 191, 192, 193, 194, 195, 196, 197, 198, 199, 200],
      "LargestImagePixelValue": [2215, 2214, 2215, 2216, 2214, 2216, 2216, 2215, 2214, 2215, 2215, 2214, 2214, 2214, 2214, 2214, 2213, 2215, 2214, 2213, 2216, 2215, 2216, 2215, 2217, 2215, 2216, 2213, 2212, 2212, 2209, 2209, 2209, 2210, 2209, 2212, 2213, 2215, 2215, 2215, 2216, 2216, 2215, 2215, 2214, 2213, 2211, 2211, 2211, 2211, 2211, 2212, 2211, 2211, 2208, 2209, 2212, 2211, 2211, 2211, 2212, 2210, 2211, 2209, 2210, 2211, 2209, 2209, 2211, 2211, 2208, 2210, 2209, 2211, 2207, 2207, 2207, 2211, 2210, 2213, 2211, 2211, 2210, 2210, 2212, 2211, 2212, 2211, 2211, 2210, 2210, 2209, 2210, 2211, 2210, 2210, 2209, 2211, 2211, 2209, 2210, 2210, 2211, 2212, 2212, 2211, 2207, 2210, 2208, 2212, 2213, 2212, 2212, 2214, 2214, 2217, 2217, 2217, 2216, 2217, 2217, 2219, 2217, 2216, 2218, 2217, 2213, 2215, 2216, 2214, 2213, 2214, 2214, 2213, 2213, 2214, 2213, 2213, 2213, 2213, 2213, 2212, 2213, 2212, 2215, 2214, 2215, 2216, 2217, 2218, 2218, 2218, 2217, 2216, 2215, 2213, 2214, 2213, 2212, 2211, 2210, 2212, 2209, 2209, 2210, 2210, 2210, 2210, 2210, 2208, 2209, 2211, 2212, 2212, 2211, 2213, 2211, 2212, 2214, 2215, 2212, 2211, 2210, 2209, 2211, 2210, 2210, 2212, 2211, 2212, 2210, 2211, 2209, 2211, 2211, 2213, 2212, 2213, 2214, 2213],
      "WindowCenter": [1003.0, 1003.0, 1004.0, 1003.0, 1005.0, 1001.0, 1003.0, 1003.0, 1003.0, 1003.0, 1002.0, 1001.0, 1004.0, 1001.0, 1002.0, 1001.0, 1003.0, 1004.0, 1000.0, 1002.0, 1002.0, 1000.0, 1003.0, 1004.0, 1000.0, 1003.0, 1003.0, 1001.0, 1004.0, 1003.0, 1004.0, 1004.0, 1003.0, 1003.0, 1004.0, 1003.0, 1004.0, 1002.0, 1003.0, 1002.0, 1003.0, 1002.0, 1001.0, 1002.0, 1001.0, 1002.0, 1003.0, 1004.0, 1002.0, 1003.0, 1000.0, 1003.0, 1002.0, 1003.0, 1002.0, 1002.0, 1002.0, 1002.0, 1002.0, 1001.0, 1003.0, 1002.0, 1002.0, 1002.0, 1002.0, 1001.0, 1001.0, 1002.0, 1001.0, 1001.0, 1002.0, 1001.0, 1001.0, 1001.0, 1003.0, 1002.0, 1000.0, 1003.0, 1001.0, 1000.0, 1003.0, 1002.0, 1001.0, 1003.0, 1001.0, 1001.0, 1003.0, 1002.0, 1001.0, 1002.0, 1003.0, 1001.0, 1003.0, 1001.0, 1002.0, 1000.0, 1001.0, 1003.0, 1001.0, 1002.0, 1003.0, 1001.0, 1002.0, 1002.0, 1000.0, 1003.0, 1002.0, 1003.0, 1002.0, 1002.0, 1001.0, 1001.0, 1001.0, 1001.0, 1003.0, 1001.0, 1001.0, 1003.0, 1000.0, 1003.0, 1004.0, 1002.0, 1001.0, 1001.0, 1002.0, 1001.0, 1002.0, 1003.0, 1001.0, 1001.0, 1000.0, 1002.0, 1000.0, 1001.0, 1001.0, 1002.0, 1003.0, 1000.0, 1002.0, 1001.0, 1003.0, 1001.0, 1002.0, 1002.0, 1003.0, 1001.0, 1002.0, 1002.0, 1002.0, 1001.0, 1000.0, 1001.0, 1003.0, 1001.0, 1000.0, 1000.0, 1003.0, 1000.0, 1001.0, 1002.0, 1002.0, 1000.0, 1001.0, 1000.0, 1001.0, 1003.0, 1001.0, 1003.0, 1000.0, 999.0, 1002.0, 1003.0, 1001.0, 1002.0, 1002.0, 1000.0, 1002.0, 1002.0, 1001.0, 1003.0, 1001.0, 1000.0, 1001.0, 1001.0, 1001.0, 1000.0, 1003.0, 1001.0, 1002.0, 1003.0, 1002.0, 1002.0, 1001.0, 1001.0, 1001.0, 1002.0, 1001.0, 1002.0, 1001.0, 1002.0],
      "WindowWidth": [2227.0, 2227.0, 2227.0, 2227.0, 2229.0, 2225.0, 2227.0, 2227.0, 2227.0, 2227.0, 2226.0, 2225.0, 2228.0, 2226.0, 2226.0, 2226.0, 2227.0, 2227.0, 2225.0, 2226.0, 2226.0, 2225.0, 2227.0, 2228.0, 2225.0, 2227.0, 2227.0, 2225.0, 2228.0, 2226.0, 2228.0, 2228.0, 2227.0, 2227.0, 2228.0, 2227.0, 2228.0, 2226.0, 2227.0, 2226.0, 2227.0, 2226.0, 2226.0, 2226.0, 2225.0, 2226.0, 2227.0, 2227.0, 2226.0, 2227.0, 2224.0, 2227.0, 2225.0, 2227.0, 2225.0, 2226.0, 2226.0, 2226.0, 2225.0, 2225.0, 2227.0, 2226.0, 2225.0, 2226.0, 2226.0, 2225.0, 2225.0, 2226.0, 2225.0, 2224.0, 2226.0, 2225.0, 2225.0, 2225.0, 2226.0, 2226.0, 2224.0, 2227.0, 2225.0, 2224.0, 2227.0, 2226.0, 2225.0, 2227.0, 2225.0, 2225.0, 2227.0, 2226.0, 2225.0, 2226.0, 2227.0, 2225.0, 2226.0, 2225.0, 2226.0, 2225.0, 2225.0, 2227.0, 2225.0, 2226.0, 2227.0, 2225.0, 2226.0, 2226.0, 2224.0, 2227.0, 2226.0, 2227.0, 2226.0, 2226.0, 2225.0, 2225.0, 2225.0, 2225.0, 2227.0, 2225.0, 2225.0, 2227.0, 2224.0, 2227.0, 2227.0, 2226.0, 2225.0, 2225.0, 2226.0, 2225.0, 2226.0, 2227.0, 2225.0, 2225.0, 2224.0, 2226.0, 2224.0, 2225.0, 2225.0, 2226.0, 2226.0, 2224.0, 2226.0, 2225.0, 2226.0, 2225.0, 2226.0, 2226.0, 2226.0, 2225.0, 2226.0, 2226.0, 2226.0, 2225.0, 2224.0, 2225.0, 2226.0, 2225.0, 2224.0, 2224.0, 2226.0, 2224.0, 2224.0, 2226.0, 2225.0, 2224.0, 2224.0, 2224.0, 2225.0, 2226.0, 2224.0, 2226.0, 2224.0, 2223.0, 2225.0, 2226.0, 2225.0, 2225.0, 2225.0, 2224.0, 2225.0, 2226.0, 2224.0, 2226.0, 2225.0, 2224.0, 2224.0, 2224.0, 2224.0, 2223.0, 2226.0, 2224.0, 2225.0, 2226.0, 2225.0, 2225.0, 2224.0, 2224.0, 2224.0, 2225.0, 2224.0, 2225.0, 2224.0, 2225.0]
    },
    "slices": {}
  }
}