{
  "AcquisitionMatrixPE": 80,
  "AcquisitionNumber": 1,
  "AcquisitionTime": "09:13:58.175000",
  "BandwidthPerPixelPhaseEncode": 44.643,
  "BaseResolution": 80,
  "BodyPartExamined": "BRAIN",
  "CoilCombinationMethod": "Sum of Squares",
  "ConsistencyInfo": "N4_VE11C_LATEST_20160120",
  "ConversionSoftware": "dcm2niix",
  "ConversionSoftwareVersion": "v1.0.20220720",
  "DerivedVendorReportedEchoSpacing": 0.000559998,
  "DeviceSerialNumber": "66112",
  "DwellTime": 2.7e-06,
  "EchoTime": 0.035,
  "EchoTrainLength": 39,
  "EffectiveEchoSpacing": 0.000279999,
  "FlipAngle": 90,
  "HeudiconvVersion": "0.13.1",
  "ImageOrientationPatientDICOM": [0.990911, -0.133564, -0.0159871, 0.133096, 0.956266, 0.260462],
  "ImageOrientationText": "Tra>Cor(15.1)>Sag(1.1)",
  "ImageType": [
    "ORIGINAL",
    "PRIMARY",
    "M",
    "ND",
    "NORM",
    "MOSAIC"
],
  "ImagingFrequency": 123.252,
  "InPlanePhaseEncodingDirectionDICOM": "COL",
  "InstitutionAddress": "Maynard 3,Hanover,NH,US,03755",
  "InstitutionName": "Dartmouth College - PBS",
  "InstitutionalDepartmentName": "Department",
  "MRAcquisitionType": "2D",
  "MagneticFieldStrength": 3,
  "Manufacturer": "Siemens",
  "ManufacturersModelName": "Prisma",
  "Modality": "MR",
  "MultibandAccelerationFactor": 4,
  "NonlinearGradientCorrection": false,
  "ParallelReductionFactorInPlane": 2,
  "PartialFourier": 1,
  "PatientPosition": "HFS",
  "PercentPhaseFOV": 100,
  "PercentSampling": 100,
  "PhaseEncodingDirection": "j-",
  "PhaseEncodingSteps": 79,
  "PhaseResolution": 1,
  "PixelBandwidth": 2315,
  "ProcedureStepDescription": "dbic^QA",
  "ProtocolName": "func-bold_task-rest_acq-p2-s4-3.5mm",
  "PulseSequenceDetails": "%SiemensSeq%\\ep2d_bold",
  "ReceiveCoilActiveElements": "HEA;HEP",
  "ReceiveCoilName": "Head_32",
  "ReconMatrixPE": 80,
  "RefLinesPE": 24,
  "RepetitionTime": 2,
  "SAR": 0.0178977,
  "ScanOptions": "FS",
  "ScanningSequence": "EP",
  "SequenceName": "*epfid2d1_80",
  "SequenceVariant": "SK",
  "SeriesDescription": "func-bold_task-rest_acq-p2-s4-3.5mm",
  "SeriesNumber": 7,
  "ShimSetting": [4154, -7705, -7534, 281, -50, -97, 6, 100],
  "SliceThickness": 3.5,
  "SliceTiming": [1.485, 0, 0.99, 0.2475, 1.2375, 0.7425, 1.7325, 0.495, 1.485, 0, 0.99, 0.2475, 1.2375, 0.7425, 1.7325, 0.495, 1.485, 0, 0.99, 0.2475, 1.2375, 0.7425, 1.7325, 0.495, 1.485, 0, 0.99, 0.2475, 1.2375, 0.7425, 1.7325, 0.495],
  "SoftwareVersions": "syngo MR E11",
  "SpacingBetweenSlices": 3.99,
  "StationName": "AWP66112",
  "TaskName": "rest",
  "TotalReadoutTime": 0.0221199,
  "TxRefAmp": 222.748,
  "dcmmeta_affine": [
    [-2.972733974456787, 0.39928796887397766, 0.07780607044696808, 103.09181213378906],
    [0.40069058537483215, 2.8687984943389893, 1.0382877588272095, -137.8861541748047],
    [-0.04796136915683746, -0.7813857793807983, 3.8517534732818604, -37.833465576171875],
    [0.0, 0.0, 0.0, 1.0]
],
  "dcmmeta_reorient_transform": [
    [0.0, -1.0, 0.0, 79.0],
    [1.0, 0.0, 0.0, 0.0],
    [0.0, 0.0, 1.0, 0.0],
    [0.0, 0.0, 0.0, 1.0]
],
  "dcmmeta_shape": [80, 80, 32, 200],
  "dcmmeta_slice_dim": 2,
  "dcmmeta_version": 0.6,
  "global": {
    "const": {
      "AccessionNumber": "qa",
      "AcquisitionMatrix": [80, 0, 0, 80],
      "AngioFlag": "N",
      "BitsAllocated": 16,
      "BitsStored": 12,
      "BodyPartExamined": "BRAIN",
      "Columns": 480,
      "EchoNumbers": 1,
      "EchoTime": 35.0,
      "EchoTrainLength": 39,
      "FlipAngle": 90.0,
      "HighBit": 11,
      "ImageOrientationPatient": [0.99091129581607, -0.1335635269012, -0.0159871231257, 0.13309599295144, 0.95626619655195, 0.26046193194465],
      "ImagePositionPatient": [-809.03993392547, -582.37053266795, -246.24782975684],
      "ImageType": [
        "ORIGINAL",
        "PRIMARY",
        "M",
        "ND",
        "NORM",
        "MOSAIC"
],
      "ImagedNucleus": "1H",
      "ImagingFrequency": 123.252324,
      "InPlanePhaseEncodingDirection": "COL",
      "MRAcquisitionType": "2D",
      "MagneticFieldStrength": 3.0,
      "Manufacturer": "SIEMENS",
      "ManufacturerModelName": "Prisma",
      "Modality": "MR",
      "NumberOfAverages": 1.0,
      "NumberOfPhaseEncodingSteps": 79,
      "PercentPhaseFieldOfView": 100.0,
      "PercentSampling": 100.0,
      "PerformedProcedureStepStartTime": "090407.969000",
      "PhotometricInterpretation": "MONOCHROME2",
      "PixelBandwidth": 2315.0,
      "PixelRepresentation": 0,
      "PixelSpacing": [3.0, 3.0],
      "ProtocolName": "func-bold_task-rest_acq-p2-s4-3.5mm",
      "RepetitionTime": 2000.0,
      "Rows": 480,
      "SAR": 0.01789773204704,
      "SamplesPerPixel": 1,
      "ScanOptions": "FS",
      "ScanningSequence": "EP",
      "SequenceName": "*epfid2d1_80",
      "SequenceVariant": "SK",
      "SeriesDescription": "func-bold_task-rest_acq-p2-s4-3.5mm",
      "SeriesNumber": 7,
      "SeriesTime": "091446.065000",
      "SliceLocation": -70.393364668733,
      "SliceThickness": 3.5,
      "SmallestImagePixelValue": 0,
      "SoftwareVersions": "syngo MR E11",
      "SpacingBetweenSlices": 3.9900000145163,
      "SpecificCharacterSet": "ISO_IR 100",
      "StudyID": "68",
      "StudyTime": "090407.917000",
      "TransmitCoilName": "Body",
      "VariableFlipAngleFlag": "N",
      "WindowCenter": 943.0,
      "WindowCenterWidthExplanation": "Algo1",
      "dBdt": 0.0},
    "slices": {}
  },
  "time": {
    "samples": {
      "AcquisitionNumber": [1, 2, 3, 4, 5, 6, 7, 8, 9, 10, 11, 12, 13, 14, 15, 16, 17, 18, 19, 20, 21, 22, 23, 24, 25, 26, 27, 28, 29, 30, 31, 32, 33, 34, 35, 36, 37, 38, 39, 40, 41, 42, 43, 44, 45, 46, 47, 48, 49, 50, 51, 52, 53, 54, 55, 56, 57, 58, 59, 60, 61, 62, 63, 64, 65, 66, 67, 68, 69, 70, 71, 72, 73, 74, 75, 76, 77, 78, 79, 80, 81, 82, 83, 84, 85, 86, 87, 88, 89, 90, 91, 92, 93, 94, 95, 96, 97, 98, 99, 100, 101, 102, 103, 104, 105, 106, 107, 108, 109, 110, 111, 112, 113, 114, 115, 116, 117, 118, 119, 120, 121, 122, 123, 124, 125, 126, 127, 128, 129, 130, 131, 132, 133, 134, 135, 136, 137, 138, 139, 140, 141, 142, 143, 144, 145, 146, 147, 148, 149, 150, 151, 152, 153, 154, 155, 156, 157, 158, 159, 160, 161, 162, 163, 164, 165, 166, 167, 168, 169, 170, 171, 172, 173, 174, 175, 176, 177, 178, 179, 180, 181, 182, 183, 184, 185, 186, 187, 188, 189, 190, 191, 192, 193, 194, 195, 196, 197, 198, 199, 200],
      "AcquisitionTime": ["091358.175000", "091400.175000", "091402.175000", "091404.175000", "091406.175000", "091408.175000", "091410.175000", "091412.175000", "091414.175000", "091416.175000", "091418.175000", "091420.175000", "091422.175000", "091424.175000", "091426.175000", "091428.175000", "091430.175000", "091432.175000", "091434.175000", "091436.175000", "091438.175000", "091440.175000", "091442.175000", "091444.175000", "091446.175000", "091448.175000", "091450.175000", "091452.175000", "091454.175000", "091456.175000", "091458.175000", "091500.175000", "091502.175000", "091504.175000", "091506.175000", "091508.175000", "091510.175000", "091512.175000", "091514.175000", "091516.175000", "091518.175000", "091520.175000", "091522.175000", "091524.175000", "091526.175000", "091528.175000", "091530.175000", "091532.175000", "091534.175000", "091536.175000", "091538.175000", "091540.175000", "091542.175000", "091544.175000", "091546.175000", "091548.175000", "091550.175000", "091552.175000", "091554.175000", "091556.175000", "091558.175000", "091600.175000", "091602.175000", "091604.175000", "091606.175000", "091608.175000", "091610.175000", "091612.175000", "091614.175000", "091616.175000", "091618.175000", "091620.175000", "091622.175000", "091624.175000", "091626.175000", "091628.175000", "091630.175000", "091632.175000", "091634.175000", "091636.175000", "091638.175000", "091640.175000", "091642.175000", "091644.175000", "091646.175000", "091648.175000", "091650.175000", "091652.175000", "091654.175000", "091656.175000", "091658.175000", "091700.175000", "091702.175000", "091704.175000", "091706.175000", "091708.175000", "091710.175000", "091712.175000", "091714.175000", "091716.175000", "091718.175000", "091720.175000", "091722.175000", "091724.175000", "091726.175000", "091728.175000", "091730.175000", "091732.175000", "091734.175000", "091736.175000", "091738.175000", "091740.175000", "091742.175000", "091744.175000", "091746.175000", "091748.175000", "091750.175000", "091752.175000", "091754.175000", "091756.175000", "091758.175000", "091800.175000", "091802.175000", "091804.175000", "091806.175000", "091808.175000", "091810.175000", "091812.175000", "091814.175000", "091816.175000", "091818.175000", "091820.175000", "091822.175000", "091824.175000", "091826.175000", "091828.175000", "091830.175000", "091832.175000", "091834.175000", "091836.175000", "091838.175000", "091840.175000", "091842.175000", "091844.175000", "091846.175000", "091848.175000", "091850.175000", "091852.175000", "091854.175000", "091856.175000", "091858.175000", "091900.175000", "091902.175000", "091904.175000", "091906.175000", "091908.175000", "091910.175000", "091912.175000", "091914.175000", "091916.175000", "091918.175000", "091920.175000", "091922.175000", "091924.175000", "091926.175000", "091928.175000", "091930.175000", "091932.175000", "091934.175000", "091936.175000", "091938.175000", "091940.175000", "091942.175000", "091944.175000", "091946.175000", "091948.175000", "091950.175000", "091952.175000", "091954.175000", "091956.175000", "091958.175000", "092000.175000", "092002.175000", "092004.175000", "092006.175000", "092008.175000", "092010.175000", "092012.175000", "092014.175000", "092016.175000", "092018.175000", "092020.175000", "092022.175000", "092024.175000", "092026.175000", "092028.175000", "092030.175000", "092032.175000", "092034.175000", "092036.175000"],
      "ContentTime": ["091446.068000", "091446.071000", "091446.074000", "091446.081000", "091446.084000", "091446.086000", "091446.089000", "091446.091000", "091446.094000", "091446.097000", "091446.099000", "091446.102000", "091446.105000", "091446.107000", "091446.114000", "091446.127000", "091446.129000", "091446.132000", "091446.134000", "091446.137000", "091446.139000", "091446.142000", "091446.145000", "091446.147000", "091526.064000", "091526.067000", "091526.070000", "091526.072000", "091526.075000", "091526.078000", "091526.080000", "091526.083000", "091526.085000", "091526.088000", "091526.090000", "091526.093000", "091526.096000", "091526.098000", "091526.101000", "091526.103000", "091526.106000", "091526.108000", "091526.111000", "091526.114000", "091606.064000", "091606.067000", "091606.070000", "091606.073000", "091606.075000", "091606.078000", "091606.080000", "091606.083000", "091606.085000", "091606.088000", "091606.091000", "091606.093000", "091606.096000", "091606.098000", "091606.101000", "091606.110000", "091606.113000", "091606.115000", "091606.118000", "091606.120000", "091646.063000", "091646.066000", "091646.069000", "091646.071000", "091646.074000", "091646.076000", "091646.086000", "091646.089000", "091646.091000", "091646.094000", "091646.096000", "091646.099000", "091646.102000", "091646.104000", "091646.107000", "091646.110000", "091646.112000", "091646.115000", "091646.117000", "091646.120000", "091726.064000", "091726.066000", "091726.069000", "091726.072000", "091726.074000", "091726.077000", "091726.079000", "091726.082000", "091726.085000", "091726.087000", "091726.090000", "091726.092000", "091726.095000", "091726.098000", "091726.100000", "091726.103000", "091726.105000", "091726.108000", "091726.110000", "091726.113000", "091806.064000", "091806.067000", "091806.070000", "091806.073000", "091806.075000", "091806.078000", "091806.080000", "091806.083000", "091806.085000", "091806.088000", "091806.091000", "091806.093000", "091806.096000", "091806.098000", "091806.101000", "091806.103000", "091806.106000", "091806.108000", "091806.111000", "091806.114000", "091846.063000", "091846.066000", "091846.069000", "091846.071000", "091846.074000", "091846.077000", "091846.079000", "091846.082000", "091846.084000", "091846.087000", "091846.089000", "091846.092000", "091846.095000", "091846.097000", "091846.100000", "091846.102000", "091846.105000", "091846.107000", "091846.110000", "091846.113000", "091926.063000", "091926.066000", "091926.069000", "091926.072000", "091926.074000", "091926.077000", "091926.079000", "091926.082000", "091926.084000", "091926.087000", "091926.089000", "091926.092000", "091926.095000", "091926.097000", "091926.100000", "091926.102000", "091926.105000", "091926.108000", "091926.110000", "091926.113000", "092006.064000", "092006.067000", "092006.070000", "092006.072000", "092006.075000", "092006.078000", "092006.080000", "092006.083000", "092006.085000", "092006.088000", "092006.091000", "092006.093000", "092006.096000", "092006.098000", "092006.101000", "092006.103000", "092006.106000", "092006.108000", "092006.111000", "092006.114000", "092037.465000", "092037.468000", "092037.471000", "092037.473000", "092037.476000", "092037.479000", "092037.481000", "092037.484000", "092037.487000", "092037.489000", "092037.492000", "092037.495000", "092037.501000", "092037.504000", "092037.509000", "092037.519000"],
      "InstanceCreationTime": ["091446.068000", "091446.071000", "091446.074000", "091446.081000", "091446.084000", "091446.086000", "091446.089000", "091446.091000", "091446.094000", "091446.097000", "091446.099000", "091446.102000", "091446.105000", "091446.107000", "091446.114000", "091446.127000", "091446.129000", "091446.132000", "091446.134000", "091446.137000", "091446.139000", "091446.142000", "091446.145000", "091446.147000", "091526.064000", "091526.067000", "091526.070000", "091526.072000", "091526.075000", "091526.078000", "091526.080000", "091526.083000", "091526.085000", "091526.088000", "091526.090000", "091526.093000", "091526.096000", "091526.098000", "091526.101000", "091526.103000", "091526.106000", "091526.108000", "091526.111000", "091526.114000", "091606.064000", "091606.067000", "091606.070000", "091606.073000", "091606.075000", "091606.078000", "091606.080000", "091606.083000", "091606.085000", "091606.088000", "091606.091000", "091606.093000", "091606.096000", "091606.098000", "091606.101000", "091606.110000", "091606.113000", "091606.115000", "091606.118000", "091606.120000", "091646.063000", "091646.066000", "091646.069000", "091646.071000", "091646.074000", "091646.076000", "091646.086000", "091646.089000", "091646.091000", "091646.094000", "091646.096000", "091646.099000", "091646.102000", "091646.104000", "091646.107000", "091646.110000", "091646.112000", "091646.115000", "091646.117000", "091646.120000", "091726.064000", "091726.066000", "091726.069000", "091726.072000", "091726.074000", "091726.077000", "091726.079000", "091726.082000", "091726.085000", "091726.087000", "091726.090000", "091726.092000", "091726.095000", "091726.098000", "091726.100000", "091726.103000", "091726.105000", "091726.108000", "091726.110000", "091726.113000", "091806.064000", "091806.067000", "091806.070000", "091806.073000", "091806.075000", "091806.078000", "091806.080000", "091806.083000", "091806.085000", "091806.088000", "091806.091000", "091806.093000", "091806.096000", "091806.098000", "091806.101000", "091806.103000", "091806.106000", "091806.108000", "091806.111000", "091806.114000", "091846.063000", "091846.066000", "091846.069000", "091846.071000", "091846.074000", "091846.077000", "091846.079000", "091846.082000", "091846.084000", "091846.087000", "091846.089000", "091846.092000", "091846.095000", "091846.097000", "091846.100000", "091846.102000", "091846.105000", "091846.107000", "091846.110000", "091846.113000", "091926.063000", "091926.066000", "091926.069000", "091926.072000", "091926.074000", "091926.077000", "091926.079000", "091926.082000", "091926.084000", "091926.087000", "091926.089000", "091926.092000", "091926.095000", "091926.097000", "091926.100000", "091926.102000", "091926.105000", "091926.108000", "091926.110000", "091926.113000", "092006.064000", "092006.067000", "092006.070000", "092006.072000", "092006.075000", "092006.078000", "092006.080000", "092006.083000", "092006.085000", "092006.088000", "092006.091000", "092006.093000", "092006.096000", "092006.098000", "092006.101000", "092006.103000", "092006.106000", "092006.108000", "092006.111000", "092006.114000", "092037.465000", "092037.468000", "092037.471000", "092037.473000", "092037.476000", "092037.479000", "092037.481000", "092037.484000", "092037.487000", "092037.489000", "092037.492000", "092037.495000", "092037.501000", "092037.504000", "092037.509000", "092037.519000"],
      "InstanceNumber": [1, 2, 3, 4, 5, 6, 7, 8, 9, 10, 11, 12, 13, 14, 15, 16, 17, 18, 19, 20, 21, 22, 23, 24, 25, 26, 27, 28, 29, 30, 31, 32, 33, 34, 35, 36, 37, 38, 39, 40, 41, 42, 43, 44, 45, 46, 47, 48, 49, 50, 51, 52, 53, 54, 55, 56, 57, 58, 59, 60, 61, 62, 63, 64, 65, 66, 67, 68, 69, 70, 71, 72, 73, 74, 75, 76, 77, 78, 79, 80, 81, 82, 83, 84, 85, 86, 87, 88, 89, 90, 91, 92, 93, 94, 95, 96, 97, 98, 99, 100, 101, 102, 103, 104, 105, 106, 107, 108, 109, 110, 111, 112, 113, 114, 115, 116, 117, 118, 119, 120, 121, 122, 123, 124, 125, 126, 127, 128, 129, 130, 131, 132, 133, 134, 135, 136, 137, 138, 139, 140, 141, 142, 143, 144, 145, 146, 147, 148, 149, 150, 151, 152, 153, 154, 155, 156, 157, 158, 159, 160, 161, 162, 163, 164, 165, 166, 167, 168, 169, 170, 171, 172, 173, 174, 175, 176, 177, 178, 179, 180, 181, 182, 183, 184, 185, 186, 187, 188, 189, 190, 191, 192, 193, 194, 195, 196, 197, 198, 199, 200],
      "LargestImagePixelValue": [2143, 2144, 2144, 2143, 2141, 2142, 2142, 2145, 2139, 2141, 2140, 2145, 2142, 2142, 2142, 2140, 2145, 2139, 2134, 2143, 2144, 2141, 2142, 2147, 2141, 2143, 2140, 2142, 2146, 2146, 2145, 2146, 2149, 2150, 2152, 2144, 2142, 2145, 2140, 2150, 2146, 2147, 2144, 2146, 2147, 2143, 2143, 2140, 2143, 2142, 2141, 2139, 2148, 2145, 2138, 2139, 2142, 2142, 2140, 2141, 2149, 2140, 2144, 2144, 2144, 2142, 2142, 2143, 2143, 2146, 2142, 2145, 2144, 2144, 2140, 2145, 2142, 2147, 2144, 2144, 2142, 2146, 2144, 2144, 2145, 2146, 2143, 2148, 2144, 2148, 2147, 2143, 2142, 2145, 2146, 2145, 2147, 2150, 2141, 2142, 2142, 2143, 2139, 2141, 2140, 2142, 2148, 2143, 2138, 2141, 2139, 2139, 2140, 2138, 2139, 2140, 2140, 2140, 2141, 2140, 2140, 2140, 2137, 2143, 2142, 2139, 2143, 2140, 2145, 2145, 2142, 2141, 2146, 2144, 2143, 2146, 2142, 2141, 2140, 2140, 2142, 2146, 2140, 2138, 2142, 2145, 2146, 2143, 2145, 2151, 2142, 2149, 2143, 2147, 2146, 2143, 2145, 2138, 2143, 2147, 2141, 2137, 2142, 2137, 2144, 2138, 2145, 2142, 2140, 2144, 2138, 2141, 2142, 2144, 2141, 2138, 2138, 2137, 2137, 2140, 2140, 2138, 2137, 2144, 2141, 2141, 2142, 2144, 2143, 2144, 2143, 2142, 2139, 2143, 2143, 2140, 2147, 2143, 2142, 2143],
      "WindowWidth": [2184.0, 2184.0, 2185.0, 2184.0, 2184.0, 2184.0, 2184.0, 2184.0, 2185.0, 2184.0, 2184.0, 2184.0, 2184.0, 2184.0, 2184.0, 2184.0, 2184.0, 2184.0, 2184.0, 2184.0, 2184.0, 2184.0, 2184.0, 2184.0, 2184.0, 2184.0, 2184.0, 2184.0, 2184.0, 2184.0, 2184.0, 2184.0, 2184.0, 2184.0, 2184.0, 2184.0, 2184.0, 2184.0, 2184.0, 2184.0, 2184.0, 2184.0, 2184.0, 2184.0, 2184.0, 2184.0, 2184.0, 2184.0, 2184.0, 2184.0, 2184.0, 2184.0, 2184.0, 2184.0, 2184.0, 2184.0, 2184.0, 2184.0, 2184.0, 2184.0, 2184.0, 2184.0, 2184.0, 2184.0, 2184.0, 2184.0, 2184.0, 2184.0, 2184.0, 2184.0, 2184.0, 2184.0, 2184.0, 2184.0, 2184.0, 2184.0, 2184.0, 2184.0, 2184.0, 2184.0, 2184.0, 2184.0, 2184.0, 2184.0, 2184.0, 2184.0, 2184.0, 2184.0, 2184.0, 2184.0, 2184.0, 2184.0, 2184.0, 2184.0, 2184.0, 2184.0, 2184.0, 2184.0, 2184.0, 2184.0, 2184.0, 2184.0, 2184.0, 2184.0, 2184.0, 2184.0, 2184.0, 2184.0, 2184.0, 2184.0, 2184.0, 2184.0, 2184.0, 2184.0, 2184.0, 2184.0, 2184.0, 2184.0, 2184.0, 2184.0, 2184.0, 2184.0, 2184.0, 2184.0, 2184.0, 2184.0, 2184.0, 2184.0, 2184.0, 2184.0, 2184.0, 2184.0, 2184.0, 2184.0, 2184.0, 2184.0, 2184.0, 2184.0, 2184.0, 2184.0, 2184.0, 2184.0, 2184.0, 2184.0, 2184.0, 2184.0, 2184.0, 2184.0, 2184.0, 2184.0, 2184.0, 2184.0, 2184.0, 2184.0, 2184.0, 2184.0, 2184.0, 2184.0, 2184.0, 2184.0, 2184.0, 2184.0, 2184.0, 2184.0, 2184.0, 2184.0, 2184.0, 2184.0, 2184.0, 2184.0, 2184.0, 2184.0, 2184.0, 2184.0, 2184.0, 2184.0, 2183.0, 2183.0, 2183.0, 2183.0, 2183.0, 2183.0, 2184.0, 2184.0, 2184.0, 2183.0, 2183.0, 2184.0, 2184.0, 2184.0, 2184.0, 2184.0, 2184.0, 2184.0, 2184.0, 2184.0, 2184.0, 2184.0, 2184.0, 2184.0]
    },
    "slices": {}
  }
}