{
  "AcquisitionMatrixPE": 80,
  "AcquisitionNumber": 1,
  "AcquisitionTime": "09:27:31.485000",
  "BandwidthPerPixelPhaseEncode": 25,
  "BaseResolution": 80,
  "BodyPartExamined": "BRAIN",
  "CoilCombinationMethod": "Sum of Squares",
  "ConsistencyInfo": "N4_VE11C_LATEST_20160120",
  "ConversionSoftware": "dcm2niix",
  "ConversionSoftwareVersion": "v1.0.20220720",
  "DerivedVendorReportedEchoSpacing": 0.0005,
  "DeviceSerialNumber": "66112",
  "DwellTime": 2.7e-06,
  "EchoTime": 0.03,
  "EchoTrainLength": 80,
  "EffectiveEchoSpacing": 0.0005,
  "FlipAngle": 10,
  "HeudiconvVersion": "0.13.1",
  "ImageOrientationPatientDICOM": [0.990911, -0.133564, -0.0159871, 0.133096, 0.956266, 0.260462],
  "ImageOrientationText": "Tra>Cor(15.1)>Sag(1.1)",
  "ImageType": [
    "ORIGINAL",
    "PRIMARY",
    "M",
    "ND",
    "NORM",
    "MOSAIC"
],
  "ImagingFrequency": 123.252,
  "InPlanePhaseEncodingDirectionDICOM": "COL",
  "InstitutionAddress": "Maynard 3,Hanover,NH,US,03755",
  "InstitutionName": "Dartmouth College - PBS",
  "InstitutionalDepartmentName": "Department",
  "MRAcquisitionType": "2D",
  "MagneticFieldStrength": 3,
  "Manufacturer": "Siemens",
  "ManufacturersModelName": "Prisma",
  "MatrixCoilMode": "SENSE",
  "Modality": "MR",
  "NonlinearGradientCorrection": false,
  "PartialFourier": 1,
  "PatientPosition": "HFS",
  "PercentPhaseFOV": 100,
  "PercentSampling": 100,
  "PhaseEncodingDirection": "j-",
  "PhaseEncodingSteps": 80,
  "PhaseResolution": 1,
  "PixelBandwidth": 2315,
  "ProcedureStepDescription": "dbic^QA",
  "ProtocolName": "func-bold_fa-10",
  "PulseSequenceDetails": "%SiemensSeq%\\ep2d_bold",
  "ReceiveCoilActiveElements": "HEA;HEP",
  "ReceiveCoilName": "Head_32",
  "ReconMatrixPE": 80,
  "RepetitionTime": 2,
  "SAR": 0.0100335,
  "ScanOptions": "FS",
  "ScanningSequence": "EP",
  "SequenceName": "*epfid2d1_80",
  "SequenceVariant": "SK",
  "SeriesDescription": "func-bold_fa-10",
  "SeriesNumber": 10,
  "ShimSetting": [4154, -7705, -7534, 281, -49, -97, 7, 100],
  "SliceThickness": 3.5,
  "SliceTiming": [0.99, 0, 1.0575, 0.0675, 1.1225, 0.1325, 1.1875, 0.1975, 1.255, 0.265, 1.32, 0.33, 1.3875, 0.3975, 1.4525, 0.4625, 1.5175, 0.5275, 1.585, 0.595, 1.65, 0.66, 1.7175, 0.7275, 1.7825, 0.7925, 1.8475, 0.8575, 1.915, 0.925],
  "SoftwareVersions": "syngo MR E11",
  "SpacingBetweenSlices": 3.99,
  "StationName": "AWP66112",
  "TotalReadoutTime": 0.0395,
  "TxRefAmp": 222.748,
  "dcmmeta_affine": [
    [-2.972733974456787, 0.39928796887397766, 0.07780607789754868, 103.5477066040039],
    [0.40069058537483215, 2.8687984943389893, 1.0382877588272095, -133.90089416503906],
    [-0.04796136915683746, -0.7813857793807983, 3.8517537117004395, -32.79054260253906],
    [0.0, 0.0, 0.0, 1.0]
],
  "dcmmeta_reorient_transform": [
    [0.0, -1.0, 0.0, 79.0],
    [1.0, 0.0, 0.0, 0.0],
    [0.0, 0.0, 1.0, 0.0],
    [0.0, 0.0, 0.0, 1.0]
],
  "dcmmeta_shape": [80, 80, 30, 200],
  "dcmmeta_slice_dim": 2,
  "dcmmeta_version": 0.6,
  "global": {
    "const": {
      "AccessionNumber": "qa",
      "AcquisitionMatrix": [80, 0, 0, 80],
      "AngioFlag": "N",
      "BitsAllocated": 16,
      "BitsStored": 12,
      "BodyPartExamined": "BRAIN",
      "Columns": 480,
      "EchoNumbers": 1,
      "EchoTime": 30.0,
      "EchoTrainLength": 80,
      "FlipAngle": 10.0,
      "HighBit": 11,
      "ImageOrientationPatient": [0.99091129581607, -0.1335635269012, -0.0159871231257, 0.13309599295144, 0.95626619655195, 0.26046193194465],
      "ImagePositionPatient": [-809.4958324339, -586.35579410823, -241.20490678321],
      "ImageType": [
        "ORIGINAL",
        "PRIMARY",
        "M",
        "ND",
        "NORM",
        "MOSAIC"
],
      "ImagedNucleus": "1H",
      "ImagingFrequency": 123.252324,
      "InPlanePhaseEncodingDirection": "COL",
      "MRAcquisitionType": "2D",
      "MagneticFieldStrength": 3.0,
      "Manufacturer": "SIEMENS",
      "ManufacturerModelName": "Prisma",
      "Modality": "MR",
      "NumberOfAverages": 1.0,
      "NumberOfPhaseEncodingSteps": 80,
      "PercentPhaseFieldOfView": 100.0,
      "PercentSampling": 100.0,
      "PerformedProcedureStepStartTime": "090407.969000",
      "PhotometricInterpretation": "MONOCHROME2",
      "PixelBandwidth": 2315.0,
      "PixelRepresentation": 0,
      "PixelSpacing": [3.0, 3.0],
      "ProtocolName": "func-bold_fa-10",
      "RepetitionTime": 2000.0,
      "Rows": 480,
      "SAR": 0.01003354494517,
      "SamplesPerPixel": 1,
      "ScanOptions": "FS",
      "ScanningSequence": "EP",
      "SequenceName": "*epfid2d1_80",
      "SequenceVariant": "SK",
      "SeriesDescription": "func-bold_fa-10",
      "SeriesNumber": 10,
      "SeriesTime": "092826.002000",
      "SliceLocation": -64.479225361347,
      "SliceThickness": 3.5,
      "SmallestImagePixelValue": 0,
      "SoftwareVersions": "syngo MR E11",
      "SpacingBetweenSlices": 3.9900001555479,
      "SpecificCharacterSet": "ISO_IR 100",
      "StudyID": "68",
      "StudyTime": "090407.917000",
      "TransmitCoilName": "Body",
      "VariableFlipAngleFlag": "N",
      "WindowCenterWidthExplanation": "Algo1",
      "dBdt": 0.0},
    "slices": {}
  },
  "time": {
    "samples": {
      "AcquisitionNumber": [1, 2, 3, 4, 5, 6, 7, 8, 9, 10, 11, 12, 13, 14, 15, 16, 17, 18, 19, 20, 21, 22, 23, 24, 25, 26, 27, 28, 29, 30, 31, 32, 33, 34, 35, 36, 37, 38, 39, 40, 41, 42, 43, 44, 45, 46, 47, 48, 49, 50, 51, 52, 53, 54, 55, 56, 57, 58, 59, 60, 61, 62, 63, 64, 65, 66, 67, 68, 69, 70, 71, 72, 73, 74, 75, 76, 77, 78, 79, 80, 81, 82, 83, 84, 85, 86, 87, 88, 89, 90, 91, 92, 93, 94, 95, 96, 97, 98, 99, 100, 101, 102, 103, 104, 105, 106, 107, 108, 109, 110, 111, 112, 113, 114, 115, 116, 117, 118, 119, 120, 121, 122, 123, 124, 125, 126, 127, 128, 129, 130, 131, 132, 133, 134, 135, 136, 137, 138, 139, 140, 141, 142, 143, 144, 145, 146, 147, 148, 149, 150, 151, 152, 153, 154, 155, 156, 157, 158, 159, 160, 161, 162, 163, 164, 165, 166, 167, 168, 169, 170, 171, 172, 173, 174, 175, 176, 177, 178, 179, 180, 181, 182, 183, 184, 185, 186, 187, 188, 189, 190, 191, 192, 193, 194, 195, 196, 197, 198, 199, 200],
      "AcquisitionTime": ["092731.485000", "092733.485000", "092735.485000", "092737.485000", "092739.485000", "092741.485000", "092743.485000", "092745.485000", "092747.485000", "092749.485000", "092751.485000", "092753.485000", "092755.485000", "092757.485000", "092759.485000", "092801.485000", "092803.485000", "092805.485000", "092807.485000", "092809.485000", "092811.485000", "092813.485000", "092815.485000", "092817.485000", "092819.485000", "092821.485000", "092823.485000", "092825.485000", "092827.485000", "092829.485000", "092831.485000", "092833.485000", "092835.485000", "092837.485000", "092839.485000", "092841.485000", "092843.485000", "092845.485000", "092847.485000", "092849.485000", "092851.485000", "092853.485000", "092855.485000", "092857.485000", "092859.485000", "092901.485000", "092903.485000", "092905.485000", "092907.485000", "092909.485000", "092911.485000", "092913.485000", "092915.485000", "092917.485000", "092919.485000", "092921.485000", "092923.485000", "092925.485000", "092927.485000", "092929.485000", "092931.485000", "092933.485000", "092935.485000", "092937.485000", "092939.485000", "092941.485000", "092943.485000", "092945.485000", "092947.485000", "092949.485000", "092951.485000", "092953.485000", "092955.485000", "092957.485000", "092959.485000", "093001.485000", "093003.485000", "093005.485000", "093007.485000", "093009.485000", "093011.485000", "093013.485000", "093015.485000", "093017.485000", "093019.485000", "093021.485000", "093023.485000", "093025.485000", "093027.485000", "093029.485000", "093031.485000", "093033.485000", "093035.485000", "093037.485000", "093039.485000", "093041.485000", "093043.485000", "093045.485000", "093047.485000", "093049.485000", "093051.485000", "093053.485000", "093055.485000", "093057.485000", "093059.485000", "093101.485000", "093103.485000", "093105.485000", "093107.485000", "093109.485000", "093111.485000", "093113.485000", "093115.485000", "093117.485000", "093119.485000", "093121.485000", "093123.485000", "093125.485000", "093127.485000", "093129.485000", "093131.485000", "093133.485000", "093135.485000", "093137.485000", "093139.485000", "093141.485000", "093143.485000", "093145.485000", "093147.485000", "093149.485000", "093151.485000", "093153.485000", "093155.485000", "093157.485000", "093159.485000", "093201.485000", "093203.485000", "093205.485000", "093207.485000", "093209.485000", "093211.485000", "093213.485000", "093215.485000", "093217.485000", "093219.485000", "093221.485000", "093223.485000", "093225.485000", "093227.485000", "093229.485000", "093231.485000", "093233.485000", "093235.485000", "093237.485000", "093239.485000", "093241.485000", "093243.485000", "093245.485000", "093247.485000", "093249.485000", "093251.485000", "093253.485000", "093255.485000", "093257.485000", "093259.485000", "093301.485000", "093303.485000", "093305.485000", "093307.485000", "093309.485000", "093311.485000", "093313.485000", "093315.485000", "093317.485000", "093319.485000", "093321.485000", "093323.485000", "093325.485000", "093327.485000", "093329.485000", "093331.485000", "093333.485000", "093335.485000", "093337.485000", "093339.485000", "093341.485000", "093343.485000", "093345.485000", "093347.485000", "093349.485000", "093351.485000", "093353.485000", "093355.485000", "093357.485000", "093359.485000", "093401.485000", "093403.485000", "093405.485000", "093407.485000", "093409.485000"],
      "ContentTime": ["092826.005000", "092826.009000", "092826.011000", "092826.014000", "092826.016000", "092826.019000", "092826.022000", "092826.024000", "092826.027000", "092826.029000", "092826.032000", "092826.034000", "092826.037000", "092826.039000", "092826.042000", "092826.044000", "092826.047000", "092826.049000", "092826.059000", "092826.061000", "092826.064000", "092826.066000", "092826.069000", "092826.072000", "092826.074000", "092826.076000", "092826.079000", "092905.992000", "092905.995000", "092905.998000", "092906.000000", "092906.003000", "092906.005000", "092906.008000", "092906.011000", "092906.013000", "092906.016000", "092906.018000", "092906.021000", "092906.030000", "092906.032000", "092906.035000", "092906.037000", "092906.040000", "092906.042000", "092906.045000", "092906.047000", "092945.992000", "092945.995000", "092945.998000", "092946.001000", "092946.004000", "092946.006000", "092946.010000", "092946.013000", "092946.015000", "092946.018000", "092946.020000", "092946.023000", "092946.025000", "092946.028000", "092946.030000", "092946.033000", "092946.035000", "092946.038000", "092946.040000", "092946.043000", "093025.991000", "093025.994000", "093025.997000", "093026.000000", "093026.003000", "093026.005000", "093026.008000", "093026.011000", "093026.013000", "093026.015000", "093026.018000", "093026.021000", "093026.023000", "093026.026000", "093026.028000", "093026.031000", "093026.033000", "093026.036000", "093026.038000", "093026.041000", "093105.991000", "093105.994000", "093105.997000", "093106.000000", "093106.003000", "093106.005000", "093106.009000", "093106.012000", "093106.014000", "093106.017000", "093106.019000", "093106.022000", "093106.024000", "093106.027000", "093106.035000", "093106.037000", "093106.040000", "093106.042000", "093106.045000", "093106.048000", "093145.992000", "093145.995000", "093145.998000", "093146.001000", "093146.004000", "093146.006000", "093146.009000", "093146.012000", "093146.014000", "093146.017000", "093146.019000", "093146.022000", "093146.024000", "093146.027000", "093146.030000", "093146.032000", "093146.035000", "093146.037000", "093146.040000", "093146.042000", "093205.992000", "093205.995000", "093205.998000", "093206.001000", "093206.004000", "093206.006000", "093206.017000", "093206.019000", "093206.022000", "093206.024000", "093245.991000", "093245.994000", "093245.997000", "093246.001000", "093246.003000", "093246.006000", "093246.008000", "093246.011000", "093246.013000", "093246.016000", "093246.019000", "093246.021000", "093246.023000", "093246.026000", "093246.029000", "093246.031000", "093246.034000", "093246.036000", "093246.039000", "093246.041000", "093325.991000", "093325.994000", "093325.997000", "093326.000000", "093326.003000", "093326.005000", "093326.008000", "093326.011000", "093326.013000", "093326.016000", "093326.018000", "093326.021000", "093326.023000", "093326.026000", "093326.028000", "093326.039000", "093326.041000", "093326.044000", "093326.047000", "093326.049000", "093405.992000", "093405.995000", "093405.998000", "093406.003000", "093406.005000", "093406.008000", "093406.010000", "093406.013000", "093406.015000", "093406.018000", "093406.020000", "093406.023000", "093406.025000", "093406.028000", "093406.031000", "093406.033000", "093406.036000", "093406.038000", "093406.041000", "093406.043000", "093411.440000", "093411.443000", "093411.453000"],
      "InstanceCreationTime": ["092826.005000", "092826.009000", "092826.011000", "092826.014000", "092826.016000", "092826.019000", "092826.022000", "092826.024000", "092826.027000", "092826.029000", "092826.032000", "092826.034000", "092826.037000", "092826.039000", "092826.042000", "092826.044000", "092826.047000", "092826.049000", "092826.059000", "092826.061000", "092826.064000", "092826.066000", "092826.069000", "092826.072000", "092826.074000", "092826.076000", "092826.079000", "092905.992000", "092905.995000", "092905.998000", "092906.000000", "092906.003000", "092906.005000", "092906.008000", "092906.011000", "092906.013000", "092906.016000", "092906.018000", "092906.021000", "092906.030000", "092906.032000", "092906.035000", "092906.037000", "092906.040000", "092906.042000", "092906.045000", "092906.047000", "092945.992000", "092945.995000", "092945.998000", "092946.001000", "092946.004000", "092946.006000", "092946.010000", "092946.013000", "092946.015000", "092946.018000", "092946.020000", "092946.023000", "092946.025000", "092946.028000", "092946.030000", "092946.033000", "092946.035000", "092946.038000", "092946.040000", "092946.043000", "093025.991000", "093025.994000", "093025.997000", "093026.000000", "093026.003000", "093026.005000", "093026.008000", "093026.011000", "093026.013000", "093026.015000", "093026.018000", "093026.021000", "093026.023000", "093026.026000", "093026.028000", "093026.031000", "093026.033000", "093026.036000", "093026.038000", "093026.041000", "093105.991000", "093105.994000", "093105.997000", "093106.000000", "093106.003000", "093106.005000", "093106.009000", "093106.012000", "093106.014000", "093106.017000", "093106.019000", "093106.022000", "093106.024000", "093106.027000", "093106.035000", "093106.037000", "093106.040000", "093106.042000", "093106.045000", "093106.048000", "093145.992000", "093145.995000", "093145.998000", "093146.001000", "093146.004000", "093146.006000", "093146.009000", "093146.012000", "093146.014000", "093146.017000", "093146.019000", "093146.022000", "093146.024000", "093146.027000", "093146.030000", "093146.032000", "093146.035000", "093146.037000", "093146.040000", "093146.042000", "093205.992000", "093205.995000", "093205.998000", "093206.001000", "093206.004000", "093206.006000", "093206.017000", "093206.019000", "093206.022000", "093206.024000", "093245.991000", "093245.994000", "093245.997000", "093246.001000", "093246.003000", "093246.006000", "093246.008000", "093246.011000", "093246.013000", "093246.016000", "093246.019000", "093246.021000", "093246.023000", "093246.026000", "093246.029000", "093246.031000", "093246.034000", "093246.036000", "093246.039000", "093246.041000", "093325.991000", "093325.994000", "093325.997000", "093326.000000", "093326.003000", "093326.005000", "093326.008000", "093326.011000", "093326.013000", "093326.016000", "093326.018000", "093326.021000", "093326.023000", "093326.026000", "093326.028000", "093326.039000", "093326.041000", "093326.044000", "093326.047000", "093326.049000", "093405.992000", "093405.995000", "093405.998000", "093406.003000", "093406.005000", "093406.008000", "093406.010000", "093406.013000", "093406.015000", "093406.018000", "093406.020000", "093406.023000", "093406.025000", "093406.028000", "093406.031000", "093406.033000", "093406.036000", "093406.038000", "093406.041000", "093406.043000", "093411.440000", "093411.443000", "093411.453000"],
      "InstanceNumber": [1, 2, 3, 4, 5, 6, 7, 8, 9, 10, 11, 12, 13, 14, 15, 16, 17, 18, 19, 20, 21, 22, 23, 24, 25, 26, 27, 28, 29, 30, 31, 32, 33, 34, 35, 36, 37, 38, 39, 40, 41, 42, 43, 44, 45, 46, 47, 48, 49, 50, 51, 52, 53, 54, 55, 56, 57, 58, 59, 60, 61, 62, 63, 64, 65, 66, 67, 68, 69, 70, 71, 72, 73, 74, 75, 76, 77, 78, 79, 80, 81, 82, 83, 84, 85, 86, 87, 88, 89, 90, 91, 92, 93, 94, 95, 96, 97, 98, 99, 100, 101, 102, 103, 104, 105, 106, 107, 108, 109, 110, 111, 112, 113, 114, 115, 116, 117, 118, 119, 120, 121, 122, 123, 124, 125, 126, 127, 128, 129, 130, 131, 132, 133, 134, 135, 136, 137, 138, 139, 140, 141, 142, 143, 144, 145, 146, 147, 148, 149, 150, 151, 152, 153, 154, 155, 156, 157, 158, 159, 160, 161, 162, 163, 164, 165, 166, 167, 168, 169, 170, 171, 172, 173, 174, 175, 176, 177, 178, 179, 180, 181, 182, 183, 184, 185, 186, 187, 188, 189, 190, 191, 192, 193, 194, 195, 196, 197, 198, 199, 200],
      "LargestImagePixelValue": [367, 368, 368, 368, 370, 367, 369, 368, 369, 368, 369, 368, 369, 368, 369, 368, 370, 369, 369, 368, 367, 367, 369, 368, 368, 368, 369, 367, 369, 368, 367, 368, 367, 370, 369, 367, 370, 371, 368, 370, 369, 369, 369, 368, 369, 369, 369, 370, 370, 369, 369, 371, 371, 370, 367, 368, 369, 368, 366, 368, 368, 368, 369, 369, 368, 368, 368, 369, 369, 368, 369, 369, 368, 370, 369, 369, 369, 368, 369, 368, 369, 367, 368, 367, 368, 367, 369, 367, 368, 367, 370, 368, 368, 368, 367, 369, 368, 368, 370, 370, 369, 368, 369, 370, 368, 369, 369, 369, 368, 369, 368, 368, 367, 367, 369, 367, 367, 369, 367, 370, 368, 369, 369, 368, 368, 367, 369, 367, 368, 368, 367, 366, 367, 369, 368, 369, 367, 367, 369, 366, 370, 369, 368, 369, 369, 370, 369, 367, 369, 369, 368, 369, 368, 369, 369, 369, 370, 369, 369, 368, 370, 370, 371, 369, 369, 367, 368, 370, 370, 368, 368, 369, 368, 367, 369, 367, 367, 368, 367, 369, 368, 366, 368, 368, 368, 369, 369, 368, 368, 368, 368, 367, 367, 367, 369, 367, 368, 368, 368, 367],
      "WindowCenter": [293.0, 293.0, 294.0, 293.0, 293.0, 294.0, 294.0, 293.0, 294.0, 294.0, 294.0, 294.0, 294.0, 293.0, 294.0, 293.0, 293.0, 294.0, 294.0, 294.0, 294.0, 293.0, 294.0, 293.0, 293.0, 294.0, 294.0, 294.0, 294.0, 294.0, 294.0, 294.0, 294.0, 294.0, 294.0, 293.0, 293.0, 293.0, 293.0, 294.0, 294.0, 293.0, 294.0, 293.0, 293.0, 293.0, 293.0, 293.0, 293.0, 293.0, 293.0, 293.0, 293.0, 293.0, 293.0, 293.0, 293.0, 293.0, 293.0, 293.0, 293.0, 293.0, 293.0, 293.0, 293.0, 293.0, 293.0, 293.0, 293.0, 293.0, 293.0, 293.0, 293.0, 293.0, 293.0, 293.0, 293.0, 293.0, 293.0, 293.0, 293.0, 293.0, 293.0, 293.0, 293.0, 293.0, 293.0, 293.0, 293.0, 293.0, 293.0, 293.0, 293.0, 293.0, 293.0, 293.0, 293.0, 293.0, 293.0, 293.0, 293.0, 293.0, 293.0, 293.0, 293.0, 293.0, 293.0, 293.0, 293.0, 293.0, 293.0, 293.0, 293.0, 293.0, 293.0, 293.0, 293.0, 293.0, 293.0, 293.0, 293.0, 293.0, 293.0, 293.0, 293.0, 293.0, 293.0, 293.0, 293.0, 293.0, 292.0, 293.0, 293.0, 292.0, 292.0, 293.0, 292.0, 293.0, 293.0, 293.0, 293.0, 293.0, 292.0, 293.0, 292.0, 293.0, 293.0, 293.0, 293.0, 293.0, 293.0, 293.0, 293.0, 293.0, 293.0, 293.0, 293.0, 293.0, 293.0, 292.0, 293.0, 293.0, 293.0, 293.0, 293.0, 293.0, 293.0, 293.0, 293.0, 292.0, 293.0, 293.0, 293.0, 293.0, 292.0, 293.0, 293.0, 293.0, 293.0, 293.0, 293.0, 292.0, 293.0, 293.0, 293.0, 293.0, 293.0, 293.0, 293.0, 293.0, 293.0, 293.0, 293.0, 293.0, 293.0, 293.0, 293.0, 293.0, 293.0, 293.0],
      "WindowWidth": [637.0, 637.0, 637.0, 637.0, 637.0, 637.0, 637.0, 637.0, 637.0, 637.0, 637.0, 637.0, 637.0, 637.0, 637.0, 637.0, 637.0, 637.0, 637.0, 637.0, 637.0, 637.0, 637.0, 637.0, 637.0, 638.0, 637.0, 637.0, 637.0, 637.0, 637.0, 637.0, 637.0, 637.0, 637.0, 637.0, 637.0, 637.0, 637.0, 637.0, 637.0, 637.0, 637.0, 637.0, 637.0, 637.0, 637.0, 637.0, 637.0, 637.0, 637.0, 637.0, 637.0, 637.0, 637.0, 637.0, 637.0, 636.0, 637.0, 637.0, 637.0, 637.0, 637.0, 637.0, 637.0, 637.0, 636.0, 637.0, 637.0, 636.0, 636.0, 637.0, 637.0, 637.0, 637.0, 637.0, 636.0, 637.0, 637.0, 636.0, 636.0, 636.0, 637.0, 637.0, 637.0, 637.0, 636.0, 636.0, 637.0, 637.0, 637.0, 636.0, 637.0, 636.0, 636.0, 636.0, 636.0, 636.0, 637.0, 637.0, 636.0, 636.0, 636.0, 637.0, 636.0, 636.0, 636.0, 637.0, 636.0, 636.0, 636.0, 636.0, 636.0, 636.0, 636.0, 636.0, 636.0, 636.0, 636.0, 637.0, 636.0, 637.0, 636.0, 636.0, 636.0, 636.0, 636.0, 636.0, 636.0, 636.0, 636.0, 636.0, 636.0, 636.0, 636.0, 636.0, 636.0, 636.0, 636.0, 636.0, 637.0, 636.0, 636.0, 636.0, 636.0, 637.0, 636.0, 636.0, 636.0, 636.0, 636.0, 636.0, 636.0, 636.0, 636.0, 636.0, 637.0, 636.0, 636.0, 636.0, 637.0, 637.0, 637.0, 636.0, 636.0, 636.0, 636.0, 637.0, 637.0, 636.0, 636.0, 636.0, 636.0, 636.0, 636.0, 636.0, 636.0, 636.0, 636.0, 636.0, 636.0, 636.0, 636.0, 636.0, 636.0, 636.0, 636.0, 636.0, 636.0, 636.0, 636.0, 636.0, 636.0, 636.0, 636.0, 636.0, 636.0, 636.0, 636.0, 636.0]
    },
    "slices": {}
  }
}