{
  "AcquisitionMatrixPE": 80,
  "AcquisitionNumber": 1,
  "AcquisitionTime": "09:07:3.817500",
  "BandwidthPerPixelPhaseEncode": 48.077,
  "BaseResolution": 80,
  "BodyPartExamined": "BRAIN",
  "CoilCombinationMethod": "Sum of Squares",
  "ConsistencyInfo": "N4_VE11C_LATEST_20160120",
  "ConversionSoftware": "dcm2niix",
  "ConversionSoftwareVersion": "v1.0.20220720",
  "DerivedVendorReportedEchoSpacing": 0.000519999,
  "DeviceSerialNumber": "66112",
  "DwellTime": 2.7e-06,
  "EchoTime": 0.035,
  "EchoTrainLength": 39,
  "EffectiveEchoSpacing": 0.00026,
  "FlipAngle": 90,
  "HeudiconvVersion": "0.13.1",
  "ImageOrientationPatientDICOM": [0.990911, -0.133564, -0.0159871, 0.133096, 0.956266, 0.260462],
  "ImageOrientationText": "Tra>Cor(15.1)>Sag(1.1)",
  "ImageType": [
    "ORIGINAL",
    "PRIMARY",
    "M",
    "ND",
    "NORM",
    "MOSAIC"
],
  "ImagingFrequency": 123.252,
  "InPlanePhaseEncodingDirectionDICOM": "COL",
  "InstitutionAddress": "Maynard 3,Hanover,NH,US,03755",
  "InstitutionName": "Dartmouth College - PBS",
  "InstitutionalDepartmentName": "Department",
  "MRAcquisitionType": "2D",
  "MagneticFieldStrength": 3,
  "Manufacturer": "Siemens",
  "ManufacturersModelName": "Prisma",
  "MatrixCoilMode": "GRAPPA",
  "Modality": "MR",
  "NonlinearGradientCorrection": false,
  "ParallelReductionFactorInPlane": 2,
  "PartialFourier": 1,
  "PatientPosition": "HFS",
  "PercentPhaseFOV": 100,
  "PercentSampling": 100,
  "PhaseEncodingDirection": "j-",
  "PhaseEncodingSteps": 79,
  "PhaseResolution": 1,
  "PixelBandwidth": 2315,
  "ProcedureStepDescription": "dbic^QA",
  "ProtocolName": "func-bold_task-rest_acq-p2",
  "PulseSequenceDetails": "%SiemensSeq%\\ep2d_bold",
  "ReceiveCoilActiveElements": "HEA;HEP",
  "ReceiveCoilName": "Head_32",
  "ReconMatrixPE": 80,
  "RefLinesPE": 24,
  "RepetitionTime": 2,
  "SAR": 0.0475967,
  "ScanOptions": "FS",
  "ScanningSequence": "EP",
  "SequenceName": "*epfid2d1_80",
  "SequenceVariant": "SK",
  "SeriesDescription": "func-bold_task-rest_acq-p2",
  "SeriesNumber": 5,
  "ShimSetting": [4153, -7705, -7535, 282, -51, -102, 6, 101],
  "SliceThickness": 3.5,
  "SliceTiming": [0.9875, 0, 1.055, 0.065, 1.12, 0.13, 1.1875, 0.1975, 1.2525, 0.2625, 1.3175, 0.33, 1.385, 0.395, 1.45, 0.46, 1.5175, 0.5275, 1.5825, 0.5925, 1.6475, 0.66, 1.715, 0.725, 1.78, 0.79, 1.8475, 0.8575, 1.9125, 0.9225],
  "SoftwareVersions": "syngo MR E11",
  "SpacingBetweenSlices": 3.99,
  "StationName": "AWP66112",
  "TaskName": "rest",
  "TotalReadoutTime": 0.02054,
  "TxRefAmp": 222.748,
  "dcmmeta_affine": [
    [-2.972733974456787, 0.39928796887397766, 0.07780607044696808, 103.16961669921875],
    [0.40069058537483215, 2.8687984943389893, 1.0382877588272095, -136.84786987304688],
    [-0.04796136915683746, -0.7813857793807983, 3.8517534732818604, -33.981712341308594],
    [0.0, 0.0, 0.0, 1.0]
],
  "dcmmeta_reorient_transform": [
    [0.0, -1.0, 0.0, 79.0],
    [1.0, 0.0, 0.0, 0.0],
    [0.0, 0.0, 1.0, 0.0],
    [0.0, 0.0, 0.0, 1.0]
],
  "dcmmeta_shape": [80, 80, 30, 200],
  "dcmmeta_slice_dim": 2,
  "dcmmeta_version": 0.6,
  "global": {
    "const": {
      "AccessionNumber": "qa",
      "AcquisitionMatrix": [80, 0, 0, 80],
      "AngioFlag": "N",
      "BitsAllocated": 16,
      "BitsStored": 12,
      "BodyPartExamined": "BRAIN",
      "Columns": 480,
      "EchoNumbers": 1,
      "EchoTime": 35.0,
      "EchoTrainLength": 39,
      "FlipAngle": 90.0,
      "HighBit": 11,
      "ImageOrientationPatient": [0.99091129581607, -0.1335635269012, -0.0159871231257, 0.13309599295144, 0.95626619655195, 0.26046193194465],
      "ImagePositionPatient": [-809.11774004062, -583.4088207844, -242.39607652198],
      "ImageType": [
        "ORIGINAL",
        "PRIMARY",
        "M",
        "ND",
        "NORM",
        "MOSAIC"
],
      "ImagedNucleus": "1H",
      "ImagingFrequency": 123.252324,
      "InPlanePhaseEncodingDirection": "COL",
      "MRAcquisitionType": "2D",
      "MagneticFieldStrength": 3.0,
      "Manufacturer": "SIEMENS",
      "ManufacturerModelName": "Prisma",
      "Modality": "MR",
      "NumberOfAverages": 1.0,
      "NumberOfPhaseEncodingSteps": 79,
      "PercentPhaseFieldOfView": 100.0,
      "PercentSampling": 100.0,
      "PerformedProcedureStepStartTime": "090407.969000",
      "PhotometricInterpretation": "MONOCHROME2",
      "PixelBandwidth": 2315.0,
      "PixelRepresentation": 0,
      "PixelSpacing": [3.0, 3.0],
      "ProtocolName": "func-bold_task-rest_acq-p2",
      "RepetitionTime": 2000.0,
      "Rows": 480,
      "SAR": 0.04759666207507,
      "SamplesPerPixel": 1,
      "ScanOptions": "FS",
      "ScanningSequence": "EP",
      "SequenceName": "*epfid2d1_80",
      "SequenceVariant": "SK",
      "SeriesDescription": "func-bold_task-rest_acq-p2",
      "SeriesNumber": 5,
      "SeriesTime": "090745.993000",
      "SliceLocation": -66.403364795724,
      "SliceThickness": 3.5,
      "SmallestImagePixelValue": 0,
      "SoftwareVersions": "syngo MR E11",
      "SpacingBetweenSlices": 3.9900000243557,
      "SpecificCharacterSet": "ISO_IR 100",
      "StudyID": "68",
      "StudyTime": "090407.917000",
      "TransmitCoilName": "Body",
      "VariableFlipAngleFlag": "N",
      "WindowCenterWidthExplanation": "Algo1",
      "dBdt": 0.0},
    "slices": {}
  },
  "time": {
    "samples": {
      "AcquisitionNumber": [1, 2, 3, 4, 5, 6, 7, 8, 9, 10, 11, 12, 13, 14, 15, 16, 17, 18, 19, 20, 21, 22, 23, 24, 25, 26, 27, 28, 29, 30, 31, 32, 33, 34, 35, 36, 37, 38, 39, 40, 41, 42, 43, 44, 45, 46, 47, 48, 49, 50, 51, 52, 53, 54, 55, 56, 57, 58, 59, 60, 61, 62, 63, 64, 65, 66, 67, 68, 69, 70, 71, 72, 73, 74, 75, 76, 77, 78, 79, 80, 81, 82, 83, 84, 85, 86, 87, 88, 89, 90, 91, 92, 93, 94, 95, 96, 97, 98, 99, 100, 101, 102, 103, 104, 105, 106, 107, 108, 109, 110, 111, 112, 113, 114, 115, 116, 117, 118, 119, 120, 121, 122, 123, 124, 125, 126, 127, 128, 129, 130, 131, 132, 133, 134, 135, 136, 137, 138, 139, 140, 141, 142, 143, 144, 145, 146, 147, 148, 149, 150, 151, 152, 153, 154, 155, 156, 157, 158, 159, 160, 161, 162, 163, 164, 165, 166, 167, 168, 169, 170, 171, 172, 173, 174, 175, 176, 177, 178, 179, 180, 181, 182, 183, 184, 185, 186, 187, 188, 189, 190, 191, 192, 193, 194, 195, 196, 197, 198, 199, 200],
      "AcquisitionTime": ["090703.817500", "090705.817500", "090707.817500", "090709.817500", "090711.817500", "090713.817500", "090715.817500", "090717.817500", "090719.817500", "090721.817500", "090723.817500", "090725.817500", "090727.817500", "090729.817500", "090731.817500", "090733.817500", "090735.817500", "090737.817500", "090739.817500", "090741.817500", "090743.817500", "090745.817500", "090747.817500", "090749.817500", "090751.817500", "090753.817500", "090755.817500", "090757.817500", "090759.817500", "090801.817500", "090803.817500", "090805.817500", "090807.817500", "090809.817500", "090811.817500", "090813.817500", "090815.817500", "090817.817500", "090819.817500", "090821.817500", "090823.817500", "090825.817500", "090827.817500", "090829.817500", "090831.817500", "090833.817500", "090835.817500", "090837.817500", "090839.817500", "090841.817500", "090843.817500", "090845.817500", "090847.817500", "090849.817500", "090851.817500", "090853.817500", "090855.817500", "090857.817500", "090859.817500", "090901.817500", "090903.817500", "090905.817500", "090907.817500", "090909.817500", "090911.817500", "090913.817500", "090915.817500", "090917.817500", "090919.817500", "090921.817500", "090923.817500", "090925.817500", "090927.817500", "090929.817500", "090931.817500", "090933.817500", "090935.817500", "090937.817500", "090939.817500", "090941.817500", "090943.817500", "090945.817500", "090947.817500", "090949.817500", "090951.817500", "090953.817500", "090955.817500", "090957.817500", "090959.817500", "091001.817500", "091003.817500", "091005.817500", "091007.817500", "091009.817500", "091011.817500", "091013.817500", "091015.817500", "091017.817500", "091019.817500", "091021.817500", "091023.817500", "091025.817500", "091027.817500", "091029.817500", "091031.817500", "091033.817500", "091035.817500", "091037.817500", "091039.817500", "091041.817500", "091043.817500", "091045.817500", "091047.817500", "091049.817500", "091051.817500", "091053.817500", "091055.817500", "091057.817500", "091059.817500", "091101.817500", "091103.817500", "091105.817500", "091107.817500", "091109.817500", "091111.817500", "091113.817500", "091115.817500", "091117.817500", "091119.817500", "091121.817500", "091123.817500", "091125.817500", "091127.817500", "091129.817500", "091131.817500", "091133.817500", "091135.817500", "091137.817500", "091139.817500", "091141.817500", "091143.817500", "091145.817500", "091147.817500", "091149.817500", "091151.817500", "091153.817500", "091155.817500", "091157.817500", "091159.817500", "091201.817500", "091203.817500", "091205.817500", "091207.817500", "091209.817500", "091211.817500", "091213.817500", "091215.817500", "091217.817500", "091219.817500", "091221.817500", "091223.817500", "091225.817500", "091227.817500", "091229.817500", "091231.817500", "091233.817500", "091235.817500", "091237.817500", "091239.817500", "091241.817500", "091243.817500", "091245.817500", "091247.817500", "091249.817500", "091251.817500", "091253.817500", "091255.817500", "091257.817500", "091259.817500", "091301.817500", "091303.817500", "091305.817500", "091307.817500", "091309.817500", "091311.817500", "091313.817500", "091315.817500", "091317.817500", "091319.817500", "091321.817500", "091323.817500", "091325.817500", "091327.817500", "091329.817500", "091331.817500", "091333.817500", "091335.817500", "091337.817500", "091339.817500", "091341.817500"],
      "ContentTime": ["090745.996000", "090746.001000", "090746.003000", "090746.006000", "090746.009000", "090746.011000", "090746.014000", "090746.016000", "090746.019000", "090746.021000", "090746.024000", "090746.026000", "090746.029000", "090746.031000", "090746.034000", "090746.047000", "090746.049000", "090746.052000", "090746.054000", "090746.057000", "090746.060000", "090825.992000", "090825.995000", "090825.998000", "090826.002000", "090826.004000", "090826.007000", "090826.009000", "090826.019000", "090826.021000", "090826.024000", "090826.026000", "090826.029000", "090826.032000", "090826.034000", "090826.037000", "090826.039000", "090826.042000", "090826.044000", "090826.047000", "090826.049000", "090905.992000", "090905.995000", "090906.012000", "090906.015000", "090906.017000", "090906.020000", "090906.022000", "090906.025000", "090906.028000", "090906.030000", "090906.033000", "090906.035000", "090906.038000", "090906.041000", "090906.043000", "090906.046000", "090906.048000", "090906.051000", "090906.053000", "090906.056000", "090945.991000", "090945.994000", "090945.997000", "090946.001000", "090946.003000", "090946.006000", "090946.008000", "090946.011000", "090946.013000", "090946.016000", "090946.018000", "090946.021000", "090946.024000", "090946.026000", "090946.029000", "090946.031000", "090946.034000", "090946.037000", "090946.039000", "090946.042000", "091025.991000", "091025.994000", "091025.997000", "091026.000000", "091026.003000", "091026.006000", "091026.008000", "091026.011000", "091026.014000", "091026.016000", "091026.019000", "091026.021000", "091026.024000", "091026.026000", "091026.029000", "091026.032000", "091026.034000", "091026.037000", "091026.039000", "091026.042000", "091105.992000", "091105.995000", "091105.998000", "091106.002000", "091106.004000", "091106.007000", "091106.009000", "091106.012000", "091106.015000", "091106.017000", "091106.020000", "091106.022000", "091106.025000", "091106.028000", "091106.030000", "091106.033000", "091106.035000", "091106.038000", "091106.040000", "091106.043000", "091145.991000", "091145.994000", "091145.997000", "091146.001000", "091146.003000", "091146.006000", "091146.008000", "091146.011000", "091146.013000", "091146.016000", "091146.018000", "091146.021000", "091146.024000", "091146.026000", "091146.029000", "091146.031000", "091146.034000", "091146.037000", "091146.039000", "091146.042000", "091205.992000", "091205.994000", "091205.997000", "091206.001000", "091206.003000", "091206.006000", "091206.008000", "091206.011000", "091206.014000", "091206.016000", "091245.991000", "091245.994000", "091245.997000", "091246.001000", "091246.003000", "091246.006000", "091246.008000", "091246.011000", "091246.013000", "091246.016000", "091246.019000", "091246.021000", "091246.024000", "091246.026000", "091246.029000", "091246.031000", "091246.034000", "091246.037000", "091246.039000", "091246.042000", "091325.992000", "091325.995000", "091325.998000", "091326.002000", "091326.004000", "091326.007000", "091326.009000", "091326.012000", "091326.015000", "091326.017000", "091326.020000", "091326.022000", "091326.025000", "091326.027000", "091326.030000", "091326.033000", "091326.035000", "091326.038000", "091326.040000", "091326.043000", "091343.504000", "091343.507000", "091343.510000", "091343.516000", "091343.518000", "091343.521000", "091343.524000", "091343.531000", "091343.536000"],
      "InstanceCreationTime": ["090745.996000", "090746.001000", "090746.003000", "090746.006000", "090746.009000", "090746.011000", "090746.014000", "090746.016000", "090746.019000", "090746.021000", "090746.024000", "090746.026000", "090746.029000", "090746.031000", "090746.034000", "090746.047000", "090746.049000", "090746.052000", "090746.054000", "090746.057000", "090746.060000", "090825.992000", "090825.995000", "090825.998000", "090826.002000", "090826.004000", "090826.007000", "090826.009000", "090826.019000", "090826.021000", "090826.024000", "090826.026000", "090826.029000", "090826.032000", "090826.034000", "090826.037000", "090826.039000", "090826.042000", "090826.044000", "090826.047000", "090826.049000", "090905.992000", "090905.995000", "090906.012000", "090906.015000", "090906.017000", "090906.020000", "090906.022000", "090906.025000", "090906.028000", "090906.030000", "090906.033000", "090906.035000", "090906.038000", "090906.041000", "090906.043000", "090906.046000", "090906.048000", "090906.051000", "090906.053000", "090906.056000", "090945.991000", "090945.994000", "090945.997000", "090946.001000", "090946.003000", "090946.006000", "090946.008000", "090946.011000", "090946.013000", "090946.016000", "090946.018000", "090946.021000", "090946.024000", "090946.026000", "090946.029000", "090946.031000", "090946.034000", "090946.037000", "090946.039000", "090946.042000", "091025.991000", "091025.994000", "091025.997000", "091026.000000", "091026.003000", "091026.006000", "091026.008000", "091026.011000", "091026.014000", "091026.016000", "091026.019000", "091026.021000", "091026.024000", "091026.026000", "091026.029000", "091026.032000", "091026.034000", "091026.037000", "091026.039000", "091026.042000", "091105.992000", "091105.995000", "091105.998000", "091106.002000", "091106.004000", "091106.007000", "091106.009000", "091106.012000", "091106.015000", "091106.017000", "091106.020000", "091106.022000", "091106.025000", "091106.028000", "091106.030000", "091106.033000", "091106.035000", "091106.038000", "091106.040000", "091106.043000", "091145.991000", "091145.994000", "091145.997000", "091146.001000", "091146.003000", "091146.006000", "091146.008000", "091146.011000", "091146.013000", "091146.016000", "091146.018000", "091146.021000", "091146.024000", "091146.026000", "091146.029000", "091146.031000", "091146.034000", "091146.037000", "091146.039000", "091146.042000", "091205.992000", "091205.994000", "091205.997000", "091206.001000", "091206.003000", "091206.006000", "091206.008000", "091206.011000", "091206.014000", "091206.016000", "091245.991000", "091245.994000", "091245.997000", "091246.001000", "091246.003000", "091246.006000", "091246.008000", "091246.011000", "091246.013000", "091246.016000", "091246.019000", "091246.021000", "091246.024000", "091246.026000", "091246.029000", "091246.031000", "091246.034000", "091246.037000", "091246.039000", "091246.042000", "091325.992000", "091325.995000", "091325.998000", "091326.002000", "091326.004000", "091326.007000", "091326.009000", "091326.012000", "091326.015000", "091326.017000", "091326.020000", "091326.022000", "091326.025000", "091326.027000", "091326.030000", "091326.033000", "091326.035000", "091326.038000", "091326.040000", "091326.043000", "091343.504000", "091343.507000", "091343.510000", "091343.516000", "091343.518000", "091343.521000", "091343.524000", "091343.531000", "091343.536000"],
      "InstanceNumber": [1, 2, 3, 4, 5, 6, 7, 8, 9, 10, 11, 12, 13, 14, 15, 16, 17, 18, 19, 20, 21, 22, 23, 24, 25, 26, 27, 28, 29, 30, 31, 32, 33, 34, 35, 36, 37, 38, 39, 40, 41, 42, 43, 44, 45, 46, 47, 48, 49, 50, 51, 52, 53, 54, 55, 56, 57, 58, 59, 60, 61, 62, 63, 64, 65, 66, 67, 68, 69, 70, 71, 72, 73, 74, 75, 76, 77, 78, 79, 80, 81, 82, 83, 84, 85, 86, 87, 88, 89, 90, 91, 92, 93, 94, 95, 96, 97, 98, 99, 100, 101, 102, 103, 104, 105, 106, 107, 108, 109, 110, 111, 112, 113, 114, 115, 116, 117, 118, 119, 120, 121, 122, 123, 124, 125, 126, 127, 128, 129, 130, 131, 132, 133, 134, 135, 136, 137, 138, 139, 140, 141, 142, 143, 144, 145, 146, 147, 148, 149, 150, 151, 152, 153, 154, 155, 156, 157, 158, 159, 160, 161, 162, 163, 164, 165, 166, 167, 168, 169, 170, 171, 172, 173, 174, 175, 176, 177, 178, 179, 180, 181, 182, 183, 184, 185, 186, 187, 188, 189, 190, 191, 192, 193, 194, 195, 196, 197, 198, 199, 200],
      "LargestImagePixelValue": [2152, 2153, 2156, 2158, 2154, 2149, 2150, 2154, 2159, 2156, 2152, 2152, 2155, 2149, 2164, 2159, 2155, 2149, 2158, 2161, 2154, 2153, 2152, 2147, 2154, 2155, 2153, 2152, 2145, 2152, 2156, 2151, 2150, 2149, 2151, 2151, 2155, 2152, 2145, 2159, 2157, 2157, 2161, 2152, 2150, 2157, 2151, 2155, 2158, 2153, 2156, 2151, 2155, 2154, 2154, 2156, 2153, 2158, 2152, 2151, 2152, 2155, 2150, 2159, 2152, 2164, 2156, 2152, 2151, 2160, 2151, 2149, 2150, 2158, 2150, 2152, 2151, 2148, 2153, 2154, 2146, 2156, 2153, 2157, 2150, 2149, 2154, 2157, 2163, 2159, 2153, 2152, 2150, 2153, 2156, 2152, 2155, 2153, 2154, 2151, 2143, 2156, 2153, 2154, 2151, 2151, 2151, 2153, 2159, 2159, 2154, 2160, 2160, 2155, 2155, 2157, 2162, 2159, 2158, 2159, 2155, 2153, 2149, 2154, 2150, 2153, 2156, 2165, 2152, 2163, 2154, 2154, 2158, 2150, 2151, 2153, 2165, 2152, 2151, 2153, 2150, 2155, 2147, 2160, 2157, 2155, 2163, 2156, 2149, 2153, 2155, 2160, 2156, 2148, 2148, 2146, 2158, 2155, 2158, 2157, 2154, 2153, 2154, 2152, 2152, 2152, 2152, 2150, 2155, 2152, 2150, 2154, 2158, 2159, 2158, 2160, 2150, 2156, 2155, 2151, 2159, 2151, 2150, 2153, 2169, 2159, 2161, 2154, 2153, 2150, 2153, 2153, 2155, 2157, 2153, 2149, 2155, 2155, 2161, 2157],
      "WindowCenter": [1016.0, 1016.0, 1016.0, 1016.0, 1016.0, 1016.0, 1017.0, 1017.0, 1016.0, 1016.0, 1017.0, 1016.0, 1016.0, 1016.0, 1016.0, 1017.0, 1016.0, 1016.0, 1017.0, 1016.0, 1016.0, 1018.0, 1016.0, 1016.0, 1016.0, 1016.0, 1017.0, 1016.0, 1016.0, 1016.0, 1016.0, 1016.0, 1015.0, 1016.0, 1015.0, 1016.0, 1015.0, 1015.0, 1016.0, 1016.0, 1016.0, 1015.0, 1015.0, 1016.0, 1015.0, 1015.0, 1015.0, 1015.0, 1015.0, 1016.0, 1016.0, 1016.0, 1015.0, 1016.0, 1015.0, 1016.0, 1015.0, 1015.0, 1016.0, 1016.0, 1015.0, 1015.0, 1015.0, 1016.0, 1016.0, 1015.0, 1015.0, 1015.0, 1015.0, 1015.0, 1015.0, 1015.0, 1015.0, 1016.0, 1015.0, 1015.0, 1015.0, 1016.0, 1015.0, 1015.0, 1015.0, 1015.0, 1016.0, 1015.0, 1015.0, 1015.0, 1015.0, 1015.0, 1015.0, 1015.0, 1015.0, 1015.0, 1015.0, 1015.0, 1015.0, 1015.0, 1015.0, 1015.0, 1016.0, 1015.0, 1015.0, 1015.0, 1015.0, 1015.0, 1015.0, 1016.0, 1015.0, 1015.0, 1016.0, 1015.0, 1015.0, 1016.0, 1015.0, 1017.0, 1016.0, 1015.0, 1016.0, 1015.0, 1016.0, 1017.0, 1016.0, 1015.0, 1015.0, 1016.0, 1016.0, 1015.0, 1017.0, 1015.0, 1015.0, 1015.0, 1015.0, 1015.0, 1016.0, 1015.0, 1016.0, 1015.0, 1016.0, 1016.0, 1015.0, 1015.0, 1015.0, 1015.0, 1015.0, 1016.0, 1015.0, 1015.0, 1015.0, 1015.0, 1015.0, 1015.0, 1015.0, 1015.0, 1015.0, 1015.0, 1015.0, 1016.0, 1015.0, 1016.0, 1015.0, 1015.0, 1015.0, 1015.0, 1015.0, 1016.0, 1015.0, 1015.0, 1015.0, 1015.0, 1015.0, 1015.0, 1016.0, 1017.0, 1015.0, 1015.0, 1015.0, 1015.0, 1015.0, 1015.0, 1016.0, 1015.0, 1015.0, 1015.0, 1016.0, 1015.0, 1015.0, 1015.0, 1016.0, 1015.0, 1016.0, 1015.0, 1015.0, 1015.0, 1014.0, 1014.0, 1015.0, 1015.0, 1015.0, 1014.0, 1015.0, 1015.0],
      "WindowWidth": [2254.0, 2253.0, 2253.0, 2253.0, 2253.0, 2253.0, 2254.0, 2254.0, 2253.0, 2253.0, 2253.0, 2253.0, 2253.0, 2253.0, 2253.0, 2253.0, 2253.0, 2253.0, 2253.0, 2253.0, 2253.0, 2254.0, 2253.0, 2252.0, 2252.0, 2253.0, 2253.0, 2253.0, 2252.0, 2252.0, 2253.0, 2252.0, 2252.0, 2252.0, 2252.0, 2253.0, 2252.0, 2252.0, 2253.0, 2253.0, 2253.0, 2252.0, 2252.0, 2252.0, 2252.0, 2252.0, 2252.0, 2252.0, 2252.0, 2253.0, 2252.0, 2253.0, 2252.0, 2252.0, 2252.0, 2253.0, 2252.0, 2252.0, 2252.0, 2252.0, 2252.0, 2252.0, 2251.0, 2253.0, 2252.0, 2251.0, 2251.0, 2251.0, 2251.0, 2251.0, 2251.0, 2251.0, 2251.0, 2252.0, 2251.0, 2251.0, 2251.0, 2252.0, 2251.0, 2251.0, 2251.0, 2251.0, 2252.0, 2251.0, 2251.0, 2251.0, 2251.0, 2251.0, 2251.0, 2251.0, 2251.0, 2250.0, 2251.0, 2251.0, 2251.0, 2250.0, 2251.0, 2251.0, 2251.0, 2251.0, 2251.0, 2251.0, 2250.0, 2251.0, 2251.0, 2251.0, 2251.0, 2250.0, 2251.0, 2251.0, 2250.0, 2252.0, 2250.0, 2252.0, 2251.0, 2250.0, 2251.0, 2251.0, 2251.0, 2252.0, 2251.0, 2250.0, 2250.0, 2251.0, 2251.0, 2251.0, 2252.0, 2250.0, 2250.0, 2250.0, 2250.0, 2250.0, 2251.0, 2250.0, 2251.0, 2250.0, 2251.0, 2251.0, 2250.0, 2250.0, 2250.0, 2250.0, 2250.0, 2250.0, 2250.0, 2250.0, 2250.0, 2250.0, 2250.0, 2250.0, 2250.0, 2250.0, 2250.0, 2250.0, 2250.0, 2250.0, 2250.0, 2250.0, 2250.0, 2250.0, 2250.0, 2250.0, 2250.0, 2250.0, 2250.0, 2250.0, 2250.0, 2250.0, 2250.0, 2250.0, 2250.0, 2251.0, 2250.0, 2250.0, 2249.0, 2249.0, 2249.0, 2250.0, 2250.0, 2250.0, 2249.0, 2250.0, 2250.0, 2249.0, 2249.0, 2249.0, 2250.0, 2249.0, 2250.0, 2249.0, 2249.0, 2249.0, 2249.0, 2249.0, 2249.0, 2249.0, 2249.0, 2249.0, 2249.0, 2250.0]
    },
    "slices": {}
  }
}