{
  "AcquisitionMatrixPE": 80,
  "AcquisitionNumber": 1,
  "AcquisitionTime": "09:07:19.437500",
  "BandwidthPerPixelPhaseEncode": 25,
  "BaseResolution": 80,
  "BodyPartExamined": "BRAIN",
  "CoilCombinationMethod": "Sum of Squares",
  "ConsistencyInfo": "N4_VE11E_LATEST_20181129",
  "ConversionSoftware": "dcm2niix",
  "ConversionSoftwareVersion": "v1.0.20220720",
  "DerivedVendorReportedEchoSpacing": 0.0005,
  "DeviceSerialNumber": "66112",
  "DwellTime": 2.7e-06,
  "EchoTime": 0.03,
  "EchoTrainLength": 80,
  "EffectiveEchoSpacing": 0.0005,
  "FlipAngle": 77,
  "HeudiconvVersion": "0.13.1",
  "ImageOrientationPatientDICOM": [0.999932, 0.0116307, 0.00095295, -0.0113444, 0.949666, 0.313059],
  "ImageOrientationText": "Tra>Cor(18.2)>Sag(-0.2)",
  "ImageType": [
    "ORIGINAL",
    "PRIMARY",
    "M",
    "ND",
    "NORM",
    "MOSAIC"
],
  "ImagingFrequency": 123.259,
  "InPlanePhaseEncodingDirectionDICOM": "COL",
  "InstitutionAddress": "Maynard 3,Hanover,NH,US,03755",
  "InstitutionName": "Dartmouth College - PBS",
  "InstitutionalDepartmentName": "Department",
  "MRAcquisitionType": "2D",
  "MagneticFieldStrength": 3,
  "Manufacturer": "Siemens",
  "ManufacturersModelName": "Prisma",
  "MatrixCoilMode": "SENSE",
  "Modality": "MR",
  "NonlinearGradientCorrection": false,
  "PartialFourier": 1,
  "PatientPosition": "HFS",
  "PercentPhaseFOV": 100,
  "PercentSampling": 100,
  "PhaseEncodingDirection": "j-",
  "PhaseEncodingSteps": 80,
  "PhaseResolution": 1,
  "PixelBandwidth": 2315,
  "ProcedureStepDescription": "dbic^QA",
  "ProtocolName": "func-bold_fa-77",
  "PulseSequenceDetails": "%SiemensSeq%\\ep2d_bold",
  "ReceiveCoilActiveElements": "HC1-7;NC1,2",
  "ReceiveCoilName": "HeadNeck_64",
  "ReconMatrixPE": 80,
  "RepetitionTime": 2,
  "SAR": 0.0281768,
  "ScanOptions": "FS",
  "ScanningSequence": "EP",
  "SequenceName": "*epfid2d1_80",
  "SequenceVariant": "SK",
  "SeriesDescription": "func-bold_fa-77",
  "SeriesNumber": 6,
  "ShimSetting": [4217, -7729, -7496, -147, -166, -252, -81, 88],
  "SliceThickness": 3.5,
  "SliceTiming": [0.99, 0, 1.055, 0.065, 1.12, 0.13, 1.1875, 0.1975, 1.2525, 0.2625, 1.32, 0.33, 1.385, 0.395, 1.45, 0.46, 1.5175, 0.5275, 1.5825, 0.5925, 1.65, 0.66, 1.715, 0.725, 1.78, 0.79, 1.8475, 0.8575, 1.9125, 0.9225],
  "SoftwareVersions": "syngo MR E11",
  "SpacingBetweenSlices": 3.99,
  "StationName": "AWP66112",
  "TotalReadoutTime": 0.0395,
  "TxRefAmp": 214.267,
  "dcmmeta_affine": [
    [-2.99979567527771, -0.034033168107271194, -0.010917091742157936, 122.90496063232422],
    [-0.03489212319254875, 2.8489978313446045, 1.2490633726119995, -122.3853988647461],
    [0.0028588497079908848, -0.9391769170761108, 3.789435386657715, -33.36539077758789],
    [0.0, 0.0, 0.0, 1.0]
],
  "dcmmeta_reorient_transform": [
    [0.0, -1.0, 0.0, 79.0],
    [1.0, 0.0, 0.0, 0.0],
    [0.0, 0.0, 1.0, 0.0],
    [0.0, 0.0, 0.0, 1.0]
],
  "dcmmeta_shape": [80, 80, 30, 200],
  "dcmmeta_slice_dim": 2,
  "dcmmeta_version": 0.6,
  "global": {
    "const": {
      "AccessionNumber": "qa64",
      "AcquisitionMatrix": [80, 0, 0, 80],
      "AngioFlag": "N",
      "BitsAllocated": 16,
      "BitsStored": 12,
      "BodyPartExamined": "BRAIN",
      "Columns": 480,
      "EchoNumbers": 1,
      "EchoTime": 30.0,
      "EchoTrainLength": 80,
      "FlipAngle": 77.0,
      "HighBit": 11,
      "ImageOrientationPatient": [0.99993190694346, 0.01163070775411, 0.00095294992156, -0.0113443889533, 0.94966593582596, 0.31305896436788],
      "ImagePositionPatient": [-713.36885055555, -679.46341068631, -295.96751505597],
      "ImageType": [
        "ORIGINAL",
        "PRIMARY",
        "M",
        "ND",
        "NORM",
        "MOSAIC"
],
      "ImagedNucleus": "1H",
      "ImagingFrequency": 123.259115,
      "InPlanePhaseEncodingDirection": "COL",
      "MRAcquisitionType": "2D",
      "MagneticFieldStrength": 3.0,
      "Manufacturer": "SIEMENS",
      "ManufacturerModelName": "Prisma",
      "Modality": "MR",
      "NumberOfAverages": 1.0,
      "NumberOfPhaseEncodingSteps": 80,
      "PercentPhaseFieldOfView": 100.0,
      "PercentSampling": 100.0,
      "PerformedProcedureStepStartTime": "085553.818000",
      "PhotometricInterpretation": "MONOCHROME2",
      "PixelBandwidth": 2315.0,
      "PixelRepresentation": 0,
      "PixelSpacing": [3.0, 3.0],
      "ProtocolName": "func-bold_fa-77",
      "RepetitionTime": 2000.0,
      "Rows": 480,
      "SAR": 0.02817684054423,
      "SamplesPerPixel": 1,
      "ScanOptions": "FS",
      "ScanningSequence": "EP",
      "SequenceName": "*epfid2d1_80",
      "SequenceVariant": "SK",
      "SeriesDescription": "func-bold_fa-77",
      "SeriesNumber": 6,
      "SeriesTime": "090802.558000",
      "SliceLocation": -70.337064221324,
      "SliceThickness": 3.5,
      "SmallestImagePixelValue": 0,
      "SoftwareVersions": "syngo MR E11",
      "SpacingBetweenSlices": 3.9899999174795,
      "SpecificCharacterSet": "ISO_IR 100",
      "StudyID": "12",
      "StudyTime": "085553.719000",
      "TransmitCoilName": "Body",
      "VariableFlipAngleFlag": "N",
      "WindowCenterWidthExplanation": "Algo1"
    },
    "slices": {}
  },
  "time": {
    "samples": {
      "AcquisitionNumber": [1, 2, 3, 4, 5, 6, 7, 8, 9, 10, 11, 12, 13, 14, 15, 16, 17, 18, 19, 20, 21, 22, 23, 24, 25, 26, 27, 28, 29, 30, 31, 32, 33, 34, 35, 36, 37, 38, 39, 40, 41, 42, 43, 44, 45, 46, 47, 48, 49, 50, 51, 52, 53, 54, 55, 56, 57, 58, 59, 60, 61, 62, 63, 64, 65, 66, 67, 68, 69, 70, 71, 72, 73, 74, 75, 76, 77, 78, 79, 80, 81, 82, 83, 84, 85, 86, 87, 88, 89, 90, 91, 92, 93, 94, 95, 96, 97, 98, 99, 100, 101, 102, 103, 104, 105, 106, 107, 108, 109, 110, 111, 112, 113, 114, 115, 116, 117, 118, 119, 120, 121, 122, 123, 124, 125, 126, 127, 128, 129, 130, 131, 132, 133, 134, 135, 136, 137, 138, 139, 140, 141, 142, 143, 144, 145, 146, 147, 148, 149, 150, 151, 152, 153, 154, 155, 156, 157, 158, 159, 160, 161, 162, 163, 164, 165, 166, 167, 168, 169, 170, 171, 172, 173, 174, 175, 176, 177, 178, 179, 180, 181, 182, 183, 184, 185, 186, 187, 188, 189, 190, 191, 192, 193, 194, 195, 196, 197, 198, 199, 200],
      "AcquisitionTime": ["090719.437500", "090721.437500", "090723.437500", "090725.437500", "090727.437500", "090729.437500", "090731.437500", "090733.437500", "090735.437500", "090737.437500", "090739.437500", "090741.437500", "090743.437500", "090745.437500", "090747.437500", "090749.437500", "090751.437500", "090753.437500", "090755.437500", "090757.437500", "090759.437500", "090801.437500", "090803.437500", "090805.437500", "090807.437500", "090809.437500", "090811.437500", "090813.437500", "090815.437500", "090817.437500", "090819.437500", "090821.437500", "090823.437500", "090825.437500", "090827.437500", "090829.437500", "090831.437500", "090833.437500", "090835.437500", "090837.437500", "090839.437500", "090841.437500", "090843.437500", "090845.437500", "090847.437500", "090849.437500", "090851.437500", "090853.437500", "090855.437500", "090857.437500", "090859.437500", "090901.437500", "090903.437500", "090905.437500", "090907.437500", "090909.437500", "090911.437500", "090913.437500", "090915.437500", "090917.437500", "090919.437500", "090921.437500", "090923.437500", "090925.437500", "090927.437500", "090929.437500", "090931.437500", "090933.437500", "090935.437500", "090937.437500", "090939.437500", "090941.437500", "090943.437500", "090945.437500", "090947.437500", "090949.437500", "090951.437500", "090953.437500", "090955.437500", "090957.437500", "090959.437500", "091001.437500", "091003.437500", "091005.437500", "091007.437500", "091009.437500", "091011.437500", "091013.437500", "091015.437500", "091017.437500", "091019.437500", "091021.437500", "091023.437500", "091025.437500", "091027.437500", "091029.437500", "091031.437500", "091033.437500", "091035.437500", "091037.437500", "091039.437500", "091041.437500", "091043.437500", "091045.437500", "091047.437500", "091049.437500", "091051.437500", "091053.437500", "091055.437500", "091057.437500", "091059.437500", "091101.437500", "091103.437500", "091105.437500", "091107.437500", "091109.437500", "091111.437500", "091113.437500", "091115.437500", "091117.437500", "091119.437500", "091121.437500", "091123.437500", "091125.437500", "091127.437500", "091129.437500", "091131.437500", "091133.437500", "091135.437500", "091137.437500", "091139.437500", "091141.437500", "091143.437500", "091145.437500", "091147.437500", "091149.437500", "091151.437500", "091153.437500", "091155.437500", "091157.437500", "091159.437500", "091201.437500", "091203.437500", "091205.437500", "091207.437500", "091209.437500", "091211.437500", "091213.437500", "091215.437500", "091217.437500", "091219.437500", "091221.437500", "091223.437500", "091225.437500", "091227.437500", "091229.437500", "091231.437500", "091233.437500", "091235.437500", "091237.437500", "091239.437500", "091241.437500", "091243.437500", "091245.437500", "091247.437500", "091249.437500", "091251.437500", "091253.437500", "091255.437500", "091257.437500", "091259.437500", "091301.437500", "091303.437500", "091305.437500", "091307.437500", "091309.437500", "091311.437500", "091313.437500", "091315.437500", "091317.437500", "091319.437500", "091321.437500", "091323.437500", "091325.437500", "091327.437500", "091329.437500", "091331.437500", "091333.437500", "091335.437500", "091337.437500", "091339.437500", "091341.437500", "091343.437500", "091345.437500", "091347.437500", "091349.437500", "091351.437500", "091353.437500", "091355.437500", "091357.437500"],
      "ContentTime": ["090802.561000", "090802.564000", "090802.567000", "090802.569000", "090802.581000", "090802.583000", "090802.590000", "090802.592000", "090802.594000", "090802.597000", "090802.599000", "090802.601000", "090802.604000", "090802.611000", "090802.613000", "090802.615000", "090802.618000", "090802.620000", "090802.622000", "090802.625000", "090802.627000", "090842.557000", "090842.560000", "090842.562000", "090842.564000", "090842.567000", "090842.569000", "090842.571000", "090842.574000", "090842.576000", "090842.578000", "090842.581000", "090842.583000", "090842.594000", "090842.596000", "090842.598000", "090842.600000", "090842.603000", "090842.605000", "090842.607000", "090842.610000", "090922.556000", "090922.559000", "090922.561000", "090922.574000", "090922.576000", "090922.579000", "090922.581000", "090922.583000", "090922.585000", "090922.588000", "090922.590000", "090922.592000", "090922.595000", "090922.597000", "090922.599000", "090922.602000", "090922.604000", "090922.606000", "090922.609000", "090922.611000", "091002.556000", "091002.559000", "091002.561000", "091002.563000", "091002.566000", "091002.569000", "091002.571000", "091002.573000", "091002.576000", "091002.578000", "091002.580000", "091002.582000", "091002.585000", "091002.587000", "091002.590000", "091002.592000", "091002.594000", "091002.597000", "091002.599000", "091002.601000", "091042.556000", "091042.559000", "091042.561000", "091042.563000", "091042.566000", "091042.568000", "091042.571000", "091042.573000", "091042.575000", "091042.578000", "091042.580000", "091042.582000", "091042.585000", "091042.587000", "091042.589000", "091042.591000", "091042.594000", "091042.596000", "091042.599000", "091042.601000", "091102.557000", "091102.560000", "091102.562000", "091102.565000", "091102.567000", "091102.569000", "091102.572000", "091102.574000", "091102.576000", "091102.579000", "091142.556000", "091142.559000", "091142.561000", "091142.564000", "091142.566000", "091142.568000", "091142.571000", "091142.573000", "091142.575000", "091142.578000", "091142.580000", "091142.582000", "091142.585000", "091142.587000", "091142.589000", "091142.592000", "091142.594000", "091142.596000", "091142.608000", "091142.610000", "091222.556000", "091222.564000", "091222.567000", "091222.569000", "091222.571000", "091222.574000", "091222.576000", "091222.578000", "091222.581000", "091222.583000", "091222.585000", "091222.588000", "091222.590000", "091222.593000", "091222.595000", "091222.597000", "091222.599000", "091222.602000", "091222.604000", "091222.607000", "091302.556000", "091302.559000", "091302.561000", "091302.563000", "091302.566000", "091302.568000", "091302.571000", "091302.573000", "091302.575000", "091302.578000", "091302.580000", "091302.582000", "091302.585000", "091302.587000", "091302.589000", "091302.592000", "091302.594000", "091302.596000", "091302.599000", "091302.601000", "091342.557000", "091342.560000", "091342.563000", "091342.565000", "091342.567000", "091342.570000", "091342.572000", "091342.574000", "091342.577000", "091342.579000", "091342.581000", "091342.584000", "091342.586000", "091342.589000", "091342.591000", "091342.593000", "091342.595000", "091342.598000", "091342.600000", "091342.602000", "091359.363000", "091359.365000", "091359.368000", "091359.370000", "091359.373000", "091359.375000", "091359.377000", "091359.380000", "091359.382000"],
      "InstanceCreationTime": ["090802.561000", "090802.564000", "090802.567000", "090802.569000", "090802.581000", "090802.583000", "090802.590000", "090802.592000", "090802.594000", "090802.597000", "090802.599000", "090802.601000", "090802.604000", "090802.611000", "090802.613000", "090802.615000", "090802.618000", "090802.620000", "090802.622000", "090802.625000", "090802.627000", "090842.557000", "090842.560000", "090842.562000", "090842.564000", "090842.567000", "090842.569000", "090842.571000", "090842.574000", "090842.576000", "090842.578000", "090842.581000", "090842.583000", "090842.594000", "090842.596000", "090842.598000", "090842.600000", "090842.603000", "090842.605000", "090842.607000", "090842.610000", "090922.556000", "090922.559000", "090922.561000", "090922.574000", "090922.576000", "090922.579000", "090922.581000", "090922.583000", "090922.585000", "090922.588000", "090922.590000", "090922.592000", "090922.595000", "090922.597000", "090922.599000", "090922.602000", "090922.604000", "090922.606000", "090922.609000", "090922.611000", "091002.556000", "091002.559000", "091002.561000", "091002.563000", "091002.566000", "091002.569000", "091002.571000", "091002.573000", "091002.576000", "091002.578000", "091002.580000", "091002.582000", "091002.585000", "091002.587000", "091002.590000", "091002.592000", "091002.594000", "091002.597000", "091002.599000", "091002.601000", "091042.556000", "091042.559000", "091042.561000", "091042.563000", "091042.566000", "091042.568000", "091042.571000", "091042.573000", "091042.575000", "091042.578000", "091042.580000", "091042.582000", "091042.585000", "091042.587000", "091042.589000", "091042.591000", "091042.594000", "091042.596000", "091042.599000", "091042.601000", "091102.557000", "091102.560000", "091102.562000", "091102.565000", "091102.567000", "091102.569000", "091102.572000", "091102.574000", "091102.576000", "091102.579000", "091142.556000", "091142.559000", "091142.561000", "091142.564000", "091142.566000", "091142.568000", "091142.571000", "091142.573000", "091142.575000", "091142.578000", "091142.580000", "091142.582000", "091142.585000", "091142.587000", "091142.589000", "091142.592000", "091142.594000", "091142.596000", "091142.608000", "091142.610000", "091222.556000", "091222.564000", "091222.567000", "091222.569000", "091222.571000", "091222.574000", "091222.576000", "091222.578000", "091222.581000", "091222.583000", "091222.585000", "091222.588000", "091222.590000", "091222.593000", "091222.595000", "091222.597000", "091222.599000", "091222.602000", "091222.604000", "091222.607000", "091302.556000", "091302.559000", "091302.561000", "091302.563000", "091302.566000", "091302.568000", "091302.571000", "091302.573000", "091302.575000", "091302.578000", "091302.580000", "091302.582000", "091302.585000", "091302.587000", "091302.589000", "091302.592000", "091302.594000", "091302.596000", "091302.599000", "091302.601000", "091342.557000", "091342.560000", "091342.563000", "091342.565000", "091342.567000", "091342.570000", "091342.572000", "091342.574000", "091342.577000", "091342.579000", "091342.581000", "091342.584000", "091342.586000", "091342.589000", "091342.591000", "091342.593000", "091342.595000", "091342.598000", "091342.600000", "091342.602000", "091359.363000", "091359.365000", "091359.368000", "091359.370000", "091359.373000", "091359.375000", "091359.377000", "091359.380000", "091359.382000"],
      "InstanceNumber": [1, 2, 3, 4, 5, 6, 7, 8, 9, 10, 11, 12, 13, 14, 15, 16, 17, 18, 19, 20, 21, 22, 23, 24, 25, 26, 27, 28, 29, 30, 31, 32, 33, 34, 35, 36, 37, 38, 39, 40, 41, 42, 43, 44, 45, 46, 47, 48, 49, 50, 51, 52, 53, 54, 55, 56, 57, 58, 59, 60, 61, 62, 63, 64, 65, 66, 67, 68, 69, 70, 71, 72, 73, 74, 75, 76, 77, 78, 79, 80, 81, 82, 83, 84, 85, 86, 87, 88, 89, 90, 91, 92, 93, 94, 95, 96, 97, 98, 99, 100, 101, 102, 103, 104, 105, 106, 107, 108, 109, 110, 111, 112, 113, 114, 115, 116, 117, 118, 119, 120, 121, 122, 123, 124, 125, 126, 127, 128, 129, 130, 131, 132, 133, 134, 135, 136, 137, 138, 139, 140, 141, 142, 143, 144, 145, 146, 147, 148, 149, 150, 151, 152, 153, 154, 155, 156, 157, 158, 159, 160, 161, 162, 163, 164, 165, 166, 167, 168, 169, 170, 171, 172, 173, 174, 175, 176, 177, 178, 179, 180, 181, 182, 183, 184, 185, 186, 187, 188, 189, 190, 191, 192, 193, 194, 195, 196, 197, 198, 199, 200],
      "LargestImagePixelValue": [3975, 3978, 3976, 3979, 3973, 3975, 3977, 3973, 3972, 3974, 3974, 3975, 3973, 3975, 3966, 3965, 3972, 3970, 3972, 3973, 3972, 3971, 3974, 3974, 3973, 3973, 3974, 3968, 3973, 3972, 3968, 3972, 3977, 3973, 3973, 3968, 3973, 3972, 3974, 3975, 3976, 3973, 3973, 3972, 3970, 3975, 3972, 3970, 3970, 3967, 3971, 3967, 3966, 3968, 3971, 3971, 3971, 3970, 3971, 3973, 3971, 3970, 3967, 3972, 3975, 3971, 3973, 3971, 3975, 3972, 3971, 3972, 3976, 3969, 3970, 3968, 3968, 3971, 3971, 3968, 3970, 3964, 3968, 3970, 3967, 3972, 3973, 3969, 3965, 3971, 3969, 3967, 3965, 3966, 3963, 3969, 3969, 3968, 3967, 3968, 3967, 3968, 3967, 3965, 3966, 3971, 3970, 3968, 3967, 3967, 3973, 3969, 3961, 3967, 3968, 3963, 3965, 3966, 3971, 3967, 3964, 3967, 3963, 3964, 3961, 3967, 3963, 3966, 3965, 3967, 3964, 3965, 3965, 3967, 3965, 3962, 3971, 3964, 3965, 3963, 3965, 3966, 3962, 3962, 3963, 3963, 3961, 3967, 3963, 3963, 3965, 3963, 3957, 3959, 3961, 3965, 3964, 3961, 3962, 3964, 3964, 3962, 3963, 3961, 3963, 3959, 3961, 3960, 3961, 3963, 3963, 3965, 3958, 3962, 3960, 3961, 3961, 3961, 3960, 3964, 3965, 3961, 3958, 3963, 3961, 3962, 3959, 3962, 3957, 3961, 3956, 3962, 3960, 3960, 3957, 3958, 3957, 3961, 3961, 3960],
      "WindowCenter": [1421.0, 1421.0, 1421.0, 1421.0, 1422.0, 1421.0, 1421.0, 1422.0, 1422.0, 1422.0, 1421.0, 1421.0, 1421.0, 1421.0, 1421.0, 1421.0, 1421.0, 1421.0, 1420.0, 1420.0, 1420.0, 1420.0, 1421.0, 1420.0, 1420.0, 1420.0, 1421.0, 1421.0, 1421.0, 1420.0, 1421.0, 1421.0, 1420.0, 1420.0, 1420.0, 1420.0, 1420.0, 1420.0, 1420.0, 1420.0, 1420.0, 1420.0, 1420.0, 1420.0, 1420.0, 1420.0, 1420.0, 1420.0, 1420.0, 1419.0, 1419.0, 1420.0, 1419.0, 1419.0, 1419.0, 1420.0, 1419.0, 1419.0, 1420.0, 1419.0, 1419.0, 1419.0, 1420.0, 1418.0, 1418.0, 1419.0, 1419.0, 1418.0, 1419.0, 1419.0, 1419.0, 1418.0, 1419.0, 1419.0, 1419.0, 1419.0, 1419.0, 1419.0, 1419.0, 1418.0, 1418.0, 1419.0, 1418.0, 1418.0, 1418.0, 1418.0, 1419.0, 1418.0, 1419.0, 1418.0, 1418.0, 1418.0, 1418.0, 1417.0, 1418.0, 1418.0, 1418.0, 1418.0, 1418.0, 1418.0, 1418.0, 1418.0, 1418.0, 1418.0, 1417.0, 1418.0, 1418.0, 1417.0, 1417.0, 1418.0, 1417.0, 1417.0, 1418.0, 1417.0, 1417.0, 1417.0, 1417.0, 1417.0, 1417.0, 1418.0, 1418.0, 1417.0, 1417.0, 1417.0, 1417.0, 1417.0, 1417.0, 1417.0, 1417.0, 1417.0, 1417.0, 1416.0, 1417.0, 1417.0, 1417.0, 1417.0, 1417.0, 1417.0, 1417.0, 1417.0, 1416.0, 1416.0, 1417.0, 1416.0, 1417.0, 1417.0, 1416.0, 1416.0, 1417.0, 1417.0, 1416.0, 1416.0, 1417.0, 1416.0, 1416.0, 1416.0, 1416.0, 1416.0, 1416.0, 1416.0, 1416.0, 1416.0, 1416.0, 1416.0, 1416.0, 1416.0, 1416.0, 1416.0, 1415.0, 1416.0, 1415.0, 1415.0, 1416.0, 1415.0, 1416.0, 1416.0, 1416.0, 1415.0, 1415.0, 1416.0, 1415.0, 1415.0, 1416.0, 1416.0, 1416.0, 1415.0, 1415.0, 1415.0, 1415.0, 1415.0, 1415.0, 1415.0, 1416.0, 1416.0, 1415.0, 1416.0, 1415.0, 1415.0, 1415.0, 1415.0],
      "WindowWidth": [3363.0, 3363.0, 3363.0, 3363.0, 3362.0, 3363.0, 3363.0, 3362.0, 3362.0, 3362.0, 3362.0, 3362.0, 3362.0, 3362.0, 3362.0, 3362.0, 3362.0, 3362.0, 3362.0, 3362.0, 3362.0, 3362.0, 3362.0, 3362.0, 3362.0, 3362.0, 3361.0, 3361.0, 3361.0, 3361.0, 3361.0, 3361.0, 3361.0, 3361.0, 3362.0, 3361.0, 3361.0, 3361.0, 3361.0, 3361.0, 3361.0, 3361.0, 3361.0, 3361.0, 3361.0, 3361.0, 3361.0, 3361.0, 3361.0, 3361.0, 3361.0, 3361.0, 3361.0, 3361.0, 3361.0, 3360.0, 3361.0, 3361.0, 3360.0, 3361.0, 3361.0, 3361.0, 3360.0, 3361.0, 3361.0, 3360.0, 3360.0, 3361.0, 3360.0, 3360.0, 3360.0, 3361.0, 3360.0, 3360.0, 3360.0, 3360.0, 3360.0, 3360.0, 3360.0, 3360.0, 3360.0, 3360.0, 3360.0, 3360.0, 3360.0, 3360.0, 3360.0, 3360.0, 3359.0, 3360.0, 3360.0, 3359.0, 3359.0, 3360.0, 3359.0, 3359.0, 3359.0, 3359.0, 3359.0, 3359.0, 3359.0, 3359.0, 3359.0, 3359.0, 3359.0, 3359.0, 3359.0, 3359.0, 3359.0, 3359.0, 3359.0, 3359.0, 3359.0, 3359.0, 3359.0, 3359.0, 3359.0, 3359.0, 3359.0, 3359.0, 3359.0, 3359.0, 3359.0, 3358.0, 3358.0, 3358.0, 3358.0, 3358.0, 3358.0, 3358.0, 3358.0, 3359.0, 3358.0, 3358.0, 3358.0, 3358.0, 3358.0, 3358.0, 3358.0, 3358.0, 3358.0, 3358.0, 3358.0, 3358.0, 3358.0, 3358.0, 3358.0, 3358.0, 3358.0, 3358.0, 3358.0, 3358.0, 3357.0, 3358.0, 3358.0, 3357.0, 3357.0, 3357.0, 3357.0, 3357.0, 3357.0, 3357.0, 3357.0, 3357.0, 3357.0, 3357.0, 3357.0, 3357.0, 3357.0, 3357.0, 3357.0, 3357.0, 3357.0, 3357.0, 3357.0, 3357.0, 3357.0, 3357.0, 3357.0, 3357.0, 3357.0, 3357.0, 3357.0, 3357.0, 3357.0, 3357.0, 3357.0, 3357.0, 3357.0, 3357.0, 3357.0, 3356.0, 3356.0, 3356.0, 3356.0, 3356.0, 3356.0, 3356.0, 3356.0, 3356.0]
    },
    "slices": {}
  }
}