{
  "AcquisitionMatrixPE": 80,
  "AcquisitionNumber": 1,
  "AcquisitionTime": "09:14:6.485000",
  "BandwidthPerPixelPhaseEncode": 25,
  "BaseResolution": 80,
  "BodyPartExamined": "BRAIN",
  "CoilCombinationMethod": "Sum of Squares",
  "ConsistencyInfo": "N4_VE11E_LATEST_20181129",
  "ConversionSoftware": "dcm2niix",
  "ConversionSoftwareVersion": "v1.0.20220720",
  "DerivedVendorReportedEchoSpacing": 0.0005,
  "DeviceSerialNumber": "66112",
  "DwellTime": 2.7e-06,
  "EchoTime": 0.03,
  "EchoTrainLength": 80,
  "EffectiveEchoSpacing": 0.0005,
  "FlipAngle": 10,
  "HeudiconvVersion": "0.13.1",
  "ImageOrientationPatientDICOM": [0.999932, 0.0116307, 0.00095295, -0.0113444, 0.949666, 0.313059],
  "ImageOrientationText": "Tra>Cor(18.2)>Sag(-0.2)",
  "ImageType": [
    "ORIGINAL",
    "PRIMARY",
    "M",
    "ND",
    "NORM",
    "MOSAIC"
],
  "ImagingFrequency": 123.259,
  "InPlanePhaseEncodingDirectionDICOM": "COL",
  "InstitutionAddress": "Maynard 3,Hanover,NH,US,03755",
  "InstitutionName": "Dartmouth College - PBS",
  "InstitutionalDepartmentName": "Department",
  "MRAcquisitionType": "2D",
  "MagneticFieldStrength": 3,
  "Manufacturer": "Siemens",
  "ManufacturersModelName": "Prisma",
  "MatrixCoilMode": "SENSE",
  "Modality": "MR",
  "NonlinearGradientCorrection": false,
  "PartialFourier": 1,
  "PatientPosition": "HFS",
  "PercentPhaseFOV": 100,
  "PercentSampling": 100,
  "PhaseEncodingDirection": "j-",
  "PhaseEncodingSteps": 80,
  "PhaseResolution": 1,
  "PixelBandwidth": 2315,
  "ProcedureStepDescription": "dbic^QA",
  "ProtocolName": "func-bold_fa-10",
  "PulseSequenceDetails": "%SiemensSeq%\\ep2d_bold",
  "ReceiveCoilActiveElements": "HC1-7;NC1,2",
  "ReceiveCoilName": "HeadNeck_64",
  "ReconMatrixPE": 80,
  "RepetitionTime": 2,
  "SAR": 0.00755841,
  "ScanOptions": "FS",
  "ScanningSequence": "EP",
  "SequenceName": "*epfid2d1_80",
  "SequenceVariant": "SK",
  "SeriesDescription": "func-bold_fa-10",
  "SeriesNumber": 7,
  "ShimSetting": [4217, -7729, -7496, -147, -166, -252, -81, 88],
  "SliceThickness": 3.5,
  "SliceTiming": [0.99, 0, 1.055, 0.065, 1.1225, 0.1325, 1.1875, 0.1975, 1.2525, 0.265, 1.32, 0.33, 1.385, 0.395, 1.4525, 0.4625, 1.5175, 0.5275, 1.5825, 0.5925, 1.65, 0.66, 1.715, 0.725, 1.7825, 0.7925, 1.8475, 0.8575, 1.9125, 0.9225],
  "SoftwareVersions": "syngo MR E11",
  "SpacingBetweenSlices": 3.99,
  "StationName": "AWP66112",
  "TotalReadoutTime": 0.0395,
  "TxRefAmp": 214.267,
  "dcmmeta_affine": [
    [-2.99979567527771, -0.034033168107271194, -0.010917091742157936, 122.90496063232422],
    [-0.03489212319254875, 2.8489978313446045, 1.2490633726119995, -122.3853988647461],
    [0.0028588497079908848, -0.9391769170761108, 3.789435386657715, -33.36539077758789],
    [0.0, 0.0, 0.0, 1.0]
],
  "dcmmeta_reorient_transform": [
    [0.0, -1.0, 0.0, 79.0],
    [1.0, 0.0, 0.0, 0.0],
    [0.0, 0.0, 1.0, 0.0],
    [0.0, 0.0, 0.0, 1.0]
],
  "dcmmeta_shape": [80, 80, 30, 200],
  "dcmmeta_slice_dim": 2,
  "dcmmeta_version": 0.6,
  "global": {
    "const": {
      "AccessionNumber": "qa64",
      "AcquisitionMatrix": [80, 0, 0, 80],
      "AngioFlag": "N",
      "BitsAllocated": 16,
      "BitsStored": 12,
      "BodyPartExamined": "BRAIN",
      "Columns": 480,
      "EchoNumbers": 1,
      "EchoTime": 30.0,
      "EchoTrainLength": 80,
      "FlipAngle": 10.0,
      "HighBit": 11,
      "ImageOrientationPatient": [0.99993190694346, 0.01163070775411, 0.00095294992156, -0.0113443889533, 0.94966593582596, 0.31305896436788],
      "ImagePositionPatient": [-713.36885055555, -679.46341068631, -295.96751505597],
      "ImageType": [
        "ORIGINAL",
        "PRIMARY",
        "M",
        "ND",
        "NORM",
        "MOSAIC"
],
      "ImagedNucleus": "1H",
      "ImagingFrequency": 123.259115,
      "InPlanePhaseEncodingDirection": "COL",
      "MRAcquisitionType": "2D",
      "MagneticFieldStrength": 3.0,
      "Manufacturer": "SIEMENS",
      "ManufacturerModelName": "Prisma",
      "Modality": "MR",
      "NumberOfAverages": 1.0,
      "NumberOfPhaseEncodingSteps": 80,
      "PercentPhaseFieldOfView": 100.0,
      "PercentSampling": 100.0,
      "PerformedProcedureStepStartTime": "085553.818000",
      "PhotometricInterpretation": "MONOCHROME2",
      "PixelBandwidth": 2315.0,
      "PixelRepresentation": 0,
      "PixelSpacing": [3.0, 3.0],
      "ProtocolName": "func-bold_fa-10",
      "RepetitionTime": 2000.0,
      "Rows": 480,
      "SAR": 0.00755841224214,
      "SamplesPerPixel": 1,
      "ScanOptions": "FS",
      "ScanningSequence": "EP",
      "SequenceName": "*epfid2d1_80",
      "SequenceVariant": "SK",
      "SeriesDescription": "func-bold_fa-10",
      "SeriesNumber": 7,
      "SeriesTime": "091502.379000",
      "SliceLocation": -70.337064221324,
      "SliceThickness": 3.5,
      "SmallestImagePixelValue": 0,
      "SoftwareVersions": "syngo MR E11",
      "SpacingBetweenSlices": 3.9899999174795,
      "SpecificCharacterSet": "ISO_IR 100",
      "StudyID": "12",
      "StudyTime": "085553.719000",
      "TransmitCoilName": "Body",
      "VariableFlipAngleFlag": "N",
      "WindowCenterWidthExplanation": "Algo1"
    },
    "slices": {}
  },
  "time": {
    "samples": {
      "AcquisitionNumber": [1, 2, 3, 4, 5, 6, 7, 8, 9, 10, 11, 12, 13, 14, 15, 16, 17, 18, 19, 20, 21, 22, 23, 24, 25, 26, 27, 28, 29, 30, 31, 32, 33, 34, 35, 36, 37, 38, 39, 40, 41, 42, 43, 44, 45, 46, 47, 48, 49, 50, 51, 52, 53, 54, 55, 56, 57, 58, 59, 60, 61, 62, 63, 64, 65, 66, 67, 68, 69, 70, 71, 72, 73, 74, 75, 76, 77, 78, 79, 80, 81, 82, 83, 84, 85, 86, 87, 88, 89, 90, 91, 92, 93, 94, 95, 96, 97, 98, 99, 100, 101, 102, 103, 104, 105, 106, 107, 108, 109, 110, 111, 112, 113, 114, 115, 116, 117, 118, 119, 120, 121, 122, 123, 124, 125, 126, 127, 128, 129, 130, 131, 132, 133, 134, 135, 136, 137, 138, 139, 140, 141, 142, 143, 144, 145, 146, 147, 148, 149, 150, 151, 152, 153, 154, 155, 156, 157, 158, 159, 160, 161, 162, 163, 164, 165, 166, 167, 168, 169, 170, 171, 172, 173, 174, 175, 176, 177, 178, 179, 180, 181, 182, 183, 184, 185, 186, 187, 188, 189, 190, 191, 192, 193, 194, 195, 196, 197, 198, 199, 200],
      "AcquisitionTime": ["091406.485000", "091408.485000", "091410.485000", "091412.485000", "091414.485000", "091416.485000", "091418.485000", "091420.485000", "091422.485000", "091424.485000", "091426.485000", "091428.485000", "091430.485000", "091432.485000", "091434.485000", "091436.485000", "091438.485000", "091440.485000", "091442.485000", "091444.485000", "091446.485000", "091448.485000", "091450.485000", "091452.485000", "091454.485000", "091456.485000", "091458.485000", "091500.485000", "091502.485000", "091504.485000", "091506.485000", "091508.485000", "091510.485000", "091512.485000", "091514.485000", "091516.485000", "091518.485000", "091520.485000", "091522.485000", "091524.485000", "091526.485000", "091528.485000", "091530.485000", "091532.485000", "091534.485000", "091536.485000", "091538.485000", "091540.485000", "091542.485000", "091544.485000", "091546.485000", "091548.485000", "091550.485000", "091552.485000", "091554.485000", "091556.485000", "091558.485000", "091600.485000", "091602.485000", "091604.485000", "091606.485000", "091608.485000", "091610.485000", "091612.485000", "091614.485000", "091616.485000", "091618.485000", "091620.485000", "091622.485000", "091624.485000", "091626.485000", "091628.485000", "091630.485000", "091632.485000", "091634.485000", "091636.485000", "091638.485000", "091640.485000", "091642.485000", "091644.485000", "091646.485000", "091648.485000", "091650.485000", "091652.485000", "091654.485000", "091656.485000", "091658.485000", "091700.485000", "091702.485000", "091704.485000", "091706.485000", "091708.485000", "091710.485000", "091712.485000", "091714.485000", "091716.485000", "091718.485000", "091720.485000", "091722.485000", "091724.485000", "091726.485000", "091728.485000", "091730.485000", "091732.485000", "091734.485000", "091736.485000", "091738.485000", "091740.485000", "091742.485000", "091744.485000", "091746.485000", "091748.485000", "091750.485000", "091752.485000", "091754.485000", "091756.485000", "091758.485000", "091800.485000", "091802.485000", "091804.485000", "091806.485000", "091808.485000", "091810.485000", "091812.485000", "091814.485000", "091816.485000", "091818.485000", "091820.485000", "091822.485000", "091824.485000", "091826.485000", "091828.485000", "091830.485000", "091832.485000", "091834.485000", "091836.485000", "091838.485000", "091840.485000", "091842.485000", "091844.485000", "091846.485000", "091848.485000", "091850.485000", "091852.485000", "091854.485000", "091856.485000", "091858.485000", "091900.485000", "091902.485000", "091904.485000", "091906.485000", "091908.485000", "091910.485000", "091912.485000", "091914.485000", "091916.485000", "091918.485000", "091920.485000", "091922.485000", "091924.485000", "091926.485000", "091928.485000", "091930.485000", "091932.485000", "091934.485000", "091936.485000", "091938.485000", "091940.485000", "091942.485000", "091944.485000", "091946.485000", "091948.485000", "091950.485000", "091952.485000", "091954.485000", "091956.485000", "091958.485000", "092000.485000", "092002.485000", "092004.485000", "092006.485000", "092008.485000", "092010.485000", "092012.485000", "092014.485000", "092016.485000", "092018.485000", "092020.485000", "092022.485000", "092024.485000", "092026.485000", "092028.485000", "092030.485000", "092032.485000", "092034.485000", "092036.485000", "092038.485000", "092040.485000", "092042.485000", "092044.485000"],
      "ContentTime": ["091502.382000", "091502.385000", "091502.388000", "091502.398000", "091502.401000", "091502.403000", "091502.405000", "091502.408000", "091502.410000", "091502.412000", "091502.415000", "091502.417000", "091502.419000", "091502.422000", "091502.424000", "091502.426000", "091502.428000", "091502.431000", "091502.433000", "091502.435000", "091502.438000", "091502.440000", "091502.443000", "091502.445000", "091502.447000", "091502.450000", "091502.452000", "091502.454000", "091542.378000", "091542.381000", "091542.383000", "091542.385000", "091542.388000", "091542.390000", "091542.398000", "091542.400000", "091542.403000", "091542.405000", "091542.407000", "091542.410000", "091542.412000", "091542.414000", "091542.417000", "091542.419000", "091542.421000", "091542.424000", "091542.426000", "091542.428000", "091622.377000", "091622.380000", "091622.382000", "091622.385000", "091622.387000", "091622.389000", "091622.392000", "091622.394000", "091622.396000", "091622.399000", "091622.401000", "091622.410000", "091622.412000", "091622.415000", "091622.417000", "091622.419000", "091622.421000", "091622.424000", "091622.426000", "091622.428000", "091702.377000", "091702.380000", "091702.382000", "091702.384000", "091702.387000", "091702.389000", "091702.391000", "091702.394000", "091702.396000", "091702.398000", "091702.401000", "091702.403000", "091702.405000", "091702.407000", "091702.410000", "091702.412000", "091702.420000", "091702.423000", "091702.425000", "091702.427000", "091742.377000", "091742.380000", "091742.382000", "091742.384000", "091742.387000", "091742.389000", "091742.392000", "091742.394000", "091742.396000", "091742.399000", "091742.401000", "091742.403000", "091742.406000", "091742.408000", "091742.410000", "091742.412000", "091742.415000", "091742.417000", "091742.419000", "091742.422000", "091822.378000", "091822.381000", "091822.383000", "091822.385000", "091822.388000", "091822.390000", "091822.393000", "091822.395000", "091822.397000", "091822.399000", "091822.402000", "091822.404000", "091822.407000", "091822.409000", "091822.411000", "091822.413000", "091822.416000", "091822.418000", "091822.420000", "091822.422000", "091902.377000", "091902.380000", "091902.382000", "091902.384000", "091902.387000", "091902.389000", "091902.391000", "091902.394000", "091902.396000", "091902.398000", "091902.401000", "091902.403000", "091902.405000", "091902.407000", "091902.410000", "091902.412000", "091902.414000", "091902.417000", "091902.419000", "091902.421000", "091942.377000", "091942.380000", "091942.382000", "091942.385000", "091942.387000", "091942.389000", "091942.392000", "091942.394000", "091942.396000", "091942.399000", "091942.401000", "091942.403000", "091942.406000", "091942.408000", "091942.410000", "091942.412000", "091942.415000", "091942.417000", "091942.419000", "091942.421000", "092022.378000", "092022.381000", "092022.383000", "092022.385000", "092022.388000", "092022.390000", "092022.392000", "092022.394000", "092022.397000", "092022.399000", "092022.401000", "092022.404000", "092022.406000", "092022.408000", "092022.410000", "092022.413000", "092022.415000", "092022.417000", "092022.420000", "092022.422000", "092042.378000", "092042.381000", "092042.383000", "092042.385000", "092042.388000", "092042.390000", "092042.392000", "092042.395000", "092042.397000", "092042.399000", "092046.008000", "092046.010000"],
      "InstanceCreationTime": ["091502.382000", "091502.385000", "091502.388000", "091502.398000", "091502.401000", "091502.403000", "091502.405000", "091502.408000", "091502.410000", "091502.412000", "091502.415000", "091502.417000", "091502.419000", "091502.422000", "091502.424000", "091502.426000", "091502.428000", "091502.431000", "091502.433000", "091502.435000", "091502.438000", "091502.440000", "091502.443000", "091502.445000", "091502.447000", "091502.450000", "091502.452000", "091502.454000", "091542.378000", "091542.381000", "091542.383000", "091542.385000", "091542.388000", "091542.390000", "091542.398000", "091542.400000", "091542.403000", "091542.405000", "091542.407000", "091542.410000", "091542.412000", "091542.414000", "091542.417000", "091542.419000", "091542.421000", "091542.424000", "091542.426000", "091542.428000", "091622.377000", "091622.380000", "091622.382000", "091622.385000", "091622.387000", "091622.389000", "091622.392000", "091622.394000", "091622.396000", "091622.399000", "091622.401000", "091622.410000", "091622.412000", "091622.415000", "091622.417000", "091622.419000", "091622.421000", "091622.424000", "091622.426000", "091622.428000", "091702.377000", "091702.380000", "091702.382000", "091702.384000", "091702.387000", "091702.389000", "091702.391000", "091702.394000", "091702.396000", "091702.398000", "091702.401000", "091702.403000", "091702.405000", "091702.407000", "091702.410000", "091702.412000", "091702.420000", "091702.423000", "091702.425000", "091702.427000", "091742.377000", "091742.380000", "091742.382000", "091742.384000", "091742.387000", "091742.389000", "091742.392000", "091742.394000", "091742.396000", "091742.399000", "091742.401000", "091742.403000", "091742.406000", "091742.408000", "091742.410000", "091742.412000", "091742.415000", "091742.417000", "091742.419000", "091742.422000", "091822.378000", "091822.381000", "091822.383000", "091822.385000", "091822.388000", "091822.390000", "091822.393000", "091822.395000", "091822.397000", "091822.399000", "091822.402000", "091822.404000", "091822.407000", "091822.409000", "091822.411000", "091822.413000", "091822.416000", "091822.418000", "091822.420000", "091822.422000", "091902.377000", "091902.380000", "091902.382000", "091902.384000", "091902.387000", "091902.389000", "091902.391000", "091902.394000", "091902.396000", "091902.398000", "091902.401000", "091902.403000", "091902.405000", "091902.407000", "091902.410000", "091902.412000", "091902.414000", "091902.417000", "091902.419000", "091902.421000", "091942.377000", "091942.380000", "091942.382000", "091942.385000", "091942.387000", "091942.389000", "091942.392000", "091942.394000", "091942.396000", "091942.399000", "091942.401000", "091942.403000", "091942.406000", "091942.408000", "091942.410000", "091942.412000", "091942.415000", "091942.417000", "091942.419000", "091942.421000", "092022.378000", "092022.381000", "092022.383000", "092022.385000", "092022.388000", "092022.390000", "092022.392000", "092022.394000", "092022.397000", "092022.399000", "092022.401000", "092022.404000", "092022.406000", "092022.408000", "092022.410000", "092022.413000", "092022.415000", "092022.417000", "092022.420000", "092022.422000", "092042.378000", "092042.381000", "092042.383000", "092042.385000", "092042.388000", "092042.390000", "092042.392000", "092042.395000", "092042.397000", "092042.399000", "092046.008000", "092046.010000"],
      "InstanceNumber": [1, 2, 3, 4, 5, 6, 7, 8, 9, 10, 11, 12, 13, 14, 15, 16, 17, 18, 19, 20, 21, 22, 23, 24, 25, 26, 27, 28, 29, 30, 31, 32, 33, 34, 35, 36, 37, 38, 39, 40, 41, 42, 43, 44, 45, 46, 47, 48, 49, 50, 51, 52, 53, 54, 55, 56, 57, 58, 59, 60, 61, 62, 63, 64, 65, 66, 67, 68, 69, 70, 71, 72, 73, 74, 75, 76, 77, 78, 79, 80, 81, 82, 83, 84, 85, 86, 87, 88, 89, 90, 91, 92, 93, 94, 95, 96, 97, 98, 99, 100, 101, 102, 103, 104, 105, 106, 107, 108, 109, 110, 111, 112, 113, 114, 115, 116, 117, 118, 119, 120, 121, 122, 123, 124, 125, 126, 127, 128, 129, 130, 131, 132, 133, 134, 135, 136, 137, 138, 139, 140, 141, 142, 143, 144, 145, 146, 147, 148, 149, 150, 151, 152, 153, 154, 155, 156, 157, 158, 159, 160, 161, 162, 163, 164, 165, 166, 167, 168, 169, 170, 171, 172, 173, 174, 175, 176, 177, 178, 179, 180, 181, 182, 183, 184, 185, 186, 187, 188, 189, 190, 191, 192, 193, 194, 195, 196, 197, 198, 199, 200],
      "LargestImagePixelValue": [664, 663, 665, 660, 664, 664, 663, 665, 668, 665, 669, 673, 667, 669, 670, 666, 666, 666, 666, 667, 665, 667, 662, 662, 663, 669, 661, 664, 666, 661, 667, 669, 670, 668, 667, 668, 668, 665, 665, 665, 662, 666, 664, 667, 666, 664, 662, 665, 668, 663, 666, 665, 664, 669, 667, 666, 667, 667, 667, 667, 667, 666, 666, 664, 661, 666, 661, 663, 665, 662, 663, 663, 664, 664, 669, 663, 666, 663, 663, 668, 664, 665, 662, 662, 666, 662, 662, 664, 665, 660, 664, 662, 666, 665, 665, 667, 666, 664, 667, 670, 667, 666, 666, 665, 666, 661, 665, 661, 658, 661, 663, 662, 664, 663, 665, 667, 663, 661, 666, 666, 663, 666, 665, 663, 663, 661, 663, 663, 663, 666, 662, 664, 660, 662, 661, 664, 662, 666, 663, 666, 663, 664, 662, 667, 665, 666, 663, 664, 662, 662, 663, 661, 664, 663, 661, 663, 661, 662, 662, 662, 666, 663, 664, 667, 664, 663, 663, 664, 666, 665, 666, 659, 663, 661, 664, 664, 659, 663, 663, 667, 662, 667, 664, 665, 663, 667, 663, 664, 661, 660, 665, 662, 664, 663, 662, 658, 662, 663, 659, 661],
      "WindowCenter": [463.0, 463.0, 463.0, 463.0, 462.0, 463.0, 462.0, 462.0, 462.0, 462.0, 462.0, 463.0, 462.0, 462.0, 463.0, 462.0, 462.0, 462.0, 463.0, 462.0, 462.0, 463.0, 462.0, 462.0, 462.0, 462.0, 462.0, 462.0, 462.0, 462.0, 462.0, 462.0, 463.0, 462.0, 462.0, 462.0, 462.0, 462.0, 462.0, 462.0, 462.0, 462.0, 462.0, 462.0, 462.0, 462.0, 462.0, 462.0, 462.0, 462.0, 462.0, 462.0, 462.0, 462.0, 462.0, 462.0, 462.0, 462.0, 462.0, 462.0, 462.0, 462.0, 462.0, 462.0, 462.0, 462.0, 462.0, 462.0, 462.0, 462.0, 462.0, 462.0, 462.0, 462.0, 462.0, 462.0, 462.0, 462.0, 462.0, 462.0, 462.0, 462.0, 462.0, 462.0, 462.0, 462.0, 462.0, 462.0, 462.0, 462.0, 462.0, 462.0, 461.0, 461.0, 461.0, 461.0, 461.0, 462.0, 461.0, 462.0, 461.0, 461.0, 462.0, 462.0, 462.0, 462.0, 462.0, 461.0, 461.0, 461.0, 461.0, 462.0, 461.0, 462.0, 461.0, 461.0, 462.0, 461.0, 461.0, 461.0, 461.0, 461.0, 461.0, 461.0, 461.0, 461.0, 461.0, 461.0, 461.0, 461.0, 461.0, 461.0, 461.0, 461.0, 461.0, 461.0, 461.0, 461.0, 461.0, 461.0, 461.0, 461.0, 461.0, 461.0, 461.0, 461.0, 461.0, 461.0, 461.0, 462.0, 461.0, 461.0, 461.0, 461.0, 461.0, 461.0, 461.0, 461.0, 461.0, 461.0, 461.0, 461.0, 461.0, 461.0, 461.0, 461.0, 461.0, 461.0, 461.0, 461.0, 461.0, 461.0, 461.0, 461.0, 461.0, 461.0, 461.0, 461.0, 461.0, 461.0, 461.0, 461.0, 461.0, 461.0, 461.0, 461.0, 461.0, 461.0, 461.0, 461.0, 461.0, 461.0, 461.0, 461.0, 461.0, 461.0, 461.0, 461.0, 461.0, 461.0],
      "WindowWidth": [961.0, 961.0, 961.0, 961.0, 960.0, 961.0, 960.0, 960.0, 960.0, 960.0, 960.0, 961.0, 960.0, 960.0, 961.0, 960.0, 960.0, 960.0, 961.0, 960.0, 960.0, 961.0, 960.0, 960.0, 960.0, 960.0, 960.0, 960.0, 960.0, 960.0, 960.0, 959.0, 961.0, 959.0, 960.0, 959.0, 960.0, 960.0, 960.0, 960.0, 960.0, 960.0, 960.0, 960.0, 960.0, 960.0, 960.0, 960.0, 960.0, 959.0, 959.0, 959.0, 959.0, 959.0, 959.0, 959.0, 959.0, 959.0, 959.0, 959.0, 959.0, 960.0, 960.0, 960.0, 960.0, 960.0, 960.0, 959.0, 959.0, 959.0, 959.0, 959.0, 959.0, 959.0, 959.0, 959.0, 959.0, 959.0, 959.0, 959.0, 959.0, 959.0, 959.0, 959.0, 959.0, 959.0, 959.0, 959.0, 959.0, 959.0, 959.0, 959.0, 958.0, 958.0, 958.0, 958.0, 958.0, 959.0, 958.0, 960.0, 958.0, 958.0, 959.0, 959.0, 959.0, 959.0, 959.0, 958.0, 959.0, 958.0, 958.0, 959.0, 958.0, 959.0, 958.0, 958.0, 959.0, 958.0, 958.0, 958.0, 958.0, 958.0, 958.0, 958.0, 958.0, 958.0, 958.0, 958.0, 958.0, 958.0, 958.0, 958.0, 958.0, 958.0, 958.0, 958.0, 958.0, 958.0, 958.0, 958.0, 958.0, 958.0, 958.0, 958.0, 958.0, 958.0, 958.0, 958.0, 958.0, 959.0, 958.0, 958.0, 958.0, 958.0, 958.0, 958.0, 958.0, 958.0, 958.0, 958.0, 958.0, 958.0, 958.0, 958.0, 958.0, 958.0, 958.0, 958.0, 958.0, 958.0, 958.0, 958.0, 958.0, 958.0, 958.0, 958.0, 958.0, 958.0, 957.0, 957.0, 957.0, 958.0, 958.0, 958.0, 957.0, 957.0, 958.0, 957.0, 958.0, 958.0, 958.0, 958.0, 958.0, 958.0, 958.0, 958.0, 958.0, 957.0, 958.0, 958.0]
    },
    "slices": {}
  }
}