{
  "AcquisitionMatrixPE": 122,
  "AcquisitionNumber": 1,
  "AcquisitionTime": "09:23:42.475000",
  "BandwidthPerPixelPhaseEncode": 27.785,
  "BaseResolution": 122,
  "BodyPartExamined": "BRAIN",
  "CoilCombinationMethod": "Adaptive Combine",
  "ConsistencyInfo": "N4_VE11C_LATEST_20160120",
  "ConversionSoftware": "dcm2niix",
  "ConversionSoftwareVersion": "v1.0.20220720",
  "DerivedVendorReportedEchoSpacing": 0.000590011,
  "DeviceSerialNumber": "66112",
  "DiffusionScheme": "Monopolar",
  "DwellTime": 2e-06,
  "EchoTime": 0.068,
  "EchoTrainLength": 61,
  "EffectiveEchoSpacing": 0.000295005,
  "FlipAngle": 90,
  "HeudiconvVersion": "0.13.1",
  "ImageOrientationPatientDICOM": [0.980952, 0.1938, 0.0132207, -0.188191, 0.931287, 0.31191],
  "ImageOrientationText": "Tra>Cor(18.0)>Sag(-2.8)",
  "ImageType": [
    "ORIGINAL",
    "PRIMARY",
    "DIFFUSION",
    "NONE",
    "ND",
    "NORM"
],
  "ImagingFrequency": 123.252,
  "InPlanePhaseEncodingDirectionDICOM": "COL",
  "InstitutionAddress": "Maynard 3,Hanover,NH,US,03755",
  "InstitutionName": "Dartmouth College - PBS",
  "InstitutionalDepartmentName": "Department",
  "MRAcquisitionType": "2D",
  "MagneticFieldStrength": 3,
  "Manufacturer": "Siemens",
  "ManufacturersModelName": "Prisma",
  "Modality": "MR",
  "MultibandAccelerationFactor": 4,
  "NonlinearGradientCorrection": false,
  "ParallelReductionFactorInPlane": 2,
  "PartialFourier": 1,
  "PatientPosition": "HFS",
  "PercentPhaseFOV": 100,
  "PercentSampling": 100,
  "PhaseEncodingDirection": "j-",
  "PhaseEncodingSteps": 122,
  "PhaseResolution": 1,
  "PixelBandwidth": 2050,
  "ProcedureStepDescription": "dbic^QA",
  "ProtocolName": "dwi_acq-DTI-30-p2-s4",
  "PulseSequenceDetails": "%SiemensSeq%\\ep2d_diff",
  "ReceiveCoilActiveElements": "HEA;HEP",
  "ReceiveCoilName": "Head_32",
  "ReconMatrixPE": 122,
  "RefLinesPE": 38,
  "RepetitionTime": 3.6,
  "SAR": 0.161784,
  "ScanOptions": "FS",
  "ScanningSequence": "EP",
  "SequenceName": "*ep_b0",
  "SequenceVariant": "SK\\SP",
  "SeriesDescription": "dwi_acq-DTI-30-p2-s4",
  "SeriesNumber": 13,
  "ShimSetting": [4151, -7698, -7516, 263, -39, -164, -33, 57],
  "SliceThickness": 2,
  "SliceTiming": [2.58594, 0, 1.78906, 0.19531, 1.98438, 0.39844, 2.1875, 0.59375, 2.38281, 0.99219, 2.78125, 1.19531, 2.98438, 1.39062, 3.17969, 1.58594, 3.38281, 0.79688, 2.58594, 0, 1.78906, 0.19531, 1.98438, 0.39844, 2.1875, 0.59375, 2.38281, 0.99219, 2.78125, 1.19531, 2.98438, 1.39062, 3.17969, 1.58594, 3.38281, 0.79688, 2.58594, 0, 1.78906, 0.19531, 1.98438, 0.39844, 2.1875, 0.59375, 2.38281, 0.99219, 2.78125, 1.19531, 2.98438, 1.39062, 3.17969, 1.58594, 3.38281, 0.79688, 2.58594, 0, 1.78906, 0.19531, 1.98438, 0.39844, 2.1875, 0.59375, 2.38281, 0.99219, 2.78125, 1.19531, 2.98438, 1.39062, 3.17969, 1.58594, 3.38281, 0.79688],
  "SoftwareVersions": "syngo MR E11",
  "SpacingBetweenSlices": 2,
  "SpoilingState": true,
  "StationName": "AWP66112",
  "TotalReadoutTime": 0.0356956,
  "TxRefAmp": 227.158,
  "dcmmeta_affine": [
    [-1.9297417402267456, -0.37021273374557495, -0.09627151489257812, 145.1071319580078],
    [-0.3812451958656311, 1.832040548324585, 0.616912841796875, -92.6579360961914],
    [0.026008011773228645, -0.6135940551757812, 1.9000396728515625, -37.053565979003906],
    [0.0, 0.0, 0.0, 1.0]
],
  "dcmmeta_reorient_transform": [
    [0.0, -1.0, 0.0, 121.0],
    [1.0, 0.0, 0.0, 0.0],
    [0.0, 0.0, -1.0, 71.0],
    [0.0, 0.0, 0.0, 1.0]
],
  "dcmmeta_shape": [122, 122, 72, 31],
  "dcmmeta_slice_dim": 2,
  "dcmmeta_version": 0.6,
  "global": {
    "const": {
      "AccessionNumber": "qa",
      "AcquisitionMatrix": [122, 0, 0, 122],
      "AngioFlag": "N",
      "BitsAllocated": 16,
      "BitsStored": 12,
      "BodyPartExamined": "BRAIN",
      "Columns": 122,
      "EchoNumbers": 1,
      "EchoTime": 68.0,
      "EchoTrainLength": 61,
      "FlipAngle": 90.0,
      "HighBit": 11,
      "ImageOrientationPatient": [0.98095204511466, 0.19379963170318, 0.01322073890042, -0.1881914728372, 0.93128724753505, 0.31191029500479],
      "ImageType": [
        "ORIGINAL",
        "PRIMARY",
        "DIFFUSION",
        "NONE",
        "ND",
        "NORM"
],
      "ImagedNucleus": "1H",
      "ImagingFrequency": 123.252422,
      "InPlanePhaseEncodingDirection": "COL",
      "MRAcquisitionType": "2D",
      "MagneticFieldStrength": 3.0,
      "Manufacturer": "SIEMENS",
      "ManufacturerModelName": "Prisma",
      "Modality": "MR",
      "NumberOfAverages": 1.0,
      "NumberOfPhaseEncodingSteps": 122,
      "PercentPhaseFieldOfView": 100.0,
      "PercentSampling": 100.0,
      "PerformedProcedureStepStartTime": "084632.806000",
      "PhotometricInterpretation": "MONOCHROME2",
      "PixelBandwidth": 2050.0,
      "PixelRepresentation": 0,
      "PixelSpacing": [1.9672131538391, 1.9672131538391],
      "ProtocolName": "dwi_acq-DTI-30-p2-s4",
      "RepetitionTime": 3600.0,
      "Rows": 122,
      "SAR": 0.16178388496332,
      "SamplesPerPixel": 1,
      "ScanOptions": "FS",
      "ScanningSequence": "EP",
      "SequenceVariant": [
        "SK",
        "SP"
],
      "SeriesDescription": "dwi_acq-DTI-30-p2-s4",
      "SeriesNumber": 13,
      "SeriesTime": "092347.500000",
      "SliceThickness": 2.0,
      "SmallestImagePixelValue": 0,
      "SoftwareVersions": "syngo MR E11",
      "SpacingBetweenSlices": 2.0,
      "SpecificCharacterSet": "ISO_IR 100",
      "StudyID": "13",
      "StudyTime": "084632.728000",
      "TransmitCoilName": "Body",
      "VariableFlipAngleFlag": "N",
      "WindowCenterWidthExplanation": "Algo1",
      "dBdt": 0.0},
    "slices": {
      "AcquisitionTime": ["092342.475000", "092339.890000", "092341.680000", "092340.087500", "092341.877500", "092340.287500", "092342.077500", "092340.487500", "092342.275000", "092340.885000", "092342.675000", "092341.082500", "092342.872500", "092341.282500", "092343.072500", "092341.480000", "092343.270000", "092340.685000", "092342.475000", "092339.890000", "092341.680000", "092340.087500", "092341.877500", "092340.287500", "092342.077500", "092340.487500", "092342.275000", "092340.885000", "092342.675000", "092341.082500", "092342.872500", "092341.282500", "092343.072500", "092341.480000", "092343.270000", "092340.685000", "092342.475000", "092339.890000", "092341.680000", "092340.087500", "092341.877500", "092340.287500", "092342.077500", "092340.487500", "092342.275000", "092340.885000", "092342.675000", "092341.082500", "092342.872500", "092341.282500", "092343.072500", "092341.480000", "092343.270000", "092340.685000", "092342.475000", "092339.890000", "092341.680000", "092340.087500", "092341.877500", "092340.287500", "092342.077500", "092340.487500", "092342.275000", "092340.885000", "092342.675000", "092341.082500", "092342.872500", "092341.282500", "092343.072500", "092341.480000", "092343.270000", "092340.685000", "092346.075000", "092343.490000", "092345.280000", "092343.687500", "092345.477500", "092343.887500", "092345.677500", "092344.087500", "092345.875000", "092344.485000", "092346.275000", "092344.682500", "092346.472500", "092344.882500", "092346.672500", "092345.080000", "092346.870000", "092344.285000", "092346.075000", "092343.490000", "092345.280000", "092343.687500", "092345.477500", "092343.887500", "092345.677500", "092344.087500", "092345.875000", "092344.485000", "092346.275000", "092344.682500", "092346.472500", "092344.882500", "092346.672500", "092345.080000", "092346.870000", "092344.285000", "092346.075000", "092343.490000", "092345.280000", "092343.687500", "092345.477500", "092343.887500", "092345.677500", "092344.087500", "092345.875000", "092344.485000", "092346.275000", "092344.682500", "092346.472500", "092344.882500", "092346.672500", "092345.080000", "092346.870000", "092344.285000", "092346.075000", "092343.490000", "092345.280000", "092343.687500", "092345.477500", "092343.887500", "092345.677500", "092344.087500", "092345.875000", "092344.485000", "092346.275000", "092344.682500", "092346.472500", "092344.882500", "092346.672500", "092345.080000", "092346.870000", "092344.285000", "092349.675000", "092347.090000", "092348.880000", "092347.287500", "092349.077500", "092347.487500", "092349.277500", "092347.687500", "092349.475000", "092348.085000", "092349.875000", "092348.282500", "092350.072500", "092348.482500", "092350.272500", "092348.680000", "092350.470000", "092347.885000", "092349.675000", "092347.090000", "092348.880000", "092347.287500", "092349.077500", "092347.487500", "092349.277500", "092347.687500", "092349.475000", "092348.085000", "092349.875000", "092348.282500", "092350.072500", "092348.482500", "092350.272500", "092348.680000", "092350.470000", "092347.885000", "092349.675000", "092347.090000", "092348.880000", "092347.287500", "092349.077500", "092347.487500", "092349.277500", "092347.687500", "092349.475000", "092348.085000", "092349.875000", "092348.282500", "092350.072500", "092348.482500", "092350.272500", "092348.680000", "092350.470000", "092347.885000", "092349.675000", "092347.090000", "092348.880000", "092347.287500", "092349.077500", "092347.487500", "092349.277500", "092347.687500", "092349.475000", "092348.085000", "092349.875000", "092348.282500", "092350.072500", "092348.482500", "092350.272500", "092348.680000", "092350.470000", "092347.885000", "092353.275000", "092350.690000", "092352.480000", "092350.887500", "092352.677500", "092351.087500", "092352.877500", "092351.287500", "092353.075000", "092351.685000", "092353.475000", "092351.882500", "092353.672500", "092352.082500", "092353.872500", "092352.280000", "092354.070000", "092351.485000", "092353.275000", "092350.690000", "092352.480000", "092350.887500", "092352.677500", "092351.087500", "092352.877500", "092351.287500", "092353.075000", "092351.685000", "092353.475000", "092351.882500", "092353.672500", "092352.082500", "092353.872500", "092352.280000", "092354.070000", "092351.485000", "092353.275000", "092350.690000", "092352.480000", "092350.887500", "092352.677500", "092351.087500", "092352.877500", "092351.287500", "092353.075000", "092351.685000", "092353.475000", "092351.882500", "092353.672500", "092352.082500", "092353.872500", "092352.280000", "092354.070000", "092351.485000", "092353.275000", "092350.690000", "092352.480000", "092350.887500", "092352.677500", "092351.087500", "092352.877500", "092351.287500", "092353.075000", "092351.685000", "092353.475000", "092351.882500", "092353.672500", "092352.082500", "092353.872500", "092352.280000", "092354.070000", "092351.485000", "092356.875000", "092354.290000", "092356.080000", "092354.487500", "092356.277500", "092354.687500", "092356.477500", "092354.887500", "092356.675000", "092355.285000", "092357.075000", "092355.482500", "092357.272500", "092355.682500", "092357.472500", "092355.880000", "092357.670000", "092355.085000", "092356.875000", "092354.290000", "092356.080000", "092354.487500", "092356.277500", "092354.687500", "092356.477500", "092354.887500", "092356.675000", "092355.285000", "092357.075000", "092355.482500", "092357.272500", "092355.682500", "092357.472500", "092355.880000", "092357.670000", "092355.085000", "092356.875000", "092354.290000", "092356.080000", "092354.487500", "092356.277500", "092354.687500", "092356.477500", "092354.887500", "092356.675000", "092355.285000", "092357.075000", "092355.482500", "092357.272500", "092355.682500", "092357.472500", "092355.880000", "092357.670000", "092355.085000", "092356.875000", "092354.290000", "092356.080000", "092354.487500", "092356.277500", "092354.687500", "092356.477500", "092354.887500", "092356.675000", "092355.285000", "092357.075000", "092355.482500", "092357.272500", "092355.682500", "092357.472500", "092355.880000", "092357.670000", "092355.085000", "092400.475000", "092357.890000", "092359.680000", "092358.087500", "092359.877500", "092358.287500", "092400.077500", "092358.487500", "092400.275000", "092358.885000", "092400.675000", "092359.082500", "092400.872500", "092359.282500", "092401.072500", "092359.480000", "092401.270000", "092358.685000", "092400.475000", "092357.890000", "092359.680000", "092358.087500", "092359.877500", "092358.287500", "092400.077500", "092358.487500", "092400.275000", "092358.885000", "092400.675000", "092359.082500", "092400.872500", "092359.282500", "092401.072500", "092359.480000", "092401.270000", "092358.685000", "092400.475000", "092357.890000", "092359.680000", "092358.087500", "092359.877500", "092358.287500", "092400.077500", "092358.487500", "092400.275000", "092358.885000", "092400.675000", "092359.082500", "092400.872500", "092359.282500", "092401.072500", "092359.480000", "092401.270000", "092358.685000", "092400.475000", "092357.890000", "092359.680000", "092358.087500", "092359.877500", "092358.287500", "092400.077500", "092358.487500", "092400.275000", "092358.885000", "092400.675000", "092359.082500", "092400.872500", "092359.282500", "092401.072500", "092359.480000", "092401.270000", "092358.685000", "092404.075000", "092401.490000", "092403.280000", "092401.687500", "092403.477500", "092401.887500", "092403.677500", "092402.087500", "092403.875000", "092402.485000", "092404.275000", "092402.682500", "092404.472500", "092402.882500", "092404.672500", "092403.080000", "092404.870000", "092402.285000", "092404.075000", "092401.490000", "092403.280000", "092401.687500", "092403.477500", "092401.887500", "092403.677500", "092402.087500", "092403.875000", "092402.485000", "092404.275000", "092402.682500", "092404.472500", "092402.882500", "092404.672500", "092403.080000", "092404.870000", "092402.285000", "092404.075000", "092401.490000", "092403.280000", "092401.687500", "092403.477500", "092401.887500", "092403.677500", "092402.087500", "092403.875000", "092402.485000", "092404.275000", "092402.682500", "092404.472500", "092402.882500", "092404.672500", "092403.080000", "092404.870000", "092402.285000", "092404.075000", "092401.490000", "092403.280000", "092401.687500", "092403.477500", "092401.887500", "092403.677500", "092402.087500", "092403.875000", "092402.485000", "092404.275000", "092402.682500", "092404.472500", "092402.882500", "092404.672500", "092403.080000", "092404.870000", "092402.285000", "092407.675000", "092405.090000", "092406.880000", "092405.287500", "092407.077500", "092405.487500", "092407.277500", "092405.687500", "092407.475000", "092406.085000", "092407.875000", "092406.282500", "092408.072500", "092406.482500", "092408.272500", "092406.680000", "092408.470000", "092405.885000", "092407.675000", "092405.090000", "092406.880000", "092405.287500", "092407.077500", "092405.487500", "092407.277500", "092405.687500", "092407.475000", "092406.085000", "092407.875000", "092406.282500", "092408.072500", "092406.482500", "092408.272500", "092406.680000", "092408.470000", "092405.885000", "092407.675000", "092405.090000", "092406.880000", "092405.287500", "092407.077500", "092405.487500", "092407.277500", "092405.687500", "092407.475000", "092406.085000", "092407.875000", "092406.282500", "092408.072500", "092406.482500", "092408.272500", "092406.680000", "092408.470000", "092405.885000", "092407.675000", "092405.090000", "092406.880000", "092405.287500", "092407.077500", "092405.487500", "092407.277500", "092405.687500", "092407.475000", "092406.085000", "092407.875000", "092406.282500", "092408.072500", "092406.482500", "092408.272500", "092406.680000", "092408.470000", "092405.885000", "092411.275000", "092408.690000", "092410.480000", "092408.887500", "092410.677500", "092409.087500", "092410.877500", "092409.287500", "092411.075000", "092409.685000", "092411.475000", "092409.882500", "092411.672500", "092410.082500", "092411.872500", "092410.280000", "092412.070000", "092409.485000", "092411.275000", "092408.690000", "092410.480000", "092408.887500", "092410.677500", "092409.087500", "092410.877500", "092409.287500", "092411.075000", "092409.685000", "092411.475000", "092409.882500", "092411.672500", "092410.082500", "092411.872500", "092410.280000", "092412.070000", "092409.485000", "092411.275000", "092408.690000", "092410.480000", "092408.887500", "092410.677500", "092409.087500", "092410.877500", "092409.287500", "092411.075000", "092409.685000", "092411.475000", "092409.882500", "092411.672500", "092410.082500", "092411.872500", "092410.280000", "092412.070000", "092409.485000", "092411.275000", "092408.690000", "092410.480000", "092408.887500", "092410.677500", "092409.087500", "092410.877500", "092409.287500", "092411.075000", "092409.685000", "092411.475000", "092409.882500", "092411.672500", "092410.082500", "092411.872500", "092410.280000", "092412.070000", "092409.485000", "092414.875000", "092412.290000", "092414.080000", "092412.487500", "092414.277500", "092412.687500", "092414.477500", "092412.887500", "092414.675000", "092413.285000", "092415.075000", "092413.482500", "092415.272500", "092413.682500", "092415.472500", "092413.880000", "092415.670000", "092413.085000", "092414.875000", "092412.290000", "092414.080000", "092412.487500", "092414.277500", "092412.687500", "092414.477500", "092412.887500", "092414.675000", "092413.285000", "092415.075000", "092413.482500", "092415.272500", "092413.682500", "092415.472500", "092413.880000", "092415.670000", "092413.085000", "092414.875000", "092412.290000", "092414.080000", "092412.487500", "092414.277500", "092412.687500", "092414.477500", "092412.887500", "092414.675000", "092413.285000", "092415.075000", "092413.482500", "092415.272500", "092413.682500", "092415.472500", "092413.880000", "092415.670000", "092413.085000", "092414.875000", "092412.290000", "092414.080000", "092412.487500", "092414.277500", "092412.687500", "092414.477500", "092412.887500", "092414.675000", "092413.285000", "092415.075000", "092413.482500", "092415.272500", "092413.682500", "092415.472500", "092413.880000", "092415.670000", "092413.085000", "092418.475000", "092415.890000", "092417.680000", "092416.087500", "092417.877500", "092416.287500", "092418.077500", "092416.487500", "092418.275000", "092416.885000", "092418.675000", "092417.082500", "092418.872500", "092417.282500", "092419.072500", "092417.480000", "092419.270000", "092416.685000", "092418.475000", "092415.890000", "092417.680000", "092416.087500", "092417.877500", "092416.287500", "092418.077500", "092416.487500", "092418.275000", "092416.885000", "092418.675000", "092417.082500", "092418.872500", "092417.282500", "092419.072500", "092417.480000", "092419.270000", "092416.685000", "092418.475000", "092415.890000", "092417.680000", "092416.087500", "092417.877500", "092416.287500", "092418.077500", "092416.487500", "092418.275000", "092416.885000", "092418.675000", "092417.082500", "092418.872500", "092417.282500", "092419.072500", "092417.480000", "092419.270000", "092416.685000", "092418.475000", "092415.890000", "092417.680000", "092416.087500", "092417.877500", "092416.287500", "092418.077500", "092416.487500", "092418.275000", "092416.885000", "092418.675000", "092417.082500", "092418.872500", "092417.282500", "092419.072500", "092417.480000", "092419.270000", "092416.685000", "092422.075000", "092419.490000", "092421.280000", "092419.687500", "092421.477500", "092419.887500", "092421.677500", "092420.087500", "092421.875000", "092420.485000", "092422.275000", "092420.682500", "092422.472500", "092420.882500", "092422.672500", "092421.080000", "092422.870000", "092420.285000", "092422.075000", "092419.490000", "092421.280000", "092419.687500", "092421.477500", "092419.887500", "092421.677500", "092420.087500", "092421.875000", "092420.485000", "092422.275000", "092420.682500", "092422.472500", "092420.882500", "092422.672500", "092421.080000", "092422.870000", "092420.285000", "092422.075000", "092419.490000", "092421.280000", "092419.687500", "092421.477500", "092419.887500", "092421.677500", "092420.087500", "092421.875000", "092420.485000", "092422.275000", "092420.682500", "092422.472500", "092420.882500", "092422.672500", "092421.080000", "092422.870000", "092420.285000", "092422.075000", "092419.490000", "092421.280000", "092419.687500", "092421.477500", "092419.887500", "092421.677500", "092420.087500", "092421.875000", "092420.485000", "092422.275000", "092420.682500", "092422.472500", "092420.882500", "092422.672500", "092421.080000", "092422.870000", "092420.285000", "092425.675000", "092423.090000", "092424.880000", "092423.287500", "092425.077500", "092423.487500", "092425.277500", "092423.687500", "092425.475000", "092424.085000", "092425.875000", "092424.282500", "092426.072500", "092424.482500", "092426.272500", "092424.680000", "092426.470000", "092423.885000", "092425.675000", "092423.090000", "092424.880000", "092423.287500", "092425.077500", "092423.487500", "092425.277500", "092423.687500", "092425.475000", "092424.085000", "092425.875000", "092424.282500", "092426.072500", "092424.482500", "092426.272500", "092424.680000", "092426.470000", "092423.885000", "092425.675000", "092423.090000", "092424.880000", "092423.287500", "092425.077500", "092423.487500", "092425.277500", "092423.687500", "092425.475000", "092424.085000", "092425.875000", "092424.282500", "092426.072500", "092424.482500", "092426.272500", "092424.680000", "092426.470000", "092423.885000", "092425.675000", "092423.090000", "092424.880000", "092423.287500", "092425.077500", "092423.487500", "092425.277500", "092423.687500", "092425.475000", "092424.085000", "092425.875000", "092424.282500", "092426.072500", "092424.482500", "092426.272500", "092424.680000", "092426.470000", "092423.885000", "092429.275000", "092426.690000", "092428.480000", "092426.887500", "092428.677500", "092427.087500", "092428.877500", "092427.287500", "092429.075000", "092427.685000", "092429.475000", "092427.882500", "092429.672500", "092428.082500", "092429.872500", "092428.280000", "092430.070000", "092427.485000", "092429.275000", "092426.690000", "092428.480000", "092426.887500", "092428.677500", "092427.087500", "092428.877500", "092427.287500", "092429.075000", "092427.685000", "092429.475000", "092427.882500", "092429.672500", "092428.082500", "092429.872500", "092428.280000", "092430.070000", "092427.485000", "092429.275000", "092426.690000", "092428.480000", "092426.887500", "092428.677500", "092427.087500", "092428.877500", "092427.287500", "092429.075000", "092427.685000", "092429.475000", "092427.882500", "092429.672500", "092428.082500", "092429.872500", "092428.280000", "092430.070000", "092427.485000", "092429.275000", "092426.690000", "092428.480000", "092426.887500", "092428.677500", "092427.087500", "092428.877500", "092427.287500", "092429.075000", "092427.685000", "092429.475000", "092427.882500", "092429.672500", "092428.082500", "092429.872500", "092428.280000", "092430.070000", "092427.485000", "092432.875000", "092430.290000", "092432.080000", "092430.487500", "092432.277500", "092430.687500", "092432.477500", "092430.887500", "092432.675000", "092431.285000", "092433.075000", "092431.482500", "092433.272500", "092431.682500", "092433.472500", "092431.880000", "092433.670000", "092431.085000", "092432.875000", "092430.290000", "092432.080000", "092430.487500", "092432.277500", "092430.687500", "092432.477500", "092430.887500", "092432.675000", "092431.285000", "092433.075000", "092431.482500", "092433.272500", "092431.682500", "092433.472500", "092431.880000", "092433.670000", "092431.085000", "092432.875000", "092430.290000", "092432.080000", "092430.487500", "092432.277500", "092430.687500", "092432.477500", "092430.887500", "092432.675000", "092431.285000", "092433.075000", "092431.482500", "092433.272500", "092431.682500", "092433.472500", "092431.880000", "092433.670000", "092431.085000", "092432.875000", "092430.290000", "092432.080000", "092430.487500", "092432.277500", "092430.687500", "092432.477500", "092430.887500", "092432.675000", "092431.285000", "092433.075000", "092431.482500", "092433.272500", "092431.682500", "092433.472500", "092431.880000", "092433.670000", "092431.085000", "092436.475000", "092433.890000", "092435.680000", "092434.087500", "092435.877500", "092434.287500", "092436.077500", "092434.487500", "092436.275000", "092434.885000", "092436.675000", "092435.082500", "092436.872500", "092435.282500", "092437.072500", "092435.480000", "092437.270000", "092434.685000", "092436.475000", "092433.890000", "092435.680000", "092434.087500", "092435.877500", "092434.287500", "092436.077500", "092434.487500", "092436.275000", "092434.885000", "092436.675000", "092435.082500", "092436.872500", "092435.282500", "092437.072500", "092435.480000", "092437.270000", "092434.685000", "092436.475000", "092433.890000", "092435.680000", "092434.087500", "092435.877500", "092434.287500", "092436.077500", "092434.487500", "092436.275000", "092434.885000", "092436.675000", "092435.082500", "092436.872500", "092435.282500", "092437.072500", "092435.480000", "092437.270000", "092434.685000", "092436.475000", "092433.890000", "092435.680000", "092434.087500", "092435.877500", "092434.287500", "092436.077500", "092434.487500", "092436.275000", "092434.885000", "092436.675000", "092435.082500", "092436.872500", "092435.282500", "092437.072500", "092435.480000", "092437.270000", "092434.685000", "092440.075000", "092437.490000", "092439.280000", "092437.687500", "092439.477500", "092437.887500", "092439.677500", "092438.087500", "092439.875000", "092438.485000", "092440.275000", "092438.682500", "092440.472500", "092438.882500", "092440.672500", "092439.080000", "092440.870000", "092438.285000", "092440.075000", "092437.490000", "092439.280000", "092437.687500", "092439.477500", "092437.887500", "092439.677500", "092438.087500", "092439.875000", "092438.485000", "092440.275000", "092438.682500", "092440.472500", "092438.882500", "092440.672500", "092439.080000", "092440.870000", "092438.285000", "092440.075000", "092437.490000", "092439.280000", "092437.687500", "092439.477500", "092437.887500", "092439.677500", "092438.087500", "092439.875000", "092438.485000", "092440.275000", "092438.682500", "092440.472500", "092438.882500", "092440.672500", "092439.080000", "092440.870000", "092438.285000", "092440.075000", "092437.490000", "092439.280000", "092437.687500", "092439.477500", "092437.887500", "092439.677500", "092438.087500", "092439.875000", "092438.485000", "092440.275000", "092438.682500", "092440.472500", "092438.882500", "092440.672500", "092439.080000", "092440.870000", "092438.285000", "092443.675000", "092441.090000", "092442.880000", "092441.287500", "092443.077500", "092441.487500", "092443.277500", "092441.687500", "092443.475000", "092442.085000", "092443.875000", "092442.282500", "092444.072500", "092442.482500", "092444.272500", "092442.680000", "092444.470000", "092441.885000", "092443.675000", "092441.090000", "092442.880000", "092441.287500", "092443.077500", "092441.487500", "092443.277500", "092441.687500", "092443.475000", "092442.085000", "092443.875000", "092442.282500", "092444.072500", "092442.482500", "092444.272500", "092442.680000", "092444.470000", "092441.885000", "092443.675000", "092441.090000", "092442.880000", "092441.287500", "092443.077500", "092441.487500", "092443.277500", "092441.687500", "092443.475000", "092442.085000", "092443.875000", "092442.282500", "092444.072500", "092442.482500", "092444.272500", "092442.680000", "092444.470000", "092441.885000", "092443.675000", "092441.090000", "092442.880000", "092441.287500", "092443.077500", "092441.487500", "092443.277500", "092441.687500", "092443.475000", "092442.085000", "092443.875000", "092442.282500", "092444.072500", "092442.482500", "092444.272500", "092442.680000", "092444.470000", "092441.885000", "092447.275000", "092444.690000", "092446.480000", "092444.887500", "092446.677500", "092445.087500", "092446.877500", "092445.287500", "092447.075000", "092445.685000", "092447.475000", "092445.882500", "092447.672500", "092446.082500", "092447.872500", "092446.280000", "092448.070000", "092445.485000", "092447.275000", "092444.690000", "092446.480000", "092444.887500", "092446.677500", "092445.087500", "092446.877500", "092445.287500", "092447.075000", "092445.685000", "092447.475000", "092445.882500", "092447.672500", "092446.082500", "092447.872500", "092446.280000", "092448.070000", "092445.485000", "092447.275000", "092444.690000", "092446.480000", "092444.887500", "092446.677500", "092445.087500", "092446.877500", "092445.287500", "092447.075000", "092445.685000", "092447.475000", "092445.882500", "092447.672500", "092446.082500", "092447.872500", "092446.280000", "092448.070000", "092445.485000", "092447.275000", "092444.690000", "092446.480000", "092444.887500", "092446.677500", "092445.087500", "092446.877500", "092445.287500", "092447.075000", "092445.685000", "092447.475000", "092445.882500", "092447.672500", "092446.082500", "092447.872500", "092446.280000", "092448.070000", "092445.485000", "092450.875000", "092448.290000", "092450.080000", "092448.487500", "092450.277500", "092448.687500", "092450.477500", "092448.887500", "092450.675000", "092449.285000", "092451.075000", "092449.482500", "092451.272500", "092449.682500", "092451.472500", "092449.880000", "092451.670000", "092449.085000", "092450.875000", "092448.290000", "092450.080000", "092448.487500", "092450.277500", "092448.687500", "092450.477500", "092448.887500", "092450.675000", "092449.285000", "092451.075000", "092449.482500", "092451.272500", "092449.682500", "092451.472500", "092449.880000", "092451.670000", "092449.085000", "092450.875000", "092448.290000", "092450.080000", "092448.487500", "092450.277500", "092448.687500", "092450.477500", "092448.887500", "092450.675000", "092449.285000", "092451.075000", "092449.482500", "092451.272500", "092449.682500", "092451.472500", "092449.880000", "092451.670000", "092449.085000", "092450.875000", "092448.290000", "092450.080000", "092448.487500", "092450.277500", "092448.687500", "092450.477500", "092448.887500", "092450.675000", "092449.285000", "092451.075000", "0924