{
  "AcquisitionMatrixPE": 80,
  "AcquisitionNumber": 1,
  "AcquisitionTime": "08:35:26.185000",
  "BandwidthPerPixelPhaseEncode": 48.077,
  "BaseResolution": 80,
  "BodyPartExamined": "BRAIN",
  "CoilCombinationMethod": "Sum of Squares",
  "ConsistencyInfo": "N4_VE11C_LATEST_20160120",
  "ConversionSoftware": "dcm2niix",
  "ConversionSoftwareVersion": "v1.0.20220720",
  "DerivedVendorReportedEchoSpacing": 0.000519999,
  "DeviceSerialNumber": "66112",
  "DwellTime": 2.7e-06,
  "EchoTime": 0.035,
  "EchoTrainLength": 39,
  "EffectiveEchoSpacing": 0.00026,
  "FlipAngle": 90,
  "HeudiconvVersion": "0.13.1",
  "ImageOrientationPatientDICOM": [0.993599, -0.112695, 0.0078221, 0.104782, 0.945276, 0.308987],
  "ImageOrientationText": "Tra>Cor(17.8)>Sag(2.4)",
  "ImageType": [
    "ORIGINAL",
    "PRIMARY",
    "M",
    "ND",
    "NORM",
    "MOSAIC"
],
  "ImagingFrequency": 123.252,
  "InPlanePhaseEncodingDirectionDICOM": "COL",
  "InstitutionAddress": "Maynard 3,Hanover,NH,US,03755",
  "InstitutionName": "Dartmouth College - PBS",
  "InstitutionalDepartmentName": "Department",
  "MRAcquisitionType": "2D",
  "MagneticFieldStrength": 3,
  "Manufacturer": "Siemens",
  "ManufacturersModelName": "Prisma",
  "MatrixCoilMode": "GRAPPA",
  "Modality": "MR",
  "NonlinearGradientCorrection": false,
  "ParallelReductionFactorInPlane": 2,
  "PartialFourier": 1,
  "PatientPosition": "HFS",
  "PercentPhaseFOV": 100,
  "PercentSampling": 100,
  "PhaseEncodingDirection": "j-",
  "PhaseEncodingSteps": 79,
  "PhaseResolution": 1,
  "PixelBandwidth": 2315,
  "ProcedureStepDescription": "dbic^QA",
  "ProtocolName": "func-bold_task-rest_acq-p2",
  "PulseSequenceDetails": "%SiemensSeq%\\ep2d_bold",
  "ReceiveCoilActiveElements": "HEA;HEP",
  "ReceiveCoilName": "Head_32",
  "ReconMatrixPE": 80,
  "RefLinesPE": 24,
  "RepetitionTime": 2,
  "SAR": 0.0554329,
  "ScanOptions": "FS",
  "ScanningSequence": "EP",
  "SequenceName": "*epfid2d1_80",
  "SequenceVariant": "SK",
  "SeriesDescription": "func-bold_task-rest_acq-p2",
  "SeriesNumber": 5,
  "ShimSetting": [4159, -7700, -7514, 298, -15, -146, -1, 139],
  "SliceThickness": 3.5,
  "SliceTiming": [0.99, 0, 1.055, 0.065, 1.12, 0.1325, 1.1875, 0.1975, 1.2525, 0.2625, 1.32, 0.33, 1.385, 0.395, 1.45, 0.4625, 1.5175, 0.5275, 1.5825, 0.5925, 1.65, 0.66, 1.715, 0.725, 1.78, 0.7925, 1.8475, 0.8575, 1.9125, 0.9225],
  "SoftwareVersions": "syngo MR E11",
  "SpacingBetweenSlices": 3.99,
  "StationName": "AWP66112",
  "TaskName": "rest",
  "TotalReadoutTime": 0.02054,
  "TxRefAmp": 229.843,
  "dcmmeta_affine": [
    [-2.9807963371276855, 0.3143463730812073, 0.16843993961811066, 104.63558197021484],
    [0.3380862772464752, 2.835829257965088, 1.2216980457305908, -130.2935791015625],
    [0.023466307669878006, -0.9269624948501587, 3.7946255207061768, -34.202293395996094],
    [0.0, 0.0, 0.0, 1.0]
],
  "dcmmeta_reorient_transform": [
    [0.0, -1.0, 0.0, 79.0],
    [1.0, 0.0, 0.0, 0.0],
    [0.0, 0.0, 1.0, 0.0],
    [0.0, 0.0, 0.0, 1.0]
],
  "dcmmeta_shape": [80, 80, 30, 200],
  "dcmmeta_slice_dim": 2,
  "dcmmeta_version": 0.6,
  "global": {
    "const": {
      "AccessionNumber": "qa",
      "AcquisitionMatrix": [80, 0, 0, 80],
      "AngioFlag": "N",
      "BitsAllocated": 16,
      "BitsStored": 12,
      "BodyPartExamined": "BRAIN",
      "Columns": 480,
      "EchoNumbers": 1,
      "EchoTime": 35.0,
      "EchoTrainLength": 39,
      "FlipAngle": 90.0,
      "HighBit": 11,
      "ImageOrientationPatient": [0.99359879063193, -0.1126954212328, 0.00782210252696, 0.10478212044896, 0.94527638150238, 0.30898749134551],
      "ImagePositionPatient": [-788.49749307312, -593.28549895943, -297.51808397978],
      "ImageType": [
        "ORIGINAL",
        "PRIMARY",
        "M",
        "ND",
        "NORM",
        "MOSAIC"
],
      "ImagedNucleus": "1H",
      "ImagingFrequency": 123.252433,
      "InPlanePhaseEncodingDirection": "COL",
      "MRAcquisitionType": "2D",
      "MagneticFieldStrength": 3.0,
      "Manufacturer": "SIEMENS",
      "ManufacturerModelName": "Prisma",
      "Modality": "MR",
      "NumberOfAverages": 1.0,
      "NumberOfPhaseEncodingSteps": 79,
      "PercentPhaseFieldOfView": 100.0,
      "PercentSampling": 100.0,
      "PerformedProcedureStepStartTime": "083349.649000",
      "PhotometricInterpretation": "MONOCHROME2",
      "PixelBandwidth": 2315.0,
      "PixelRepresentation": 0,
      "PixelSpacing": [3.0, 3.0],
      "ProtocolName": "func-bold_task-rest_acq-p2",
      "RepetitionTime": 2000.0,
      "Rows": 480,
      "SAR": 0.05543285865631,
      "SamplesPerPixel": 1,
      "ScanOptions": "FS",
      "ScanningSequence": "EP",
      "SequenceName": "*epfid2d1_80",
      "SequenceVariant": "SK",
      "SeriesDescription": "func-bold_task-rest_acq-p2",
      "SeriesNumber": 5,
      "SeriesTime": "083547.005000",
      "SliceLocation": -68.00488320074,
      "SliceThickness": 3.5,
      "SmallestImagePixelValue": 0,
      "SoftwareVersions": "syngo MR E11",
      "SpacingBetweenSlices": 3.9900000907853,
      "SpecificCharacterSet": "ISO_IR 100",
      "StudyID": "20",
      "StudyTime": "083349.557000",
      "TransmitCoilName": "Body",
      "VariableFlipAngleFlag": "N",
      "WindowCenterWidthExplanation": "Algo1",
      "dBdt": 0.0},
    "slices": {}
  },
  "time": {
    "samples": {
      "AcquisitionNumber": [1, 2, 3, 4, 5, 6, 7, 8, 9, 10, 11, 12, 13, 14, 15, 16, 17, 18, 19, 20, 21, 22, 23, 24, 25, 26, 27, 28, 29, 30, 31, 32, 33, 34, 35, 36, 37, 38, 39, 40, 41, 42, 43, 44, 45, 46, 47, 48, 49, 50, 51, 52, 53, 54, 55, 56, 57, 58, 59, 60, 61, 62, 63, 64, 65, 66, 67, 68, 69, 70, 71, 72, 73, 74, 75, 76, 77, 78, 79, 80, 81, 82, 83, 84, 85, 86, 87, 88, 89, 90, 91, 92, 93, 94, 95, 96, 97, 98, 99, 100, 101, 102, 103, 104, 105, 106, 107, 108, 109, 110, 111, 112, 113, 114, 115, 116, 117, 118, 119, 120, 121, 122, 123, 124, 125, 126, 127, 128, 129, 130, 131, 132, 133, 134, 135, 136, 137, 138, 139, 140, 141, 142, 143, 144, 145, 146, 147, 148, 149, 150, 151, 152, 153, 154, 155, 156, 157, 158, 159, 160, 161, 162, 163, 164, 165, 166, 167, 168, 169, 170, 171, 172, 173, 174, 175, 176, 177, 178, 179, 180, 181, 182, 183, 184, 185, 186, 187, 188, 189, 190, 191, 192, 193, 194, 195, 196, 197, 198, 199, 200],
      "AcquisitionTime": ["083526.185000", "083528.185000", "083530.185000", "083532.185000", "083534.185000", "083536.185000", "083538.185000", "083540.185000", "083542.185000", "083544.185000", "083546.185000", "083548.185000", "083550.185000", "083552.185000", "083554.185000", "083556.185000", "083558.185000", "083600.185000", "083602.185000", "083604.185000", "083606.185000", "083608.185000", "083610.185000", "083612.185000", "083614.185000", "083616.185000", "083618.185000", "083620.185000", "083622.185000", "083624.185000", "083626.185000", "083628.185000", "083630.185000", "083632.185000", "083634.185000", "083636.185000", "083638.185000", "083640.185000", "083642.185000", "083644.185000", "083646.185000", "083648.185000", "083650.185000", "083652.185000", "083654.185000", "083656.185000", "083658.185000", "083700.185000", "083702.185000", "083704.185000", "083706.185000", "083708.185000", "083710.185000", "083712.185000", "083714.185000", "083716.185000", "083718.185000", "083720.185000", "083722.185000", "083724.185000", "083726.185000", "083728.185000", "083730.185000", "083732.185000", "083734.185000", "083736.185000", "083738.185000", "083740.185000", "083742.185000", "083744.185000", "083746.185000", "083748.185000", "083750.185000", "083752.185000", "083754.185000", "083756.185000", "083758.185000", "083800.185000", "083802.185000", "083804.185000", "083806.185000", "083808.185000", "083810.185000", "083812.185000", "083814.185000", "083816.185000", "083818.185000", "083820.185000", "083822.185000", "083824.185000", "083826.185000", "083828.185000", "083830.185000", "083832.185000", "083834.185000", "083836.185000", "083838.185000", "083840.185000", "083842.185000", "083844.185000", "083846.185000", "083848.185000", "083850.185000", "083852.185000", "083854.185000", "083856.185000", "083858.185000", "083900.185000", "083902.185000", "083904.185000", "083906.185000", "083908.185000", "083910.185000", "083912.185000", "083914.185000", "083916.185000", "083918.185000", "083920.185000", "083922.185000", "083924.185000", "083926.185000", "083928.185000", "083930.185000", "083932.185000", "083934.185000", "083936.185000", "083938.185000", "083940.185000", "083942.185000", "083944.185000", "083946.185000", "083948.185000", "083950.185000", "083952.185000", "083954.185000", "083956.185000", "083958.185000", "084000.185000", "084002.185000", "084004.185000", "084006.185000", "084008.185000", "084010.185000", "084012.185000", "084014.185000", "084016.185000", "084018.185000", "084020.185000", "084022.185000", "084024.185000", "084026.185000", "084028.185000", "084030.185000", "084032.185000", "084034.185000", "084036.185000", "084038.185000", "084040.185000", "084042.185000", "084044.185000", "084046.185000", "084048.185000", "084050.185000", "084052.185000", "084054.185000", "084056.185000", "084058.185000", "084100.185000", "084102.185000", "084104.185000", "084106.185000", "084108.185000", "084110.185000", "084112.185000", "084114.185000", "084116.185000", "084118.185000", "084120.185000", "084122.185000", "084124.185000", "084126.185000", "084128.185000", "084130.185000", "084132.185000", "084134.185000", "084136.185000", "084138.185000", "084140.185000", "084142.185000", "084144.185000", "084146.185000", "084148.185000", "084150.185000", "084152.185000", "084154.185000", "084156.185000", "084158.185000", "084200.185000", "084202.185000", "084204.185000"],
      "ContentTime": ["083547.009000", "083547.012000", "083547.014000", "083547.017000", "083547.020000", "083547.022000", "083547.025000", "083547.027000", "083547.030000", "083547.038000", "083627.004000", "083627.007000", "083627.009000", "083627.012000", "083627.014000", "083627.017000", "083627.019000", "083627.022000", "083627.024000", "083627.027000", "083627.030000", "083627.032000", "083627.035000", "083627.037000", "083627.040000", "083627.042000", "083627.045000", "083627.047000", "083627.050000", "083627.052000", "083707.003000", "083707.007000", "083707.009000", "083707.012000", "083707.014000", "083707.017000", "083707.019000", "083707.022000", "083707.024000", "083707.027000", "083707.030000", "083707.032000", "083707.035000", "083707.037000", "083707.040000", "083707.042000", "083707.045000", "083707.047000", "083707.050000", "083707.052000", "083747.004000", "083747.006000", "083747.009000", "083747.012000", "083747.014000", "083747.017000", "083747.019000", "083747.022000", "083747.024000", "083747.027000", "083747.030000", "083747.032000", "083747.035000", "083747.037000", "083747.040000", "083747.042000", "083747.045000", "083747.047000", "083747.050000", "083747.052000", "083827.003000", "083827.012000", "083827.014000", "083827.017000", "083827.019000", "083827.022000", "083827.025000", "083827.027000", "083827.030000", "083827.032000", "083827.035000", "083827.037000", "083827.040000", "083827.043000", "083827.045000", "083827.048000", "083827.050000", "083827.053000", "083827.055000", "083827.058000", "083907.002000", "083907.005000", "083907.008000", "083907.010000", "083907.013000", "083907.016000", "083907.018000", "083907.021000", "083907.023000", "083907.026000", "083907.028000", "083907.031000", "083907.033000", "083907.036000", "083907.039000", "083907.041000", "083907.044000", "083907.046000", "083907.052000", "083907.055000", "083947.004000", "083947.007000", "083947.009000", "083947.012000", "083947.014000", "083947.017000", "083947.019000", "083947.022000", "083947.025000", "083947.027000", "083947.030000", "083947.032000", "083947.035000", "083947.037000", "083947.040000", "083947.042000", "083947.045000", "083947.048000", "083947.050000", "083947.053000", "084027.003000", "084027.006000", "084027.009000", "084027.011000", "084027.014000", "084027.017000", "084027.019000", "084027.022000", "084027.024000", "084027.027000", "084027.029000", "084027.032000", "084027.035000", "084027.037000", "084027.040000", "084027.042000", "084027.045000", "084027.048000", "084027.050000", "084027.053000", "084107.004000", "084107.007000", "084107.009000", "084107.012000", "084107.014000", "084107.017000", "084107.019000", "084107.022000", "084107.024000", "084107.027000", "084107.029000", "084107.032000", "084107.034000", "084107.037000", "084107.040000", "084107.042000", "084107.045000", "084107.047000", "084107.050000", "084107.052000", "084147.003000", "084147.006000", "084147.009000", "084147.011000", "084147.014000", "084147.017000", "084147.019000", "084147.022000", "084147.024000", "084147.027000", "084147.030000", "084147.032000", "084147.035000", "084147.037000", "084147.040000", "084147.042000", "084147.045000", "084147.048000", "084147.050000", "084147.053000", "084206.097000", "084206.100000", "084206.103000", "084206.106000", "084206.109000", "084206.111000", "084206.114000", "084206.116000", "084206.119000", "084206.121000"],
      "InstanceCreationTime": ["083547.009000", "083547.012000", "083547.014000", "083547.017000", "083547.020000", "083547.022000", "083547.025000", "083547.027000", "083547.030000", "083547.038000", "083627.004000", "083627.007000", "083627.009000", "083627.012000", "083627.014000", "083627.017000", "083627.019000", "083627.022000", "083627.024000", "083627.027000", "083627.030000", "083627.032000", "083627.035000", "083627.037000", "083627.040000", "083627.042000", "083627.045000", "083627.047000", "083627.050000", "083627.052000", "083707.003000", "083707.007000", "083707.009000", "083707.012000", "083707.014000", "083707.017000", "083707.019000", "083707.022000", "083707.024000", "083707.027000", "083707.030000", "083707.032000", "083707.035000", "083707.037000", "083707.040000", "083707.042000", "083707.045000", "083707.047000", "083707.050000", "083707.052000", "083747.004000", "083747.006000", "083747.009000", "083747.012000", "083747.014000", "083747.017000", "083747.019000", "083747.022000", "083747.024000", "083747.027000", "083747.030000", "083747.032000", "083747.035000", "083747.037000", "083747.040000", "083747.042000", "083747.045000", "083747.047000", "083747.050000", "083747.052000", "083827.003000", "083827.012000", "083827.014000", "083827.017000", "083827.019000", "083827.022000", "083827.025000", "083827.027000", "083827.030000", "083827.032000", "083827.035000", "083827.037000", "083827.040000", "083827.043000", "083827.045000", "083827.048000", "083827.050000", "083827.053000", "083827.055000", "083827.058000", "083907.002000", "083907.005000", "083907.008000", "083907.010000", "083907.013000", "083907.016000", "083907.018000", "083907.021000", "083907.023000", "083907.026000", "083907.028000", "083907.031000", "083907.033000", "083907.036000", "083907.039000", "083907.041000", "083907.044000", "083907.046000", "083907.052000", "083907.055000", "083947.004000", "083947.007000", "083947.009000", "083947.012000", "083947.014000", "083947.017000", "083947.019000", "083947.022000", "083947.025000", "083947.027000", "083947.030000", "083947.032000", "083947.035000", "083947.037000", "083947.040000", "083947.042000", "083947.045000", "083947.048000", "083947.050000", "083947.053000", "084027.003000", "084027.006000", "084027.009000", "084027.011000", "084027.014000", "084027.017000", "084027.019000", "084027.022000", "084027.024000", "084027.027000", "084027.029000", "084027.032000", "084027.035000", "084027.037000", "084027.040000", "084027.042000", "084027.045000", "084027.048000", "084027.050000", "084027.053000", "084107.004000", "084107.007000", "084107.009000", "084107.012000", "084107.014000", "084107.017000", "084107.019000", "084107.022000", "084107.024000", "084107.027000", "084107.029000", "084107.032000", "084107.034000", "084107.037000", "084107.040000", "084107.042000", "084107.045000", "084107.047000", "084107.050000", "084107.052000", "084147.003000", "084147.006000", "084147.009000", "084147.011000", "084147.014000", "084147.017000", "084147.019000", "084147.022000", "084147.024000", "084147.027000", "084147.030000", "084147.032000", "084147.035000", "084147.037000", "084147.040000", "084147.042000", "084147.045000", "084147.048000", "084147.050000", "084147.053000", "084206.097000", "084206.100000", "084206.103000", "084206.106000", "084206.109000", "084206.111000", "084206.114000", "084206.116000", "084206.119000", "084206.121000"],
      "InstanceNumber": [1, 2, 3, 4, 5, 6, 7, 8, 9, 10, 11, 12, 13, 14, 15, 16, 17, 18, 19, 20, 21, 22, 23, 24, 25, 26, 27, 28, 29, 30, 31, 32, 33, 34, 35, 36, 37, 38, 39, 40, 41, 42, 43, 44, 45, 46, 47, 48, 49, 50, 51, 52, 53, 54, 55, 56, 57, 58, 59, 60, 61, 62, 63, 64, 65, 66, 67, 68, 69, 70, 71, 72, 73, 74, 75, 76, 77, 78, 79, 80, 81, 82, 83, 84, 85, 86, 87, 88, 89, 90, 91, 92, 93, 94, 95, 96, 97, 98, 99, 100, 101, 102, 103, 104, 105, 106, 107, 108, 109, 110, 111, 112, 113, 114, 115, 116, 117, 118, 119, 120, 121, 122, 123, 124, 125, 126, 127, 128, 129, 130, 131, 132, 133, 134, 135, 136, 137, 138, 139, 140, 141, 142, 143, 144, 145, 146, 147, 148, 149, 150, 151, 152, 153, 154, 155, 156, 157, 158, 159, 160, 161, 162, 163, 164, 165, 166, 167, 168, 169, 170, 171, 172, 173, 174, 175, 176, 177, 178, 179, 180, 181, 182, 183, 184, 185, 186, 187, 188, 189, 190, 191, 192, 193, 194, 195, 196, 197, 198, 199, 200],
      "LargestImagePixelValue": [1883, 1884, 1885, 1890, 1875, 1888, 1887, 1886, 1885, 1880, 1884, 1881, 1884, 1881, 1882, 1878, 1886, 1883, 1884, 1884, 1873, 1883, 1882, 1881, 1880, 1883, 1883, 1877, 1882, 1884, 1879, 1883, 1885, 1881, 1877, 1880, 1883, 1879, 1883, 1883, 1885, 1878, 1886, 1886, 1883, 1885, 1878, 1888, 1880, 1881, 1876, 1886, 1884, 1878, 1877, 1881, 1881, 1880, 1884, 1880, 1880, 1882, 1879, 1883, 1882, 1886, 1885, 1887, 1879, 1882, 1881, 1877, 1884, 1883, 1881, 1883, 1882, 1883, 1884, 1880, 1880, 1882, 1884, 1881, 1874, 1888, 1873, 1875, 1878, 1880, 1883, 1879, 1883, 1880, 1879, 1884, 1876, 1880, 1885, 1879, 1884, 1884, 1885, 1878, 1880, 1879, 1886, 1885, 1881, 1877, 1877, 1880, 1881, 1885, 1885, 1885, 1878, 1878, 1884, 1880, 1885, 1881, 1879, 1883, 1884, 1879, 1883, 1885, 1877, 1878, 1881, 1876, 1880, 1883, 1877, 1875, 1875, 1886, 1876, 1881, 1884, 1877, 1872, 1881, 1880, 1874, 1880, 1886, 1881, 1878, 1880, 1883, 1879, 1875, 1876, 1881, 1877, 1881, 1883, 1878, 1881, 1878, 1877, 1878, 1887, 1880, 1879, 1875, 1883, 1885, 1879, 1875, 1879, 1875, 1881, 1880, 1877, 1878, 1882, 1882, 1878, 1881, 1882, 1877, 1883, 1878, 1877, 1879, 1876, 1880, 1876, 1876, 1881, 1878, 1886, 1882, 1878, 1883, 1876, 1878],
      "WindowCenter": [950.0, 951.0, 950.0, 950.0, 950.0, 951.0, 950.0, 950.0, 950.0, 951.0, 951.0, 950.0, 950.0, 951.0, 950.0, 950.0, 950.0, 951.0, 951.0, 950.0, 951.0, 951.0, 950.0, 951.0, 950.0, 951.0, 951.0, 950.0, 950.0, 950.0, 950.0, 951.0, 950.0, 951.0, 950.0, 951.0, 950.0, 951.0, 951.0, 951.0, 951.0, 951.0, 950.0, 950.0, 951.0, 950.0, 950.0, 950.0, 950.0, 950.0, 950.0, 950.0, 950.0, 950.0, 950.0, 950.0, 950.0, 950.0, 950.0, 950.0, 950.0, 950.0, 950.0, 950.0, 950.0, 950.0, 950.0, 950.0, 950.0, 950.0, 949.0, 950.0, 950.0, 950.0, 950.0, 949.0, 949.0, 950.0, 951.0, 949.0, 949.0, 951.0, 950.0, 949.0, 950.0, 950.0, 949.0, 950.0, 949.0, 950.0, 949.0, 950.0, 950.0, 950.0, 949.0, 949.0, 949.0, 950.0, 949.0, 949.0, 949.0, 949.0, 949.0, 949.0, 949.0, 950.0, 950.0, 950.0, 950.0, 949.0, 950.0, 950.0, 949.0, 949.0, 949.0, 950.0, 949.0, 950.0, 949.0, 949.0, 950.0, 949.0, 949.0, 950.0, 950.0, 950.0, 949.0, 949.0, 949.0, 949.0, 949.0, 949.0, 949.0, 949.0, 950.0, 949.0, 950.0, 949.0, 950.0, 949.0, 949.0, 950.0, 949.0, 949.0, 949.0, 949.0, 949.0, 949.0, 949.0, 949.0, 949.0, 949.0, 949.0, 949.0, 949.0, 949.0, 949.0, 949.0, 949.0, 949.0, 949.0, 949.0, 949.0, 949.0, 949.0, 949.0, 949.0, 949.0, 949.0, 949.0, 949.0, 949.0, 948.0, 949.0, 948.0, 949.0, 949.0, 950.0, 948.0, 948.0, 949.0, 949.0, 949.0, 949.0, 949.0, 948.0, 949.0, 949.0, 949.0, 948.0, 949.0, 948.0, 949.0, 949.0, 950.0, 949.0, 949.0, 949.0, 948.0, 949.0],
      "WindowWidth": [2058.0, 2059.0, 2058.0, 2058.0, 2058.0, 2059.0, 2058.0, 2058.0, 2058.0, 2059.0, 2059.0, 2058.0, 2058.0, 2059.0, 2057.0, 2058.0, 2058.0, 2059.0, 2058.0, 2058.0, 2058.0, 2058.0, 2058.0, 2059.0, 2058.0, 2058.0, 2058.0, 2058.0, 2058.0, 2058.0, 2058.0, 2058.0, 2058.0, 2058.0, 2058.0, 2059.0, 2058.0, 2058.0, 2058.0, 2058.0, 2058.0, 2058.0, 2058.0, 2058.0, 2058.0, 2058.0, 2058.0, 2058.0, 2058.0, 2058.0, 2058.0, 2058.0, 2058.0, 2058.0, 2058.0, 2058.0, 2057.0, 2057.0, 2057.0, 2057.0, 2058.0, 2057.0, 2057.0, 2057.0, 2057.0, 2057.0, 2057.0, 2057.0, 2056.0, 2057.0, 2056.0, 2057.0, 2057.0, 2057.0, 2057.0, 2056.0, 2057.0, 2057.0, 2058.0, 2056.0, 2056.0, 2057.0, 2056.0, 2056.0, 2056.0, 2056.0, 2056.0, 2057.0, 2056.0, 2056.0, 2056.0, 2056.0, 2056.0, 2056.0, 2056.0, 2056.0, 2056.0, 2056.0, 2056.0, 2056.0, 2056.0, 2055.0, 2056.0, 2056.0, 2055.0, 2056.0, 2056.0, 2056.0, 2056.0, 2055.0, 2056.0, 2056.0, 2055.0, 2055.0, 2055.0, 2056.0, 2055.0, 2055.0, 2055.0, 2055.0, 2056.0, 2055.0, 2055.0, 2055.0, 2056.0, 2055.0, 2055.0, 2055.0, 2055.0, 2055.0, 2055.0, 2055.0, 2055.0, 2055.0, 2055.0, 2055.0, 2055.0, 2055.0, 2055.0, 2055.0, 2055.0, 2055.0, 2055.0, 2054.0, 2055.0, 2055.0, 2054.0, 2054.0, 2055.0, 2054.0, 2055.0, 2055.0, 2054.0, 2054.0, 2055.0, 2054.0, 2055.0, 2055.0, 2055.0, 2055.0, 2055.0, 2054.0, 2055.0, 2054.0, 2054.0, 2054.0, 2054.0, 2054.0, 2055.0, 2055.0, 2055.0, 2055.0, 2054.0, 2055.0, 2054.0, 2054.0, 2054.0, 2055.0, 2053.0, 2053.0, 2054.0, 2054.0, 2054.0, 2054.0, 2055.0, 2054.0, 2054.0, 2055.0, 2055.0, 2054.0, 2055.0, 2054.0, 2055.0, 2054.0, 2055.0, 2055.0, 2054.0, 2055.0, 2054.0, 2054.0]
    },
    "slices": {}
  }
}