{
  "AcquisitionMatrixPE": 80,
  "AcquisitionNumber": 1,
  "AcquisitionTime": "08:50:43.502500",
  "BandwidthPerPixelPhaseEncode": 25,
  "BaseResolution": 80,
  "BodyPartExamined": "BRAIN",
  "CoilCombinationMethod": "Sum of Squares",
  "ConsistencyInfo": "N4_VE11E_LATEST_20181129",
  "ConversionSoftware": "dcm2niix",
  "ConversionSoftwareVersion": "v1.0.20220720",
  "DerivedVendorReportedEchoSpacing": 0.0005,
  "DeviceSerialNumber": "66112",
  "DwellTime": 2.7e-06,
  "EchoTime": 0.03,
  "EchoTrainLength": 80,
  "EffectiveEchoSpacing": 0.0005,
  "FlipAngle": 77,
  "HeudiconvVersion": "0.13.1",
  "ImageOrientationPatientDICOM": [0.98692, 0.160857, 0.0106742, -0.155607, 0.933215, 0.323876],
  "ImageOrientationText": "Tra>Cor(18.8)>Sag(-2.4)",
  "ImageType": [
    "ORIGINAL",
    "PRIMARY",
    "M",
    "ND",
    "NORM",
    "MOSAIC"
],
  "ImagingFrequency": 123.252,
  "InPlanePhaseEncodingDirectionDICOM": "COL",
  "InstitutionAddress": "Maynard 3,Hanover,NH,US,03755",
  "InstitutionName": "Dartmouth College - PBS",
  "InstitutionalDepartmentName": "Department",
  "MRAcquisitionType": "2D",
  "MagneticFieldStrength": 3,
  "Manufacturer": "Siemens",
  "ManufacturersModelName": "Prisma",
  "MatrixCoilMode": "SENSE",
  "Modality": "MR",
  "NonlinearGradientCorrection": false,
  "PartialFourier": 1,
  "PatientPosition": "HFS",
  "PercentPhaseFOV": 100,
  "PercentSampling": 100,
  "PhaseEncodingDirection": "j-",
  "PhaseEncodingSteps": 80,
  "PhaseResolution": 1,
  "PixelBandwidth": 2315,
  "ProcedureStepDescription": "dbic^QA",
  "ProtocolName": "func-bold_fa-77",
  "PulseSequenceDetails": "%SiemensSeq%\\ep2d_bold",
  "ReceiveCoilActiveElements": "HC1-7;NC1,2",
  "ReceiveCoilName": "HeadNeck_64",
  "ReconMatrixPE": 80,
  "RepetitionTime": 2,
  "SAR": 0.0328307,
  "ScanOptions": "FS",
  "ScanningSequence": "EP",
  "SequenceName": "*epfid2d1_80",
  "SequenceVariant": "SK",
  "SeriesDescription": "func-bold_fa-77",
  "SeriesNumber": 7,
  "ShimSetting": [4136, -7713, -7506, 133, -78, -246, -46, 67],
  "SliceThickness": 3.5,
  "SliceTiming": [0.99, 0, 1.055, 0.065, 1.12, 0.13, 1.1875, 0.1975, 1.2525, 0.2625, 1.32, 0.33, 1.385, 0.395, 1.45, 0.46, 1.5175, 0.5275, 1.5825, 0.5925, 1.65, 0.66, 1.715, 0.725, 1.78, 0.79, 1.8475, 0.8575, 1.9125, 0.9225],
  "SoftwareVersions": "syngo MR E11",
  "SpacingBetweenSlices": 3.99,
  "StationName": "AWP66112",
  "TotalReadoutTime": 0.0395,
  "TxRefAmp": 221.17,
  "dcmmeta_affine": [
    [-2.9607601165771484, -0.46681979298591614, -0.16812412440776825, 140.15675354003906],
    [-0.4825707674026489, 2.7996459007263184, 1.2819904088974, -85.49562072753906],
    [0.03202266991138458, -0.9716284871101379, 3.7746965885162354, -17.967958450317383],
    [0.0, 0.0, 0.0, 1.0]
],
  "dcmmeta_reorient_transform": [
    [0.0, -1.0, 0.0, 79.0],
    [1.0, 0.0, 0.0, 0.0],
    [0.0, 0.0, 1.0, 0.0],
    [0.0, 0.0, 0.0, 1.0]
],
  "dcmmeta_shape": [80, 80, 30, 200],
  "dcmmeta_slice_dim": 2,
  "dcmmeta_version": 0.6,
  "global": {
    "const": {
      "AccessionNumber": "qa64",
      "AcquisitionMatrix": [80, 0, 0, 80],
      "AngioFlag": "N",
      "BitsAllocated": 16,
      "BitsStored": 12,
      "BodyPartExamined": "BRAIN",
      "Columns": 480,
      "EchoNumbers": 1,
      "EchoTime": 30.0,
      "EchoTrainLength": 80,
      "FlipAngle": 77.0,
      "HighBit": 11,
      "ImageOrientationPatient": [0.98692001338917, 0.16085691815512, 0.01067422379146, -0.1556065978196, 0.93321531129743, 0.32387616379575],
      "ImagePositionPatient": [-602.06604018391, -792.11974486419, -295.45684165434],
      "ImageType": [
        "ORIGINAL",
        "PRIMARY",
        "M",
        "ND",
        "NORM",
        "MOSAIC"
],
      "ImagedNucleus": "1H",
      "ImagingFrequency": 123.252361,
      "InPlanePhaseEncodingDirection": "COL",
      "MRAcquisitionType": "2D",
      "MagneticFieldStrength": 3.0,
      "Manufacturer": "SIEMENS",
      "ManufacturerModelName": "Prisma",
      "Modality": "MR",
      "NumberOfAverages": 1.0,
      "NumberOfPhaseEncodingSteps": 80,
      "PercentPhaseFieldOfView": 100.0,
      "PercentSampling": 100.0,
      "PerformedProcedureStepStartTime": "084159.705000",
      "PhotometricInterpretation": "MONOCHROME2",
      "PixelBandwidth": 2315.0,
      "PixelRepresentation": 0,
      "PixelSpacing": [3.0, 3.0],
      "ProtocolName": "func-bold_fa-77",
      "RepetitionTime": 2000.0,
      "Rows": 480,
      "SAR": 0.03283073312259,
      "SamplesPerPixel": 1,
      "ScanOptions": "FS",
      "ScanningSequence": "EP",
      "SequenceName": "*epfid2d1_80",
      "SequenceVariant": "SK",
      "SeriesDescription": "func-bold_fa-77",
      "SeriesNumber": 7,
      "SeriesTime": "085136.556000",
      "SliceLocation": -50.373906946193,
      "SliceThickness": 3.5,
      "SmallestImagePixelValue": 0,
      "SoftwareVersions": "syngo MR E11",
      "SpacingBetweenSlices": 3.9899999416192,
      "SpecificCharacterSet": "ISO_IR 100",
      "StudyID": "2",
      "StudyTime": "084159.669000",
      "TransmitCoilName": "Body",
      "VariableFlipAngleFlag": "N",
      "WindowCenterWidthExplanation": "Algo1"
    },
    "slices": {}
  },
  "time": {
    "samples": {
      "AcquisitionNumber": [1, 2, 3, 4, 5, 6, 7, 8, 9, 10, 11, 12, 13, 14, 15, 16, 17, 18, 19, 20, 21, 22, 23, 24, 25, 26, 27, 28, 29, 30, 31, 32, 33, 34, 35, 36, 37, 38, 39, 40, 41, 42, 43, 44, 45, 46, 47, 48, 49, 50, 51, 52, 53, 54, 55, 56, 57, 58, 59, 60, 61, 62, 63, 64, 65, 66, 67, 68, 69, 70, 71, 72, 73, 74, 75, 76, 77, 78, 79, 80, 81, 82, 83, 84, 85, 86, 87, 88, 89, 90, 91, 92, 93, 94, 95, 96, 97, 98, 99, 100, 101, 102, 103, 104, 105, 106, 107, 108, 109, 110, 111, 112, 113, 114, 115, 116, 117, 118, 119, 120, 121, 122, 123, 124, 125, 126, 127, 128, 129, 130, 131, 132, 133, 134, 135, 136, 137, 138, 139, 140, 141, 142, 143, 144, 145, 146, 147, 148, 149, 150, 151, 152, 153, 154, 155, 156, 157, 158, 159, 160, 161, 162, 163, 164, 165, 166, 167, 168, 169, 170, 171, 172, 173, 174, 175, 176, 177, 178, 179, 180, 181, 182, 183, 184, 185, 186, 187, 188, 189, 190, 191, 192, 193, 194, 195, 196, 197, 198, 199, 200],
      "AcquisitionTime": ["085043.502500", "085045.502500", "085047.502500", "085049.502500", "085051.502500", "085053.502500", "085055.502500", "085057.502500", "085059.502500", "085101.502500", "085103.502500", "085105.502500", "085107.502500", "085109.502500", "085111.502500", "085113.502500", "085115.502500", "085117.502500", "085119.502500", "085121.502500", "085123.502500", "085125.502500", "085127.502500", "085129.502500", "085131.502500", "085133.502500", "085135.502500", "085137.502500", "085139.502500", "085141.502500", "085143.502500", "085145.502500", "085147.502500", "085149.502500", "085151.502500", "085153.502500", "085155.502500", "085157.502500", "085159.502500", "085201.502500", "085203.502500", "085205.502500", "085207.502500", "085209.502500", "085211.502500", "085213.502500", "085215.502500", "085217.502500", "085219.502500", "085221.502500", "085223.502500", "085225.502500", "085227.502500", "085229.502500", "085231.502500", "085233.502500", "085235.502500", "085237.502500", "085239.502500", "085241.502500", "085243.502500", "085245.502500", "085247.502500", "085249.502500", "085251.502500", "085253.502500", "085255.502500", "085257.502500", "085259.502500", "085301.502500", "085303.502500", "085305.502500", "085307.502500", "085309.502500", "085311.502500", "085313.502500", "085315.502500", "085317.502500", "085319.502500", "085321.502500", "085323.502500", "085325.502500", "085327.502500", "085329.502500", "085331.502500", "085333.502500", "085335.502500", "085337.502500", "085339.502500", "085341.502500", "085343.502500", "085345.502500", "085347.502500", "085349.502500", "085351.502500", "085353.502500", "085355.502500", "085357.502500", "085359.502500", "085401.502500", "085403.502500", "085405.502500", "085407.502500", "085409.502500", "085411.502500", "085413.502500", "085415.502500", "085417.502500", "085419.502500", "085421.502500", "085423.502500", "085425.502500", "085427.502500", "085429.502500", "085431.502500", "085433.502500", "085435.502500", "085437.502500", "085439.502500", "085441.502500", "085443.502500", "085445.502500", "085447.502500", "085449.502500", "085451.502500", "085453.502500", "085455.502500", "085457.502500", "085459.502500", "085501.502500", "085503.502500", "085505.502500", "085507.502500", "085509.502500", "085511.502500", "085513.502500", "085515.502500", "085517.502500", "085519.502500", "085521.502500", "085523.502500", "085525.502500", "085527.502500", "085529.502500", "085531.502500", "085533.502500", "085535.502500", "085537.502500", "085539.502500", "085541.502500", "085543.502500", "085545.502500", "085547.502500", "085549.502500", "085551.502500", "085553.502500", "085555.502500", "085557.502500", "085559.502500", "085601.502500", "085603.502500", "085605.502500", "085607.502500", "085609.502500", "085611.502500", "085613.502500", "085615.502500", "085617.502500", "085619.502500", "085621.502500", "085623.502500", "085625.502500", "085627.502500", "085629.502500", "085631.502500", "085633.502500", "085635.502500", "085637.502500", "085639.502500", "085641.502500", "085643.502500", "085645.502500", "085647.502500", "085649.502500", "085651.502500", "085653.502500", "085655.502500", "085657.502500", "085659.502500", "085701.502500", "085703.502500", "085705.502500", "085707.502500", "085709.502500", "085711.502500", "085713.502500", "085715.502500", "085717.502500", "085719.502500", "085721.502500"],
      "ContentTime": ["085136.559000", "085136.563000", "085136.565000", "085136.567000", "085136.570000", "085136.572000", "085136.574000", "085136.577000", "085136.579000", "085136.581000", "085136.583000", "085136.586000", "085136.588000", "085136.590000", "085136.593000", "085136.595000", "085136.597000", "085136.600000", "085136.602000", "085136.604000", "085136.607000", "085136.609000", "085136.611000", "085136.614000", "085136.616000", "085136.618000", "085216.554000", "085216.557000", "085216.559000", "085216.561000", "085216.564000", "085216.566000", "085216.568000", "085216.571000", "085216.573000", "085216.575000", "085216.578000", "085216.580000", "085216.582000", "085216.585000", "085216.587000", "085216.589000", "085216.592000", "085216.594000", "085216.596000", "085216.599000", "085256.554000", "085256.557000", "085256.559000", "085256.562000", "085256.564000", "085256.566000", "085256.569000", "085256.571000", "085256.573000", "085256.575000", "085256.578000", "085256.580000", "085256.582000", "085256.585000", "085256.587000", "085256.589000", "085256.592000", "085256.594000", "085256.596000", "085256.599000", "085336.554000", "085336.557000", "085336.559000", "085336.561000", "085336.564000", "085336.566000", "085336.568000", "085336.571000", "085336.573000", "085336.575000", "085336.578000", "085336.580000", "085336.582000", "085336.585000", "085336.587000", "085336.589000", "085336.592000", "085336.594000", "085336.596000", "085336.599000", "085416.554000", "085416.557000", "085416.559000", "085416.561000", "085416.564000", "085416.566000", "085416.569000", "085416.571000", "085416.573000", "085416.576000", "085416.578000", "085416.580000", "085416.583000", "085416.585000", "085416.587000", "085416.590000", "085416.592000", "085416.594000", "085416.597000", "085416.599000", "085456.554000", "085456.557000", "085456.559000", "085456.562000", "085456.564000", "085456.566000", "085456.569000", "085456.571000", "085456.573000", "085456.575000", "085456.578000", "085456.580000", "085456.582000", "085456.585000", "085456.587000", "085456.590000", "085456.592000", "085456.594000", "085456.596000", "085456.599000", "085536.554000", "085536.557000", "085536.559000", "085536.561000", "085536.564000", "085536.566000", "085536.568000", "085536.571000", "085536.573000", "085536.575000", "085536.578000", "085536.580000", "085536.582000", "085536.585000", "085536.587000", "085536.589000", "085536.592000", "085536.594000", "085536.596000", "085536.599000", "085616.554000", "085616.557000", "085616.559000", "085616.561000", "085616.564000", "085616.566000", "085616.568000", "085616.571000", "085616.573000", "085616.575000", "085616.578000", "085616.580000", "085616.582000", "085616.585000", "085616.587000", "085616.589000", "085616.592000", "085616.594000", "085616.596000", "085616.599000", "085656.554000", "085656.557000", "085656.559000", "085656.561000", "085656.564000", "085656.566000", "085656.568000", "085656.571000", "085656.573000", "085656.575000", "085656.578000", "085656.580000", "085656.582000", "085656.585000", "085656.587000", "085656.589000", "085656.592000", "085656.594000", "085656.597000", "085656.599000", "085722.899000", "085722.902000", "085722.904000", "085722.907000", "085722.909000", "085722.911000", "085722.914000", "085722.916000", "085722.919000", "085722.921000", "085722.923000", "085722.926000", "085722.929000", "085722.933000"],
      "InstanceCreationTime": ["085136.559000", "085136.563000", "085136.565000", "085136.567000", "085136.570000", "085136.572000", "085136.574000", "085136.577000", "085136.579000", "085136.581000", "085136.583000", "085136.586000", "085136.588000", "085136.590000", "085136.593000", "085136.595000", "085136.597000", "085136.600000", "085136.602000", "085136.604000", "085136.607000", "085136.609000", "085136.611000", "085136.614000", "085136.616000", "085136.618000", "085216.554000", "085216.557000", "085216.559000", "085216.561000", "085216.564000", "085216.566000", "085216.568000", "085216.571000", "085216.573000", "085216.575000", "085216.578000", "085216.580000", "085216.582000", "085216.585000", "085216.587000", "085216.589000", "085216.592000", "085216.594000", "085216.596000", "085216.599000", "085256.554000", "085256.557000", "085256.559000", "085256.562000", "085256.564000", "085256.566000", "085256.569000", "085256.571000", "085256.573000", "085256.575000", "085256.578000", "085256.580000", "085256.582000", "085256.585000", "085256.587000", "085256.589000", "085256.592000", "085256.594000", "085256.596000", "085256.599000", "085336.554000", "085336.557000", "085336.559000", "085336.561000", "085336.564000", "085336.566000", "085336.568000", "085336.571000", "085336.573000", "085336.575000", "085336.578000", "085336.580000", "085336.582000", "085336.585000", "085336.587000", "085336.589000", "085336.592000", "085336.594000", "085336.596000", "085336.599000", "085416.554000", "085416.557000", "085416.559000", "085416.561000", "085416.564000", "085416.566000", "085416.569000", "085416.571000", "085416.573000", "085416.576000", "085416.578000", "085416.580000", "085416.583000", "085416.585000", "085416.587000", "085416.590000", "085416.592000", "085416.594000", "085416.597000", "085416.599000", "085456.554000", "085456.557000", "085456.559000", "085456.562000", "085456.564000", "085456.566000", "085456.569000", "085456.571000", "085456.573000", "085456.575000", "085456.578000", "085456.580000", "085456.582000", "085456.585000", "085456.587000", "085456.590000", "085456.592000", "085456.594000", "085456.596000", "085456.599000", "085536.554000", "085536.557000", "085536.559000", "085536.561000", "085536.564000", "085536.566000", "085536.568000", "085536.571000", "085536.573000", "085536.575000", "085536.578000", "085536.580000", "085536.582000", "085536.585000", "085536.587000", "085536.589000", "085536.592000", "085536.594000", "085536.596000", "085536.599000", "085616.554000", "085616.557000", "085616.559000", "085616.561000", "085616.564000", "085616.566000", "085616.568000", "085616.571000", "085616.573000", "085616.575000", "085616.578000", "085616.580000", "085616.582000", "085616.585000", "085616.587000", "085616.589000", "085616.592000", "085616.594000", "085616.596000", "085616.599000", "085656.554000", "085656.557000", "085656.559000", "085656.561000", "085656.564000", "085656.566000", "085656.568000", "085656.571000", "085656.573000", "085656.575000", "085656.578000", "085656.580000", "085656.582000", "085656.585000", "085656.587000", "085656.589000", "085656.592000", "085656.594000", "085656.597000", "085656.599000", "085722.899000", "085722.902000", "085722.904000", "085722.907000", "085722.909000", "085722.911000", "085722.914000", "085722.916000", "085722.919000", "085722.921000", "085722.923000", "085722.926000", "085722.929000", "085722.933000"],
      "InstanceNumber": [1, 2, 3, 4, 5, 6, 7, 8, 9, 10, 11, 12, 13, 14, 15, 16, 17, 18, 19, 20, 21, 22, 23, 24, 25, 26, 27, 28, 29, 30, 31, 32, 33, 34, 35, 36, 37, 38, 39, 40, 41, 42, 43, 44, 45, 46, 47, 48, 49, 50, 51, 52, 53, 54, 55, 56, 57, 58, 59, 60, 61, 62, 63, 64, 65, 66, 67, 68, 69, 70, 71, 72, 73, 74, 75, 76, 77, 78, 79, 80, 81, 82, 83, 84, 85, 86, 87, 88, 89, 90, 91, 92, 93, 94, 95, 96, 97, 98, 99, 100, 101, 102, 103, 104, 105, 106, 107, 108, 109, 110, 111, 112, 113, 114, 115, 116, 117, 118, 119, 120, 121, 122, 123, 124, 125, 126, 127, 128, 129, 130, 131, 132, 133, 134, 135, 136, 137, 138, 139, 140, 141, 142, 143, 144, 145, 146, 147, 148, 149, 150, 151, 152, 153, 154, 155, 156, 157, 158, 159, 160, 161, 162, 163, 164, 165, 166, 167, 168, 169, 170, 171, 172, 173, 174, 175, 176, 177, 178, 179, 180, 181, 182, 183, 184, 185, 186, 187, 188, 189, 190, 191, 192, 193, 194, 195, 196, 197, 198, 199, 200],
      "LargestImagePixelValue": [3626, 3627, 3628, 3628, 3629, 3629, 3630, 3626, 3635, 3631, 3626, 3628, 3627, 3630, 3627, 3629, 3632, 3629, 3629, 3626, 3628, 3625, 3629, 3627, 3630, 3628, 3625, 3630, 3629, 3628, 3631, 3634, 3632, 3628, 3632, 3635, 3632, 3632, 3629, 3621, 3632, 3628, 3631, 3625, 3624, 3627, 3629, 3625, 3625, 3627, 3627, 3633, 3624, 3627, 3624, 3632, 3631, 3627, 3631, 3629, 3626, 3628, 3633, 3631, 3631, 3630, 3633, 3632, 3631, 3631, 3631, 3634, 3636, 3630, 3628, 3633, 3628, 3631, 3629, 3626, 3630, 3627, 3630, 3630, 3633, 3633, 3631, 3631, 3631, 3631, 3631, 3630, 3631, 3633, 3634, 3633, 3633, 3633, 3632, 3630, 3632, 3631, 3633, 3632, 3628, 3631, 3634, 3630, 3631, 3627, 3630, 3629, 3625, 3630, 3630, 3632, 3631, 3633, 3629, 3626, 3633, 3628, 3629, 3630, 3631, 3628, 3633, 3630, 3630, 3628, 3627, 3630, 3628, 3630, 3632, 3632, 3630, 3633, 3632, 3627, 3631, 3632, 3629, 3630, 3630, 3626, 3629, 3632, 3632, 3628, 3632, 3628, 3631, 3630, 3628, 3630, 3630, 3630, 3626, 3630, 3628, 3628, 3625, 3627, 3631, 3631, 3623, 3627, 3627, 3632, 3629, 3629, 3624, 3623, 3627, 3623, 3632, 3627, 3629, 3630, 3630, 3625, 3626, 3627, 3624, 3628, 3630, 3628, 3628, 3632, 3630, 3629, 3633, 3628, 3629, 3629, 3628, 3626, 3629, 3631],
      "WindowCenter": [1301.0, 1301.0, 1301.0, 1302.0, 1302.0, 1302.0, 1301.0, 1301.0, 1301.0, 1301.0, 1301.0, 1302.0, 1302.0, 1301.0, 1301.0, 1301.0, 1301.0, 1301.0, 1301.0, 1301.0, 1301.0, 1301.0, 1301.0, 1301.0, 1301.0, 1301.0, 1301.0, 1301.0, 1302.0, 1302.0, 1302.0, 1302.0, 1302.0, 1301.0, 1302.0, 1302.0, 1301.0, 1301.0, 1301.0, 1301.0, 1301.0, 1301.0, 1302.0, 1301.0, 1301.0, 1301.0, 1301.0, 1301.0, 1301.0, 1302.0, 1302.0, 1301.0, 1302.0, 1301.0, 1301.0, 1301.0, 1301.0, 1302.0, 1301.0, 1301.0, 1301.0, 1301.0, 1301.0, 1301.0, 1301.0, 1301.0, 1301.0, 1301.0, 1302.0, 1301.0, 1301.0, 1301.0, 1301.0, 1301.0, 1301.0, 1301.0, 1301.0, 1301.0, 1301.0, 1301.0, 1301.0, 1302.0, 1302.0, 1301.0, 1301.0, 1301.0, 1301.0, 1301.0, 1301.0, 1301.0, 1301.0, 1301.0, 1301.0, 1301.0, 1301.0, 1301.0, 1301.0, 1301.0, 1301.0, 1301.0, 1301.0, 1301.0, 1301.0, 1301.0, 1301.0, 1301.0, 1301.0, 1301.0, 1301.0, 1301.0, 1301.0, 1301.0, 1301.0, 1301.0, 1301.0, 1301.0, 1300.0, 1301.0, 1300.0, 1300.0, 1301.0, 1300.0, 1301.0, 1301.0, 1300.0, 1300.0, 1301.0, 1301.0, 1301.0, 1300.0, 1301.0, 1300.0, 1301.0, 1301.0, 1301.0, 1301.0, 1301.0, 1300.0, 1301.0, 1301.0, 1301.0, 1301.0, 1300.0, 1300.0, 1300.0, 1301.0, 1300.0, 1300.0, 1301.0, 1300.0, 1301.0, 1301.0, 1300.0, 1301.0, 1300.0, 1301.0, 1301.0, 1301.0, 1300.0, 1301.0, 1300.0, 1300.0, 1301.0, 1300.0, 1301.0, 1300.0, 1301.0, 1300.0, 1301.0, 1301.0, 1301.0, 1300.0, 1301.0, 1301.0, 1301.0, 1301.0, 1301.0, 1301.0, 1301.0, 1300.0, 1301.0, 1301.0, 1300.0, 1301.0, 1300.0, 1301.0, 1301.0, 1301.0, 1301.0, 1300.0, 1300.0, 1300.0, 1300.0, 1300.0, 1300.0, 1301.0, 1300.0, 1300.0, 1301.0, 1300.0],
      "WindowWidth": [3127.0, 3127.0, 3126.0, 3126.0, 3126.0, 3126.0, 3127.0, 3127.0, 3127.0, 3127.0, 3127.0, 3126.0, 3126.0, 3126.0, 3126.0, 3127.0, 3126.0, 3127.0, 3126.0, 3127.0, 3126.0, 3126.0, 3126.0, 3127.0, 3126.0, 3126.0, 3127.0, 3127.0, 3127.0, 3127.0, 3127.0, 3127.0, 3127.0, 3127.0, 3127.0, 3127.0, 3127.0, 3127.0, 3127.0, 3127.0, 3127.0, 3127.0, 3127.0, 3127.0, 3127.0, 3127.0, 3127.0, 3127.0, 3127.0, 3127.0, 3127.0, 3127.0, 3127.0, 3127.0, 3127.0, 3127.0, 3127.0, 3128.0, 3127.0, 3127.0, 3127.0, 3127.0, 3127.0, 3127.0, 3127.0, 3127.0, 3127.0, 3127.0, 3127.0, 3127.0, 3127.0, 3127.0, 3127.0, 3127.0, 3127.0, 3127.0, 3127.0, 3127.0, 3127.0, 3127.0, 3127.0, 3128.0, 3127.0, 3127.0, 3127.0, 3127.0, 3127.0, 3127.0, 3127.0, 3127.0, 3127.0, 3127.0, 3127.0, 3127.0, 3127.0, 3127.0, 3127.0, 3127.0, 3127.0, 3127.0, 3127.0, 3127.0, 3127.0, 3127.0, 3127.0, 3127.0, 3127.0, 3127.0, 3127.0, 3128.0, 3127.0, 3127.0, 3127.0, 3127.0, 3128.0, 3128.0, 3128.0, 3127.0, 3128.0, 3128.0, 3128.0, 3128.0, 3127.0, 3128.0, 3128.0, 3128.0, 3127.0, 3127.0, 3127.0, 3127.0, 3127.0, 3128.0, 3127.0, 3128.0, 3127.0, 3127.0, 3127.0, 3128.0, 3127.0, 3128.0, 3127.0, 3127.0, 3128.0, 3128.0, 3128.0, 3127.0, 3128.0, 3128.0, 3127.0, 3128.0, 3127.0, 3127.0, 3128.0, 3127.0, 3128.0, 3127.0, 3127.0, 3127.0, 3128.0, 3127.0, 3128.0, 3128.0, 3127.0, 3128.0, 3127.0, 3128.0, 3127.0, 3128.0, 3127.0, 3127.0, 3127.0, 3127.0, 3127.0, 3127.0, 3127.0, 3127.0, 3127.0, 3127.0, 3127.0, 3128.0, 3127.0, 3127.0, 3128.0, 3127.0, 3128.0, 3127.0, 3127.0, 3127.0, 3127.0, 3127.0, 3127.0, 3127.0, 3127.0, 3127.0, 3127.0, 3127.0, 3127.0, 3127.0, 3127.0, 3127.0]
    },
    "slices": {}
  }
}