{
  "AcquisitionMatrixPE": 80,
  "AcquisitionNumber": 1,
  "AcquisitionTime": "08:57:29.490000",
  "BandwidthPerPixelPhaseEncode": 25,
  "BaseResolution": 80,
  "BodyPartExamined": "BRAIN",
  "CoilCombinationMethod": "Sum of Squares",
  "ConsistencyInfo": "N4_VE11E_LATEST_20181129",
  "ConversionSoftware": "dcm2niix",
  "ConversionSoftwareVersion": "v1.0.20220720",
  "DerivedVendorReportedEchoSpacing": 0.0005,
  "DeviceSerialNumber": "66112",
  "DwellTime": 2.7e-06,
  "EchoTime": 0.03,
  "EchoTrainLength": 80,
  "EffectiveEchoSpacing": 0.0005,
  "FlipAngle": 10,
  "HeudiconvVersion": "0.13.1",
  "ImageOrientationPatientDICOM": [0.98692, 0.160857, 0.0106742, -0.155607, 0.933215, 0.323876],
  "ImageOrientationText": "Tra>Cor(18.8)>Sag(-2.4)",
  "ImageType": [
    "ORIGINAL",
    "PRIMARY",
    "M",
    "ND",
    "NORM",
    "MOSAIC"
],
  "ImagingFrequency": 123.252,
  "InPlanePhaseEncodingDirectionDICOM": "COL",
  "InstitutionAddress": "Maynard 3,Hanover,NH,US,03755",
  "InstitutionName": "Dartmouth College - PBS",
  "InstitutionalDepartmentName": "Department",
  "MRAcquisitionType": "2D",
  "MagneticFieldStrength": 3,
  "Manufacturer": "Siemens",
  "ManufacturersModelName": "Prisma",
  "MatrixCoilMode": "SENSE",
  "Modality": "MR",
  "NonlinearGradientCorrection": false,
  "PartialFourier": 1,
  "PatientPosition": "HFS",
  "PercentPhaseFOV": 100,
  "PercentSampling": 100,
  "PhaseEncodingDirection": "j-",
  "PhaseEncodingSteps": 80,
  "PhaseResolution": 1,
  "PixelBandwidth": 2315,
  "ProcedureStepDescription": "dbic^QA",
  "ProtocolName": "func-bold_fa-10",
  "PulseSequenceDetails": "%SiemensSeq%\\ep2d_bold",
  "ReceiveCoilActiveElements": "HC1-7;NC1,2",
  "ReceiveCoilName": "HeadNeck_64",
  "ReconMatrixPE": 80,
  "RepetitionTime": 2,
  "SAR": 0.00880681,
  "ScanOptions": "FS",
  "ScanningSequence": "EP",
  "SequenceName": "*epfid2d1_80",
  "SequenceVariant": "SK",
  "SeriesDescription": "func-bold_fa-10",
  "SeriesNumber": 9,
  "ShimSetting": [4136, -7713, -7506, 133, -78, -246, -46, 67],
  "SliceThickness": 3.5,
  "SliceTiming": [0.9875, 0, 1.055, 0.065, 1.12, 0.13, 1.1875, 0.1975, 1.2525, 0.2625, 1.3175, 0.33, 1.385, 0.395, 1.45, 0.46, 1.5175, 0.5275, 1.5825, 0.5925, 1.6475, 0.66, 1.715, 0.725, 1.78, 0.79, 1.8475, 0.8575, 1.9125, 0.9225],
  "SoftwareVersions": "syngo MR E11",
  "SpacingBetweenSlices": 3.99,
  "StationName": "AWP66112",
  "TotalReadoutTime": 0.0395,
  "TxRefAmp": 221.17,
  "dcmmeta_affine": [
    [-2.9607601165771484, -0.46681979298591614, -0.16812412440776825, 140.15675354003906],
    [-0.4825707674026489, 2.7996459007263184, 1.2819904088974, -85.49562072753906],
    [0.03202266991138458, -0.9716284871101379, 3.7746965885162354, -17.967958450317383],
    [0.0, 0.0, 0.0, 1.0]
],
  "dcmmeta_reorient_transform": [
    [0.0, -1.0, 0.0, 79.0],
    [1.0, 0.0, 0.0, 0.0],
    [0.0, 0.0, 1.0, 0.0],
    [0.0, 0.0, 0.0, 1.0]
],
  "dcmmeta_shape": [80, 80, 30, 200],
  "dcmmeta_slice_dim": 2,
  "dcmmeta_version": 0.6,
  "global": {
    "const": {
      "AccessionNumber": "qa64",
      "AcquisitionMatrix": [80, 0, 0, 80],
      "AngioFlag": "N",
      "BitsAllocated": 16,
      "BitsStored": 12,
      "BodyPartExamined": "BRAIN",
      "Columns": 480,
      "EchoNumbers": 1,
      "EchoTime": 30.0,
      "EchoTrainLength": 80,
      "FlipAngle": 10.0,
      "HighBit": 11,
      "ImageOrientationPatient": [0.98692001338917, 0.16085691815512, 0.01067422379146, -0.1556065978196, 0.93321531129743, 0.32387616379575],
      "ImagePositionPatient": [-602.06604018391, -792.11974486419, -295.45684165434],
      "ImageType": [
        "ORIGINAL",
        "PRIMARY",
        "M",
        "ND",
        "NORM",
        "MOSAIC"
],
      "ImagedNucleus": "1H",
      "ImagingFrequency": 123.252361,
      "InPlanePhaseEncodingDirection": "COL",
      "MRAcquisitionType": "2D",
      "MagneticFieldStrength": 3.0,
      "Manufacturer": "SIEMENS",
      "ManufacturerModelName": "Prisma",
      "Modality": "MR",
      "NumberOfAverages": 1.0,
      "NumberOfPhaseEncodingSteps": 80,
      "PercentPhaseFieldOfView": 100.0,
      "PercentSampling": 100.0,
      "PerformedProcedureStepStartTime": "084159.705000",
      "PhotometricInterpretation": "MONOCHROME2",
      "PixelBandwidth": 2315.0,
      "PixelRepresentation": 0,
      "PixelSpacing": [3.0, 3.0],
      "ProtocolName": "func-bold_fa-10",
      "RepetitionTime": 2000.0,
      "Rows": 480,
      "SAR": 0.00880681393875,
      "SamplesPerPixel": 1,
      "ScanOptions": "FS",
      "ScanningSequence": "EP",
      "SequenceName": "*epfid2d1_80",
      "SequenceVariant": "SK",
      "SeriesDescription": "func-bold_fa-10",
      "SeriesNumber": 9,
      "SeriesTime": "085816.642000",
      "SliceLocation": -50.373906946193,
      "SliceThickness": 3.5,
      "SmallestImagePixelValue": 0,
      "SoftwareVersions": "syngo MR E11",
      "SpacingBetweenSlices": 3.9899999416192,
      "SpecificCharacterSet": "ISO_IR 100",
      "StudyID": "2",
      "StudyTime": "084159.669000",
      "TransmitCoilName": "Body",
      "VariableFlipAngleFlag": "N",
      "WindowCenterWidthExplanation": "Algo1"
    },
    "slices": {}
  },
  "time": {
    "samples": {
      "AcquisitionNumber": [1, 2, 3, 4, 5, 6, 7, 8, 9, 10, 11, 12, 13, 14, 15, 16, 17, 18, 19, 20, 21, 22, 23, 24, 25, 26, 27, 28, 29, 30, 31, 32, 33, 34, 35, 36, 37, 38, 39, 40, 41, 42, 43, 44, 45, 46, 47, 48, 49, 50, 51, 52, 53, 54, 55, 56, 57, 58, 59, 60, 61, 62, 63, 64, 65, 66, 67, 68, 69, 70, 71, 72, 73, 74, 75, 76, 77, 78, 79, 80, 81, 82, 83, 84, 85, 86, 87, 88, 89, 90, 91, 92, 93, 94, 95, 96, 97, 98, 99, 100, 101, 102, 103, 104, 105, 106, 107, 108, 109, 110, 111, 112, 113, 114, 115, 116, 117, 118, 119, 120, 121, 122, 123, 124, 125, 126, 127, 128, 129, 130, 131, 132, 133, 134, 135, 136, 137, 138, 139, 140, 141, 142, 143, 144, 145, 146, 147, 148, 149, 150, 151, 152, 153, 154, 155, 156, 157, 158, 159, 160, 161, 162, 163, 164, 165, 166, 167, 168, 169, 170, 171, 172, 173, 174, 175, 176, 177, 178, 179, 180, 181, 182, 183, 184, 185, 186, 187, 188, 189, 190, 191, 192, 193, 194, 195, 196, 197, 198, 199, 200],
      "AcquisitionTime": ["085729.490000", "085731.490000", "085733.490000", "085735.490000", "085737.490000", "085739.490000", "085741.490000", "085743.490000", "085745.490000", "085747.490000", "085749.490000", "085751.490000", "085753.490000", "085755.490000", "085757.490000", "085759.490000", "085801.490000", "085803.490000", "085805.490000", "085807.490000", "085809.490000", "085811.490000", "085813.490000", "085815.490000", "085817.490000", "085819.490000", "085821.490000", "085823.490000", "085825.490000", "085827.490000", "085829.490000", "085831.490000", "085833.490000", "085835.490000", "085837.490000", "085839.490000", "085841.490000", "085843.490000", "085845.490000", "085847.490000", "085849.490000", "085851.490000", "085853.490000", "085855.490000", "085857.490000", "085859.490000", "085901.490000", "085903.490000", "085905.490000", "085907.490000", "085909.490000", "085911.490000", "085913.490000", "085915.490000", "085917.490000", "085919.490000", "085921.490000", "085923.490000", "085925.490000", "085927.490000", "085929.490000", "085931.490000", "085933.490000", "085935.490000", "085937.490000", "085939.490000", "085941.490000", "085943.490000", "085945.490000", "085947.490000", "085949.490000", "085951.490000", "085953.490000", "085955.490000", "085957.490000", "085959.490000", "090001.490000", "090003.490000", "090005.490000", "090007.490000", "090009.490000", "090011.490000", "090013.490000", "090015.490000", "090017.490000", "090019.490000", "090021.490000", "090023.490000", "090025.490000", "090027.490000", "090029.490000", "090031.490000", "090033.490000", "090035.490000", "090037.490000", "090039.490000", "090041.490000", "090043.490000", "090045.490000", "090047.490000", "090049.490000", "090051.490000", "090053.490000", "090055.490000", "090057.490000", "090059.490000", "090101.490000", "090103.490000", "090105.490000", "090107.490000", "090109.490000", "090111.490000", "090113.490000", "090115.490000", "090117.490000", "090119.490000", "090121.490000", "090123.490000", "090125.490000", "090127.490000", "090129.490000", "090131.490000", "090133.490000", "090135.490000", "090137.490000", "090139.490000", "090141.490000", "090143.490000", "090145.490000", "090147.490000", "090149.490000", "090151.490000", "090153.490000", "090155.490000", "090157.490000", "090159.490000", "090201.490000", "090203.490000", "090205.490000", "090207.490000", "090209.490000", "090211.490000", "090213.490000", "090215.490000", "090217.490000", "090219.490000", "090221.490000", "090223.490000", "090225.490000", "090227.490000", "090229.490000", "090231.490000", "090233.490000", "090235.490000", "090237.490000", "090239.490000", "090241.490000", "090243.490000", "090245.490000", "090247.490000", "090249.490000", "090251.490000", "090253.490000", "090255.490000", "090257.490000", "090259.490000", "090301.490000", "090303.490000", "090305.490000", "090307.490000", "090309.490000", "090311.490000", "090313.490000", "090315.490000", "090317.490000", "090319.490000", "090321.490000", "090323.490000", "090325.490000", "090327.490000", "090329.490000", "090331.490000", "090333.490000", "090335.490000", "090337.490000", "090339.490000", "090341.490000", "090343.490000", "090345.490000", "090347.490000", "090349.490000", "090351.490000", "090353.490000", "090355.490000", "090357.490000", "090359.490000", "090401.490000", "090403.490000", "090405.490000", "090407.490000"],
      "ContentTime": ["085816.645000", "085816.648000", "085816.650000", "085816.653000", "085816.655000", "085816.657000", "085816.660000", "085816.662000", "085816.664000", "085816.666000", "085816.669000", "085816.671000", "085816.673000", "085816.676000", "085816.678000", "085816.680000", "085816.683000", "085816.695000", "085816.697000", "085816.700000", "085816.702000", "085816.704000", "085816.707000", "085856.640000", "085856.643000", "085856.645000", "085856.647000", "085856.650000", "085856.652000", "085856.654000", "085856.657000", "085856.659000", "085856.661000", "085856.663000", "085856.666000", "085856.668000", "085856.670000", "085856.673000", "085856.675000", "085856.677000", "085856.679000", "085856.682000", "085856.684000", "085936.640000", "085936.643000", "085936.645000", "085936.647000", "085936.649000", "085936.652000", "085936.654000", "085936.656000", "085936.659000", "085936.661000", "085936.663000", "085936.666000", "085936.668000", "085936.670000", "085936.673000", "085936.675000", "085936.677000", "085936.679000", "085936.682000", "085936.684000", "090016.640000", "090016.643000", "090016.645000", "090016.648000", "090016.650000", "090016.652000", "090016.655000", "090016.657000", "090016.659000", "090016.662000", "090016.664000", "090016.666000", "090016.668000", "090016.671000", "090016.673000", "090016.675000", "090016.678000", "090016.680000", "090016.682000", "090016.684000", "090056.640000", "090056.643000", "090056.645000", "090056.647000", "090056.650000", "090056.652000", "090056.654000", "090056.657000", "090056.659000", "090056.661000", "090056.664000", "090056.666000", "090056.668000", "090056.671000", "090056.673000", "090056.675000", "090056.677000", "090056.680000", "090056.682000", "090056.684000", "090136.640000", "090136.643000", "090136.645000", "090136.647000", "090136.650000", "090136.664000", "090136.666000", "090136.669000", "090136.671000", "090136.673000", "090136.676000", "090136.678000", "090136.680000", "090136.682000", "090136.685000", "090136.699000", "090136.702000", "090136.704000", "090136.706000", "090136.709000", "090216.640000", "090216.643000", "090216.645000", "090216.647000", "090216.650000", "090216.652000", "090216.654000", "090216.657000", "090216.659000", "090216.661000", "090216.664000", "090216.666000", "090216.668000", "090216.670000", "090216.673000", "090216.675000", "090216.677000", "090216.680000", "090216.682000", "090216.684000", "090256.640000", "090256.643000", "090256.645000", "090256.648000", "090256.650000", "090256.652000", "090256.655000", "090256.657000", "090256.659000", "090256.662000", "090256.664000", "090256.666000", "090256.668000", "090256.671000", "090256.673000", "090256.675000", "090256.678000", "090256.680000", "090256.682000", "090256.685000", "090336.640000", "090336.643000", "090336.645000", "090336.647000", "090336.650000", "090336.652000", "090336.654000", "090336.657000", "090336.659000", "090336.661000", "090336.664000", "090336.666000", "090336.668000", "090336.671000", "090336.673000", "090336.675000", "090336.677000", "090336.686000", "090336.689000", "090336.691000", "090409.417000", "090409.420000", "090409.423000", "090409.425000", "090409.427000", "090409.430000", "090409.432000", "090409.435000", "090409.437000", "090409.439000", "090409.442000", "090409.444000", "090409.446000", "090409.451000", "090409.455000", "090409.459000", "090409.461000"],
      "InstanceCreationTime": ["085816.645000", "085816.648000", "085816.650000", "085816.653000", "085816.655000", "085816.657000", "085816.660000", "085816.662000", "085816.664000", "085816.666000", "085816.669000", "085816.671000", "085816.673000", "085816.676000", "085816.678000", "085816.680000", "085816.683000", "085816.695000", "085816.697000", "085816.700000", "085816.702000", "085816.704000", "085816.707000", "085856.640000", "085856.643000", "085856.645000", "085856.647000", "085856.650000", "085856.652000", "085856.654000", "085856.657000", "085856.659000", "085856.661000", "085856.663000", "085856.666000", "085856.668000", "085856.670000", "085856.673000", "085856.675000", "085856.677000", "085856.679000", "085856.682000", "085856.684000", "085936.640000", "085936.643000", "085936.645000", "085936.647000", "085936.649000", "085936.652000", "085936.654000", "085936.656000", "085936.659000", "085936.661000", "085936.663000", "085936.666000", "085936.668000", "085936.670000", "085936.673000", "085936.675000", "085936.677000", "085936.679000", "085936.682000", "085936.684000", "090016.640000", "090016.643000", "090016.645000", "090016.648000", "090016.650000", "090016.652000", "090016.655000", "090016.657000", "090016.659000", "090016.662000", "090016.664000", "090016.666000", "090016.668000", "090016.671000", "090016.673000", "090016.675000", "090016.678000", "090016.680000", "090016.682000", "090016.684000", "090056.640000", "090056.643000", "090056.645000", "090056.647000", "090056.650000", "090056.652000", "090056.654000", "090056.657000", "090056.659000", "090056.661000", "090056.664000", "090056.666000", "090056.668000", "090056.671000", "090056.673000", "090056.675000", "090056.677000", "090056.680000", "090056.682000", "090056.684000", "090136.640000", "090136.643000", "090136.645000", "090136.647000", "090136.650000", "090136.664000", "090136.666000", "090136.669000", "090136.671000", "090136.673000", "090136.676000", "090136.678000", "090136.680000", "090136.682000", "090136.685000", "090136.699000", "090136.702000", "090136.704000", "090136.706000", "090136.709000", "090216.640000", "090216.643000", "090216.645000", "090216.647000", "090216.650000", "090216.652000", "090216.654000", "090216.657000", "090216.659000", "090216.661000", "090216.664000", "090216.666000", "090216.668000", "090216.670000", "090216.673000", "090216.675000", "090216.677000", "090216.680000", "090216.682000", "090216.684000", "090256.640000", "090256.643000", "090256.645000", "090256.648000", "090256.650000", "090256.652000", "090256.655000", "090256.657000", "090256.659000", "090256.662000", "090256.664000", "090256.666000", "090256.668000", "090256.671000", "090256.673000", "090256.675000", "090256.678000", "090256.680000", "090256.682000", "090256.685000", "090336.640000", "090336.643000", "090336.645000", "090336.647000", "090336.650000", "090336.652000", "090336.654000", "090336.657000", "090336.659000", "090336.661000", "090336.664000", "090336.666000", "090336.668000", "090336.671000", "090336.673000", "090336.675000", "090336.677000", "090336.686000", "090336.689000", "090336.691000", "090409.417000", "090409.420000", "090409.423000", "090409.425000", "090409.427000", "090409.430000", "090409.432000", "090409.435000", "090409.437000", "090409.439000", "090409.442000", "090409.444000", "090409.446000", "090409.451000", "090409.455000", "090409.459000", "090409.461000"],
      "InstanceNumber": [1, 2, 3, 4, 5, 6, 7, 8, 9, 10, 11, 12, 13, 14, 15, 16, 17, 18, 19, 20, 21, 22, 23, 24, 25, 26, 27, 28, 29, 30, 31, 32, 33, 34, 35, 36, 37, 38, 39, 40, 41, 42, 43, 44, 45, 46, 47, 48, 49, 50, 51, 52, 53, 54, 55, 56, 57, 58, 59, 60, 61, 62, 63, 64, 65, 66, 67, 68, 69, 70, 71, 72, 73, 74, 75, 76, 77, 78, 79, 80, 81, 82, 83, 84, 85, 86, 87, 88, 89, 90, 91, 92, 93, 94, 95, 96, 97, 98, 99, 100, 101, 102, 103, 104, 105, 106, 107, 108, 109, 110, 111, 112, 113, 114, 115, 116, 117, 118, 119, 120, 121, 122, 123, 124, 125, 126, 127, 128, 129, 130, 131, 132, 133, 134, 135, 136, 137, 138, 139, 140, 141, 142, 143, 144, 145, 146, 147, 148, 149, 150, 151, 152, 153, 154, 155, 156, 157, 158, 159, 160, 161, 162, 163, 164, 165, 166, 167, 168, 169, 170, 171, 172, 173, 174, 175, 176, 177, 178, 179, 180, 181, 182, 183, 184, 185, 186, 187, 188, 189, 190, 191, 192, 193, 194, 195, 196, 197, 198, 199, 200],
      "LargestImagePixelValue": [614, 612, 612, 611, 609, 612, 611, 610, 611, 614, 612, 613, 615, 615, 609, 612, 611, 614, 611, 610, 613, 612, 612, 611, 614, 614, 611, 609, 611, 617, 615, 612, 614, 613, 614, 614, 612, 614, 614, 610, 612, 612, 617, 612, 612, 614, 611, 612, 611, 613, 615, 614, 613, 614, 612, 613, 613, 614, 611, 611, 612, 616, 613, 610, 609, 612, 614, 612, 610, 613, 610, 610, 609, 610, 613, 609, 611, 611, 612, 611, 610, 615, 612, 612, 613, 614, 612, 612, 611, 610, 612, 608, 609, 614, 612, 611, 611, 609, 609, 612, 612, 610, 615, 614, 612, 611, 613, 612, 609, 610, 611, 610, 612, 610, 610, 611, 610, 610, 609, 609, 610, 612, 615, 613, 613, 611, 614, 611, 611, 613, 615, 611, 613, 617, 617, 611, 609, 615, 613, 613, 612, 612, 612, 614, 616, 612, 613, 615, 611, 616, 616, 612, 613, 613, 611, 614, 612, 615, 614, 613, 611, 612, 615, 614, 615, 614, 612, 612, 614, 616, 614, 611, 612, 616, 619, 612, 613, 613, 615, 612, 612, 613, 619, 616, 613, 614, 614, 616, 612, 614, 616, 617, 615, 615, 616, 616, 616, 613, 618, 615],
      "WindowCenter": [431.0, 431.0, 431.0, 431.0, 430.0, 431.0, 431.0, 430.0, 431.0, 431.0, 431.0, 431.0, 430.0, 430.0, 430.0, 430.0, 431.0, 430.0, 431.0, 431.0, 431.0, 431.0, 431.0, 431.0, 430.0, 430.0, 431.0, 430.0, 430.0, 430.0, 431.0, 430.0, 430.0, 431.0, 431.0, 430.0, 430.0, 430.0, 431.0, 430.0, 430.0, 430.0, 431.0, 430.0, 430.0, 430.0, 431.0, 430.0, 430.0, 431.0, 430.0, 430.0, 430.0, 430.0, 430.0, 430.0, 430.0, 431.0, 430.0, 430.0, 430.0, 431.0, 430.0, 430.0, 430.0, 431.0, 430.0, 430.0, 430.0, 430.0, 430.0, 430.0, 430.0, 430.0, 430.0, 430.0, 430.0, 430.0, 431.0, 430.0, 430.0, 430.0, 430.0, 431.0, 430.0, 430.0, 430.0, 430.0, 430.0, 430.0, 430.0, 430.0, 430.0, 430.0, 430.0, 430.0, 430.0, 430.0, 430.0, 430.0, 430.0, 430.0, 430.0, 430.0, 430.0, 430.0, 430.0, 430.0, 430.0, 430.0, 430.0, 430.0, 430.0, 430.0, 430.0, 430.0, 430.0, 430.0, 430.0, 430.0, 430.0, 430.0, 430.0, 430.0, 430.0, 430.0, 430.0, 430.0, 430.0, 430.0, 430.0, 430.0, 430.0, 430.0, 430.0, 430.0, 429.0, 430.0, 430.0, 430.0, 430.0, 430.0, 430.0, 430.0, 430.0, 430.0, 430.0, 430.0, 430.0, 430.0, 430.0, 430.0, 430.0, 430.0, 430.0, 430.0, 430.0, 430.0, 430.0, 430.0, 430.0, 430.0, 430.0, 430.0, 430.0, 430.0, 430.0, 430.0, 430.0, 430.0, 430.0, 430.0, 430.0, 430.0, 430.0, 430.0, 430.0, 430.0, 430.0, 430.0, 430.0, 430.0, 430.0, 430.0, 430.0, 430.0, 430.0, 430.0, 430.0, 430.0, 430.0, 430.0, 430.0, 430.0, 430.0, 430.0, 430.0, 430.0, 430.0, 430.0],
      "WindowWidth": [898.0, 898.0, 898.0, 898.0, 897.0, 898.0, 898.0, 897.0, 898.0, 898.0, 898.0, 898.0, 897.0, 897.0, 897.0, 897.0, 898.0, 897.0, 898.0, 898.0, 898.0, 898.0, 898.0, 898.0, 897.0, 897.0, 898.0, 897.0, 897.0, 897.0, 898.0, 897.0, 897.0, 898.0, 898.0, 897.0, 897.0, 897.0, 898.0, 897.0, 897.0, 897.0, 898.0, 897.0, 897.0, 897.0, 898.0, 897.0, 897.0, 898.0, 897.0, 897.0, 897.0, 897.0, 897.0, 897.0, 897.0, 898.0, 897.0, 897.0, 897.0, 898.0, 897.0, 897.0, 896.0, 898.0, 897.0, 897.0, 897.0, 897.0, 897.0, 897.0, 896.0, 897.0, 897.0, 896.0, 897.0, 897.0, 898.0, 897.0, 897.0, 897.0, 897.0, 898.0, 897.0, 897.0, 897.0, 897.0, 897.0, 897.0, 897.0, 896.0, 896.0, 897.0, 897.0, 897.0, 897.0, 896.0, 896.0, 897.0, 897.0, 897.0, 897.0, 897.0, 897.0, 897.0, 897.0, 897.0, 896.0, 897.0, 897.0, 897.0, 897.0, 897.0, 897.0, 897.0, 897.0, 897.0, 896.0, 896.0, 897.0, 897.0, 897.0, 897.0, 897.0, 897.0, 897.0, 897.0, 897.0, 897.0, 897.0, 897.0, 897.0, 897.0, 897.0, 897.0, 895.0, 897.0, 897.0, 897.0, 897.0, 897.0, 897.0, 897.0, 897.0, 897.0, 897.0, 897.0, 897.0, 897.0, 897.0, 897.0, 897.0, 897.0, 897.0, 897.0, 897.0, 897.0, 897.0, 897.0, 897.0, 897.0, 897.0, 897.0, 897.0, 897.0, 897.0, 897.0, 897.0, 897.0, 897.0, 897.0, 897.0, 897.0, 897.0, 897.0, 897.0, 896.0, 897.0, 897.0, 897.0, 897.0, 897.0, 897.0, 896.0, 896.0, 897.0, 897.0, 896.0, 897.0, 897.0, 897.0, 896.0, 896.0, 897.0, 896.0, 896.0, 896.0, 896.0, 896.0]
    },
    "slices": {}
  }
}