{
  "AcquisitionMatrixPE": 122,
  "AcquisitionNumber": 1,
  "AcquisitionTime": "09:03:8.180000",
  "BandwidthPerPixelPhaseEncode": 28.76,
  "BaseResolution": 122,
  "BodyPartExamined": "BRAIN",
  "CoilCombinationMethod": "Adaptive Combine",
  "ConsistencyInfo": "N4_VE11C_LATEST_20160120",
  "ConversionSoftware": "dcm2niix",
  "ConversionSoftwareVersion": "v1.0.20220720",
  "DerivedVendorReportedEchoSpacing": 0.000570008,
  "DeviceSerialNumber": "66112",
  "DiffusionScheme": "Monopolar",
  "DwellTime": 2e-06,
  "EchoTime": 0.075,
  "EchoTrainLength": 61,
  "EffectiveEchoSpacing": 0.000285004,
  "FlipAngle": 90,
  "HeudiconvVersion": "0.13.1",
  "ImageOrientationPatientDICOM": [0.999053, -0.0434764, 0.00158063, 0.0399514, 0.931222, 0.362256],
  "ImageOrientationText": "Tra>Cor(21.2)>Sag(1.0)",
  "ImageType": [
    "ORIGINAL",
    "PRIMARY",
    "DIFFUSION",
    "NONE",
    "ND",
    "NORM"
],
  "ImagingFrequency": 123.252,
  "InPlanePhaseEncodingDirectionDICOM": "COL",
  "InstitutionAddress": "Maynard 3,Hanover,NH,US,03755",
  "InstitutionName": "Dartmouth College - PBS",
  "InstitutionalDepartmentName": "Department",
  "MRAcquisitionType": "2D",
  "MagneticFieldStrength": 3,
  "Manufacturer": "Siemens",
  "ManufacturersModelName": "Prisma",
  "MatrixCoilMode": "GRAPPA",
  "Modality": "MR",
  "NonlinearGradientCorrection": false,
  "ParallelReductionFactorInPlane": 2,
  "PartialFourier": 1,
  "PatientPosition": "HFS",
  "PercentPhaseFOV": 100,
  "PercentSampling": 100,
  "PhaseEncodingDirection": "j-",
  "PhaseEncodingSteps": 122,
  "PhaseResolution": 1,
  "PixelBandwidth": 2050,
  "ProcedureStepDescription": "dbic^QA",
  "ProtocolName": "dwi_acq-DTI-30-p2",
  "PulseSequenceDetails": "%SiemensSeq%\\ep2d_diff",
  "ReceiveCoilActiveElements": "HEA;HEP",
  "ReceiveCoilName": "Head_32",
  "ReconMatrixPE": 122,
  "RefLinesPE": 38,
  "RepetitionTime": 7.7,
  "SAR": 0.102032,
  "ScanOptions": "FS",
  "ScanningSequence": "EP",
  "SequenceName": "*ep_b0",
  "SequenceVariant": "SK\\SP",
  "SeriesDescription": "dwi_acq-DTI-30-p2",
  "SeriesNumber": 8,
  "ShimSetting": [4143, -7695, -7522, 223, -81, -183, 9, 54],
  "SliceThickness": 2,
  "SliceTiming": [3.83594, 0, 3.94531, 0.10938, 4.05469, 0.21875, 4.16406, 0.32812, 4.27344, 0.4375, 4.38281, 0.54688, 4.5, 0.65625, 4.60938, 0.76562, 4.71094, 0.875, 4.82031, 0.98438, 4.9375, 1.09375, 5.04688, 1.20312, 5.15625, 1.3125, 5.26562, 1.42188, 5.375, 1.53125, 5.48438, 1.64062, 5.59375, 1.75, 5.70312, 1.85938, 5.8125, 1.96875, 5.92188, 2.07812, 6.03125, 2.1875, 6.14062, 2.30469, 6.25, 2.41406, 6.35938, 2.52344, 6.46875, 2.63281, 6.57812, 2.74219, 6.6875, 2.85156, 6.79688, 2.96094, 6.90625, 3.07031, 7.01562, 3.17969, 7.125, 3.28906, 7.24219, 3.39844, 7.35156, 3.50781, 7.46094, 3.61719, 7.5625, 3.72656],
  "SoftwareVersions": "syngo MR E11",
  "SpacingBetweenSlices": 2,
  "SpoilingState": true,
  "StationName": "AWP66112",
  "TotalReadoutTime": 0.0344855,
  "TxRefAmp": 229.727,
  "dcmmeta_affine": [
    [-1.96535062789917, 0.07859299331903458, 0.034443020820617676, 113.9571533203125],
    [0.08552739024162292, 1.8319122791290283, 0.7236995697021484, -134.57138061523438],
    [0.003109439043328166, -0.7126346826553345, 1.8641586303710938, -17.26183319091797],
    [0.0, 0.0, 0.0, 1.0]
],
  "dcmmeta_reorient_transform": [
    [0.0, -1.0, 0.0, 121.0],
    [1.0, 0.0, 0.0, 0.0],
    [0.0, 0.0, -1.0, 69.0],
    [0.0, 0.0, 0.0, 1.0]
],
  "dcmmeta_shape": [122, 122, 70, 31],
  "dcmmeta_slice_dim": 2,
  "dcmmeta_version": 0.6,
  "global": {
    "const": {
      "AccessionNumber": "qa",
      "AcquisitionMatrix": [122, 0, 0, 122],
      "AngioFlag": "N",
      "BitsAllocated": 16,
      "BitsStored": 12,
      "BodyPartExamined": "BRAIN",
      "Columns": 122,
      "EchoNumbers": 1,
      "EchoTime": 75.0,
      "EchoTrainLength": 61,
      "FlipAngle": 90.0,
      "HighBit": 11,
      "ImageOrientationPatient": [0.9990532029485, -0.0434764221461, 0.00158063142788, 0.03995143567952, 0.93122204929862, 0.36225595604107],
      "ImageType": [
        "ORIGINAL",
        "PRIMARY",
        "DIFFUSION",
        "NONE",
        "ND",
        "NORM"
],
      "ImagedNucleus": "1H",
      "ImagingFrequency": 123.252464,
      "InPlanePhaseEncodingDirection": "COL",
      "MRAcquisitionType": "2D",
      "MagneticFieldStrength": 3.0,
      "Manufacturer": "SIEMENS",
      "ManufacturerModelName": "Prisma",
      "Modality": "MR",
      "NumberOfAverages": 1.0,
      "NumberOfPhaseEncodingSteps": 122,
      "PercentPhaseFieldOfView": 100.0,
      "PercentSampling": 100.0,
      "PerformedProcedureStepStartTime": "084106.272000",
      "PhotometricInterpretation": "MONOCHROME2",
      "PixelBandwidth": 2050.0,
      "PixelRepresentation": 0,
      "PixelSpacing": [1.9672131538391, 1.9672131538391],
      "ProtocolName": "dwi_acq-DTI-30-p2",
      "RepetitionTime": 7700.0,
      "Rows": 122,
      "SAR": 0.10203238528904,
      "SamplesPerPixel": 1,
      "ScanOptions": "FS",
      "ScanningSequence": "EP",
      "SequenceVariant": [
        "SK",
        "SP"
],
      "SeriesDescription": "dwi_acq-DTI-30-p2",
      "SeriesNumber": 8,
      "SeriesTime": "090323.954000",
      "SliceThickness": 2.0,
      "SmallestImagePixelValue": 0,
      "SoftwareVersions": "syngo MR E11",
      "SpacingBetweenSlices": 2.0,
      "SpecificCharacterSet": "ISO_IR 100",
      "StudyID": "39",
      "StudyTime": "084106.162000",
      "TransmitCoilName": "Body",
      "VariableFlipAngleFlag": "N",
      "WindowCenterWidthExplanation": "Algo1",
      "dBdt": 0.0},
    "slices": {
      "AcquisitionTime": ["090308.180000", "090304.340000", "090308.290000", "090304.450000", "090308.400000", "090304.560000", "090308.510000", "090304.670000", "090308.620000", "090304.780000", "090308.730000", "090304.890000", "090308.840000", "090305.000000", "090308.950000", "090305.110000", "090309.057500", "090305.220000", "090309.167500", "090305.327500", "090309.277500", "090305.437500", "090309.387500", "090305.547500", "090309.497500", "090305.657500", "090309.607500", "090305.767500", "090309.717500", "090305.877500", "090309.827500", "090305.987500", "090309.937500", "090306.097500", "090310.045000", "090306.205000", "090310.155000", "090306.315000", "090310.265000", "090306.425000", "090310.375000", "090306.535000", "090310.485000", "090306.645000", "090310.595000", "090306.755000", "090310.705000", "090306.865000", "090310.815000", "090306.975000", "090310.925000", "090307.085000", "090311.032500", "090307.192500", "090311.142500", "090307.302500", "090311.252500", "090307.412500", "090311.362500", "090307.522500", "090311.472500", "090307.632500", "090311.582500", "090307.742500", "090311.692500", "090307.852500", "090311.802500", "090307.962500", "090311.910000", "090308.072500", "090315.880000", "090312.040000", "090315.990000", "090312.150000", "090316.100000", "090312.260000", "090316.210000", "090312.370000", "090316.320000", "090312.480000", "090316.430000", "090312.590000", "090316.540000", "090312.700000", "090316.650000", "090312.810000", "090316.757500", "090312.920000", "090316.867500", "090313.027500", "090316.977500", "090313.137500", "090317.087500", "090313.247500", "090317.197500", "090313.357500", "090317.307500", "090313.467500", "090317.417500", "090313.577500", "090317.527500", "090313.687500", "090317.637500", "090313.797500", "090317.745000", "090313.905000", "090317.855000", "090314.015000", "090317.965000", "090314.125000", "090318.075000", "090314.235000", "090318.185000", "090314.345000", "090318.295000", "090314.455000", "090318.405000", "090314.565000", "090318.515000", "090314.675000", "090318.625000", "090314.785000", "090318.732500", "090314.892500", "090318.842500", "090315.002500", "090318.952500", "090315.112500", "090319.062500", "090315.222500", "090319.172500", "090315.332500", "090319.282500", "090315.442500", "090319.392500", "090315.552500", "090319.502500", "090315.662500", "090319.610000", "090315.772500", "090323.580000", "090319.740000", "090323.690000", "090319.850000", "090323.800000", "090319.960000", "090323.910000", "090320.070000", "090324.020000", "090320.180000", "090324.130000", "090320.290000", "090324.240000", "090320.400000", "090324.350000", "090320.510000", "090324.457500", "090320.620000", "090324.567500", "090320.727500", "090324.677500", "090320.837500", "090324.787500", "090320.947500", "090324.897500", "090321.057500", "090325.007500", "090321.167500", "090325.117500", "090321.277500", "090325.227500", "090321.387500", "090325.337500", "090321.497500", "090325.445000", "090321.605000", "090325.555000", "090321.715000", "090325.665000", "090321.825000", "090325.775000", "090321.935000", "090325.885000", "090322.045000", "090325.995000", "090322.155000", "090326.105000", "090322.265000", "090326.215000", "090322.375000", "090326.325000", "090322.485000", "090326.432500", "090322.592500", "090326.542500", "090322.702500", "090326.652500", "090322.812500", "090326.762500", "090322.922500", "090326.872500", "090323.032500", "090326.982500", "090323.142500", "090327.092500", "090323.252500", "090327.202500", "090323.362500", "090327.310000", "090323.472500", "090331.280000", "090327.440000", "090331.390000", "090327.550000", "090331.500000", "090327.660000", "090331.610000", "090327.770000", "090331.720000", "090327.880000", "090331.830000", "090327.990000", "090331.940000", "090328.100000", "090332.050000", "090328.210000", "090332.157500", "090328.320000", "090332.267500", "090328.427500", "090332.377500", "090328.537500", "090332.487500", "090328.647500", "090332.597500", "090328.757500", "090332.707500", "090328.867500", "090332.817500", "090328.977500", "090332.927500", "090329.087500", "090333.037500", "090329.197500", "090333.145000", "090329.305000", "090333.255000", "090329.415000", "090333.365000", "090329.525000", "090333.475000", "090329.635000", "090333.585000", "090329.745000", "090333.695000", "090329.855000", "090333.805000", "090329.965000", "090333.915000", "090330.075000", "090334.025000", "090330.185000", "090334.132500", "090330.292500", "090334.242500", "090330.402500", "090334.352500", "090330.512500", "090334.462500", "090330.622500", "090334.572500", "090330.732500", "090334.682500", "090330.842500", "090334.792500", "090330.952500", "090334.902500", "090331.062500", "090335.010000", "090331.172500", "090338.980000", "090335.140000", "090339.090000", "090335.250000", "090339.200000", "090335.360000", "090339.310000", "090335.470000", "090339.420000", "090335.580000", "090339.530000", "090335.690000", "090339.640000", "090335.800000", "090339.750000", "090335.910000", "090339.857500", "090336.020000", "090339.967500", "090336.127500", "090340.077500", "090336.237500", "090340.187500", "090336.347500", "090340.297500", "090336.457500", "090340.407500", "090336.567500", "090340.517500", "090336.677500", "090340.627500", "090336.787500", "090340.737500", "090336.897500", "090340.845000", "090337.005000", "090340.955000", "090337.115000", "090341.065000", "090337.225000", "090341.175000", "090337.335000", "090341.285000", "090337.445000", "090341.395000", "090337.555000", "090341.505000", "090337.665000", "090341.615000", "090337.775000", "090341.725000", "090337.885000", "090341.832500", "090337.992500", "090341.942500", "090338.102500", "090342.052500", "090338.212500", "090342.162500", "090338.322500", "090342.272500", "090338.432500", "090342.382500", "090338.542500", "090342.492500", "090338.652500", "090342.602500", "090338.762500", "090342.710000", "090338.872500", "090346.680000", "090342.840000", "090346.790000", "090342.950000", "090346.900000", "090343.060000", "090347.010000", "090343.170000", "090347.120000", "090343.280000", "090347.230000", "090343.390000", "090347.340000", "090343.500000", "090347.450000", "090343.610000", "090347.557500", "090343.720000", "090347.667500", "090343.827500", "090347.777500", "090343.937500", "090347.887500", "090344.047500", "090347.997500", "090344.157500", "090348.107500", "090344.267500", "090348.217500", "090344.377500", "090348.327500", "090344.487500", "090348.437500", "090344.597500", "090348.545000", "090344.705000", "090348.655000", "090344.815000", "090348.765000", "090344.925000", "090348.875000", "090345.035000", "090348.985000", "090345.145000", "090349.095000", "090345.255000", "090349.205000", "090345.365000", "090349.315000", "090345.475000", "090349.425000", "090345.585000", "090349.532500", "090345.692500", "090349.642500", "090345.802500", "090349.752500", "090345.912500", "090349.862500", "090346.022500", "090349.972500", "090346.132500", "090350.082500", "090346.242500", "090350.192500", "090346.352500", "090350.302500", "090346.462500", "090350.410000", "090346.572500", "090354.380000", "090350.540000", "090354.490000", "090350.650000", "090354.600000", "090350.760000", "090354.710000", "090350.870000", "090354.820000", "090350.980000", "090354.930000", "090351.090000", "090355.040000", "090351.200000", "090355.150000", "090351.310000", "090355.257500", "090351.420000", "090355.367500", "090351.527500", "090355.477500", "090351.637500", "090355.587500", "090351.747500", "090355.697500", "090351.857500", "090355.807500", "090351.967500", "090355.917500", "090352.077500", "090356.027500", "090352.187500", "090356.137500", "090352.297500", "090356.245000", "090352.405000", "090356.355000", "090352.515000", "090356.465000", "090352.625000", "090356.575000", "090352.735000", "090356.685000", "090352.845000", "090356.795000", "090352.955000", "090356.905000", "090353.065000", "090357.015000", "090353.175000", "090357.125000", "090353.285000", "090357.232500", "090353.392500", "090357.342500", "090353.502500", "090357.452500", "090353.612500", "090357.562500", "090353.722500", "090357.672500", "090353.832500", "090357.782500", "090353.942500", "090357.892500", "090354.052500", "090358.002500", "090354.162500", "090358.110000", "090354.272500", "090402.080000", "090358.240000", "090402.190000", "090358.350000", "090402.300000", "090358.460000", "090402.410000", "090358.570000", "090402.520000", "090358.680000", "090402.630000", "090358.790000", "090402.740000", "090358.900000", "090402.850000", "090359.010000", "090402.957500", "090359.120000", "090403.067500", "090359.227500", "090403.177500", "090359.337500", "090403.287500", "090359.447500", "090403.397500", "090359.557500", "090403.507500", "090359.667500", "090403.617500", "090359.777500", "090403.727500", "090359.887500", "090403.837500", "090359.997500", "090403.945000", "090400.105000", "090404.055000", "090400.215000", "090404.165000", "090400.325000", "090404.275000", "090400.435000", "090404.385000", "090400.545000", "090404.495000", "090400.655000", "090404.605000", "090400.765000", "090404.715000", "090400.875000", "090404.825000", "090400.985000", "090404.932500", "090401.092500", "090405.042500", "090401.202500", "090405.152500", "090401.312500", "090405.262500", "090401.422500", "090405.372500", "090401.532500", "090405.482500", "090401.642500", "090405.592500", "090401.752500", "090405.702500", "090401.862500", "090405.810000", "090401.972500", "090409.780000", "090405.940000", "090409.890000", "090406.050000", "090410.000000", "090406.160000", "090410.110000", "090406.270000", "090410.220000", "090406.380000", "090410.330000", "090406.490000", "090410.440000", "090406.600000", "090410.550000", "090406.710000", "090410.657500", "090406.820000", "090410.767500", "090406.927500", "090410.877500", "090407.037500", "090410.987500", "090407.147500", "090411.097500", "090407.257500", "090411.207500", "090407.367500", "090411.317500", "090407.477500", "090411.427500", "090407.587500", "090411.537500", "090407.697500", "090411.645000", "090407.805000", "090411.755000", "090407.915000", "090411.865000", "090408.025000", "090411.975000", "090408.135000", "090412.085000", "090408.245000", "090412.195000", "090408.355000", "090412.305000", "090408.465000", "090412.415000", "090408.575000", "090412.525000", "090408.685000", "090412.632500", "090408.792500", "090412.742500", "090408.902500", "090412.852500", "090409.012500", "090412.962500", "090409.122500", "090413.072500", "090409.232500", "090413.182500", "090409.342500", "090413.292500", "090409.452500", "090413.402500", "090409.562500", "090413.510000", "090409.672500", "090417.480000", "090413.640000", "090417.590000", "090413.750000", "090417.700000", "090413.860000", "090417.810000", "090413.970000", "090417.920000", "090414.080000", "090418.030000", "090414.190000", "090418.140000", "090414.300000", "090418.250000", "090414.410000", "090418.357500", "090414.520000", "090418.467500", "090414.627500", "090418.577500", "090414.737500", "090418.687500", "090414.847500", "090418.797500", "090414.957500", "090418.907500", "090415.067500", "090419.017500", "090415.177500", "090419.127500", "090415.287500", "090419.237500", "090415.397500", "090419.345000", "090415.505000", "090419.455000", "090415.615000", "090419.565000", "090415.725000", "090419.675000", "090415.835000", "090419.785000", "090415.945000", "090419.895000", "090416.055000", "090420.005000", "090416.165000", "090420.115000", "090416.275000", "090420.225000", "090416.385000", "090420.332500", "090416.492500", "090420.442500", "090416.602500", "090420.552500", "090416.712500", "090420.662500", "090416.822500", "090420.772500", "090416.932500", "090420.882500", "090417.042500", "090420.992500", "090417.152500", "090421.102500", "090417.262500", "090421.210000", "090417.372500", "090425.180000", "090421.340000", "090425.290000", "090421.450000", "090425.400000", "090421.560000", "090425.510000", "090421.670000", "090425.620000", "090421.780000", "090425.730000", "090421.890000", "090425.840000", "090422.000000", "090425.950000", "090422.110000", "090426.057500", "090422.220000", "090426.167500", "090422.327500", "090426.277500", "090422.437500", "090426.387500", "090422.547500", "090426.497500", "090422.657500", "090426.607500", "090422.767500", "090426.717500", "090422.877500", "090426.827500", "090422.987500", "090426.937500", "090423.097500", "090427.045000", "090423.205000", "090427.155000", "090423.315000", "090427.265000", "090423.425000", "090427.375000", "090423.535000", "090427.485000", "090423.645000", "090427.595000", "090423.755000", "090427.705000", "090423.865000", "090427.815000", "090423.975000", "090427.925000", "090424.085000", "090428.032500", "090424.192500", "090428.142500", "090424.302500", "090428.252500", "090424.412500", "090428.362500", "090424.522500", "090428.472500", "090424.632500", "090428.582500", "090424.742500", "090428.692500", "090424.852500", "090428.802500", "090424.962500", "090428.910000", "090425.072500", "090432.880000", "090429.040000", "090432.990000", "090429.150000", "090433.100000", "090429.260000", "090433.210000", "090429.370000", "090433.320000", "090429.480000", "090433.430000", "090429.590000", "090433.540000", "090429.700000", "090433.650000", "090429.810000", "090433.757500", "090429.920000", "090433.867500", "090430.027500", "090433.977500", "090430.137500", "090434.087500", "090430.247500", "090434.197500", "090430.357500", "090434.307500", "090430.467500", "090434.417500", "090430.577500", "090434.527500", "090430.687500", "090434.637500", "090430.797500", "090434.745000", "090430.905000", "090434.855000", "090431.015000", "090434.965000", "090431.125000", "090435.075000", "090431.235000", "090435.185000", "090431.345000", "090435.295000", "090431.455000", "090435.405000", "090431.565000", "090435.515000", "090431.675000", "090435.625000", "090431.785000", "090435.732500", "090431.892500", "090435.842500", "090432.002500", "090435.952500", "090432.112500", "090436.062500", "090432.222500", "090436.172500", "090432.332500", "090436.282500", "090432.442500", "090436.392500", "090432.552500", "090436.502500", "090432.662500", "090436.610000", "090432.772500", "090440.580000", "090436.740000", "090440.690000", "090436.850000", "090440.800000", "090436.960000", "090440.910000", "090437.070000", "090441.020000", "090437.180000", "090441.130000", "090437.290000", "090441.240000", "090437.400000", "090441.350000", "090437.510000", "090441.457500", "090437.620000", "090441.567500", "090437.727500", "090441.677500", "090437.837500", "090441.787500", "090437.947500", "090441.897500", "090438.057500", "090442.007500", "090438.167500", "090442.117500", "090438.277500", "090442.227500", "090438.387500", "090442.337500", "090438.497500", "090442.445000", "090438.605000", "090442.555000", "090438.715000", "090442.665000", "090438.825000", "090442.775000", "090438.935000", "090442.885000", "090439.045000", "090442.995000", "090439.155000", "090443.105000", "090439.265000", "090443.215000", "090439.375000", "090443.325000", "090439.485000", "090443.432500", "090439.592500", "090443.542500", "090439.702500", "090443.652500", "090439.812500", "090443.762500", "090439.922500", "090443.872500", "090440.032500", "090443.982500", "090440.142500", "090444.092500", "090440.252500", "090444.202500", "090440.362500", "090444.310000", "090440.472500", "090448.280000", "090444.440000", "090448.390000", "090444.550000", "090448.500000", "090444.660000", "090448.610000", "090444.770000", "090448.720000", "090444.880000", "090448.830000", "090444.990000", "090448.940000", "090445.100000", "090449.050000", "090445.210000", "090449.157500", "090445.320000", "090449.267500", "090445.427500", "090449.377500", "090445.537500", "090449.487500", "090445.647500", "090449.597500", "090445.757500", "090449.707500", "090445.867500", "090449.817500", "090445.977500", "090449.927500", "090446.087500", "090450.037500", "090446.197500", "090450.145000", "090446.305000", "090450.255000", "090446.415000", "090450.365000", "090446.525000", "090450.475000", "090446.635000", "090450.585000", "090446.745000", "090450.695000", "090446.855000", "090450.805000", "090446.965000", "090450.915000", "090447.075000", "090451.025000", "090447.185000", "090451.132500", "090447.292500", "090451.242500", "090447.402500", "090451.352500", "090447.512500", "090451.462500", "090447.622500", "090451.572500", "090447.732500", "090451.682500", "090447.842500", "090451.792500", "090447.952500", "090451.902500", "090448.062500", "090452.010000", "090448.172500", "090455.980000", "090452.140000", "090456.090000", "090452.250000", "090456.200000", "090452.360000", "090456.310000", "090452.470000", "090456.420000", "090452.580000", "090456.530000", "090452.690000", "090456.640000", "090452.800000", "090456.750000", "090452.910000", "090456.857500", "090453.020000", "090456.967500", "090453.127500", "090457.077500", "090453.237500", "090457.187500", "090453.347500", "090457.297500", "090453.457500", "090457.407500", "090453.567500", "090457.517500", "090453.677500", "090457.627500", "090453.787500", "090457.737500", "090453.897500", "090457.845000", "090454.005000", "090457.955000", "090454.115000", "090458.065000", "090454.225000", "090458.175000", "090454.335000", "090458.285000", "090454.445000", "090458.395000", "090454.555000", "090458.505000", "090454.665000", "090458.615000", "090454.775000", "090458.725000", "090454.885000", "090458.832500", "090454.992500", "090458.942500", "090455.102500", "090459.052500", "090455.212500", "090459.162500", "090455.322500", "090459.272500", "090455.432500", "090459.382500", "090455.542500", "090459.492500", "090455.652500", "090459.602500", "090455.762500", "090459.710000", "090455.872500", "090503.680000", "090459.840000", "090503.790000", "090459.950000", "090503.900000", "090500.060000", "090504.010000", "090500.170000", "090504.120000", "090500.280000", "090504.230000", "090500.390000", "090504.340000", "090500.500000", "090504.450000", "090500.610000", "090504.557500", "090500.720000", "090504.667500", "090500.827500", "090504.777500", "090500.937500", "090504.887500", "090501.047500", "090504.997500", "090501.157500", "090505.107500", "090501.267500", "090505.217500", "090501.377500", "090505.327500", "090501.487500", "090505.437500", "090501.597500", "090505.545000", "090501.705000", "090505.655000", "090501.815000", "090505.765000", "090501.925000", "090505.875000", "090502.035000", "090505.985000", "090502.145000", "090506.095000", "090502.255000", "090506.205000", "090502.365000", "090506.315000", "090502.475000", "090506.425000", "090502.585000", "090506.532500", "090502.692500", "090506.642500", "090502.802500", "090506.752500", "090502.912500", "090506.862500", "090503.022500", "090506.972500", "090503.132500", "090507.082500", "090503.242500", "090507.192500", "090503.352500", "090507.302500", "090503.462500", "090507.410000", "090503.572500", "090511.380000", "090507.540000", "090511.490000", "090507.650000", "090511.600000", "090507.760000", "090511.710000", "090507.870000", "090511.820000", "090507.980000", "090511.930000", "090508.090000", "090512.040000", "090508.200000", "090512.150000", "090508.310000", "090512.257500", "090508.420000", "090512.367500", "090508.527500", "090512.477500", "090508.637500", "090512.587500", "090508.747500", "090512.697500", "090508.857500", "090512.807500", "090508.967500", "090512.917500", "090509.077500", "090513.027500", "090509.187500", "090513.137500", "090509.297500", "090513.245000", "090509.405000", "090513.355000", "090509.515000", "090513.465000", "090509.625000", "090513.575000", "090509.735000", "090513.685000", "090509.845000", "090513.795000", "090509.955000", "090513.905000", "090510.065000", "090514.015000", "090510.175000", "090514.125000", "090510.285000", "090514.232500", "090510.392500", "090514.342500", "090510.502500", "090514.452500", "090510.612500", "090514.562500", "090510.722500", "090514.672500", "090510.832500", "090514.782500", "090510.942500", "090514.892500", "090511.052500", "090515.002500", "090511.162500", "090515.110000", "090511.272500", "090519.080000", "090515.240000", "090519.190000", "090515.350000", "090519.300000", "090515.460000", "090519.410000", "090515.570000", "090519.520000", "090515.680000", "090519.630000", "090515.790000", "090519.740000", "090515.900000", "090519.850000", "090516.010000", "090519.957500", "090516.120000", "090520.067500", "090516.227500", "090520.177500", "090516.337500", "090520.287500", "090516.447500", "090520.397500", "090516.557500", "090520.507500", "090516.667500", "090520.617500", "090516.777500", "090520.727500", "090516.887500", "090520.837500", "090516.997500", "090520.945000", "090517.105000", "090521.055000", "090517.215000", "090521.165000", "090517.325000", "090521.275000", "090517.435000", "090521.385000", "090517.545000", "090521.495000", "090517.655000", "090521.605000", "090517.765000", "090521.715000", "090517.875000", "090521.825000", "090517.985000", "090521.932500", "090518.092500", "090522.042500", "090518.202500", "090522.152500", "090518.312500", "090522.262500", "090518.422500", "090522.372500", "090518.532500", "090522.482500", "090518.642500", "090522.592500", "090518.752500", "090522.702500", "090518.862500", "090522.810000", "090518.972500", "090526.780000", "090522.940000", "090526.890000", "090523.050000", "090527.000000", "090523.160000", "090527.110000", "090523.270000", "090527.220000", "090523.380000", "090527.330000", "090523.490000", "090527.440000", "090523.600000", "090527.550000", "090523.710000", "090527.657500", "090523.820000", "090527.767500", "090523.927500", "090527.877500", "090524.037500", "090527.987500", "090524.147500", "090528.097500", "090524.257500", "090528.207500", "090524.367500", "090528.317500", "090524.477500", "090528.427500", "090524.587500", "090528.537500", "090524.697500", "090528.645000", "090524.805000", "090528.755000", "090524.915000", "090528.865000", "090525.025000", "090528.975000", "090525.135000", "090529.085000", "090525.245000", "090529.195000", "090525.355000", "090529.305000", "090525.465000", "090529.415000", "090525.575000", "090529.525000", "090525.685000", "090529.632500", "090525.792500", "090529.742500", "090525.902500", "090529.852500", "090526.012500", "090529.962500", "090526.122500", "090530.072500", "090526.232500", "090530.182500", "090526.342500", "090530.292500", "090526.452500", "090530.402500", "090526.562500", "090530.510000", "090526.672500", "090534.480000", "090530.640000", "090534.590000", "090530.750000", "090534.700000", "090530.860000", "090534.810000", "090530.970000", "090534.920000", "090531.080000", "090535.030000", "090531.190000", "090535.140000", "090531.300000", "090535.250000", "090531.410000", "090535.357500", "090531.520000", "090535.467500", "090531.627500", "090535.577500", "090531.737500", "090535.687500", "090531.847500", "090535.797500", "090531.957500", "090535.907500", "090532.067500", "090536.017500", "090532.177500", "090536.127500", "090532.287500", "090536.237500", "090532.397500", "090536.345000", "090532.505000", "090536.455000", "090532.615000", "090536.565000", "090532.725000", "090536.675000", "090532.835000", "090536.785000", "090532.945000", "090536.895000", "090533.055000", "090537.005000", "090533.165000", "090537.115000", "090533.275000", "090537.225000", "090533.385000", "090537.332500", "090533.492500", "090537.442500", "090533.602500", "090537.552500", "090533.712500", "090537.662500", "090533.822500", "090537.772500", "090533.932500", "090537.882500", "090534.042500", "090537.992500", "090534.152500", "090538.102500", "090534.262500", "090538.210000", "090534.372500", "090542.180000", "090538.340000", "090542.290000", "090538.450000", "090542.400000", "090538.560000", "090542.510000", "090538.670000", "090542.620000", "090538.780000", "090542.730000", "090538.890000", "090542.840000", "090539.000000", "090542.950000", "090539.110000", "090543.057500", "090539.220000", "090543.167500", "090539.327500", "090543.277500", "090539.437500", "090543.387500", "090539.547500", "090543.497500", "090539.657500", "090543.607500", "090539.767500", "090543.717500", "090539.877500", "090543.827500", "090539.987500", "090543.937500", "090540.097500", "090544.045000", "090540.20