{
  "AcquisitionMatrixPE": 122,
  "AcquisitionNumber": 1,
  "AcquisitionTime": "09:07:29.455000",
  "BandwidthPerPixelPhaseEncode": 27.785,
  "BaseResolution": 122,
  "BodyPartExamined": "BRAIN",
  "CoilCombinationMethod": "Adaptive Combine",
  "ConsistencyInfo": "N4_VE11C_LATEST_20160120",
  "ConversionSoftware": "dcm2niix",
  "ConversionSoftwareVersion": "v1.0.20220720",
  "DerivedVendorReportedEchoSpacing": 0.000590011,
  "DeviceSerialNumber": "66112",
  "DiffusionScheme": "Monopolar",
  "DwellTime": 2e-06,
  "EchoTime": 0.068,
  "EchoTrainLength": 61,
  "EffectiveEchoSpacing": 0.000295005,
  "FlipAngle": 90,
  "HeudiconvVersion": "0.13.1",
  "ImageOrientationPatientDICOM": [0.999053, -0.0434764, 0.00158063, 0.0399514, 0.931222, 0.362256],
  "ImageOrientationText": "Tra>Cor(21.2)>Sag(1.0)",
  "ImageType": [
    "ORIGINAL",
    "PRIMARY",
    "DIFFUSION",
    "NONE",
    "ND",
    "NORM"
],
  "ImagingFrequency": 123.252,
  "InPlanePhaseEncodingDirectionDICOM": "COL",
  "InstitutionAddress": "Maynard 3,Hanover,NH,US,03755",
  "InstitutionName": "Dartmouth College - PBS",
  "InstitutionalDepartmentName": "Department",
  "MRAcquisitionType": "2D",
  "MagneticFieldStrength": 3,
  "Manufacturer": "Siemens",
  "ManufacturersModelName": "Prisma",
  "Modality": "MR",
  "MultibandAccelerationFactor": 4,
  "NonlinearGradientCorrection": false,
  "ParallelReductionFactorInPlane": 2,
  "PartialFourier": 1,
  "PatientPosition": "HFS",
  "PercentPhaseFOV": 100,
  "PercentSampling": 100,
  "PhaseEncodingDirection": "j-",
  "PhaseEncodingSteps": 122,
  "PhaseResolution": 1,
  "PixelBandwidth": 2050,
  "ProcedureStepDescription": "dbic^QA",
  "ProtocolName": "dwi_acq-DTI-30-p2-s4",
  "PulseSequenceDetails": "%SiemensSeq%\\ep2d_diff",
  "ReceiveCoilActiveElements": "HEA;HEP",
  "ReceiveCoilName": "Head_32",
  "ReconMatrixPE": 122,
  "RefLinesPE": 38,
  "RepetitionTime": 3.6,
  "SAR": 0.161876,
  "ScanOptions": "FS",
  "ScanningSequence": "EP",
  "SequenceName": "*ep_b0",
  "SequenceVariant": "SK\\SP",
  "SeriesDescription": "dwi_acq-DTI-30-p2-s4",
  "SeriesNumber": 9,
  "ShimSetting": [4143, -7695, -7522, 223, -81, -179, 11, 54],
  "SliceThickness": 2,
  "SliceTiming": [2.58594, 0, 1.78906, 0.20312, 1.99219, 0.39844, 2.1875, 0.60156, 2.39062, 0.99219, 2.78906, 1.19531, 2.98438, 1.39844, 3.1875, 1.59375, 3.38281, 0.79688, 2.58594, 0, 1.78906, 0.20312, 1.99219, 0.39844, 2.1875, 0.60156, 2.39062, 0.99219, 2.78906, 1.19531, 2.98438, 1.39844, 3.1875, 1.59375, 3.38281, 0.79688, 2.58594, 0, 1.78906, 0.20312, 1.99219, 0.39844, 2.1875, 0.60156, 2.39062, 0.99219, 2.78906, 1.19531, 2.98438, 1.39844, 3.1875, 1.59375, 3.38281, 0.79688, 2.58594, 0, 1.78906, 0.20312, 1.99219, 0.39844, 2.1875, 0.60156, 2.39062, 0.99219, 2.78906, 1.19531, 2.98438, 1.39844, 3.1875, 1.59375, 3.38281, 0.79688],
  "SoftwareVersions": "syngo MR E11",
  "SpacingBetweenSlices": 2,
  "SpoilingState": true,
  "StationName": "AWP66112",
  "TotalReadoutTime": 0.0356956,
  "TxRefAmp": 229.727,
  "dcmmeta_affine": [
    [-1.96535062789917, 0.07859299331903458, 0.03444314002990723, 113.92269897460938],
    [0.08552739024162292, 1.8319122791290283, 0.7236995697021484, -135.2950897216797],
    [0.003109439043328166, -0.7126346826553345, 1.8641510009765625, -19.125457763671875],
    [0.0, 0.0, 0.0, 1.0]
],
  "dcmmeta_reorient_transform": [
    [0.0, -1.0, 0.0, 121.0],
    [1.0, 0.0, 0.0, 0.0],
    [0.0, 0.0, -1.0, 71.0],
    [0.0, 0.0, 0.0, 1.0]
],
  "dcmmeta_shape": [122, 122, 72, 31],
  "dcmmeta_slice_dim": 2,
  "dcmmeta_version": 0.6,
  "global": {
    "const": {
      "AccessionNumber": "qa",
      "AcquisitionMatrix": [122, 0, 0, 122],
      "AngioFlag": "N",
      "BitsAllocated": 16,
      "BitsStored": 12,
      "BodyPartExamined": "BRAIN",
      "Columns": 122,
      "EchoNumbers": 1,
      "EchoTime": 68.0,
      "EchoTrainLength": 61,
      "FlipAngle": 90.0,
      "HighBit": 11,
      "ImageOrientationPatient": [0.9990532029485, -0.0434764221461, 0.00158063142788, 0.03995143567952, 0.93122204929862, 0.36225595604107],
      "ImageType": [
        "ORIGINAL",
        "PRIMARY",
        "DIFFUSION",
        "NONE",
        "ND",
        "NORM"
],
      "ImagedNucleus": "1H",
      "ImagingFrequency": 123.252464,
      "InPlanePhaseEncodingDirection": "COL",
      "MRAcquisitionType": "2D",
      "MagneticFieldStrength": 3.0,
      "Manufacturer": "SIEMENS",
      "ManufacturerModelName": "Prisma",
      "Modality": "MR",
      "NumberOfAverages": 1.0,
      "NumberOfPhaseEncodingSteps": 122,
      "PercentPhaseFieldOfView": 100.0,
      "PercentSampling": 100.0,
      "PerformedProcedureStepStartTime": "084106.272000",
      "PhotometricInterpretation": "MONOCHROME2",
      "PixelBandwidth": 2050.0,
      "PixelRepresentation": 0,
      "PixelSpacing": [1.9672131538391, 1.9672131538391],
      "ProtocolName": "dwi_acq-DTI-30-p2-s4",
      "RepetitionTime": 3600.0,
      "Rows": 122,
      "SAR": 0.16187635422177,
      "SamplesPerPixel": 1,
      "ScanOptions": "FS",
      "ScanningSequence": "EP",
      "SequenceVariant": [
        "SK",
        "SP"
],
      "SeriesDescription": "dwi_acq-DTI-30-p2-s4",
      "SeriesNumber": 9,
      "SeriesTime": "090738.816000",
      "SliceThickness": 2.0,
      "SmallestImagePixelValue": 0,
      "SoftwareVersions": "syngo MR E11",
      "SpacingBetweenSlices": 2.0,
      "SpecificCharacterSet": "ISO_IR 100",
      "StudyID": "39",
      "StudyTime": "084106.162000",
      "TransmitCoilName": "Body",
      "VariableFlipAngleFlag": "N",
      "WindowCenterWidthExplanation": "Algo1",
      "dBdt": 0.0},
    "slices": {
      "AcquisitionTime": ["090729.455000", "090726.870000", "090728.660000", "090727.067500", "090728.857500", "090727.267500", "090729.057500", "090727.465000", "090729.255000", "090727.862500", "090729.652500", "090728.062500", "090729.852500", "090728.262500", "090730.052500", "090728.460000", "090730.250000", "090727.665000", "090729.455000", "090726.870000", "090728.660000", "090727.067500", "090728.857500", "090727.267500", "090729.057500", "090727.465000", "090729.255000", "090727.862500", "090729.652500", "090728.062500", "090729.852500", "090728.262500", "090730.052500", "090728.460000", "090730.250000", "090727.665000", "090729.455000", "090726.870000", "090728.660000", "090727.067500", "090728.857500", "090727.267500", "090729.057500", "090727.465000", "090729.255000", "090727.862500", "090729.652500", "090728.062500", "090729.852500", "090728.262500", "090730.052500", "090728.460000", "090730.250000", "090727.665000", "090729.455000", "090726.870000", "090728.660000", "090727.067500", "090728.857500", "090727.267500", "090729.057500", "090727.465000", "090729.255000", "090727.862500", "090729.652500", "090728.062500", "090729.852500", "090728.262500", "090730.052500", "090728.460000", "090730.250000", "090727.665000", "090733.055000", "090730.470000", "090732.260000", "090730.667500", "090732.457500", "090730.867500", "090732.657500", "090731.065000", "090732.855000", "090731.462500", "090733.252500", "090731.662500", "090733.452500", "090731.862500", "090733.652500", "090732.060000", "090733.850000", "090731.265000", "090733.055000", "090730.470000", "090732.260000", "090730.667500", "090732.457500", "090730.867500", "090732.657500", "090731.065000", "090732.855000", "090731.462500", "090733.252500", "090731.662500", "090733.452500", "090731.862500", "090733.652500", "090732.060000", "090733.850000", "090731.265000", "090733.055000", "090730.470000", "090732.260000", "090730.667500", "090732.457500", "090730.867500", "090732.657500", "090731.065000", "090732.855000", "090731.462500", "090733.252500", "090731.662500", "090733.452500", "090731.862500", "090733.652500", "090732.060000", "090733.850000", "090731.265000", "090733.055000", "090730.470000", "090732.260000", "090730.667500", "090732.457500", "090730.867500", "090732.657500", "090731.065000", "090732.855000", "090731.462500", "090733.252500", "090731.662500", "090733.452500", "090731.862500", "090733.652500", "090732.060000", "090733.850000", "090731.265000", "090736.655000", "090734.070000", "090735.860000", "090734.267500", "090736.057500", "090734.467500", "090736.257500", "090734.665000", "090736.455000", "090735.062500", "090736.852500", "090735.262500", "090737.052500", "090735.462500", "090737.252500", "090735.660000", "090737.450000", "090734.865000", "090736.655000", "090734.070000", "090735.860000", "090734.267500", "090736.057500", "090734.467500", "090736.257500", "090734.665000", "090736.455000", "090735.062500", "090736.852500", "090735.262500", "090737.052500", "090735.462500", "090737.252500", "090735.660000", "090737.450000", "090734.865000", "090736.655000", "090734.070000", "090735.860000", "090734.267500", "090736.057500", "090734.467500", "090736.257500", "090734.665000", "090736.455000", "090735.062500", "090736.852500", "090735.262500", "090737.052500", "090735.462500", "090737.252500", "090735.660000", "090737.450000", "090734.865000", "090736.655000", "090734.070000", "090735.860000", "090734.267500", "090736.057500", "090734.467500", "090736.257500", "090734.665000", "090736.455000", "090735.062500", "090736.852500", "090735.262500", "090737.052500", "090735.462500", "090737.252500", "090735.660000", "090737.450000", "090734.865000", "090740.255000", "090737.670000", "090739.460000", "090737.867500", "090739.657500", "090738.067500", "090739.857500", "090738.265000", "090740.055000", "090738.662500", "090740.452500", "090738.862500", "090740.652500", "090739.062500", "090740.852500", "090739.260000", "090741.050000", "090738.465000", "090740.255000", "090737.670000", "090739.460000", "090737.867500", "090739.657500", "090738.067500", "090739.857500", "090738.265000", "090740.055000", "090738.662500", "090740.452500", "090738.862500", "090740.652500", "090739.062500", "090740.852500", "090739.260000", "090741.050000", "090738.465000", "090740.255000", "090737.670000", "090739.460000", "090737.867500", "090739.657500", "090738.067500", "090739.857500", "090738.265000", "090740.055000", "090738.662500", "090740.452500", "090738.862500", "090740.652500", "090739.062500", "090740.852500", "090739.260000", "090741.050000", "090738.465000", "090740.255000", "090737.670000", "090739.460000", "090737.867500", "090739.657500", "090738.067500", "090739.857500", "090738.265000", "090740.055000", "090738.662500", "090740.452500", "090738.862500", "090740.652500", "090739.062500", "090740.852500", "090739.260000", "090741.050000", "090738.465000", "090743.855000", "090741.270000", "090743.060000", "090741.467500", "090743.257500", "090741.667500", "090743.457500", "090741.865000", "090743.655000", "090742.262500", "090744.052500", "090742.462500", "090744.252500", "090742.662500", "090744.452500", "090742.860000", "090744.650000", "090742.065000", "090743.855000", "090741.270000", "090743.060000", "090741.467500", "090743.257500", "090741.667500", "090743.457500", "090741.865000", "090743.655000", "090742.262500", "090744.052500", "090742.462500", "090744.252500", "090742.662500", "090744.452500", "090742.860000", "090744.650000", "090742.065000", "090743.855000", "090741.270000", "090743.060000", "090741.467500", "090743.257500", "090741.667500", "090743.457500", "090741.865000", "090743.655000", "090742.262500", "090744.052500", "090742.462500", "090744.252500", "090742.662500", "090744.452500", "090742.860000", "090744.650000", "090742.065000", "090743.855000", "090741.270000", "090743.060000", "090741.467500", "090743.257500", "090741.667500", "090743.457500", "090741.865000", "090743.655000", "090742.262500", "090744.052500", "090742.462500", "090744.252500", "090742.662500", "090744.452500", "090742.860000", "090744.650000", "090742.065000", "090747.455000", "090744.870000", "090746.660000", "090745.067500", "090746.857500", "090745.267500", "090747.057500", "090745.465000", "090747.255000", "090745.862500", "090747.652500", "090746.062500", "090747.852500", "090746.262500", "090748.052500", "090746.460000", "090748.250000", "090745.665000", "090747.455000", "090744.870000", "090746.660000", "090745.067500", "090746.857500", "090745.267500", "090747.057500", "090745.465000", "090747.255000", "090745.862500", "090747.652500", "090746.062500", "090747.852500", "090746.262500", "090748.052500", "090746.460000", "090748.250000", "090745.665000", "090747.455000", "090744.870000", "090746.660000", "090745.067500", "090746.857500", "090745.267500", "090747.057500", "090745.465000", "090747.255000", "090745.862500", "090747.652500", "090746.062500", "090747.852500", "090746.262500", "090748.052500", "090746.460000", "090748.250000", "090745.665000", "090747.455000", "090744.870000", "090746.660000", "090745.067500", "090746.857500", "090745.267500", "090747.057500", "090745.465000", "090747.255000", "090745.862500", "090747.652500", "090746.062500", "090747.852500", "090746.262500", "090748.052500", "090746.460000", "090748.250000", "090745.665000", "090751.055000", "090748.470000", "090750.260000", "090748.667500", "090750.457500", "090748.867500", "090750.657500", "090749.065000", "090750.855000", "090749.462500", "090751.252500", "090749.662500", "090751.452500", "090749.862500", "090751.652500", "090750.060000", "090751.850000", "090749.265000", "090751.055000", "090748.470000", "090750.260000", "090748.667500", "090750.457500", "090748.867500", "090750.657500", "090749.065000", "090750.855000", "090749.462500", "090751.252500", "090749.662500", "090751.452500", "090749.862500", "090751.652500", "090750.060000", "090751.850000", "090749.265000", "090751.055000", "090748.470000", "090750.260000", "090748.667500", "090750.457500", "090748.867500", "090750.657500", "090749.065000", "090750.855000", "090749.462500", "090751.252500", "090749.662500", "090751.452500", "090749.862500", "090751.652500", "090750.060000", "090751.850000", "090749.265000", "090751.055000", "090748.470000", "090750.260000", "090748.667500", "090750.457500", "090748.867500", "090750.657500", "090749.065000", "090750.855000", "090749.462500", "090751.252500", "090749.662500", "090751.452500", "090749.862500", "090751.652500", "090750.060000", "090751.850000", "090749.265000", "090754.655000", "090752.070000", "090753.860000", "090752.267500", "090754.057500", "090752.467500", "090754.257500", "090752.665000", "090754.455000", "090753.062500", "090754.852500", "090753.262500", "090755.052500", "090753.462500", "090755.252500", "090753.660000", "090755.450000", "090752.865000", "090754.655000", "090752.070000", "090753.860000", "090752.267500", "090754.057500", "090752.467500", "090754.257500", "090752.665000", "090754.455000", "090753.062500", "090754.852500", "090753.262500", "090755.052500", "090753.462500", "090755.252500", "090753.660000", "090755.450000", "090752.865000", "090754.655000", "090752.070000", "090753.860000", "090752.267500", "090754.057500", "090752.467500", "090754.257500", "090752.665000", "090754.455000", "090753.062500", "090754.852500", "090753.262500", "090755.052500", "090753.462500", "090755.252500", "090753.660000", "090755.450000", "090752.865000", "090754.655000", "090752.070000", "090753.860000", "090752.267500", "090754.057500", "090752.467500", "090754.257500", "090752.665000", "090754.455000", "090753.062500", "090754.852500", "090753.262500", "090755.052500", "090753.462500", "090755.252500", "090753.660000", "090755.450000", "090752.865000", "090758.255000", "090755.670000", "090757.460000", "090755.867500", "090757.657500", "090756.067500", "090757.857500", "090756.265000", "090758.055000", "090756.662500", "090758.452500", "090756.862500", "090758.652500", "090757.062500", "090758.852500", "090757.260000", "090759.050000", "090756.465000", "090758.255000", "090755.670000", "090757.460000", "090755.867500", "090757.657500", "090756.067500", "090757.857500", "090756.265000", "090758.055000", "090756.662500", "090758.452500", "090756.862500", "090758.652500", "090757.062500", "090758.852500", "090757.260000", "090759.050000", "090756.465000", "090758.255000", "090755.670000", "090757.460000", "090755.867500", "090757.657500", "090756.067500", "090757.857500", "090756.265000", "090758.055000", "090756.662500", "090758.452500", "090756.862500", "090758.652500", "090757.062500", "090758.852500", "090757.260000", "090759.050000", "090756.465000", "090758.255000", "090755.670000", "090757.460000", "090755.867500", "090757.657500", "090756.067500", "090757.857500", "090756.265000", "090758.055000", "090756.662500", "090758.452500", "090756.862500", "090758.652500", "090757.062500", "090758.852500", "090757.260000", "090759.050000", "090756.465000", "090801.855000", "090759.270000", "090801.060000", "090759.467500", "090801.257500", "090759.667500", "090801.457500", "090759.865000", "090801.655000", "090800.262500", "090802.052500", "090800.462500", "090802.252500", "090800.662500", "090802.452500", "090800.860000", "090802.650000", "090800.065000", "090801.855000", "090759.270000", "090801.060000", "090759.467500", "090801.257500", "090759.667500", "090801.457500", "090759.865000", "090801.655000", "090800.262500", "090802.052500", "090800.462500", "090802.252500", "090800.662500", "090802.452500", "090800.860000", "090802.650000", "090800.065000", "090801.855000", "090759.270000", "090801.060000", "090759.467500", "090801.257500", "090759.667500", "090801.457500", "090759.865000", "090801.655000", "090800.262500", "090802.052500", "090800.462500", "090802.252500", "090800.662500", "090802.452500", "090800.860000", "090802.650000", "090800.065000", "090801.855000", "090759.270000", "090801.060000", "090759.467500", "090801.257500", "090759.667500", "090801.457500", "090759.865000", "090801.655000", "090800.262500", "090802.052500", "090800.462500", "090802.252500", "090800.662500", "090802.452500", "090800.860000", "090802.650000", "090800.065000", "090805.455000", "090802.870000", "090804.660000", "090803.067500", "090804.857500", "090803.267500", "090805.057500", "090803.465000", "090805.255000", "090803.862500", "090805.652500", "090804.062500", "090805.852500", "090804.262500", "090806.052500", "090804.460000", "090806.250000", "090803.665000", "090805.455000", "090802.870000", "090804.660000", "090803.067500", "090804.857500", "090803.267500", "090805.057500", "090803.465000", "090805.255000", "090803.862500", "090805.652500", "090804.062500", "090805.852500", "090804.262500", "090806.052500", "090804.460000", "090806.250000", "090803.665000", "090805.455000", "090802.870000", "090804.660000", "090803.067500", "090804.857500", "090803.267500", "090805.057500", "090803.465000", "090805.255000", "090803.862500", "090805.652500", "090804.062500", "090805.852500", "090804.262500", "090806.052500", "090804.460000", "090806.250000", "090803.665000", "090805.455000", "090802.870000", "090804.660000", "090803.067500", "090804.857500", "090803.267500", "090805.057500", "090803.465000", "090805.255000", "090803.862500", "090805.652500", "090804.062500", "090805.852500", "090804.262500", "090806.052500", "090804.460000", "090806.250000", "090803.665000", "090809.055000", "090806.470000", "090808.260000", "090806.667500", "090808.457500", "090806.867500", "090808.657500", "090807.065000", "090808.855000", "090807.462500", "090809.252500", "090807.662500", "090809.452500", "090807.862500", "090809.652500", "090808.060000", "090809.850000", "090807.265000", "090809.055000", "090806.470000", "090808.260000", "090806.667500", "090808.457500", "090806.867500", "090808.657500", "090807.065000", "090808.855000", "090807.462500", "090809.252500", "090807.662500", "090809.452500", "090807.862500", "090809.652500", "090808.060000", "090809.850000", "090807.265000", "090809.055000", "090806.470000", "090808.260000", "090806.667500", "090808.457500", "090806.867500", "090808.657500", "090807.065000", "090808.855000", "090807.462500", "090809.252500", "090807.662500", "090809.452500", "090807.862500", "090809.652500", "090808.060000", "090809.850000", "090807.265000", "090809.055000", "090806.470000", "090808.260000", "090806.667500", "090808.457500", "090806.867500", "090808.657500", "090807.065000", "090808.855000", "090807.462500", "090809.252500", "090807.662500", "090809.452500", "090807.862500", "090809.652500", "090808.060000", "090809.850000", "090807.265000", "090812.655000", "090810.070000", "090811.860000", "090810.267500", "090812.057500", "090810.467500", "090812.257500", "090810.665000", "090812.455000", "090811.062500", "090812.852500", "090811.262500", "090813.052500", "090811.462500", "090813.252500", "090811.660000", "090813.450000", "090810.865000", "090812.655000", "090810.070000", "090811.860000", "090810.267500", "090812.057500", "090810.467500", "090812.257500", "090810.665000", "090812.455000", "090811.062500", "090812.852500", "090811.262500", "090813.052500", "090811.462500", "090813.252500", "090811.660000", "090813.450000", "090810.865000", "090812.655000", "090810.070000", "090811.860000", "090810.267500", "090812.057500", "090810.467500", "090812.257500", "090810.665000", "090812.455000", "090811.062500", "090812.852500", "090811.262500", "090813.052500", "090811.462500", "090813.252500", "090811.660000", "090813.450000", "090810.865000", "090812.655000", "090810.070000", "090811.860000", "090810.267500", "090812.057500", "090810.467500", "090812.257500", "090810.665000", "090812.455000", "090811.062500", "090812.852500", "090811.262500", "090813.052500", "090811.462500", "090813.252500", "090811.660000", "090813.450000", "090810.865000", "090816.255000", "090813.670000", "090815.460000", "090813.867500", "090815.657500", "090814.067500", "090815.857500", "090814.265000", "090816.055000", "090814.662500", "090816.452500", "090814.862500", "090816.652500", "090815.062500", "090816.852500", "090815.260000", "090817.050000", "090814.465000", "090816.255000", "090813.670000", "090815.460000", "090813.867500", "090815.657500", "090814.067500", "090815.857500", "090814.265000", "090816.055000", "090814.662500", "090816.452500", "090814.862500", "090816.652500", "090815.062500", "090816.852500", "090815.260000", "090817.050000", "090814.465000", "090816.255000", "090813.670000", "090815.460000", "090813.867500", "090815.657500", "090814.067500", "090815.857500", "090814.265000", "090816.055000", "090814.662500", "090816.452500", "090814.862500", "090816.652500", "090815.062500", "090816.852500", "090815.260000", "090817.050000", "090814.465000", "090816.255000", "090813.670000", "090815.460000", "090813.867500", "090815.657500", "090814.067500", "090815.857500", "090814.265000", "090816.055000", "090814.662500", "090816.452500", "090814.862500", "090816.652500", "090815.062500", "090816.852500", "090815.260000", "090817.050000", "090814.465000", "090819.855000", "090817.270000", "090819.060000", "090817.467500", "090819.257500", "090817.667500", "090819.457500", "090817.865000", "090819.655000", "090818.262500", "090820.052500", "090818.462500", "090820.252500", "090818.662500", "090820.452500", "090818.860000", "090820.650000", "090818.065000", "090819.855000", "090817.270000", "090819.060000", "090817.467500", "090819.257500", "090817.667500", "090819.457500", "090817.865000", "090819.655000", "090818.262500", "090820.052500", "090818.462500", "090820.252500", "090818.662500", "090820.452500", "090818.860000", "090820.650000", "090818.065000", "090819.855000", "090817.270000", "090819.060000", "090817.467500", "090819.257500", "090817.667500", "090819.457500", "090817.865000", "090819.655000", "090818.262500", "090820.052500", "090818.462500", "090820.252500", "090818.662500", "090820.452500", "090818.860000", "090820.650000", "090818.065000", "090819.855000", "090817.270000", "090819.060000", "090817.467500", "090819.257500", "090817.667500", "090819.457500", "090817.865000", "090819.655000", "090818.262500", "090820.052500", "090818.462500", "090820.252500", "090818.662500", "090820.452500", "090818.860000", "090820.650000", "090818.065000", "090823.455000", "090820.870000", "090822.660000", "090821.067500", "090822.857500", "090821.267500", "090823.057500", "090821.465000", "090823.255000", "090821.862500", "090823.652500", "090822.062500", "090823.852500", "090822.262500", "090824.052500", "090822.460000", "090824.250000", "090821.665000", "090823.455000", "090820.870000", "090822.660000", "090821.067500", "090822.857500", "090821.267500", "090823.057500", "090821.465000", "090823.255000", "090821.862500", "090823.652500", "090822.062500", "090823.852500", "090822.262500", "090824.052500", "090822.460000", "090824.250000", "090821.665000", "090823.455000", "090820.870000", "090822.660000", "090821.067500", "090822.857500", "090821.267500", "090823.057500", "090821.465000", "090823.255000", "090821.862500", "090823.652500", "090822.062500", "090823.852500", "090822.262500", "090824.052500", "090822.460000", "090824.250000", "090821.665000", "090823.455000", "090820.870000", "090822.660000", "090821.067500", "090822.857500", "090821.267500", "090823.057500", "090821.465000", "090823.255000", "090821.862500", "090823.652500", "090822.062500", "090823.852500", "090822.262500", "090824.052500", "090822.460000", "090824.250000", "090821.665000", "090827.055000", "090824.470000", "090826.260000", "090824.667500", "090826.457500", "090824.867500", "090826.657500", "090825.065000", "090826.855000", "090825.462500", "090827.252500", "090825.662500", "090827.452500", "090825.862500", "090827.652500", "090826.060000", "090827.850000", "090825.265000", "090827.055000", "090824.470000", "090826.260000", "090824.667500", "090826.457500", "090824.867500", "090826.657500", "090825.065000", "090826.855000", "090825.462500", "090827.252500", "090825.662500", "090827.452500", "090825.862500", "090827.652500", "090826.060000", "090827.850000", "090825.265000", "090827.055000", "090824.470000", "090826.260000", "090824.667500", "090826.457500", "090824.867500", "090826.657500", "090825.065000", "090826.855000", "090825.462500", "090827.252500", "090825.662500", "090827.452500", "090825.862500", "090827.652500", "090826.060000", "090827.850000", "090825.265000", "090827.055000", "090824.470000", "090826.260000", "090824.667500", "090826.457500", "090824.867500", "090826.657500", "090825.065000", "090826.855000", "090825.462500", "090827.252500", "090825.662500", "090827.452500", "090825.862500", "090827.652500", "090826.060000", "090827.850000", "090825.265000", "090830.655000", "090828.070000", "090829.860000", "090828.267500", "090830.057500", "090828.467500", "090830.257500", "090828.665000", "090830.455000", "090829.062500", "090830.852500", "090829.262500", "090831.052500", "090829.462500", "090831.252500", "090829.660000", "090831.450000", "090828.865000", "090830.655000", "090828.070000", "090829.860000", "090828.267500", "090830.057500", "090828.467500", "090830.257500", "090828.665000", "090830.455000", "090829.062500", "090830.852500", "090829.262500", "090831.052500", "090829.462500", "090831.252500", "090829.660000", "090831.450000", "090828.865000", "090830.655000", "090828.070000", "090829.860000", "090828.267500", "090830.057500", "090828.467500", "090830.257500", "090828.665000", "090830.455000", "090829.062500", "090830.852500", "090829.262500", "090831.052500", "090829.462500", "090831.252500", "090829.660000", "090831.450000", "090828.865000", "090830.655000", "090828.070000", "090829.860000", "090828.267500", "090830.057500", "090828.467500", "090830.257500", "090828.665000", "090830.455000", "090829.062500", "090830.852500", "090829.262500", "090831.052500", "090829.462500", "090831.252500", "090829.660000", "090831.450000", "090828.865000", "090834.255000", "090831.670000", "090833.460000", "090831.867500", "090833.657500", "090832.067500", "090833.857500", "090832.265000", "090834.055000", "090832.662500", "090834.452500", "090832.862500", "090834.652500", "090833.062500", "090834.852500", "090833.260000", "090835.050000", "090832.465000", "090834.255000", "090831.670000", "090833.460000", "090831.867500", "090833.657500", "090832.067500", "090833.857500", "090832.265000", "090834.055000", "090832.662500", "090834.452500", "090832.862500", "090834.652500", "090833.062500", "090834.852500", "090833.260000", "090835.050000", "090832.465000", "090834.255000", "090831.670000", "090833.460000", "090831.867500", "090833.657500", "090832.067500", "090833.857500", "090832.265000", "090834.055000", "090832.662500", "090834.452500", "090832.862500", "090834.652500", "090833.062500", "090834.852500", "090833.260000", "090835.050000", "090832.465000", "090834.255000", "090831.670000", "090833.460000", "090831.867500", "090833.657500", "090832.067500", "090833.857500", "090832.265000", "090834.055000", "090832.662500", "090834.452500", "090832.862500", "090834.652500", "090833.062500", "090834.852500", "090833.260000", "090835.050000", "090832.465000", "090837.855000", "090835.270000", "090837.060000", "090835.467500", "090837.257500", "090835.667500", "090837.457500", "090835.865000", "090837.655000", "090836.262500", "090838.052500", "090836.462500", "090838.252500", "090836.662500", "090838.452500", "090836.860000", "090838.650000", "090836.065000", "090837.855000", "090835.270000", "090837.060000", "090835.467500", "090837.257500", "090835.667500", "090837.457500", "090835.865000", "090837.655000", "090836.262500", "090838.052500", "090836.462500", "090838.252500", "090836.662500", "090838.452500", "090836.860000", "090838.650000", "090836.065000", "090837.855000", "090835.270000", "090837.060000", "090835.467500", "090837.257500", "090835.667500", "090837.457500", "090835.865000", "090837.655000", "090836.262500", "090838.052500", "090836.462500", "090838.252500", "090836.662500", "090838.452500", "090836.860000", "090838.650000", "090836.065000", "090837.855000", "090835.270000", "090837.060000", "090835.467500", "090837.257500", "090835.667500", "090837.457500", "090835.865000", "090837.655000", "090836.262500", "090838.052500", "090836.