{
  "AcquisitionDateTime": "2017-01-09T10:33:5.210938", 
  "ConversionSoftware": "dcm2niix", 
  "ConversionSoftwareVersion": "v1.0.20170130", 
  "EchoTime": 0.035, 
  "EffectiveEchoSpacing": 0.000279999, 
  "FlipAngle": 90, 
  "ImageType": [
    "ORIGINAL", 
    "PRIMARY", 
    "M", 
    "ND", 
    "NORM", 
    "MOSAIC"
], 
  "MagneticFieldStrength": 3, 
  "Manufacturer": "Siemens", 
  "ManufacturersModelName": "Prisma", 
  "PhaseEncodingDirection": "j-", 
  "ProcedureStepDescription": "dbic_QA", 
  "ProtocolName": "BOLD_p2_s4_3.5mm", 
  "RepetitionTime": 0.525, 
  "SliceTiming": [0.3775, 0, 0.2525, 0.0625, 0.315, 0.1875, 0.44, 0.125, 0.3775, 0, 0.2525, 0.0625, 0.315, 0.1875, 0.44, 0.125, 0.3775, 0, 0.2525, 0.0625, 0.315, 0.1875, 0.44, 0.125, 0.3775, 0, 0.2525, 0.0625, 0.315, 0.1875, 0.44, 0.125], 
  "dcmmeta_affine": [
    [-2.929283618927002, -0.6295884847640991, -0.20133361220359802, 154.15408325195312], 
    [-0.6456210017204285, 2.7858738899230957, 1.2058930397033691, -91.4206771850586], 
    [0.04970584809780121, -0.9178917407989502, 3.798076868057251, -39.97328567504883], 
    [0.0, 0.0, 0.0, 1.0]
], 
  "dcmmeta_reorient_transform": [
    [0.0, -1.0, 0.0, 79.0], 
    [1.0, 0.0, 0.0, 0.0], 
    [0.0, 0.0, 1.0, 0.0], 
    [0.0, 0.0, 0.0, 1.0]
], 
  "dcmmeta_shape": [80, 80, 32, 157], 
  "dcmmeta_slice_dim": 2, 
  "dcmmeta_version": 0.6, 
  "global": {
    "const": {
      "AccessionNumber": "qa", 
      "AcquisitionMatrix": [80, 0, 0, 80], 
      "AngioFlag": "N", 
      "BitsAllocated": 16, 
      "BitsStored": 12, 
      "BodyPartExamined": "BRAIN", 
      "Columns": 480, 
      "EchoNumbers": 1, 
      "EchoTime": 35.0, 
      "EchoTrainLength": 39, 
      "FlipAngle": 90.0, 
      "HighBit": 11, 
      "ImageOrientationPatient": [0.97642789004798, 0.21520700845726, 0.01656861633717, -0.209862833946, 0.92862461565064, 0.3059639098584], 
      "ImagePositionPatient": [-564.35562285648, -814.96232808877, -306.00624814548], 
      "ImageType": [
        "ORIGINAL", 
        "PRIMARY", 
        "M", 
        "ND", 
        "NORM", 
        "MOSAIC"
], 
      "ImagedNucleus": "1H", 
      "ImagingFrequency": 123.252535, 
      "InPlanePhaseEncodingDirection": "COL", 
      "MRAcquisitionType": "2D", 
      "MagneticFieldStrength": 3.0, 
      "Manufacturer": "SIEMENS", 
      "ManufacturerModelName": "Prisma", 
      "Modality": "MR", 
      "NumberOfAverages": 1.0, 
      "NumberOfPhaseEncodingSteps": 79, 
      "PercentPhaseFieldOfView": 100.0, 
      "PercentSampling": 100.0, 
      "PerformedProcedureStepStartTime": "101041.185000", 
      "PhotometricInterpretation": "MONOCHROME2", 
      "PixelBandwidth": 2315.0, 
      "PixelRepresentation": 0, 
      "PixelSpacing": [3.0, 3.0], 
      "PositionReferenceIndicator": "", 
      "ProtocolName": "BOLD_p2_s4_3.5mm", 
      "RepetitionTime": 525.0, 
      "Rows": 480, 
      "SAR": 0.07723371242273, 
      "SamplesPerPixel": 1, 
      "ScanOptions": "FS", 
      "ScanningSequence": "EP", 
      "SequenceName": "*epfid2d1_80", 
      "SequenceVariant": "SK", 
      "SeriesDescription": "BOLD_p2_s4_3.5mm", 
      "SeriesNumber": 7, 
      "SeriesTime": "103321.529000", 
      "SliceLocation": -73.459039217344, 
      "SliceThickness": 3.5, 
      "SmallestImagePixelValue": 0, 
      "SoftwareVersions": "syngo MR E11", 
      "SpacingBetweenSlices": 3.9900000388986, 
      "SpecificCharacterSet": "ISO_IR 100", 
      "StudyID": "20", 
      "StudyTime": "101041.066000", 
      "TransmitCoilName": "Body", 
      "VariableFlipAngleFlag": "N", 
      "WindowCenter": 838.0, 
      "WindowCenterWidthExplanation": "Algo1", 
      "dBdt": 0.0}, 
    "slices": {}
  }, 
  "time": {
    "samples": {
      "AcquisitionNumber": [1, 2, 3, 4, 5, 6, 7, 8, 9, 10, 11, 12, 13, 14, 15, 16, 17, 18, 19, 20, 21, 22, 23, 24, 25, 26, 27, 28, 29, 30, 31, 32, 33, 34, 35, 36, 37, 38, 39, 40, 41, 42, 43, 44, 45, 46, 47, 48, 49, 50, 51, 52, 53, 54, 55, 56, 57, 58, 59, 60, 61, 62, 63, 64, 65, 66, 67, 68, 69, 70, 71, 72, 73, 74, 75, 76, 77, 78, 79, 80, 81, 82, 83, 84, 85, 86, 87, 88, 89, 90, 91, 92, 93, 94, 95, 96, 97, 98, 99, 100, 101, 102, 103, 104, 105, 106, 107, 108, 109, 110, 111, 112, 113, 114, 115, 116, 117, 118, 119, 120, 121, 122, 123, 124, 125, 126, 127, 128, 129, 130, 131, 132, 133, 134, 135, 136, 137, 138, 139, 140, 141, 142, 143, 144, 145, 146, 147, 148, 149, 150, 151, 152, 153, 154, 155, 156, 157], 
      "AcquisitionTime": ["103305.212500", "103305.737500", "103306.262500", "103306.787500", "103307.312500", "103307.837500", "103308.362500", "103308.887500", "103309.412500", "103309.937500", "103310.462500", "103310.987500", "103311.512500", "103312.037500", "103312.562500", "103313.087500", "103313.612500", "103314.137500", "103314.662500", "103315.187500", "103315.712500", "103316.237500", "103316.762500", "103317.287500", "103317.812500", "103318.337500", "103318.862500", "103319.387500", "103319.912500", "103320.437500", "103320.962500", "103321.487500", "103322.012500", "103322.537500", "103323.062500", "103323.587500", "103324.112500", "103324.637500", "103325.162500", "103325.687500", "103326.212500", "103326.737500", "103327.262500", "103327.787500", "103328.312500", "103328.837500", "103329.362500", "103329.887500", "103330.412500", "103330.937500", "103331.462500", "103331.987500", "103332.512500", "103333.037500", "103333.562500", "103334.087500", "103334.612500", "103335.137500", "103335.662500", "103336.187500", "103336.712500", "103337.237500", "103337.762500", "103338.287500", "103338.812500", "103339.337500", "103339.862500", "103340.387500", "103340.912500", "103341.437500", "103341.962500", "103342.487500", "103343.012500", "103343.537500", "103344.062500", "103344.587500", "103345.112500", "103345.637500", "103346.162500", "103346.687500", "103347.212500", "103347.737500", "103348.262500", "103348.787500", "103349.312500", "103349.837500", "103350.362500", "103350.887500", "103351.412500", "103351.937500", "103352.462500", "103352.987500", "103353.512500", "103354.037500", "103354.562500", "103355.087500", "103355.612500", "103356.137500", "103356.662500", "103357.187500", "103357.712500", "103358.237500", "103358.762500", "103359.287500", "103359.812500", "103400.337500", "103400.862500", "103401.387500", "103401.912500", "103402.437500", "103402.962500", "103403.487500", "103404.012500", "103404.537500", "103405.062500", "103405.587500", "103406.112500", "103406.637500", "103407.162500", "103407.687500", "103408.212500", "103408.737500", "103409.262500", "103409.787500", "103410.312500", "103410.837500", "103411.362500", "103411.887500", "103412.412500", "103412.937500", "103413.462500", "103413.987500", "103414.512500", "103415.037500", "103415.562500", "103416.087500", "103416.612500", "103417.137500", "103417.662500", "103418.187500", "103418.712500", "103419.237500", "103419.762500", "103420.287500", "103420.812500", "103421.337500", "103421.862500", "103422.387500", "103422.912500", "103423.437500", "103423.962500", "103424.487500", "103425.012500", "103425.537500", "103426.062500", "103426.587500", "103427.112500"], 
      "ContentTime": ["103321.532000", "103321.536000", "103321.539000", "103321.547000", "103321.550000", "103321.553000", "103321.555000", "103321.558000", "103321.561000", "103321.563000", "103321.566000", "103321.569000", "103321.571000", "103321.574000", "103321.577000", "103321.579000", "103321.582000", "103321.585000", "103321.587000", "103321.590000", "103321.593000", "103321.601000", "103321.604000", "103321.607000", "103321.609000", "103321.612000", "103321.615000", "103321.617000", "103321.620000", "103321.623000", "103341.527000", "103341.530000", "103341.533000", "103341.536000", "103341.538000", "103341.541000", "103341.544000", "103341.553000", "103341.556000", "103341.558000", "103341.561000", "103341.564000", "103341.566000", "103341.569000", "103341.571000", "103341.574000", "103341.577000", "103341.579000", "103341.582000", "103341.585000", "103341.587000", "103341.590000", "103341.593000", "103341.595000", "103341.598000", "103341.601000", "103341.603000", "103341.606000", "103341.609000", "103341.611000", "103341.614000", "103341.617000", "103341.619000", "103341.622000", "103341.625000", "103341.628000", "103341.630000", "103341.633000", "103401.527000", "103401.530000", "103401.533000", "103401.536000", "103401.538000", "103401.541000", "103401.544000", "103401.546000", "103401.549000", "103401.552000", "103401.554000", "103401.557000", "103401.560000", "103401.562000", "103401.565000", "103401.568000", "103401.580000", "103401.583000", "103401.586000", "103401.589000", "103401.591000", "103401.594000", "103401.597000", "103401.599000", "103401.602000", "103401.604000", "103401.607000", "103401.610000", "103401.612000", "103401.615000", "103401.618000", "103401.620000", "103401.623000", "103401.626000", "103401.628000", "103401.632000", "103401.635000", "103401.638000", "103421.527000", "103421.530000", "103421.533000", "103421.536000", "103421.538000", "103421.541000", "103421.544000", "103421.546000", "103421.549000", "103421.552000", "103421.554000", "103421.557000", "103421.560000", "103421.563000", "103421.565000", "103421.568000", "103421.570000", "103421.573000", "103421.576000", "103421.579000", "103421.582000", "103421.585000", "103421.588000", "103421.591000", "103421.593000", "103421.596000", "103421.599000", "103421.601000", "103421.604000", "103421.607000", "103421.609000", "103421.612000", "103421.615000", "103421.617000", "103421.620000", "103421.623000", "103421.625000", "103421.628000", "103428.004000", "103428.007000", "103428.010000", "103428.013000", "103428.015000", "103428.018000", "103428.021000", "103428.024000", "103428.027000", "103428.030000", "103428.033000", "103428.036000", "103428.038000"], 
      "InstanceCreationTime": ["103321.532000", "103321.536000", "103321.539000", "103321.547000", "103321.550000", "103321.553000", "103321.555000", "103321.558000", "103321.561000", "103321.563000", "103321.566000", "103321.569000", "103321.571000", "103321.574000", "103321.577000", "103321.579000", "103321.582000", "103321.585000", "103321.587000", "103321.590000", "103321.593000", "103321.601000", "103321.604000", "103321.607000", "103321.609000", "103321.612000", "103321.615000", "103321.617000", "103321.620000", "103321.623000", "103341.527000", "103341.530000", "103341.533000", "103341.536000", "103341.538000", "103341.541000", "103341.544000", "103341.553000", "103341.556000", "103341.558000", "103341.561000", "103341.564000", "103341.566000", "103341.569000", "103341.571000", "103341.574000", "103341.577000", "103341.579000", "103341.582000", "103341.585000", "103341.587000", "103341.590000", "103341.593000", "103341.595000", "103341.598000", "103341.601000", "103341.603000", "103341.606000", "103341.609000", "103341.611000", "103341.614000", "103341.617000", "103341.619000", "103341.622000", "103341.625000", "103341.628000", "103341.630000", "103341.633000", "103401.527000", "103401.530000", "103401.533000", "103401.536000", "103401.538000", "103401.541000", "103401.544000", "103401.546000", "103401.549000", "103401.552000", "103401.554000", "103401.557000", "103401.560000", "103401.562000", "103401.565000", "103401.568000", "103401.580000", "103401.583000", "103401.586000", "103401.589000", "103401.591000", "103401.594000", "103401.597000", "103401.599000", "103401.602000", "103401.604000", "103401.607000", "103401.610000", "103401.612000", "103401.615000", "103401.618000", "103401.620000", "103401.623000", "103401.626000", "103401.628000", "103401.632000", "103401.635000", "103401.638000", "103421.527000", "103421.530000", "103421.533000", "103421.536000", "103421.538000", "103421.541000", "103421.544000", "103421.546000", "103421.549000", "103421.552000", "103421.554000", "103421.557000", "103421.560000", "103421.563000", "103421.565000", "103421.568000", "103421.570000", "103421.573000", "103421.576000", "103421.579000", "103421.582000", "103421.585000", "103421.588000", "103421.591000", "103421.593000", "103421.596000", "103421.599000", "103421.601000", "103421.604000", "103421.607000", "103421.609000", "103421.612000", "103421.615000", "103421.617000", "103421.620000", "103421.623000", "103421.625000", "103421.628000", "103428.004000", "103428.007000", "103428.010000", "103428.013000", "103428.015000", "103428.018000", "103428.021000", "103428.024000", "103428.027000", "103428.030000", "103428.033000", "103428.036000", "103428.038000"], 
      "InstanceNumber": [1, 2, 3, 4, 5, 6, 7, 8, 9, 10, 11, 12, 13, 14, 15, 16, 17, 18, 19, 20, 21, 22, 23, 24, 25, 26, 27, 28, 29, 30, 31, 32, 33, 34, 35, 36, 37, 38, 39, 40, 41, 42, 43, 44, 45, 46, 47, 48, 49, 50, 51, 52, 53, 54, 55, 56, 57, 58, 59, 60, 61, 62, 63, 64, 65, 66, 67, 68, 69, 70, 71, 72, 73, 74, 75, 76, 77, 78, 79, 80, 81, 82, 83, 84, 85, 86, 87, 88, 89, 90, 91, 92, 93, 94, 95, 96, 97, 98, 99, 100, 101, 102, 103, 104, 105, 106, 107, 108, 109, 110, 111, 112, 113, 114, 115, 116, 117, 118, 119, 120, 121, 122, 123, 124, 125, 126, 127, 128, 129, 130, 131, 132, 133, 134, 135, 136, 137, 138, 139, 140, 141, 142, 143, 144, 145, 146, 147, 148, 149, 150, 151, 152, 153, 154, 155, 156, 157], 
      "LargestImagePixelValue": [1857, 1861, 1859, 1860, 1859, 1862, 1865, 1858, 1859, 1860, 1859, 1859, 1861, 1857, 1859, 1863, 1862, 1859, 1866, 1867, 1863, 1859, 1859, 1858, 1858, 1856, 1857, 1856, 1859, 1859, 1858, 1859, 1859, 1858, 1859, 1862, 1860, 1854, 1858, 1856, 1859, 1862, 1860, 1860, 1863, 1857, 1862, 1857, 1860, 1860, 1860, 1864, 1857, 1858, 1853, 1857, 1858, 1855, 1859, 1859, 1859, 1854, 1859, 1859, 1859, 1860, 1860, 1858, 1858, 1863, 1862, 1858, 1854, 1854, 1859, 1851, 1857, 1857, 1858, 1853, 1858, 1854, 1859, 1860, 1860, 1858, 1865, 1861, 1857, 1856, 1860, 1862, 1860, 1861, 1862, 1859, 1860, 1862, 1851, 1855, 1860, 1859, 1857, 1858, 1856, 1860, 1862, 1861, 1862, 1859, 1856, 1861, 1856, 1854, 1856, 1855, 1853, 1860, 1855, 1855, 1860, 1857, 1856, 1857, 1859, 1855, 1853, 1858, 1856, 1857, 1861, 1857, 1856, 1859, 1856, 1859, 1861, 1865, 1859, 1857, 1860, 1858, 1856, 1858, 1855, 1853, 1855, 1854, 1854, 1856, 1856, 1865, 1854, 1854, 1860, 1856, 1854], 
      "WindowWidth": [1830.0, 1830.0, 1830.0, 1830.0, 1830.0, 1830.0, 1830.0, 1830.0, 1831.0, 1831.0, 1830.0, 1830.0, 1830.0, 1830.0, 1830.0, 1831.0, 1830.0, 1830.0, 1830.0, 1830.0, 1830.0, 1830.0, 1830.0, 1830.0, 1831.0, 1830.0, 1830.0, 1830.0, 1830.0, 1830.0, 1830.0, 1830.0, 1830.0, 1830.0, 1830.0, 1830.0, 1831.0, 1830.0, 1830.0, 1830.0, 1830.0, 1830.0, 1830.0, 1831.0, 1830.0, 1830.0, 1831.0, 1830.0, 1830.0, 1830.0, 1830.0, 1830.0, 1830.0, 1830.0, 1830.0, 1830.0, 1830.0, 1830.0, 1830.0, 1830.0, 1830.0, 1830.0, 1830.0, 1830.0, 1830.0, 1830.0, 1830.0, 1830.0, 1831.0, 1830.0, 1830.0, 1830.0, 1830.0, 1830.0, 1830.0, 1831.0, 1830.0, 1830.0, 1830.0, 1830.0, 1831.0, 1831.0, 1830.0, 1830.0, 1830.0, 1830.0, 1830.0, 1830.0, 1830.0, 1830.0, 1830.0, 1830.0, 1830.0, 1830.0, 1830.0, 1830.0, 1830.0, 1830.0, 1830.0, 1830.0, 1830.0, 1830.0, 1830.0, 1830.0, 1830.0, 1830.0, 1830.0, 1830.0, 1830.0, 1830.0, 1830.0, 1830.0, 1830.0, 1830.0, 1830.0, 1830.0, 1830.0, 1830.0, 1830.0, 1830.0, 1830.0, 1830.0, 1831.0, 1830.0, 1830.0, 1830.0, 1830.0, 1830.0, 1830.0, 1830.0, 1830.0, 1830.0, 1830.0, 1830.0, 1830.0, 1830.0, 1830.0, 1830.0, 1830.0, 1830.0, 1831.0, 1830.0, 1830.0, 1830.0, 1830.0, 1830.0, 1830.0, 1830.0, 1830.0, 1830.0, 1830.0, 1830.0, 1830.0, 1830.0, 1830.0, 1830.0, 1830.0]
    }, 
    "slices": {}
  }
}