{
  "AcquisitionMatrixPE": 80,
  "AcquisitionNumber": 1,
  "AcquisitionTime": "10:33:6.805000",
  "BandwidthPerPixelPhaseEncode": 48.077,
  "BaseResolution": 80,
  "BodyPartExamined": "BRAIN",
  "CoilCombinationMethod": "Sum of Squares",
  "ConsistencyInfo": "N4_VE11C_LATEST_20160120",
  "ConversionSoftware": "dcm2niix",
  "ConversionSoftwareVersion": "v1.0.20220720",
  "DerivedVendorReportedEchoSpacing": 0.000519999,
  "DeviceSerialNumber": "66112",
  "DwellTime": 2.7e-06,
  "EchoTime": 0.035,
  "EchoTrainLength": 39,
  "EffectiveEchoSpacing": 0.00026,
  "FlipAngle": 90,
  "HeudiconvVersion": "0.13.1",
  "ImageOrientationPatientDICOM": [0.999949, 0.00937992, 0.00387103, -0.0101227, 0.948645, 0.316179],
  "ImageOrientationText": "Tra>Cor(18.4)>Sag(0.0)",
  "ImageType": [
    "ORIGINAL",
    "PRIMARY",
    "M",
    "ND",
    "NORM",
    "MOSAIC"
],
  "ImagingFrequency": 123.252,
  "InPlanePhaseEncodingDirectionDICOM": "COL",
  "InstitutionAddress": "Maynard 3,Hanover,NH,US,03755",
  "InstitutionName": "Dartmouth College - PBS",
  "InstitutionalDepartmentName": "Department",
  "MRAcquisitionType": "2D",
  "MagneticFieldStrength": 3,
  "Manufacturer": "Siemens",
  "ManufacturersModelName": "Prisma",
  "MatrixCoilMode": "GRAPPA",
  "Modality": "MR",
  "NonlinearGradientCorrection": false,
  "ParallelReductionFactorInPlane": 2,
  "PartialFourier": 1,
  "PatientPosition": "HFS",
  "PercentPhaseFOV": 100,
  "PercentSampling": 100,
  "PhaseEncodingDirection": "j-",
  "PhaseEncodingSteps": 79,
  "PhaseResolution": 1,
  "PixelBandwidth": 2315,
  "ProcedureStepDescription": "dbic^QA",
  "ProtocolName": "func-bold_task-rest_acq-p2",
  "PulseSequenceDetails": "%SiemensSeq%\\ep2d_bold",
  "ReceiveCoilActiveElements": "HC1-7;NC1,2",
  "ReceiveCoilName": "HeadNeck_64",
  "ReconMatrixPE": 80,
  "RefLinesPE": 24,
  "RepetitionTime": 2,
  "SAR": 0.0407848,
  "ScanOptions": "FS",
  "ScanningSequence": "EP",
  "SequenceName": "*epfid2d1_80",
  "SequenceVariant": "SK",
  "SeriesDescription": "func-bold_task-rest_acq-p2",
  "SeriesNumber": 5,
  "ShimSetting": [4136, -7702, -7517, 215, -75, -210, -106, 132],
  "SliceThickness": 3.5,
  "SliceTiming": [0.99, 0, 1.0575, 0.0675, 1.1225, 0.1325, 1.1875, 0.1975, 1.255, 0.265, 1.32, 0.33, 1.3875, 0.3975, 1.4525, 0.4625, 1.5175, 0.5275, 1.585, 0.595, 1.65, 0.66, 1.7175, 0.7275, 1.7825, 0.7925, 1.8475, 0.8575, 1.915, 0.925],
  "SoftwareVersions": "syngo MR E11",
  "SpacingBetweenSlices": 3.99,
  "StationName": "AWP66112",
  "TaskName": "rest",
  "TotalReadoutTime": 0.02054,
  "TxRefAmp": 207.776,
  "dcmmeta_affine": [
    [-2.999845504760742, -0.030368052423000336, 0.0028189322911202908, 123.38939666748047],
    [-0.02813977375626564, 2.8459365367889404, 1.2616463899612427, -129.35765075683594],
    [0.011613094247877598, -0.9485376477241516, 3.7852792739868164, -13.93603801727295],
    [0.0, 0.0, 0.0, 1.0]
],
  "dcmmeta_reorient_transform": [
    [0.0, -1.0, 0.0, 79.0],
    [1.0, 0.0, 0.0, 0.0],
    [0.0, 0.0, 1.0, 0.0],
    [0.0, 0.0, 0.0, 1.0]
],
  "dcmmeta_shape": [80, 80, 30, 200],
  "dcmmeta_slice_dim": 2,
  "dcmmeta_version": 0.6,
  "global": {
    "const": {
      "AccessionNumber": "qa64",
      "AcquisitionMatrix": [80, 0, 0, 80],
      "AngioFlag": "N",
      "BitsAllocated": 16,
      "BitsStored": 12,
      "BodyPartExamined": "BRAIN",
      "Columns": 480,
      "EchoNumbers": 1,
      "EchoTime": 35.0,
      "EchoTrainLength": 39,
      "FlipAngle": 90.0,
      "HighBit": 11,
      "ImageOrientationPatient": [0.99994851473873, 0.00937992467769, 0.00387103149626, -0.0101226839559, 0.9486454759411, 0.31617920906664],
      "ImagePositionPatient": [-714.88581628227, -670.28657206064, -280.90065455905],
      "ImageType": [
        "ORIGINAL",
        "PRIMARY",
        "M",
        "ND",
        "NORM",
        "MOSAIC"
],
      "ImagedNucleus": "1H",
      "ImagingFrequency": 123.252364,
      "InPlanePhaseEncodingDirection": "COL",
      "LargestImagePixelValue": 4095,
      "MRAcquisitionType": "2D",
      "MagneticFieldStrength": 3.0,
      "Manufacturer": "SIEMENS",
      "ManufacturerModelName": "Prisma",
      "Modality": "MR",
      "NumberOfAverages": 1.0,
      "NumberOfPhaseEncodingSteps": 79,
      "PercentPhaseFieldOfView": 100.0,
      "PercentSampling": 100.0,
      "PerformedProcedureStepStartTime": "103127.401000",
      "PhotometricInterpretation": "MONOCHROME2",
      "PixelBandwidth": 2315.0,
      "PixelRepresentation": 0,
      "PixelSpacing": [3.0, 3.0],
      "ProtocolName": "func-bold_task-rest_acq-p2",
      "RepetitionTime": 2000.0,
      "Rows": 480,
      "SAR": 0.04078481896998,
      "SamplesPerPixel": 1,
      "ScanOptions": "FS",
      "ScanningSequence": "EP",
      "SequenceName": "*epfid2d1_80",
      "SequenceVariant": "SK",
      "SeriesDescription": "func-bold_task-rest_acq-p2",
      "SeriesNumber": 5,
      "SeriesTime": "103351.850000",
      "SliceLocation": -54.036988522123,
      "SliceThickness": 3.5,
      "SmallestImagePixelValue": 0,
      "SoftwareVersions": "syngo MR E11",
      "SpacingBetweenSlices": 3.9899999605789,
      "SpecificCharacterSet": "ISO_IR 100",
      "StudyID": "36",
      "StudyTime": "103127.343000",
      "TransmitCoilName": "Body",
      "VariableFlipAngleFlag": "N",
      "WindowCenterWidthExplanation": "Algo1",
      "dBdt": 0.0},
    "slices": {}
  },
  "time": {
    "samples": {
      "AcquisitionNumber": [1, 2, 3, 4, 5, 6, 7, 8, 9, 10, 11, 12, 13, 14, 15, 16, 17, 18, 19, 20, 21, 22, 23, 24, 25, 26, 27, 28, 29, 30, 31, 32, 33, 34, 35, 36, 37, 38, 39, 40, 41, 42, 43, 44, 45, 46, 47, 48, 49, 50, 51, 52, 53, 54, 55, 56, 57, 58, 59, 60, 61, 62, 63, 64, 65, 66, 67, 68, 69, 70, 71, 72, 73, 74, 75, 76, 77, 78, 79, 80, 81, 82, 83, 84, 85, 86, 87, 88, 89, 90, 91, 92, 93, 94, 95, 96, 97, 98, 99, 100, 101, 102, 103, 104, 105, 106, 107, 108, 109, 110, 111, 112, 113, 114, 115, 116, 117, 118, 119, 120, 121, 122, 123, 124, 125, 126, 127, 128, 129, 130, 131, 132, 133, 134, 135, 136, 137, 138, 139, 140, 141, 142, 143, 144, 145, 146, 147, 148, 149, 150, 151, 152, 153, 154, 155, 156, 157, 158, 159, 160, 161, 162, 163, 164, 165, 166, 167, 168, 169, 170, 171, 172, 173, 174, 175, 176, 177, 178, 179, 180, 181, 182, 183, 184, 185, 186, 187, 188, 189, 190, 191, 192, 193, 194, 195, 196, 197, 198, 199, 200],
      "AcquisitionTime": ["103306.805000", "103308.805000", "103310.805000", "103312.805000", "103314.805000", "103316.805000", "103318.805000", "103320.805000", "103322.805000", "103324.805000", "103326.805000", "103328.805000", "103330.805000", "103332.805000", "103334.805000", "103336.805000", "103338.805000", "103340.805000", "103342.805000", "103344.805000", "103346.805000", "103348.805000", "103350.805000", "103352.805000", "103354.805000", "103356.805000", "103358.805000", "103400.805000", "103402.805000", "103404.805000", "103406.805000", "103408.805000", "103410.805000", "103412.805000", "103414.805000", "103416.805000", "103418.805000", "103420.805000", "103422.805000", "103424.805000", "103426.805000", "103428.805000", "103430.805000", "103432.805000", "103434.805000", "103436.805000", "103438.805000", "103440.805000", "103442.805000", "103444.805000", "103446.805000", "103448.805000", "103450.805000", "103452.805000", "103454.805000", "103456.805000", "103458.805000", "103500.805000", "103502.805000", "103504.805000", "103506.805000", "103508.805000", "103510.805000", "103512.805000", "103514.805000", "103516.805000", "103518.805000", "103520.805000", "103522.805000", "103524.805000", "103526.805000", "103528.805000", "103530.805000", "103532.805000", "103534.805000", "103536.805000", "103538.805000", "103540.805000", "103542.805000", "103544.805000", "103546.805000", "103548.805000", "103550.805000", "103552.805000", "103554.805000", "103556.805000", "103558.805000", "103600.805000", "103602.805000", "103604.805000", "103606.805000", "103608.805000", "103610.805000", "103612.805000", "103614.805000", "103616.805000", "103618.805000", "103620.805000", "103622.805000", "103624.805000", "103626.805000", "103628.805000", "103630.805000", "103632.805000", "103634.805000", "103636.805000", "103638.805000", "103640.805000", "103642.805000", "103644.805000", "103646.805000", "103648.805000", "103650.805000", "103652.805000", "103654.805000", "103656.805000", "103658.805000", "103700.805000", "103702.805000", "103704.805000", "103706.805000", "103708.805000", "103710.805000", "103712.805000", "103714.805000", "103716.805000", "103718.805000", "103720.805000", "103722.805000", "103724.805000", "103726.805000", "103728.805000", "103730.805000", "103732.805000", "103734.805000", "103736.805000", "103738.805000", "103740.805000", "103742.805000", "103744.805000", "103746.805000", "103748.805000", "103750.805000", "103752.805000", "103754.805000", "103756.805000", "103758.805000", "103800.805000", "103802.805000", "103804.805000", "103806.805000", "103808.805000", "103810.805000", "103812.805000", "103814.805000", "103816.805000", "103818.805000", "103820.805000", "103822.805000", "103824.805000", "103826.805000", "103828.805000", "103830.805000", "103832.805000", "103834.805000", "103836.805000", "103838.805000", "103840.805000", "103842.805000", "103844.805000", "103846.805000", "103848.805000", "103850.805000", "103852.805000", "103854.805000", "103856.805000", "103858.805000", "103900.805000", "103902.805000", "103904.805000", "103906.805000", "103908.805000", "103910.805000", "103912.805000", "103914.805000", "103916.805000", "103918.805000", "103920.805000", "103922.805000", "103924.805000", "103926.805000", "103928.805000", "103930.805000", "103932.805000", "103934.805000", "103936.805000", "103938.805000", "103940.805000", "103942.805000", "103944.805000"],
      "ContentTime": ["103351.854000", "103351.858000", "103351.873000", "103351.875000", "103351.878000", "103351.880000", "103351.883000", "103351.886000", "103351.888000", "103351.891000", "103351.893000", "103351.896000", "103351.898000", "103351.901000", "103351.909000", "103351.912000", "103351.914000", "103351.917000", "103351.919000", "103351.922000", "103351.924000", "103351.927000", "103431.847000", "103431.850000", "103431.853000", "103431.855000", "103431.858000", "103431.860000", "103431.863000", "103431.865000", "103431.868000", "103431.870000", "103431.873000", "103431.875000", "103431.878000", "103431.880000", "103431.883000", "103431.885000", "103431.888000", "103431.890000", "103431.893000", "103431.895000", "103511.846000", "103511.849000", "103511.852000", "103511.854000", "103511.857000", "103511.859000", "103511.862000", "103511.864000", "103511.867000", "103511.869000", "103511.872000", "103511.874000", "103511.888000", "103511.890000", "103511.893000", "103511.895000", "103511.898000", "103511.900000", "103511.903000", "103511.906000", "103551.848000", "103551.850000", "103551.853000", "103551.856000", "103551.858000", "103551.861000", "103551.863000", "103551.866000", "103551.868000", "103551.871000", "103551.873000", "103551.876000", "103551.878000", "103551.881000", "103551.884000", "103551.886000", "103551.889000", "103551.891000", "103551.894000", "103551.896000", "103631.847000", "103631.850000", "103631.853000", "103631.855000", "103631.858000", "103631.861000", "103631.863000", "103631.866000", "103631.868000", "103631.871000", "103631.873000", "103631.876000", "103631.878000", "103631.881000", "103631.883000", "103631.886000", "103631.888000", "103631.891000", "103631.894000", "103631.896000", "103711.847000", "103711.850000", "103711.853000", "103711.855000", "103711.858000", "103711.860000", "103711.863000", "103711.865000", "103712.198000", "103713.151000", "103713.161000", "103713.186000", "103713.188000", "103713.191000", "103713.193000", "103713.196000", "103713.198000", "103713.201000", "103713.203000", "103713.223000", "103751.848000", "103751.850000", "103751.853000", "103751.855000", "103751.858000", "103751.861000", "103751.863000", "103751.866000", "103751.868000", "103751.871000", "103751.873000", "103751.876000", "103751.878000", "103751.881000", "103751.883000", "103751.886000", "103751.888000", "103751.891000", "103751.893000", "103751.896000", "103831.848000", "103831.850000", "103831.853000", "103831.856000", "103831.858000", "103831.861000", "103831.863000", "103831.866000", "103831.868000", "103831.871000", "103831.873000", "103831.876000", "103831.878000", "103831.881000", "103831.883000", "103831.886000", "103831.889000", "103831.891000", "103831.894000", "103831.896000", "103911.847000", "103911.849000", "103911.852000", "103911.855000", "103911.857000", "103911.860000", "103911.862000", "103911.865000", "103911.867000", "103911.870000", "103911.872000", "103911.875000", "103911.877000", "103911.880000", "103911.882000", "103911.885000", "103911.887000", "103911.890000", "103911.892000", "103911.895000", "103946.146000", "103946.149000", "103946.152000", "103946.154000", "103946.157000", "103946.159000", "103946.162000", "103946.165000", "103946.167000", "103946.170000", "103946.172000", "103946.175000", "103946.180000", "103946.183000", "103946.186000", "103946.188000", "103946.191000", "103946.194000"],
      "InstanceCreationTime": ["103351.854000", "103351.858000", "103351.873000", "103351.875000", "103351.878000", "103351.880000", "103351.883000", "103351.886000", "103351.888000", "103351.891000", "103351.893000", "103351.896000", "103351.898000", "103351.901000", "103351.909000", "103351.912000", "103351.914000", "103351.917000", "103351.919000", "103351.922000", "103351.924000", "103351.927000", "103431.847000", "103431.850000", "103431.853000", "103431.855000", "103431.858000", "103431.860000", "103431.863000", "103431.865000", "103431.868000", "103431.870000", "103431.873000", "103431.875000", "103431.878000", "103431.880000", "103431.883000", "103431.885000", "103431.888000", "103431.890000", "103431.893000", "103431.895000", "103511.846000", "103511.849000", "103511.852000", "103511.854000", "103511.857000", "103511.859000", "103511.862000", "103511.864000", "103511.867000", "103511.869000", "103511.872000", "103511.874000", "103511.888000", "103511.890000", "103511.893000", "103511.895000", "103511.898000", "103511.900000", "103511.903000", "103511.906000", "103551.848000", "103551.850000", "103551.853000", "103551.856000", "103551.858000", "103551.861000", "103551.863000", "103551.866000", "103551.868000", "103551.871000", "103551.873000", "103551.876000", "103551.878000", "103551.881000", "103551.884000", "103551.886000", "103551.889000", "103551.891000", "103551.894000", "103551.896000", "103631.847000", "103631.850000", "103631.853000", "103631.855000", "103631.858000", "103631.861000", "103631.863000", "103631.866000", "103631.868000", "103631.871000", "103631.873000", "103631.876000", "103631.878000", "103631.881000", "103631.883000", "103631.886000", "103631.888000", "103631.891000", "103631.894000", "103631.896000", "103711.847000", "103711.850000", "103711.853000", "103711.855000", "103711.858000", "103711.860000", "103711.863000", "103711.865000", "103712.198000", "103713.151000", "103713.161000", "103713.186000", "103713.188000", "103713.191000", "103713.193000", "103713.196000", "103713.198000", "103713.201000", "103713.203000", "103713.223000", "103751.848000", "103751.850000", "103751.853000", "103751.855000", "103751.858000", "103751.861000", "103751.863000", "103751.866000", "103751.868000", "103751.871000", "103751.873000", "103751.876000", "103751.878000", "103751.881000", "103751.883000", "103751.886000", "103751.888000", "103751.891000", "103751.893000", "103751.896000", "103831.848000", "103831.850000", "103831.853000", "103831.856000", "103831.858000", "103831.861000", "103831.863000", "103831.866000", "103831.868000", "103831.871000", "103831.873000", "103831.876000", "103831.878000", "103831.881000", "103831.883000", "103831.886000", "103831.889000", "103831.891000", "103831.894000", "103831.896000", "103911.847000", "103911.849000", "103911.852000", "103911.855000", "103911.857000", "103911.860000", "103911.862000", "103911.865000", "103911.867000", "103911.870000", "103911.872000", "103911.875000", "103911.877000", "103911.880000", "103911.882000", "103911.885000", "103911.887000", "103911.890000", "103911.892000", "103911.895000", "103946.146000", "103946.149000", "103946.152000", "103946.154000", "103946.157000", "103946.159000", "103946.162000", "103946.165000", "103946.167000", "103946.170000", "103946.172000", "103946.175000", "103946.180000", "103946.183000", "103946.186000", "103946.188000", "103946.191000", "103946.194000"],
      "InstanceNumber": [1, 2, 3, 4, 5, 6, 7, 8, 9, 10, 11, 12, 13, 14, 15, 16, 17, 18, 19, 20, 21, 22, 23, 24, 25, 26, 27, 28, 29, 30, 31, 32, 33, 34, 35, 36, 37, 38, 39, 40, 41, 42, 43, 44, 45, 46, 47, 48, 49, 50, 51, 52, 53, 54, 55, 56, 57, 58, 59, 60, 61, 62, 63, 64, 65, 66, 67, 68, 69, 70, 71, 72, 73, 74, 75, 76, 77, 78, 79, 80, 81, 82, 83, 84, 85, 86, 87, 88, 89, 90, 91, 92, 93, 94, 95, 96, 97, 98, 99, 100, 101, 102, 103, 104, 105, 106, 107, 108, 109, 110, 111, 112, 113, 114, 115, 116, 117, 118, 119, 120, 121, 122, 123, 124, 125, 126, 127, 128, 129, 130, 131, 132, 133, 134, 135, 136, 137, 138, 139, 140, 141, 142, 143, 144, 145, 146, 147, 148, 149, 150, 151, 152, 153, 154, 155, 156, 157, 158, 159, 160, 161, 162, 163, 164, 165, 166, 167, 168, 169, 170, 171, 172, 173, 174, 175, 176, 177, 178, 179, 180, 181, 182, 183, 184, 185, 186, 187, 188, 189, 190, 191, 192, 193, 194, 195, 196, 197, 198, 199, 200],
      "WindowCenter": [1547.0, 1546.0, 1546.0, 1546.0, 1546.0, 1546.0, 1546.0, 1545.0, 1545.0, 1546.0, 1545.0, 1545.0, 1545.0, 1546.0, 1545.0, 1545.0, 1545.0, 1544.0, 1545.0, 1546.0, 1544.0, 1545.0, 1544.0, 1544.0, 1545.0, 1544.0, 1544.0, 1544.0, 1545.0, 1544.0, 1545.0, 1545.0, 1544.0, 1544.0, 1545.0, 1544.0, 1545.0, 1544.0, 1544.0, 1545.0, 1544.0, 1543.0, 1544.0, 1544.0, 1543.0, 1544.0, 1544.0, 1542.0, 1543.0, 1543.0, 1543.0, 1543.0, 1543.0, 1543.0, 1543.0, 1543.0, 1542.0, 1543.0, 1543.0, 1543.0, 1542.0, 1543.0, 1543.0, 1543.0, 1543.0, 1543.0, 1542.0, 1543.0, 1543.0, 1543.0, 1543.0, 1543.0, 1543.0, 1543.0, 1543.0, 1544.0, 1543.0, 1543.0, 1543.0, 1542.0, 1542.0, 1543.0, 1542.0, 1542.0, 1542.0, 1543.0, 1542.0, 1543.0, 1542.0, 1542.0, 1542.0, 1542.0, 1542.0, 1542.0, 1542.0, 1542.0, 1542.0, 1542.0, 1542.0, 1542.0, 1541.0, 1542.0, 1542.0, 1542.0, 1542.0, 1542.0, 1541.0, 1543.0, 1541.0, 1541.0, 1542.0, 1542.0, 1541.0, 1541.0, 1542.0, 1541.0, 1541.0, 1541.0, 1541.0, 1541.0, 1542.0, 1541.0, 1541.0, 1541.0, 1541.0, 1540.0, 1541.0, 1541.0, 1541.0, 1541.0, 1541.0, 1541.0, 1541.0, 1541.0, 1541.0, 1541.0, 1541.0, 1541.0, 1541.0, 1541.0, 1541.0, 1540.0, 1540.0, 1541.0, 1540.0, 1540.0, 1541.0, 1541.0, 1541.0, 1540.0, 1542.0, 1540.0, 1541.0, 1541.0, 1541.0, 1541.0, 1540.0, 1541.0, 1541.0, 1541.0, 1540.0, 1541.0, 1540.0, 1540.0, 1540.0, 1540.0, 1540.0, 1541.0, 1541.0, 1540.0, 1540.0, 1540.0, 1539.0, 1540.0, 1540.0, 1541.0, 1540.0, 1540.0, 1540.0, 1540.0, 1540.0, 1540.0, 1540.0, 1539.0, 1539.0, 1540.0, 1540.0, 1540.0, 1539.0, 1538.0, 1540.0, 1539.0, 1540.0, 1539.0, 1539.0, 1539.0, 1539.0, 1539.0, 1539.0, 1540.0],
      "WindowWidth": [3464.0, 3463.0, 3463.0, 3463.0, 3463.0, 3463.0, 3463.0, 3463.0, 3463.0, 3463.0, 3463.0, 3463.0, 3463.0, 3463.0, 3463.0, 3462.0, 3462.0, 3462.0, 3462.0, 3462.0, 3462.0, 3463.0, 3463.0, 3462.0, 3463.0, 3463.0, 3463.0, 3463.0, 3462.0, 3462.0, 3462.0, 3462.0, 3462.0, 3462.0, 3463.0, 3463.0, 3463.0, 3463.0, 3462.0, 3462.0, 3462.0, 3463.0, 3462.0, 3462.0, 3462.0, 3462.0, 3462.0, 3463.0, 3462.0, 3462.0, 3462.0, 3462.0, 3462.0, 3462.0, 3462.0, 3462.0, 3462.0, 3462.0, 3462.0, 3462.0, 3462.0, 3461.0, 3461.0, 3461.0, 3461.0, 3461.0, 3461.0, 3462.0, 3462.0, 3461.0, 3461.0, 3462.0, 3461.0, 3461.0, 3461.0, 3461.0, 3461.0, 3462.0, 3461.0, 3461.0, 3461.0, 3461.0, 3461.0, 3461.0, 3461.0, 3461.0, 3461.0, 3461.0, 3461.0, 3461.0, 3461.0, 3461.0, 3461.0, 3461.0, 3461.0, 3461.0, 3461.0, 3461.0, 3461.0, 3461.0, 3461.0, 3461.0, 3461.0, 3461.0, 3461.0, 3461.0, 3461.0, 3460.0, 3461.0, 3460.0, 3461.0, 3461.0, 3460.0, 3460.0, 3460.0, 3460.0, 3460.0, 3460.0, 3460.0, 3460.0, 3460.0, 3460.0, 3460.0, 3460.0, 3460.0, 3460.0, 3460.0, 3460.0, 3460.0, 3460.0, 3460.0, 3460.0, 3460.0, 3460.0, 3460.0, 3460.0, 3460.0, 3460.0, 3460.0, 3460.0, 3460.0, 3460.0, 3460.0, 3460.0, 3460.0, 3460.0, 3460.0, 3460.0, 3460.0, 3460.0, 3459.0, 3460.0, 3460.0, 3460.0, 3460.0, 3460.0, 3460.0, 3460.0, 3460.0, 3460.0, 3460.0, 3460.0, 3460.0, 3460.0, 3460.0, 3460.0, 3460.0, 3459.0, 3459.0, 3459.0, 3460.0, 3460.0, 3459.0, 3459.0, 3459.0, 3459.0, 3459.0, 3459.0, 3459.0, 3459.0, 3459.0, 3459.0, 3459.0, 3459.0, 3459.0, 3459.0, 3459.0, 3459.0, 3459.0, 3459.0, 3459.0, 3459.0, 3459.0, 3459.0, 3459.0, 3459.0, 3459.0, 3459.0, 3459.0, 3459.0]
    },
    "slices": {}
  }
}