{
  "AcquisitionMatrixPE": 80,
  "AcquisitionNumber": 1,
  "AcquisitionTime": "10:39:54.542500",
  "BandwidthPerPixelPhaseEncode": 25,
  "BaseResolution": 80,
  "BodyPartExamined": "BRAIN",
  "CoilCombinationMethod": "Sum of Squares",
  "ConsistencyInfo": "N4_VE11C_LATEST_20160120",
  "ConversionSoftware": "dcm2niix",
  "ConversionSoftwareVersion": "v1.0.20220720",
  "DerivedVendorReportedEchoSpacing": 0.0005,
  "DeviceSerialNumber": "66112",
  "DwellTime": 2.7e-06,
  "EchoTime": 0.03,
  "EchoTrainLength": 80,
  "EffectiveEchoSpacing": 0.0005,
  "FlipAngle": 77,
  "HeudiconvVersion": "0.13.1",
  "ImageOrientationPatientDICOM": [0.999949, 0.00937992, 0.00387103, -0.0101227, 0.948645, 0.316179],
  "ImageOrientationText": "Tra>Cor(18.4)>Sag(0.0)",
  "ImageType": [
    "ORIGINAL",
    "PRIMARY",
    "M",
    "ND",
    "NORM",
    "MOSAIC"
],
  "ImagingFrequency": 123.252,
  "InPlanePhaseEncodingDirectionDICOM": "COL",
  "InstitutionAddress": "Maynard 3,Hanover,NH,US,03755",
  "InstitutionName": "Dartmouth College - PBS",
  "InstitutionalDepartmentName": "Department",
  "MRAcquisitionType": "2D",
  "MagneticFieldStrength": 3,
  "Manufacturer": "Siemens",
  "ManufacturersModelName": "Prisma",
  "MatrixCoilMode": "SENSE",
  "Modality": "MR",
  "NonlinearGradientCorrection": false,
  "PartialFourier": 1,
  "PatientPosition": "HFS",
  "PercentPhaseFOV": 100,
  "PercentSampling": 100,
  "PhaseEncodingDirection": "j-",
  "PhaseEncodingSteps": 80,
  "PhaseResolution": 1,
  "PixelBandwidth": 2315,
  "ProcedureStepDescription": "dbic^QA",
  "ProtocolName": "func-bold_fa-77",
  "PulseSequenceDetails": "%SiemensSeq%\\ep2d_bold",
  "ReceiveCoilActiveElements": "HC1-7;NC1,2",
  "ReceiveCoilName": "HeadNeck_64",
  "ReconMatrixPE": 80,
  "RepetitionTime": 2,
  "SAR": 0.0320507,
  "ScanOptions": "FS",
  "ScanningSequence": "EP",
  "SequenceName": "*epfid2d1_80",
  "SequenceVariant": "SK",
  "SeriesDescription": "func-bold_fa-77",
  "SeriesNumber": 7,
  "ShimSetting": [4136, -7702, -7517, 215, -75, -211, -106, 132],
  "SliceThickness": 3.5,
  "SliceTiming": [0.99, 0, 1.055, 0.065, 1.1225, 0.1325, 1.1875, 0.1975, 1.2525, 0.2625, 1.32, 0.33, 1.385, 0.395, 1.4525, 0.4625, 1.5175, 0.5275, 1.5825, 0.5925, 1.65, 0.66, 1.715, 0.725, 1.78, 0.7925, 1.8475, 0.8575, 1.9125, 0.9225],
  "SoftwareVersions": "syngo MR E11",
  "SpacingBetweenSlices": 3.99,
  "StationName": "AWP66112",
  "TotalReadoutTime": 0.0395,
  "TxRefAmp": 207.776,
  "dcmmeta_affine": [
    [-2.999845504760742, -0.030368052423000336, 0.0028189322911202908, 121.45103454589844],
    [-0.02813977375626564, 2.8459365367889404, 1.2616463899612427, -127.1493911743164],
    [0.011613094247877598, -0.9485376477241516, 3.7852795124053955, -13.323386192321777],
    [0.0, 0.0, 0.0, 1.0]
],
  "dcmmeta_reorient_transform": [
    [0.0, -1.0, 0.0, 79.0],
    [1.0, 0.0, 0.0, 0.0],
    [0.0, 0.0, 1.0, 0.0],
    [0.0, 0.0, 0.0, 1.0]
],
  "dcmmeta_shape": [80, 80, 30, 200],
  "dcmmeta_slice_dim": 2,
  "dcmmeta_version": 0.6,
  "global": {
    "const": {
      "AccessionNumber": "qa64",
      "AcquisitionMatrix": [80, 0, 0, 80],
      "AngioFlag": "N",
      "BitsAllocated": 16,
      "BitsStored": 12,
      "BodyPartExamined": "BRAIN",
      "Columns": 480,
      "EchoNumbers": 1,
      "EchoTime": 30.0,
      "EchoTrainLength": 80,
      "FlipAngle": 77.0,
      "HighBit": 11,
      "ImageOrientationPatient": [0.99994851473873, 0.00937992467769, 0.00387103149626, -0.0101226839559, 0.9486454759411, 0.31617920906664],
      "ImagePositionPatient": [-712.94746006155, -672.49482782846, -280.28800273409],
      "ImageType": [
        "ORIGINAL",
        "PRIMARY",
        "M",
        "ND",
        "NORM",
        "MOSAIC"
],
      "ImagedNucleus": "1H",
      "ImagingFrequency": 123.252363,
      "InPlanePhaseEncodingDirection": "COL",
      "LargestImagePixelValue": 4095,
      "MRAcquisitionType": "2D",
      "MagneticFieldStrength": 3.0,
      "Manufacturer": "SIEMENS",
      "ManufacturerModelName": "Prisma",
      "Modality": "MR",
      "NumberOfAverages": 1.0,
      "NumberOfPhaseEncodingSteps": 80,
      "PercentPhaseFieldOfView": 100.0,
      "PercentSampling": 100.0,
      "PerformedProcedureStepStartTime": "103127.401000",
      "PhotometricInterpretation": "MONOCHROME2",
      "PixelBandwidth": 2315.0,
      "PixelRepresentation": 0,
      "PixelSpacing": [3.0, 3.0],
      "ProtocolName": "func-bold_fa-77",
      "RepetitionTime": 2000.0,
      "Rows": 480,
      "SAR": 0.0320507456535,
      "SamplesPerPixel": 1,
      "ScanOptions": "FS",
      "ScanningSequence": "EP",
      "SequenceName": "*epfid2d1_80",
      "SequenceVariant": "SK",
      "SeriesDescription": "func-bold_fa-77",
      "SeriesNumber": 7,
      "SeriesTime": "104051.919000",
      "SliceLocation": -52.758885193006,
      "SliceThickness": 3.5,
      "SmallestImagePixelValue": 0,
      "SoftwareVersions": "syngo MR E11",
      "SpacingBetweenSlices": 3.9899999813794,
      "SpecificCharacterSet": "ISO_IR 100",
      "StudyID": "36",
      "StudyTime": "103127.343000",
      "TransmitCoilName": "Body",
      "VariableFlipAngleFlag": "N",
      "WindowCenterWidthExplanation": "Algo1",
      "dBdt": 0.0},
    "slices": {}
  },
  "time": {
    "samples": {
      "AcquisitionNumber": [1, 2, 3, 4, 5, 6, 7, 8, 9, 10, 11, 12, 13, 14, 15, 16, 17, 18, 19, 20, 21, 22, 23, 24, 25, 26, 27, 28, 29, 30, 31, 32, 33, 34, 35, 36, 37, 38, 39, 40, 41, 42, 43, 44, 45, 46, 47, 48, 49, 50, 51, 52, 53, 54, 55, 56, 57, 58, 59, 60, 61, 62, 63, 64, 65, 66, 67, 68, 69, 70, 71, 72, 73, 74, 75, 76, 77, 78, 79, 80, 81, 82, 83, 84, 85, 86, 87, 88, 89, 90, 91, 92, 93, 94, 95, 96, 97, 98, 99, 100, 101, 102, 103, 104, 105, 106, 107, 108, 109, 110, 111, 112, 113, 114, 115, 116, 117, 118, 119, 120, 121, 122, 123, 124, 125, 126, 127, 128, 129, 130, 131, 132, 133, 134, 135, 136, 137, 138, 139, 140, 141, 142, 143, 144, 145, 146, 147, 148, 149, 150, 151, 152, 153, 154, 155, 156, 157, 158, 159, 160, 161, 162, 163, 164, 165, 166, 167, 168, 169, 170, 171, 172, 173, 174, 175, 176, 177, 178, 179, 180, 181, 182, 183, 184, 185, 186, 187, 188, 189, 190, 191, 192, 193, 194, 195, 196, 197, 198, 199, 200],
      "AcquisitionTime": ["103954.542500", "103956.542500", "103958.542500", "104000.542500", "104002.542500", "104004.542500", "104006.542500", "104008.542500", "104010.542500", "104012.542500", "104014.542500", "104016.542500", "104018.542500", "104020.542500", "104022.542500", "104024.542500", "104026.542500", "104028.542500", "104030.542500", "104032.542500", "104034.542500", "104036.542500", "104038.542500", "104040.542500", "104042.542500", "104044.542500", "104046.542500", "104048.542500", "104050.542500", "104052.542500", "104054.542500", "104056.542500", "104058.542500", "104100.542500", "104102.542500", "104104.542500", "104106.542500", "104108.542500", "104110.542500", "104112.542500", "104114.542500", "104116.542500", "104118.542500", "104120.542500", "104122.542500", "104124.542500", "104126.542500", "104128.542500", "104130.542500", "104132.542500", "104134.542500", "104136.542500", "104138.542500", "104140.542500", "104142.542500", "104144.542500", "104146.542500", "104148.542500", "104150.542500", "104152.542500", "104154.542500", "104156.542500", "104158.542500", "104200.542500", "104202.542500", "104204.542500", "104206.542500", "104208.542500", "104210.542500", "104212.542500", "104214.542500", "104216.542500", "104218.542500", "104220.542500", "104222.542500", "104224.542500", "104226.542500", "104228.542500", "104230.542500", "104232.542500", "104234.542500", "104236.542500", "104238.542500", "104240.542500", "104242.542500", "104244.542500", "104246.542500", "104248.542500", "104250.542500", "104252.542500", "104254.542500", "104256.542500", "104258.542500", "104300.542500", "104302.542500", "104304.542500", "104306.542500", "104308.542500", "104310.542500", "104312.542500", "104314.542500", "104316.542500", "104318.542500", "104320.542500", "104322.542500", "104324.542500", "104326.542500", "104328.542500", "104330.542500", "104332.542500", "104334.542500", "104336.542500", "104338.542500", "104340.542500", "104342.542500", "104344.542500", "104346.542500", "104348.542500", "104350.542500", "104352.542500", "104354.542500", "104356.542500", "104358.542500", "104400.542500", "104402.542500", "104404.542500", "104406.542500", "104408.542500", "104410.542500", "104412.542500", "104414.542500", "104416.542500", "104418.542500", "104420.542500", "104422.542500", "104424.542500", "104426.542500", "104428.542500", "104430.542500", "104432.542500", "104434.542500", "104436.542500", "104438.542500", "104440.542500", "104442.542500", "104444.542500", "104446.542500", "104448.542500", "104450.542500", "104452.542500", "104454.542500", "104456.542500", "104458.542500", "104500.542500", "104502.542500", "104504.542500", "104506.542500", "104508.542500", "104510.542500", "104512.542500", "104514.542500", "104516.542500", "104518.542500", "104520.542500", "104522.542500", "104524.542500", "104526.542500", "104528.542500", "104530.542500", "104532.542500", "104534.542500", "104536.542500", "104538.542500", "104540.542500", "104542.542500", "104544.542500", "104546.542500", "104548.542500", "104550.542500", "104552.542500", "104554.542500", "104556.542500", "104558.542500", "104600.542500", "104602.542500", "104604.542500", "104606.542500", "104608.542500", "104610.542500", "104612.542500", "104614.542500", "104616.542500", "104618.542500", "104620.542500", "104622.542500", "104624.542500", "104626.542500", "104628.542500", "104630.542500", "104632.542500"],
      "ContentTime": ["104051.922000", "104051.926000", "104051.928000", "104051.931000", "104051.934000", "104051.936000", "104051.938000", "104051.941000", "104051.943000", "104051.946000", "104051.948000", "104051.951000", "104051.953000", "104051.956000", "104051.967000", "104051.970000", "104051.972000", "104051.975000", "104051.977000", "104051.980000", "104051.982000", "104051.998000", "104052.002000", "104052.005000", "104052.007000", "104052.010000", "104052.012000", "104052.015000", "104131.916000", "104131.919000", "104131.930000", "104131.932000", "104131.935000", "104131.937000", "104131.940000", "104131.942000", "104131.945000", "104131.947000", "104131.950000", "104131.952000", "104131.955000", "104131.957000", "104131.959000", "104131.962000", "104131.964000", "104131.967000", "104131.969000", "104131.972000", "104211.917000", "104211.920000", "104211.923000", "104211.925000", "104211.928000", "104211.930000", "104211.933000", "104211.935000", "104211.938000", "104211.940000", "104211.943000", "104211.945000", "104211.948000", "104211.950000", "104211.953000", "104211.956000", "104211.958000", "104211.961000", "104211.963000", "104211.966000", "104251.918000", "104251.920000", "104251.923000", "104251.925000", "104251.928000", "104251.930000", "104251.933000", "104251.935000", "104251.938000", "104251.940000", "104251.943000", "104251.945000", "104251.948000", "104251.950000", "104251.953000", "104251.955000", "104251.958000", "104251.960000", "104251.963000", "104251.965000", "104311.917000", "104311.920000", "104311.923000", "104311.925000", "104311.928000", "104311.930000", "104311.933000", "104311.935000", "104311.938000", "104311.940000", "104351.916000", "104351.919000", "104351.922000", "104351.924000", "104351.927000", "104351.929000", "104351.932000", "104351.934000", "104351.937000", "104351.939000", "104351.942000", "104351.944000", "104351.947000", "104351.949000", "104351.952000", "104351.954000", "104351.957000", "104351.959000", "104351.961000", "104351.964000", "104431.917000", "104431.920000", "104431.923000", "104431.925000", "104431.928000", "104431.930000", "104431.933000", "104431.935000", "104431.938000", "104431.940000", "104431.943000", "104431.945000", "104431.948000", "104431.950000", "104431.953000", "104431.955000", "104431.958000", "104431.960000", "104431.963000", "104431.966000", "104511.917000", "104511.920000", "104511.923000", "104511.925000", "104511.928000", "104511.930000", "104511.933000", "104511.935000", "104511.938000", "104511.940000", "104511.943000", "104511.945000", "104511.948000", "104511.951000", "104511.953000", "104511.956000", "104511.958000", "104511.960000", "104511.963000", "104511.965000", "104551.917000", "104551.920000", "104551.940000", "104551.943000", "104551.945000", "104551.948000", "104551.950000", "104551.953000", "104551.955000", "104551.958000", "104551.960000", "104551.963000", "104551.965000", "104551.968000", "104551.970000", "104551.973000", "104551.975000", "104551.978000", "104551.987000", "104551.989000", "104631.916000", "104631.919000", "104631.922000", "104631.924000", "104631.927000", "104631.929000", "104631.932000", "104631.934000", "104631.937000", "104631.939000", "104631.942000", "104631.944000", "104631.947000", "104631.949000", "104631.952000", "104631.954000", "104631.957000", "104631.959000", "104631.962000", "104631.964000", "104634.201000", "104634.204000"],
      "InstanceCreationTime": ["104051.922000", "104051.926000", "104051.928000", "104051.931000", "104051.934000", "104051.936000", "104051.938000", "104051.941000", "104051.943000", "104051.946000", "104051.948000", "104051.951000", "104051.953000", "104051.956000", "104051.967000", "104051.970000", "104051.972000", "104051.975000", "104051.977000", "104051.980000", "104051.982000", "104051.998000", "104052.002000", "104052.005000", "104052.007000", "104052.010000", "104052.012000", "104052.015000", "104131.916000", "104131.919000", "104131.930000", "104131.932000", "104131.935000", "104131.937000", "104131.940000", "104131.942000", "104131.945000", "104131.947000", "104131.950000", "104131.952000", "104131.955000", "104131.957000", "104131.959000", "104131.962000", "104131.964000", "104131.967000", "104131.969000", "104131.972000", "104211.917000", "104211.920000", "104211.923000", "104211.925000", "104211.928000", "104211.930000", "104211.933000", "104211.935000", "104211.938000", "104211.940000", "104211.943000", "104211.945000", "104211.948000", "104211.950000", "104211.953000", "104211.956000", "104211.958000", "104211.961000", "104211.963000", "104211.966000", "104251.918000", "104251.920000", "104251.923000", "104251.925000", "104251.928000", "104251.930000", "104251.933000", "104251.935000", "104251.938000", "104251.940000", "104251.943000", "104251.945000", "104251.948000", "104251.950000", "104251.953000", "104251.955000", "104251.958000", "104251.960000", "104251.963000", "104251.965000", "104311.917000", "104311.920000", "104311.923000", "104311.925000", "104311.928000", "104311.930000", "104311.933000", "104311.935000", "104311.938000", "104311.940000", "104351.916000", "104351.919000", "104351.922000", "104351.924000", "104351.927000", "104351.929000", "104351.932000", "104351.934000", "104351.937000", "104351.939000", "104351.942000", "104351.944000", "104351.947000", "104351.949000", "104351.952000", "104351.954000", "104351.957000", "104351.959000", "104351.961000", "104351.964000", "104431.917000", "104431.920000", "104431.923000", "104431.925000", "104431.928000", "104431.930000", "104431.933000", "104431.935000", "104431.938000", "104431.940000", "104431.943000", "104431.945000", "104431.948000", "104431.950000", "104431.953000", "104431.955000", "104431.958000", "104431.960000", "104431.963000", "104431.966000", "104511.917000", "104511.920000", "104511.923000", "104511.925000", "104511.928000", "104511.930000", "104511.933000", "104511.935000", "104511.938000", "104511.940000", "104511.943000", "104511.945000", "104511.948000", "104511.951000", "104511.953000", "104511.956000", "104511.958000", "104511.960000", "104511.963000", "104511.965000", "104551.917000", "104551.920000", "104551.940000", "104551.943000", "104551.945000", "104551.948000", "104551.950000", "104551.953000", "104551.955000", "104551.958000", "104551.960000", "104551.963000", "104551.965000", "104551.968000", "104551.970000", "104551.973000", "104551.975000", "104551.978000", "104551.987000", "104551.989000", "104631.916000", "104631.919000", "104631.922000", "104631.924000", "104631.927000", "104631.929000", "104631.932000", "104631.934000", "104631.937000", "104631.939000", "104631.942000", "104631.944000", "104631.947000", "104631.949000", "104631.952000", "104631.954000", "104631.957000", "104631.959000", "104631.962000", "104631.964000", "104634.201000", "104634.204000"],
      "InstanceNumber": [1, 2, 3, 4, 5, 6, 7, 8, 9, 10, 11, 12, 13, 14, 15, 16, 17, 18, 19, 20, 21, 22, 23, 24, 25, 26, 27, 28, 29, 30, 31, 32, 33, 34, 35, 36, 37, 38, 39, 40, 41, 42, 43, 44, 45, 46, 47, 48, 49, 50, 51, 52, 53, 54, 55, 56, 57, 58, 59, 60, 61, 62, 63, 64, 65, 66, 67, 68, 69, 70, 71, 72, 73, 74, 75, 76, 77, 78, 79, 80, 81, 82, 83, 84, 85, 86, 87, 88, 89, 90, 91, 92, 93, 94, 95, 96, 97, 98, 99, 100, 101, 102, 103, 104, 105, 106, 107, 108, 109, 110, 111, 112, 113, 114, 115, 116, 117, 118, 119, 120, 121, 122, 123, 124, 125, 126, 127, 128, 129, 130, 131, 132, 133, 134, 135, 136, 137, 138, 139, 140, 141, 142, 143, 144, 145, 146, 147, 148, 149, 150, 151, 152, 153, 154, 155, 156, 157, 158, 159, 160, 161, 162, 163, 164, 165, 166, 167, 168, 169, 170, 171, 172, 173, 174, 175, 176, 177, 178, 179, 180, 181, 182, 183, 184, 185, 186, 187, 188, 189, 190, 191, 192, 193, 194, 195, 196, 197, 198, 199, 200],
      "WindowCenter": [1448.0, 1448.0, 1449.0, 1448.0, 1448.0, 1448.0, 1447.0, 1448.0, 1448.0, 1448.0, 1447.0, 1447.0, 1447.0, 1447.0, 1446.0, 1447.0, 1446.0, 1446.0, 1446.0, 1446.0, 1446.0, 1446.0, 1446.0, 1446.0, 1446.0, 1445.0, 1445.0, 1445.0, 1446.0, 1446.0, 1445.0, 1445.0, 1445.0, 1445.0, 1445.0, 1444.0, 1444.0, 1445.0, 1445.0, 1444.0, 1445.0, 1446.0, 1445.0, 1445.0, 1444.0, 1445.0, 1445.0, 1445.0, 1444.0, 1446.0, 1444.0, 1445.0, 1444.0, 1444.0, 1445.0, 1445.0, 1445.0, 1445.0, 1444.0, 1445.0, 1444.0, 1444.0, 1444.0, 1446.0, 1445.0, 1446.0, 1445.0, 1444.0, 1443.0, 1444.0, 1443.0, 1443.0, 1442.0, 1443.0, 1442.0, 1443.0, 1442.0, 1442.0, 1443.0, 1443.0, 1442.0, 1442.0, 1443.0, 1442.0, 1442.0, 1443.0, 1441.0, 1442.0, 1442.0, 1442.0, 1442.0, 1443.0, 1443.0, 1443.0, 1443.0, 1443.0, 1442.0, 1442.0, 1442.0, 1443.0, 1444.0, 1444.0, 1444.0, 1444.0, 1443.0, 1444.0, 1443.0, 1444.0, 1444.0, 1444.0, 1444.0, 1443.0, 1443.0, 1443.0, 1444.0, 1443.0, 1444.0, 1443.0, 1443.0, 1444.0, 1443.0, 1443.0, 1444.0, 1443.0, 1443.0, 1443.0, 1443.0, 1443.0, 1443.0, 1443.0, 1443.0, 1443.0, 1444.0, 1443.0, 1444.0, 1443.0, 1443.0, 1443.0, 1441.0, 1441.0, 1440.0, 1440.0, 1441.0, 1440.0, 1441.0, 1440.0, 1440.0, 1441.0, 1441.0, 1440.0, 1440.0, 1441.0, 1441.0, 1441.0, 1440.0, 1440.0, 1440.0, 1441.0, 1440.0, 1441.0, 1440.0, 1440.0, 1440.0, 1440.0, 1440.0, 1440.0, 1440.0, 1440.0, 1439.0, 1440.0, 1440.0, 1440.0, 1441.0, 1440.0, 1440.0, 1440.0, 1440.0, 1439.0, 1441.0, 1439.0, 1440.0, 1441.0, 1441.0, 1441.0, 1440.0, 1440.0, 1440.0, 1440.0, 1440.0, 1439.0, 1440.0, 1440.0, 1440.0, 1440.0, 1441.0, 1440.0, 1440.0, 1439.0, 1439.0, 1439.0],
      "WindowWidth": [3422.0, 3422.0, 3421.0, 3422.0, 3421.0, 3421.0, 3422.0, 3422.0, 3421.0, 3421.0, 3421.0, 3421.0, 3420.0, 3420.0, 3420.0, 3420.0, 3420.0, 3420.0, 3420.0, 3420.0, 3419.0, 3419.0, 3419.0, 3419.0, 3419.0, 3419.0, 3420.0, 3419.0, 3419.0, 3419.0, 3420.0, 3420.0, 3419.0, 3419.0, 3419.0, 3419.0, 3419.0, 3418.0, 3418.0, 3419.0, 3419.0, 3421.0, 3420.0, 3419.0, 3420.0, 3420.0, 3420.0, 3419.0, 3420.0, 3419.0, 3420.0, 3420.0, 3419.0, 3420.0, 3420.0, 3420.0, 3420.0, 3420.0, 3420.0, 3419.0, 3420.0, 3420.0, 3420.0, 3421.0, 3421.0, 3420.0, 3419.0, 3418.0, 3419.0, 3418.0, 3417.0, 3417.0, 3417.0, 3417.0, 3417.0, 3417.0, 3416.0, 3416.0, 3417.0, 3417.0, 3417.0, 3416.0, 3416.0, 3416.0, 3416.0, 3416.0, 3416.0, 3416.0, 3416.0, 3417.0, 3417.0, 3417.0, 3417.0, 3417.0, 3418.0, 3418.0, 3415.0, 3415.0, 3416.0, 3417.0, 3419.0, 3418.0, 3419.0, 3418.0, 3419.0, 3418.0, 3419.0, 3418.0, 3418.0, 3418.0, 3418.0, 3418.0, 3418.0, 3418.0, 3418.0, 3418.0, 3418.0, 3418.0, 3418.0, 3419.0, 3418.0, 3418.0, 3418.0, 3418.0, 3418.0, 3418.0, 3418.0, 3417.0, 3417.0, 3417.0, 3417.0, 3417.0, 3418.0, 3417.0, 3418.0, 3418.0, 3417.0, 3417.0, 3415.0, 3415.0, 3415.0, 3415.0, 3415.0, 3415.0, 3414.0, 3415.0, 3415.0, 3414.0, 3414.0, 3414.0, 3415.0, 3414.0, 3414.0, 3414.0, 3415.0, 3415.0, 3414.0, 3414.0, 3415.0, 3414.0, 3414.0, 3414.0, 3414.0, 3414.0, 3414.0, 3414.0, 3414.0, 3414.0, 3414.0, 3414.0, 3414.0, 3414.0, 3414.0, 3415.0, 3415.0, 3415.0, 3415.0, 3414.0, 3414.0, 3414.0, 3415.0, 3417.0, 3416.0, 3414.0, 3414.0, 3414.0, 3414.0, 3414.0, 3414.0, 3414.0, 3414.0, 3414.0, 3414.0, 3414.0, 3414.0, 3415.0, 3414.0, 3414.0, 3414.0, 3414.0]
    },
    "slices": {}
  }
}