{
  "AcquisitionMatrixPE": 80,
  "AcquisitionNumber": 1,
  "AcquisitionTime": "10:46:41.522500",
  "BandwidthPerPixelPhaseEncode": 25,
  "BaseResolution": 80,
  "BodyPartExamined": "BRAIN",
  "CoilCombinationMethod": "Sum of Squares",
  "ConsistencyInfo": "N4_VE11C_LATEST_20160120",
  "ConversionSoftware": "dcm2niix",
  "ConversionSoftwareVersion": "v1.0.20220720",
  "DerivedVendorReportedEchoSpacing": 0.0005,
  "DeviceSerialNumber": "66112",
  "DwellTime": 2.7e-06,
  "EchoTime": 0.03,
  "EchoTrainLength": 80,
  "EffectiveEchoSpacing": 0.0005,
  "FlipAngle": 10,
  "HeudiconvVersion": "0.13.1",
  "ImageOrientationPatientDICOM": [0.999949, 0.00937992, 0.00387103, -0.0101227, 0.948645, 0.316179],
  "ImageOrientationText": "Tra>Cor(18.4)>Sag(0.0)",
  "ImageType": [
    "ORIGINAL",
    "PRIMARY",
    "M",
    "ND",
    "NORM",
    "MOSAIC"
],
  "ImagingFrequency": 123.252,
  "InPlanePhaseEncodingDirectionDICOM": "COL",
  "InstitutionAddress": "Maynard 3,Hanover,NH,US,03755",
  "InstitutionName": "Dartmouth College - PBS",
  "InstitutionalDepartmentName": "Department",
  "MRAcquisitionType": "2D",
  "MagneticFieldStrength": 3,
  "Manufacturer": "Siemens",
  "ManufacturersModelName": "Prisma",
  "MatrixCoilMode": "SENSE",
  "Modality": "MR",
  "NonlinearGradientCorrection": false,
  "PartialFourier": 1,
  "PatientPosition": "HFS",
  "PercentPhaseFOV": 100,
  "PercentSampling": 100,
  "PhaseEncodingDirection": "j-",
  "PhaseEncodingSteps": 80,
  "PhaseResolution": 1,
  "PixelBandwidth": 2315,
  "ProcedureStepDescription": "dbic^QA",
  "ProtocolName": "func-bold_fa-10",
  "PulseSequenceDetails": "%SiemensSeq%\\ep2d_bold",
  "ReceiveCoilActiveElements": "HC1-7;NC1,2",
  "ReceiveCoilName": "HeadNeck_64",
  "ReconMatrixPE": 80,
  "RepetitionTime": 2,
  "SAR": 0.00859758,
  "ScanOptions": "FS",
  "ScanningSequence": "EP",
  "SequenceName": "*epfid2d1_80",
  "SequenceVariant": "SK",
  "SeriesDescription": "func-bold_fa-10",
  "SeriesNumber": 9,
  "ShimSetting": [4136, -7702, -7517, 215, -75, -211, -106, 132],
  "SliceThickness": 3.5,
  "SliceTiming": [0.99, 0, 1.055, 0.065, 1.1225, 0.1325, 1.1875, 0.1975, 1.2525, 0.2625, 1.32, 0.33, 1.385, 0.395, 1.4525, 0.4625, 1.5175, 0.5275, 1.5825, 0.5925, 1.65, 0.66, 1.715, 0.725, 1.7825, 0.7925, 1.8475, 0.8575, 1.9125, 0.9225],
  "SoftwareVersions": "syngo MR E11",
  "SpacingBetweenSlices": 3.99,
  "StationName": "AWP66112",
  "TotalReadoutTime": 0.0395,
  "TxRefAmp": 207.776,
  "dcmmeta_affine": [
    [-2.999845504760742, -0.030368052423000336, 0.0028189322911202908, 121.45103454589844],
    [-0.02813977375626564, 2.8459365367889404, 1.2616463899612427, -127.1493911743164],
    [0.011613094247877598, -0.9485376477241516, 3.7852795124053955, -13.323386192321777],
    [0.0, 0.0, 0.0, 1.0]
],
  "dcmmeta_reorient_transform": [
    [0.0, -1.0, 0.0, 79.0],
    [1.0, 0.0, 0.0, 0.0],
    [0.0, 0.0, 1.0, 0.0],
    [0.0, 0.0, 0.0, 1.0]
],
  "dcmmeta_shape": [80, 80, 30, 200],
  "dcmmeta_slice_dim": 2,
  "dcmmeta_version": 0.6,
  "global": {
    "const": {
      "AccessionNumber": "qa64",
      "AcquisitionMatrix": [80, 0, 0, 80],
      "AngioFlag": "N",
      "BitsAllocated": 16,
      "BitsStored": 12,
      "BodyPartExamined": "BRAIN",
      "Columns": 480,
      "EchoNumbers": 1,
      "EchoTime": 30.0,
      "EchoTrainLength": 80,
      "FlipAngle": 10.0,
      "HighBit": 11,
      "ImageOrientationPatient": [0.99994851473873, 0.00937992467769, 0.00387103149626, -0.0101226839559, 0.9486454759411, 0.31617920906664],
      "ImagePositionPatient": [-712.94746006155, -672.49482782846, -280.28800273409],
      "ImageType": [
        "ORIGINAL",
        "PRIMARY",
        "M",
        "ND",
        "NORM",
        "MOSAIC"
],
      "ImagedNucleus": "1H",
      "ImagingFrequency": 123.252363,
      "InPlanePhaseEncodingDirection": "COL",
      "MRAcquisitionType": "2D",
      "MagneticFieldStrength": 3.0,
      "Manufacturer": "SIEMENS",
      "ManufacturerModelName": "Prisma",
      "Modality": "MR",
      "NumberOfAverages": 1.0,
      "NumberOfPhaseEncodingSteps": 80,
      "PercentPhaseFieldOfView": 100.0,
      "PercentSampling": 100.0,
      "PerformedProcedureStepStartTime": "103127.401000",
      "PhotometricInterpretation": "MONOCHROME2",
      "PixelBandwidth": 2315.0,
      "PixelRepresentation": 0,
      "PixelSpacing": [3.0, 3.0],
      "ProtocolName": "func-bold_fa-10",
      "RepetitionTime": 2000.0,
      "Rows": 480,
      "SAR": 0.0085975840385,
      "SamplesPerPixel": 1,
      "ScanOptions": "FS",
      "ScanningSequence": "EP",
      "SequenceName": "*epfid2d1_80",
      "SequenceVariant": "SK",
      "SeriesDescription": "func-bold_fa-10",
      "SeriesNumber": 9,
      "SeriesTime": "104731.989000",
      "SliceLocation": -52.758885193006,
      "SliceThickness": 3.5,
      "SmallestImagePixelValue": 0,
      "SoftwareVersions": "syngo MR E11",
      "SpacingBetweenSlices": 3.9899999813794,
      "SpecificCharacterSet": "ISO_IR 100",
      "StudyID": "36",
      "StudyTime": "103127.343000",
      "TransmitCoilName": "Body",
      "VariableFlipAngleFlag": "N",
      "WindowCenterWidthExplanation": "Algo1",
      "dBdt": 0.0},
    "slices": {}
  },
  "time": {
    "samples": {
      "AcquisitionNumber": [1, 2, 3, 4, 5, 6, 7, 8, 9, 10, 11, 12, 13, 14, 15, 16, 17, 18, 19, 20, 21, 22, 23, 24, 25, 26, 27, 28, 29, 30, 31, 32, 33, 34, 35, 36, 37, 38, 39, 40, 41, 42, 43, 44, 45, 46, 47, 48, 49, 50, 51, 52, 53, 54, 55, 56, 57, 58, 59, 60, 61, 62, 63, 64, 65, 66, 67, 68, 69, 70, 71, 72, 73, 74, 75, 76, 77, 78, 79, 80, 81, 82, 83, 84, 85, 86, 87, 88, 89, 90, 91, 92, 93, 94, 95, 96, 97, 98, 99, 100, 101, 102, 103, 104, 105, 106, 107, 108, 109, 110, 111, 112, 113, 114, 115, 116, 117, 118, 119, 120, 121, 122, 123, 124, 125, 126, 127, 128, 129, 130, 131, 132, 133, 134, 135, 136, 137, 138, 139, 140, 141, 142, 143, 144, 145, 146, 147, 148, 149, 150, 151, 152, 153, 154, 155, 156, 157, 158, 159, 160, 161, 162, 163, 164, 165, 166, 167, 168, 169, 170, 171, 172, 173, 174, 175, 176, 177, 178, 179, 180, 181, 182, 183, 184, 185, 186, 187, 188, 189, 190, 191, 192, 193, 194, 195, 196, 197, 198, 199, 200],
      "AcquisitionTime": ["104641.522500", "104643.522500", "104645.522500", "104647.522500", "104649.522500", "104651.522500", "104653.522500", "104655.522500", "104657.522500", "104659.522500", "104701.522500", "104703.522500", "104705.522500", "104707.522500", "104709.522500", "104711.522500", "104713.522500", "104715.522500", "104717.522500", "104719.522500", "104721.522500", "104723.522500", "104725.522500", "104727.522500", "104729.522500", "104731.522500", "104733.522500", "104735.522500", "104737.522500", "104739.522500", "104741.522500", "104743.522500", "104745.522500", "104747.522500", "104749.522500", "104751.522500", "104753.522500", "104755.522500", "104757.522500", "104759.522500", "104801.522500", "104803.522500", "104805.522500", "104807.522500", "104809.522500", "104811.522500", "104813.522500", "104815.522500", "104817.522500", "104819.522500", "104821.522500", "104823.522500", "104825.522500", "104827.522500", "104829.522500", "104831.522500", "104833.522500", "104835.522500", "104837.522500", "104839.522500", "104841.522500", "104843.522500", "104845.522500", "104847.522500", "104849.522500", "104851.522500", "104853.522500", "104855.522500", "104857.522500", "104859.522500", "104901.522500", "104903.522500", "104905.522500", "104907.522500", "104909.522500", "104911.522500", "104913.522500", "104915.522500", "104917.522500", "104919.522500", "104921.522500", "104923.522500", "104925.522500", "104927.522500", "104929.522500", "104931.522500", "104933.522500", "104935.522500", "104937.522500", "104939.522500", "104941.522500", "104943.522500", "104945.522500", "104947.522500", "104949.522500", "104951.522500", "104953.522500", "104955.522500", "104957.522500", "104959.522500", "105001.522500", "105003.522500", "105005.522500", "105007.522500", "105009.522500", "105011.522500", "105013.522500", "105015.522500", "105017.522500", "105019.522500", "105021.522500", "105023.522500", "105025.522500", "105027.522500", "105029.522500", "105031.522500", "105033.522500", "105035.522500", "105037.522500", "105039.522500", "105041.522500", "105043.522500", "105045.522500", "105047.522500", "105049.522500", "105051.522500", "105053.522500", "105055.522500", "105057.522500", "105059.522500", "105101.522500", "105103.522500", "105105.522500", "105107.522500", "105109.522500", "105111.522500", "105113.522500", "105115.522500", "105117.522500", "105119.522500", "105121.522500", "105123.522500", "105125.522500", "105127.522500", "105129.522500", "105131.522500", "105133.522500", "105135.522500", "105137.522500", "105139.522500", "105141.522500", "105143.522500", "105145.522500", "105147.522500", "105149.522500", "105151.522500", "105153.522500", "105155.522500", "105157.522500", "105159.522500", "105201.522500", "105203.522500", "105205.522500", "105207.522500", "105209.522500", "105211.522500", "105213.522500", "105215.522500", "105217.522500", "105219.522500", "105221.522500", "105223.522500", "105225.522500", "105227.522500", "105229.522500", "105231.522500", "105233.522500", "105235.522500", "105237.522500", "105239.522500", "105241.522500", "105243.522500", "105245.522500", "105247.522500", "105249.522500", "105251.522500", "105253.522500", "105255.522500", "105257.522500", "105259.522500", "105301.522500", "105303.522500", "105305.522500", "105307.522500", "105309.522500", "105311.522500", "105313.522500", "105315.522500", "105317.522500", "105319.522500"],
      "ContentTime": ["104731.992000", "104731.996000", "104731.998000", "104732.002000", "104732.004000", "104732.007000", "104732.009000", "104732.012000", "104732.014000", "104732.017000", "104732.019000", "104732.022000", "104732.024000", "104732.026000", "104732.029000", "104732.031000", "104732.034000", "104732.036000", "104732.039000", "104732.041000", "104732.044000", "104732.046000", "104732.049000", "104732.051000", "104732.054000", "104811.987000", "104811.990000", "104811.993000", "104811.995000", "104811.998000", "104812.001000", "104812.004000", "104812.006000", "104812.009000", "104812.011000", "104812.014000", "104812.016000", "104812.018000", "104812.021000", "104812.024000", "104812.026000", "104812.029000", "104812.031000", "104812.033000", "104812.036000", "104851.986000", "104851.989000", "104851.992000", "104851.994000", "104851.997000", "104852.000000", "104852.003000", "104852.005000", "104852.008000", "104852.010000", "104852.013000", "104852.015000", "104852.018000", "104852.020000", "104852.023000", "104852.025000", "104852.028000", "104852.030000", "104852.032000", "104852.035000", "104931.987000", "104931.990000", "104931.993000", "104931.995000", "104931.998000", "104932.001000", "104932.004000", "104932.006000", "104932.009000", "104932.011000", "104932.014000", "104932.016000", "104932.019000", "104932.021000", "104932.024000", "104932.026000", "104932.029000", "104932.031000", "104932.034000", "104932.036000", "105011.987000", "105011.990000", "105011.993000", "105011.995000", "105011.998000", "105012.001000", "105012.003000", "105012.006000", "105012.009000", "105012.011000", "105012.014000", "105012.016000", "105012.019000", "105012.021000", "105012.024000", "105012.026000", "105012.029000", "105012.031000", "105012.034000", "105012.036000", "105051.986000", "105051.989000", "105051.992000", "105051.994000", "105051.997000", "105052.000000", "105052.003000", "105052.005000", "105052.008000", "105052.010000", "105052.013000", "105052.016000", "105052.018000", "105052.020000", "105052.023000", "105052.025000", "105052.028000", "105052.030000", "105052.033000", "105052.035000", "105131.987000", "105131.990000", "105131.993000", "105131.995000", "105131.998000", "105132.000000", "105132.002000", "105132.005000", "105132.007000", "105132.010000", "105132.012000", "105132.015000", "105132.017000", "105132.020000", "105132.022000", "105132.025000", "105132.027000", "105132.030000", "105132.032000", "105132.035000", "105211.987000", "105211.990000", "105211.993000", "105211.995000", "105211.998000", "105212.001000", "105212.004000", "105212.006000", "105212.009000", "105212.011000", "105212.014000", "105212.016000", "105212.019000", "105212.021000", "105212.024000", "105212.026000", "105212.029000", "105212.031000", "105212.034000", "105212.036000", "105251.987000", "105251.990000", "105251.993000", "105251.995000", "105251.998000", "105252.001000", "105252.004000", "105252.006000", "105252.009000", "105252.018000", "105252.020000", "105252.023000", "105252.025000", "105252.028000", "105252.030000", "105252.032000", "105252.035000", "105252.037000", "105252.040000", "105252.042000", "105311.987000", "105311.989000", "105311.992000", "105311.994000", "105311.997000", "105312.000000", "105312.003000", "105312.005000", "105312.008000", "105312.011000", "105320.782000", "105320.791000", "105320.794000", "105320.797000", "105320.799000"],
      "InstanceCreationTime": ["104731.992000", "104731.996000", "104731.998000", "104732.002000", "104732.004000", "104732.007000", "104732.009000", "104732.012000", "104732.014000", "104732.017000", "104732.019000", "104732.022000", "104732.024000", "104732.026000", "104732.029000", "104732.031000", "104732.034000", "104732.036000", "104732.039000", "104732.041000", "104732.044000", "104732.046000", "104732.049000", "104732.051000", "104732.054000", "104811.987000", "104811.990000", "104811.993000", "104811.995000", "104811.998000", "104812.001000", "104812.004000", "104812.006000", "104812.009000", "104812.011000", "104812.014000", "104812.016000", "104812.018000", "104812.021000", "104812.024000", "104812.026000", "104812.029000", "104812.031000", "104812.033000", "104812.036000", "104851.986000", "104851.989000", "104851.992000", "104851.994000", "104851.997000", "104852.000000", "104852.003000", "104852.005000", "104852.008000", "104852.010000", "104852.013000", "104852.015000", "104852.018000", "104852.020000", "104852.023000", "104852.025000", "104852.028000", "104852.030000", "104852.032000", "104852.035000", "104931.987000", "104931.990000", "104931.993000", "104931.995000", "104931.998000", "104932.001000", "104932.004000", "104932.006000", "104932.009000", "104932.011000", "104932.014000", "104932.016000", "104932.019000", "104932.021000", "104932.024000", "104932.026000", "104932.029000", "104932.031000", "104932.034000", "104932.036000", "105011.987000", "105011.990000", "105011.993000", "105011.995000", "105011.998000", "105012.001000", "105012.003000", "105012.006000", "105012.009000", "105012.011000", "105012.014000", "105012.016000", "105012.019000", "105012.021000", "105012.024000", "105012.026000", "105012.029000", "105012.031000", "105012.034000", "105012.036000", "105051.986000", "105051.989000", "105051.992000", "105051.994000", "105051.997000", "105052.000000", "105052.003000", "105052.005000", "105052.008000", "105052.010000", "105052.013000", "105052.016000", "105052.018000", "105052.020000", "105052.023000", "105052.025000", "105052.028000", "105052.030000", "105052.033000", "105052.035000", "105131.987000", "105131.990000", "105131.993000", "105131.995000", "105131.998000", "105132.000000", "105132.002000", "105132.005000", "105132.007000", "105132.010000", "105132.012000", "105132.015000", "105132.017000", "105132.020000", "105132.022000", "105132.025000", "105132.027000", "105132.030000", "105132.032000", "105132.035000", "105211.987000", "105211.990000", "105211.993000", "105211.995000", "105211.998000", "105212.001000", "105212.004000", "105212.006000", "105212.009000", "105212.011000", "105212.014000", "105212.016000", "105212.019000", "105212.021000", "105212.024000", "105212.026000", "105212.029000", "105212.031000", "105212.034000", "105212.036000", "105251.987000", "105251.990000", "105251.993000", "105251.995000", "105251.998000", "105252.001000", "105252.004000", "105252.006000", "105252.009000", "105252.018000", "105252.020000", "105252.023000", "105252.025000", "105252.028000", "105252.030000", "105252.032000", "105252.035000", "105252.037000", "105252.040000", "105252.042000", "105311.987000", "105311.989000", "105311.992000", "105311.994000", "105311.997000", "105312.000000", "105312.003000", "105312.005000", "105312.008000", "105312.011000", "105320.782000", "105320.791000", "105320.794000", "105320.797000", "105320.799000"],
      "InstanceNumber": [1, 2, 3, 4, 5, 6, 7, 8, 9, 10, 11, 12, 13, 14, 15, 16, 17, 18, 19, 20, 21, 22, 23, 24, 25, 26, 27, 28, 29, 30, 31, 32, 33, 34, 35, 36, 37, 38, 39, 40, 41, 42, 43, 44, 45, 46, 47, 48, 49, 50, 51, 52, 53, 54, 55, 56, 57, 58, 59, 60, 61, 62, 63, 64, 65, 66, 67, 68, 69, 70, 71, 72, 73, 74, 75, 76, 77, 78, 79, 80, 81, 82, 83, 84, 85, 86, 87, 88, 89, 90, 91, 92, 93, 94, 95, 96, 97, 98, 99, 100, 101, 102, 103, 104, 105, 106, 107, 108, 109, 110, 111, 112, 113, 114, 115, 116, 117, 118, 119, 120, 121, 122, 123, 124, 125, 126, 127, 128, 129, 130, 131, 132, 133, 134, 135, 136, 137, 138, 139, 140, 141, 142, 143, 144, 145, 146, 147, 148, 149, 150, 151, 152, 153, 154, 155, 156, 157, 158, 159, 160, 161, 162, 163, 164, 165, 166, 167, 168, 169, 170, 171, 172, 173, 174, 175, 176, 177, 178, 179, 180, 181, 182, 183, 184, 185, 186, 187, 188, 189, 190, 191, 192, 193, 194, 195, 196, 197, 198, 199, 200],
      "LargestImagePixelValue": [768, 770, 771, 766, 769, 766, 766, 769, 769, 767, 769, 776, 766, 766, 767, 767, 769, 766, 769, 764, 766, 772, 769, 769, 771, 766, 767, 769, 771, 767, 768, 770, 780, 767, 763, 768, 768, 766, 774, 767, 767, 764, 766, 770, 768, 774, 767, 767, 773, 776, 769, 766, 776, 761, 766, 767, 767, 767, 770, 768, 768, 768, 768, 767, 769, 767, 767, 766, 769, 768, 766, 768, 765, 767, 765, 765, 769, 766, 773, 775, 767, 767, 768, 770, 768, 772, 767, 771, 770, 767, 766, 768, 769, 767, 770, 767, 769, 769, 775, 773, 771, 776, 770, 779, 772, 776, 770, 767, 769, 771, 770, 770, 769, 768, 765, 762, 769, 775, 772, 773, 774, 777, 766, 768, 767, 770, 764, 771, 771, 769, 765, 767, 768, 767, 771, 767, 773, 768, 771, 771, 766, 770, 771, 767, 771, 766, 766, 770, 770, 769, 764, 769, 767, 766, 767, 768, 768, 773, 769, 772, 770, 767, 765, 769, 770, 769, 765, 766, 768, 768, 769, 768, 764, 768, 769, 770, 766, 769, 767, 765, 764, 771, 769, 764, 766, 768, 768, 767, 772, 769, 769, 770, 772, 767, 771, 770, 763, 768, 766, 770],
      "WindowCenter": [471.0, 472.0, 471.0, 471.0, 471.0, 471.0, 471.0, 471.0, 471.0, 471.0, 471.0, 472.0, 472.0, 471.0, 471.0, 471.0, 471.0, 473.0, 471.0, 471.0, 471.0, 472.0, 471.0, 471.0, 472.0, 471.0, 471.0, 471.0, 472.0, 471.0, 471.0, 472.0, 473.0, 473.0, 471.0, 471.0, 471.0, 471.0, 472.0, 471.0, 471.0, 471.0, 471.0, 472.0, 471.0, 474.0, 473.0, 471.0, 475.0, 475.0, 471.0, 471.0, 473.0, 471.0, 471.0, 471.0, 471.0, 471.0, 472.0, 471.0, 473.0, 471.0, 471.0, 471.0, 471.0, 471.0, 471.0, 471.0, 471.0, 471.0, 471.0, 471.0, 471.0, 471.0, 471.0, 471.0, 473.0, 471.0, 473.0, 475.0, 471.0, 471.0, 471.0, 472.0, 471.0, 472.0, 471.0, 471.0, 472.0, 471.0, 471.0, 471.0, 471.0, 471.0, 472.0, 472.0, 471.0, 471.0, 473.0, 472.0, 475.0, 475.0, 474.0, 475.0, 475.0, 475.0, 475.0, 471.0, 471.0, 472.0, 472.0, 472.0, 471.0, 471.0, 471.0, 471.0, 471.0, 475.0, 473.0, 472.0, 472.0, 475.0, 471.0, 471.0, 471.0, 472.0, 471.0, 471.0, 472.0, 471.0, 471.0, 471.0, 471.0, 471.0, 471.0, 471.0, 471.0, 471.0, 472.0, 471.0, 471.0, 471.0, 471.0, 471.0, 472.0, 471.0, 471.0, 472.0, 471.0, 471.0, 471.0, 470.0, 470.0, 470.0, 470.0, 470.0, 470.0, 471.0, 470.0, 471.0, 471.0, 470.0, 470.0, 470.0, 471.0, 470.0, 470.0, 470.0, 470.0, 470.0, 470.0, 470.0, 470.0, 470.0, 470.0, 471.0, 470.0, 470.0, 470.0, 470.0, 470.0, 471.0, 470.0, 470.0, 470.0, 470.0, 470.0, 470.0, 471.0, 470.0, 470.0, 471.0, 471.0, 470.0, 471.0, 471.0, 470.0, 470.0, 470.0, 471.0],
      "WindowWidth": [975.0, 977.0, 976.0, 976.0, 976.0, 976.0, 976.0, 976.0, 976.0, 976.0, 977.0, 979.0, 978.0, 976.0, 976.0, 976.0, 977.0, 979.0, 976.0, 976.0, 977.0, 977.0, 976.0, 976.0, 977.0, 976.0, 975.0, 976.0, 977.0, 976.0, 976.0, 978.0, 980.0, 980.0, 976.0, 976.0, 977.0, 975.0, 977.0, 976.0, 976.0, 976.0, 976.0, 977.0, 977.0, 981.0, 980.0, 976.0, 984.0, 984.0, 977.0, 975.0, 980.0, 976.0, 976.0, 976.0, 976.0, 975.0, 977.0, 976.0, 980.0, 975.0, 976.0, 975.0, 975.0, 975.0, 975.0, 975.0, 976.0, 975.0, 976.0, 976.0, 975.0, 975.0, 976.0, 976.0, 979.0, 975.0, 980.0, 983.0, 976.0, 976.0, 975.0, 977.0, 976.0, 977.0, 976.0, 976.0, 977.0, 975.0, 975.0, 976.0, 976.0, 976.0, 977.0, 978.0, 975.0, 976.0, 980.0, 977.0, 983.0, 983.0, 982.0, 983.0, 983.0, 983.0, 983.0, 977.0, 975.0, 977.0, 977.0, 977.0, 975.0, 975.0, 976.0, 975.0, 976.0, 983.0, 980.0, 977.0, 978.0, 983.0, 975.0, 976.0, 975.0, 977.0, 975.0, 976.0, 977.0, 975.0, 975.0, 975.0, 975.0, 975.0, 977.0, 975.0, 976.0, 975.0, 977.0, 977.0, 975.0, 976.0, 976.0, 976.0, 977.0, 975.0, 975.0, 977.0, 976.0, 975.0, 975.0, 975.0, 975.0, 975.0, 975.0, 975.0, 975.0, 977.0, 975.0, 976.0, 976.0, 975.0, 975.0, 975.0, 976.0, 975.0, 975.0, 975.0, 975.0, 975.0, 975.0, 975.0, 975.0, 975.0, 975.0, 976.0, 975.0, 975.0, 975.0, 975.0, 975.0, 976.0, 975.0, 975.0, 975.0, 975.0, 975.0, 975.0, 976.0, 975.0, 975.0, 976.0, 976.0, 975.0, 976.0, 976.0, 975.0, 975.0, 975.0, 976.0]
    },
    "slices": {}
  }
}