{
  "AcquisitionMatrixPE": 80,
  "AcquisitionNumber": 1,
  "AcquisitionTime": "09:14:46.785000",
  "BandwidthPerPixelPhaseEncode": 48.077,
  "BaseResolution": 80,
  "BodyPartExamined": "BRAIN",
  "CoilCombinationMethod": "Sum of Squares",
  "ConsistencyInfo": "N4_VE11C_LATEST_20160120",
  "ConversionSoftware": "dcm2niix",
  "ConversionSoftwareVersion": "v1.0.20220720",
  "DerivedVendorReportedEchoSpacing": 0.000519999,
  "DeviceSerialNumber": "66112",
  "DwellTime": 2.7e-06,
  "EchoTime": 0.035,
  "EchoTrainLength": 39,
  "EffectiveEchoSpacing": 0.00026,
  "FlipAngle": 90,
  "HeudiconvVersion": "0.13.1",
  "ImageOrientationPatientDICOM": [0.999953, 0.00874886, 0.00416577, -0.00959916, 0.953097, 0.302512],
  "ImageOrientationText": "Tra>Cor(17.6)>Sag(0.1)",
  "ImageType": [
    "ORIGINAL",
    "PRIMARY",
    "M",
    "ND",
    "NORM",
    "MOSAIC"
],
  "ImagingFrequency": 123.252,
  "InPlanePhaseEncodingDirectionDICOM": "COL",
  "InstitutionAddress": "Maynard 3,Hanover,NH,US,03755",
  "InstitutionName": "Dartmouth College - PBS",
  "InstitutionalDepartmentName": "Department",
  "MRAcquisitionType": "2D",
  "MagneticFieldStrength": 3,
  "Manufacturer": "Siemens",
  "ManufacturersModelName": "Prisma",
  "MatrixCoilMode": "GRAPPA",
  "Modality": "MR",
  "NonlinearGradientCorrection": false,
  "ParallelReductionFactorInPlane": 2,
  "PartialFourier": 1,
  "PatientPosition": "HFS",
  "PercentPhaseFOV": 100,
  "PercentSampling": 100,
  "PhaseEncodingDirection": "j-",
  "PhaseEncodingSteps": 79,
  "PhaseResolution": 1,
  "PixelBandwidth": 2315,
  "ProcedureStepDescription": "dbic^QA",
  "ProtocolName": "func-bold_task-rest_acq-p2",
  "PulseSequenceDetails": "%SiemensSeq%\\ep2d_bold",
  "ReceiveCoilActiveElements": "HEA;HEP",
  "ReceiveCoilName": "Head_32",
  "ReconMatrixPE": 80,
  "RefLinesPE": 24,
  "RepetitionTime": 2,
  "SAR": 0.0556121,
  "ScanOptions": "FS",
  "ScanningSequence": "EP",
  "SequenceName": "*epfid2d1_80",
  "SequenceVariant": "SK",
  "SeriesDescription": "func-bold_task-rest_acq-p2",
  "SeriesNumber": 5,
  "ShimSetting": [4144, -7698, -7515, 266, -62, -180, -21, 64],
  "SliceThickness": 3.5,
  "SliceTiming": [0.99, 0, 1.055, 0.065, 1.1225, 0.1325, 1.1875, 0.1975, 1.2525, 0.265, 1.32, 0.33, 1.385, 0.395, 1.4525, 0.4625, 1.5175, 0.5275, 1.5825, 0.595, 1.65, 0.66, 1.715, 0.725, 1.7825, 0.7925, 1.8475, 0.8575, 1.9125, 0.925],
  "SoftwareVersions": "syngo MR E11",
  "SpacingBetweenSlices": 3.99,
  "StationName": "AWP66112",
  "TaskName": "rest",
  "TotalReadoutTime": 0.02054,
  "TxRefAmp": 222.783,
  "dcmmeta_affine": [
    [-2.999859094619751, -0.028797471895813942, 0.005281736608594656, 121.08927154541016],
    [-0.02624657191336155, 2.8592913150787354, 1.2071269750595093, -119.07884979248047],
    [0.01249730121344328, -0.9075369238853455, 3.803014039993286, -18.142850875854492],
    [0.0, 0.0, 0.0, 1.0]
],
  "dcmmeta_reorient_transform": [
    [0.0, -1.0, 0.0, 79.0],
    [1.0, 0.0, 0.0, 0.0],
    [0.0, 0.0, 1.0, 0.0],
    [0.0, 0.0, 0.0, 1.0]
],
  "dcmmeta_shape": [80, 80, 30, 200],
  "dcmmeta_slice_dim": 2,
  "dcmmeta_version": 0.6,
  "global": {
    "const": {
      "AccessionNumber": "qa",
      "AcquisitionMatrix": [80, 0, 0, 80],
      "AngioFlag": "N",
      "BitsAllocated": 16,
      "BitsStored": 12,
      "BodyPartExamined": "BRAIN",
      "Columns": 480,
      "EchoNumbers": 1,
      "EchoTime": 35.0,
      "EchoTrainLength": 39,
      "FlipAngle": 90.0,
      "HighBit": 11,
      "ImageOrientationPatient": [0.99995305083896, 0.0087488572783, 0.00416576693771, -0.009599157305, 0.95309713960038, 0.30251231159178],
      "ImagePositionPatient": [-713.0266089207, -683.91276948605, -273.84511610788],
      "ImageType": [
        "ORIGINAL",
        "PRIMARY",
        "M",
        "ND",
        "NORM",
        "MOSAIC"
],
      "ImagedNucleus": "1H",
      "ImagingFrequency": 123.252361,
      "InPlanePhaseEncodingDirection": "COL",
      "MRAcquisitionType": "2D",
      "MagneticFieldStrength": 3.0,
      "Manufacturer": "SIEMENS",
      "ManufacturerModelName": "Prisma",
      "Modality": "MR",
      "NumberOfAverages": 1.0,
      "NumberOfPhaseEncodingSteps": 79,
      "PercentPhaseFieldOfView": 100.0,
      "PercentSampling": 100.0,
      "PerformedProcedureStepStartTime": "091315.567000",
      "PhotometricInterpretation": "MONOCHROME2",
      "PixelBandwidth": 2315.0,
      "PixelRepresentation": 0,
      "PixelSpacing": [3.0, 3.0],
      "ProtocolName": "func-bold_task-rest_acq-p2",
      "RepetitionTime": 2000.0,
      "Rows": 480,
      "SAR": 0.0556121082662,
      "SamplesPerPixel": 1,
      "ScanOptions": "FS",
      "ScanningSequence": "EP",
      "SequenceName": "*epfid2d1_80",
      "SequenceVariant": "SK",
      "SeriesDescription": "func-bold_task-rest_acq-p2",
      "SeriesNumber": 5,
      "SeriesTime": "091537.983000",
      "SliceLocation": -53.158209076584,
      "SliceThickness": 3.5,
      "SmallestImagePixelValue": 0,
      "SoftwareVersions": "syngo MR E11",
      "SpacingBetweenSlices": 3.9900000109707,
      "SpecificCharacterSet": "ISO_IR 100",
      "StudyID": "12",
      "StudyTime": "091315.518000",
      "TransmitCoilName": "Body",
      "VariableFlipAngleFlag": "N",
      "WindowCenterWidthExplanation": "Algo1",
      "dBdt": 0.0},
    "slices": {}
  },
  "time": {
    "samples": {
      "AcquisitionNumber": [1, 2, 3, 4, 5, 6, 7, 8, 9, 10, 11, 12, 13, 14, 15, 16, 17, 18, 19, 20, 21, 22, 23, 24, 25, 26, 27, 28, 29, 30, 31, 32, 33, 34, 35, 36, 37, 38, 39, 40, 41, 42, 43, 44, 45, 46, 47, 48, 49, 50, 51, 52, 53, 54, 55, 56, 57, 58, 59, 60, 61, 62, 63, 64, 65, 66, 67, 68, 69, 70, 71, 72, 73, 74, 75, 76, 77, 78, 79, 80, 81, 82, 83, 84, 85, 86, 87, 88, 89, 90, 91, 92, 93, 94, 95, 96, 97, 98, 99, 100, 101, 102, 103, 104, 105, 106, 107, 108, 109, 110, 111, 112, 113, 114, 115, 116, 117, 118, 119, 120, 121, 122, 123, 124, 125, 126, 127, 128, 129, 130, 131, 132, 133, 134, 135, 136, 137, 138, 139, 140, 141, 142, 143, 144, 145, 146, 147, 148, 149, 150, 151, 152, 153, 154, 155, 156, 157, 158, 159, 160, 161, 162, 163, 164, 165, 166, 167, 168, 169, 170, 171, 172, 173, 174, 175, 176, 177, 178, 179, 180, 181, 182, 183, 184, 185, 186, 187, 188, 189, 190, 191, 192, 193, 194, 195, 196, 197, 198, 199, 200],
      "AcquisitionTime": ["091446.785000", "091448.785000", "091450.785000", "091452.785000", "091454.785000", "091456.785000", "091458.785000", "091500.785000", "091502.785000", "091504.785000", "091506.785000", "091508.785000", "091510.785000", "091512.785000", "091514.785000", "091516.785000", "091518.785000", "091520.785000", "091522.785000", "091524.785000", "091526.785000", "091528.785000", "091530.785000", "091532.785000", "091534.785000", "091536.785000", "091538.785000", "091540.785000", "091542.785000", "091544.785000", "091546.785000", "091548.785000", "091550.785000", "091552.785000", "091554.785000", "091556.785000", "091558.785000", "091600.785000", "091602.785000", "091604.785000", "091606.785000", "091608.785000", "091610.785000", "091612.785000", "091614.785000", "091616.785000", "091618.785000", "091620.785000", "091622.785000", "091624.785000", "091626.785000", "091628.785000", "091630.785000", "091632.785000", "091634.785000", "091636.785000", "091638.785000", "091640.785000", "091642.785000", "091644.785000", "091646.785000", "091648.785000", "091650.785000", "091652.785000", "091654.785000", "091656.785000", "091658.785000", "091700.785000", "091702.785000", "091704.785000", "091706.785000", "091708.785000", "091710.785000", "091712.785000", "091714.785000", "091716.785000", "091718.785000", "091720.785000", "091722.785000", "091724.785000", "091726.785000", "091728.785000", "091730.785000", "091732.785000", "091734.785000", "091736.785000", "091738.785000", "091740.785000", "091742.785000", "091744.785000", "091746.785000", "091748.785000", "091750.785000", "091752.785000", "091754.785000", "091756.785000", "091758.785000", "091800.785000", "091802.785000", "091804.785000", "091806.785000", "091808.785000", "091810.785000", "091812.785000", "091814.785000", "091816.785000", "091818.785000", "091820.785000", "091822.785000", "091824.785000", "091826.785000", "091828.785000", "091830.785000", "091832.785000", "091834.785000", "091836.785000", "091838.785000", "091840.785000", "091842.785000", "091844.785000", "091846.785000", "091848.785000", "091850.785000", "091852.785000", "091854.785000", "091856.785000", "091858.785000", "091900.785000", "091902.785000", "091904.785000", "091906.785000", "091908.785000", "091910.785000", "091912.785000", "091914.785000", "091916.785000", "091918.785000", "091920.785000", "091922.785000", "091924.785000", "091926.785000", "091928.785000", "091930.785000", "091932.785000", "091934.785000", "091936.785000", "091938.785000", "091940.785000", "091942.785000", "091944.785000", "091946.785000", "091948.785000", "091950.785000", "091952.785000", "091954.785000", "091956.785000", "091958.785000", "092000.785000", "092002.785000", "092004.785000", "092006.785000", "092008.785000", "092010.785000", "092012.785000", "092014.785000", "092016.785000", "092018.785000", "092020.785000", "092022.785000", "092024.785000", "092026.785000", "092028.785000", "092030.785000", "092032.785000", "092034.785000", "092036.785000", "092038.785000", "092040.785000", "092042.785000", "092044.785000", "092046.785000", "092048.785000", "092050.785000", "092052.785000", "092054.785000", "092056.785000", "092058.785000", "092100.785000", "092102.785000", "092104.785000", "092106.785000", "092108.785000", "092110.785000", "092112.785000", "092114.785000", "092116.785000", "092118.785000", "092120.785000", "092122.785000", "092124.785000"],
      "ContentTime": ["091537.987000", "091537.990000", "091537.992000", "091537.995000", "091537.997000", "091538.001000", "091538.004000", "091538.006000", "091538.009000", "091538.011000", "091538.014000", "091538.016000", "091538.019000", "091538.021000", "091538.024000", "091538.027000", "091538.029000", "091538.032000", "091538.034000", "091538.037000", "091538.039000", "091538.042000", "091538.044000", "091538.047000", "091538.049000", "091617.969000", "091617.972000", "091617.975000", "091617.977000", "091617.980000", "091617.982000", "091617.985000", "091617.987000", "091617.990000", "091617.992000", "091617.995000", "091617.997000", "091618.001000", "091618.004000", "091618.006000", "091618.009000", "091618.011000", "091618.014000", "091618.016000", "091618.019000", "091657.968000", "091657.971000", "091657.974000", "091657.976000", "091657.979000", "091657.981000", "091657.984000", "091657.986000", "091657.989000", "091657.991000", "091657.994000", "091657.996000", "091658.000000", "091658.003000", "091658.005000", "091658.008000", "091658.010000", "091658.013000", "091658.015000", "091658.018000", "091737.968000", "091737.971000", "091737.974000", "091737.976000", "091737.979000", "091737.981000", "091737.984000", "091737.986000", "091737.989000", "091737.991000", "091737.994000", "091737.996000", "091738.000000", "091738.003000", "091738.005000", "091738.008000", "091738.010000", "091738.013000", "091738.015000", "091738.018000", "091817.968000", "091817.971000", "091817.974000", "091817.977000", "091817.979000", "091817.982000", "091817.984000", "091817.987000", "091817.989000", "091817.992000", "091817.994000", "091817.997000", "091818.000000", "091818.003000", "091818.005000", "091818.008000", "091818.010000", "091818.013000", "091818.015000", "091818.018000", "091857.969000", "091857.971000", "091857.974000", "091857.976000", "091857.979000", "091857.982000", "091857.984000", "091857.987000", "091857.989000", "091857.992000", "091857.994000", "091857.997000", "091858.000000", "091858.003000", "091858.005000", "091858.008000", "091858.010000", "091858.013000", "091858.015000", "091858.018000", "091937.968000", "091937.971000", "091937.974000", "091937.976000", "091937.979000", "091937.981000", "091937.984000", "091937.986000", "091937.989000", "091937.991000", "091937.994000", "091937.997000", "091938.000000", "091938.003000", "091938.005000", "091938.008000", "091938.010000", "091938.013000", "091938.015000", "091938.018000", "092017.968000", "092017.971000", "092017.974000", "092017.976000", "092017.979000", "092017.981000", "092017.984000", "092018.000000", "092018.002000", "092018.005000", "092018.007000", "092018.010000", "092018.012000", "092018.015000", "092018.017000", "092018.020000", "092018.022000", "092018.025000", "092018.028000", "092018.030000", "092057.969000", "092057.972000", "092057.975000", "092057.977000", "092057.980000", "092057.982000", "092057.985000", "092057.987000", "092057.990000", "092057.992000", "092057.995000", "092057.998000", "092058.001000", "092058.004000", "092058.016000", "092058.018000", "092058.021000", "092058.023000", "092058.026000", "092058.029000", "092126.505000", "092126.508000", "092126.511000", "092126.513000", "092126.516000", "092126.518000", "092126.521000", "092126.523000", "092126.526000", "092126.529000", "092126.531000", "092126.534000", "092126.541000", "092126.544000", "092126.547000"],
      "InstanceCreationTime": ["091537.987000", "091537.990000", "091537.992000", "091537.995000", "091537.997000", "091538.001000", "091538.004000", "091538.006000", "091538.009000", "091538.011000", "091538.014000", "091538.016000", "091538.019000", "091538.021000", "091538.024000", "091538.027000", "091538.029000", "091538.032000", "091538.034000", "091538.037000", "091538.039000", "091538.042000", "091538.044000", "091538.047000", "091538.049000", "091617.969000", "091617.972000", "091617.975000", "091617.977000", "091617.980000", "091617.982000", "091617.985000", "091617.987000", "091617.990000", "091617.992000", "091617.995000", "091617.997000", "091618.001000", "091618.004000", "091618.006000", "091618.009000", "091618.011000", "091618.014000", "091618.016000", "091618.019000", "091657.968000", "091657.971000", "091657.974000", "091657.976000", "091657.979000", "091657.981000", "091657.984000", "091657.986000", "091657.989000", "091657.991000", "091657.994000", "091657.996000", "091658.000000", "091658.003000", "091658.005000", "091658.008000", "091658.010000", "091658.013000", "091658.015000", "091658.018000", "091737.968000", "091737.971000", "091737.974000", "091737.976000", "091737.979000", "091737.981000", "091737.984000", "091737.986000", "091737.989000", "091737.991000", "091737.994000", "091737.996000", "091738.000000", "091738.003000", "091738.005000", "091738.008000", "091738.010000", "091738.013000", "091738.015000", "091738.018000", "091817.968000", "091817.971000", "091817.974000", "091817.977000", "091817.979000", "091817.982000", "091817.984000", "091817.987000", "091817.989000", "091817.992000", "091817.994000", "091817.997000", "091818.000000", "091818.003000", "091818.005000", "091818.008000", "091818.010000", "091818.013000", "091818.015000", "091818.018000", "091857.969000", "091857.971000", "091857.974000", "091857.976000", "091857.979000", "091857.982000", "091857.984000", "091857.987000", "091857.989000", "091857.992000", "091857.994000", "091857.997000", "091858.000000", "091858.003000", "091858.005000", "091858.008000", "091858.010000", "091858.013000", "091858.015000", "091858.018000", "091937.968000", "091937.971000", "091937.974000", "091937.976000", "091937.979000", "091937.981000", "091937.984000", "091937.986000", "091937.989000", "091937.991000", "091937.994000", "091937.997000", "091938.000000", "091938.003000", "091938.005000", "091938.008000", "091938.010000", "091938.013000", "091938.015000", "091938.018000", "092017.968000", "092017.971000", "092017.974000", "092017.976000", "092017.979000", "092017.981000", "092017.984000", "092018.000000", "092018.002000", "092018.005000", "092018.007000", "092018.010000", "092018.012000", "092018.015000", "092018.017000", "092018.020000", "092018.022000", "092018.025000", "092018.028000", "092018.030000", "092057.969000", "092057.972000", "092057.975000", "092057.977000", "092057.980000", "092057.982000", "092057.985000", "092057.987000", "092057.990000", "092057.992000", "092057.995000", "092057.998000", "092058.001000", "092058.004000", "092058.016000", "092058.018000", "092058.021000", "092058.023000", "092058.026000", "092058.029000", "092126.505000", "092126.508000", "092126.511000", "092126.513000", "092126.516000", "092126.518000", "092126.521000", "092126.523000", "092126.526000", "092126.529000", "092126.531000", "092126.534000", "092126.541000", "092126.544000", "092126.547000"],
      "InstanceNumber": [1, 2, 3, 4, 5, 6, 7, 8, 9, 10, 11, 12, 13, 14, 15, 16, 17, 18, 19, 20, 21, 22, 23, 24, 25, 26, 27, 28, 29, 30, 31, 32, 33, 34, 35, 36, 37, 38, 39, 40, 41, 42, 43, 44, 45, 46, 47, 48, 49, 50, 51, 52, 53, 54, 55, 56, 57, 58, 59, 60, 61, 62, 63, 64, 65, 66, 67, 68, 69, 70, 71, 72, 73, 74, 75, 76, 77, 78, 79, 80, 81, 82, 83, 84, 85, 86, 87, 88, 89, 90, 91, 92, 93, 94, 95, 96, 97, 98, 99, 100, 101, 102, 103, 104, 105, 106, 107, 108, 109, 110, 111, 112, 113, 114, 115, 116, 117, 118, 119, 120, 121, 122, 123, 124, 125, 126, 127, 128, 129, 130, 131, 132, 133, 134, 135, 136, 137, 138, 139, 140, 141, 142, 143, 144, 145, 146, 147, 148, 149, 150, 151, 152, 153, 154, 155, 156, 157, 158, 159, 160, 161, 162, 163, 164, 165, 166, 167, 168, 169, 170, 171, 172, 173, 174, 175, 176, 177, 178, 179, 180, 181, 182, 183, 184, 185, 186, 187, 188, 189, 190, 191, 192, 193, 194, 195, 196, 197, 198, 199, 200],
      "LargestImagePixelValue": [2030, 2027, 2025, 2027, 2028, 2020, 2025, 2033, 2025, 2025, 2030, 2027, 2026, 2029, 2030, 2028, 2034, 2036, 2026, 2024, 2026, 2032, 2031, 2025, 2032, 2020, 2029, 2031, 2030, 2023, 2024, 2035, 2035, 2031, 2025, 2036, 2030, 2020, 2034, 2023, 2024, 2022, 2029, 2030, 2028, 2021, 2033, 2030, 2032, 2034, 2021, 2029, 2029, 2033, 2029, 2025, 2030, 2033, 2040, 2025, 2027, 2035, 2031, 2030, 2031, 2030, 2036, 2030, 2037, 2031, 2028, 2022, 2026, 2036, 2025, 2028, 2019, 2016, 2026, 2027, 2032, 2028, 2018, 2028, 2026, 2028, 2031, 2025, 2027, 2024, 2033, 2037, 2038, 2032, 2025, 2024, 2020, 2030, 2034, 2023, 2030, 2027, 2021, 2027, 2029, 2022, 2027, 2028, 2029, 2036, 2036, 2029, 2026, 2030, 2023, 2029, 2025, 2025, 2027, 2019, 2020, 2019, 2027, 2029, 2034, 2029, 2035, 2029, 2027, 2021, 2025, 2025, 2027, 2025, 2019, 2023, 2028, 2038, 2029, 2030, 2032, 2036, 2034, 2029, 2029, 2030, 2035, 2029, 2027, 2026, 2024, 2027, 2038, 2033, 2032, 2032, 2033, 2042, 2036, 2040, 2040, 2028, 2028, 2030, 2022, 2021, 2021, 2022, 2025, 2024, 2025, 2024, 2033, 2031, 2028, 2029, 2028, 2025, 2012, 2025, 2016, 2023, 2024, 2026, 2015, 2024, 2027, 2030, 2030, 2026, 2026, 2030, 2031, 2031, 2030, 2026, 2030, 2032, 2033, 2025],
      "WindowCenter": [982.0, 982.0, 983.0, 981.0, 981.0, 981.0, 981.0, 982.0, 982.0, 982.0, 982.0, 982.0, 982.0, 981.0, 981.0, 983.0, 983.0, 982.0, 981.0, 982.0, 981.0, 982.0, 981.0, 982.0, 982.0, 982.0, 982.0, 983.0, 981.0, 981.0, 982.0, 981.0, 981.0, 982.0, 982.0, 981.0, 982.0, 982.0, 982.0, 981.0, 982.0, 981.0, 982.0, 982.0, 981.0, 981.0, 982.0, 981.0, 982.0, 981.0, 982.0, 982.0, 981.0, 982.0, 982.0, 982.0, 982.0, 982.0, 982.0, 982.0, 982.0, 982.0, 981.0, 982.0, 981.0, 982.0, 982.0, 982.0, 981.0, 981.0, 982.0, 981.0, 982.0, 981.0, 981.0, 981.0, 981.0, 982.0, 982.0, 982.0, 982.0, 980.0, 981.0, 981.0, 981.0, 981.0, 981.0, 981.0, 981.0, 982.0, 980.0, 980.0, 981.0, 981.0, 981.0, 981.0, 981.0, 982.0, 981.0, 982.0, 981.0, 981.0, 981.0, 981.0, 981.0, 981.0, 980.0, 981.0, 981.0, 980.0, 981.0, 980.0, 980.0, 981.0, 981.0, 981.0, 981.0, 980.0, 980.0, 981.0, 981.0, 980.0, 981.0, 981.0, 981.0, 983.0, 981.0, 980.0, 980.0, 981.0, 981.0, 981.0, 981.0, 981.0, 981.0, 981.0, 981.0, 980.0, 980.0, 980.0, 981.0, 981.0, 981.0, 980.0, 982.0, 980.0, 980.0, 980.0, 981.0, 980.0, 981.0, 980.0, 981.0, 981.0, 980.0, 981.0, 980.0, 981.0, 981.0, 982.0, 980.0, 981.0, 982.0, 981.0, 980.0, 982.0, 980.0, 981.0, 981.0, 981.0, 980.0, 980.0, 980.0, 982.0, 980.0, 981.0, 981.0, 981.0, 981.0, 980.0, 980.0, 980.0, 980.0, 982.0, 980.0, 981.0, 980.0, 981.0, 980.0, 981.0, 981.0, 980.0, 980.0, 981.0, 981.0, 980.0, 980.0, 981.0, 981.0, 981.0],
      "WindowWidth": [2150.0, 2150.0, 2150.0, 2149.0, 2149.0, 2149.0, 2149.0, 2149.0, 2149.0, 2150.0, 2149.0, 2149.0, 2149.0, 2149.0, 2149.0, 2150.0, 2150.0, 2149.0, 2149.0, 2149.0, 2149.0, 2149.0, 2149.0, 2149.0, 2149.0, 2149.0, 2149.0, 2150.0, 2148.0, 2148.0, 2149.0, 2148.0, 2148.0, 2149.0, 2148.0, 2148.0, 2148.0, 2148.0, 2148.0, 2148.0, 2148.0, 2148.0, 2148.0, 2148.0, 2149.0, 2149.0, 2149.0, 2148.0, 2149.0, 2148.0, 2149.0, 2149.0, 2148.0, 2149.0, 2149.0, 2149.0, 2149.0, 2149.0, 2149.0, 2149.0, 2149.0, 2149.0, 2148.0, 2149.0, 2147.0, 2149.0, 2148.0, 2149.0, 2148.0, 2148.0, 2150.0, 2147.0, 2149.0, 2148.0, 2148.0, 2148.0, 2148.0, 2148.0, 2149.0, 2149.0, 2148.0, 2147.0, 2147.0, 2148.0, 2148.0, 2147.0, 2147.0, 2147.0, 2147.0, 2148.0, 2147.0, 2147.0, 2147.0, 2147.0, 2148.0, 2148.0, 2147.0, 2149.0, 2148.0, 2149.0, 2148.0, 2147.0, 2148.0, 2147.0, 2147.0, 2147.0, 2147.0, 2147.0, 2147.0, 2147.0, 2148.0, 2147.0, 2147.0, 2147.0, 2147.0, 2147.0, 2147.0, 2146.0, 2146.0, 2147.0, 2147.0, 2146.0, 2147.0, 2147.0, 2147.0, 2148.0, 2147.0, 2146.0, 2146.0, 2146.0, 2147.0, 2146.0, 2147.0, 2147.0, 2146.0, 2146.0, 2147.0, 2147.0, 2147.0, 2147.0, 2148.0, 2148.0, 2148.0, 2147.0, 2148.0, 2147.0, 2147.0, 2147.0, 2147.0, 2146.0, 2147.0, 2146.0, 2147.0, 2147.0, 2146.0, 2147.0, 2146.0, 2147.0, 2147.0, 2147.0, 2145.0, 2146.0, 2148.0, 2147.0, 2146.0, 2148.0, 2146.0, 2147.0, 2147.0, 2147.0, 2146.0, 2146.0, 2146.0, 2147.0, 2146.0, 2146.0, 2147.0, 2146.0, 2146.0, 2146.0, 2145.0, 2145.0, 2145.0, 2147.0, 2145.0, 2146.0, 2145.0, 2146.0, 2145.0, 2146.0, 2146.0, 2145.0, 2145.0, 2146.0, 2146.0, 2145.0, 2145.0, 2146.0, 2146.0, 2146.0]
    },
    "slices": {}
  }
}