{
  "AcquisitionMatrixPE": 80,
  "AcquisitionNumber": 1,
  "AcquisitionTime": "09:35:17.515000",
  "BandwidthPerPixelPhaseEncode": 25,
  "BaseResolution": 80,
  "BodyPartExamined": "BRAIN",
  "CoilCombinationMethod": "Sum of Squares",
  "ConsistencyInfo": "N4_VE11C_LATEST_20160120",
  "ConversionSoftware": "dcm2niix",
  "ConversionSoftwareVersion": "v1.0.20220720",
  "DerivedVendorReportedEchoSpacing": 0.0005,
  "DeviceSerialNumber": "66112",
  "DwellTime": 2.7e-06,
  "EchoTime": 0.03,
  "EchoTrainLength": 80,
  "EffectiveEchoSpacing": 0.0005,
  "FlipAngle": 10,
  "HeudiconvVersion": "0.13.1",
  "ImageOrientationPatientDICOM": [0.999953, 0.00874886, 0.00416577, -0.00959916, 0.953097, 0.302512],
  "ImageOrientationText": "Tra>Cor(17.6)>Sag(0.1)",
  "ImageType": [
    "ORIGINAL",
    "PRIMARY",
    "M",
    "ND",
    "NORM",
    "MOSAIC"
],
  "ImagingFrequency": 123.252,
  "InPlanePhaseEncodingDirectionDICOM": "COL",
  "InstitutionAddress": "Maynard 3,Hanover,NH,US,03755",
  "InstitutionName": "Dartmouth College - PBS",
  "InstitutionalDepartmentName": "Department",
  "MRAcquisitionType": "2D",
  "MagneticFieldStrength": 3,
  "Manufacturer": "Siemens",
  "ManufacturersModelName": "Prisma",
  "MatrixCoilMode": "SENSE",
  "Modality": "MR",
  "NonlinearGradientCorrection": false,
  "PartialFourier": 1,
  "PatientPosition": "HFS",
  "PercentPhaseFOV": 100,
  "PercentSampling": 100,
  "PhaseEncodingDirection": "j-",
  "PhaseEncodingSteps": 80,
  "PhaseResolution": 1,
  "PixelBandwidth": 2315,
  "ProcedureStepDescription": "dbic^QA",
  "ProtocolName": "func-bold_fa-10",
  "PulseSequenceDetails": "%SiemensSeq%\\ep2d_bold",
  "ReceiveCoilActiveElements": "HEA;HEP",
  "ReceiveCoilName": "Head_32",
  "ReconMatrixPE": 80,
  "RepetitionTime": 2,
  "SAR": 0.0117232,
  "ScanOptions": "FS",
  "ScanningSequence": "EP",
  "SequenceName": "*epfid2d1_80",
  "SequenceVariant": "SK",
  "SeriesDescription": "func-bold_fa-10",
  "SeriesNumber": 10,
  "ShimSetting": [4144, -7698, -7515, 267, -61, -182, -22, 63],
  "SliceThickness": 3.5,
  "SliceTiming": [0.99, 0, 1.055, 0.065, 1.1225, 0.1325, 1.1875, 0.1975, 1.2525, 0.265, 1.32, 0.33, 1.385, 0.395, 1.4525, 0.4625, 1.5175, 0.5275, 1.5825, 0.595, 1.65, 0.66, 1.715, 0.725, 1.7825, 0.7925, 1.8475, 0.8575, 1.9125, 0.9225],
  "SoftwareVersions": "syngo MR E11",
  "SpacingBetweenSlices": 3.99,
  "StationName": "AWP66112",
  "TotalReadoutTime": 0.0395,
  "TxRefAmp": 222.783,
  "dcmmeta_affine": [
    [-2.999859094619751, -0.028797471895813942, 0.005281736608594656, 121.0682373046875],
    [-0.02624657191336155, 2.8592913150787354, 1.2071269750595093, -117.83032989501953],
    [0.01249730121344328, -0.9075369238853455, 3.803014039993286, -20.548734664916992],
    [0.0, 0.0, 0.0, 1.0]
],
  "dcmmeta_reorient_transform": [
    [0.0, -1.0, 0.0, 79.0],
    [1.0, 0.0, 0.0, 0.0],
    [0.0, 0.0, 1.0, 0.0],
    [0.0, 0.0, 0.0, 1.0]
],
  "dcmmeta_shape": [80, 80, 30, 200],
  "dcmmeta_slice_dim": 2,
  "dcmmeta_version": 0.6,
  "global": {
    "const": {
      "AccessionNumber": "qa",
      "AcquisitionMatrix": [80, 0, 0, 80],
      "AngioFlag": "N",
      "BitsAllocated": 16,
      "BitsStored": 12,
      "BodyPartExamined": "BRAIN",
      "Columns": 480,
      "EchoNumbers": 1,
      "EchoTime": 30.0,
      "EchoTrainLength": 80,
      "FlipAngle": 10.0,
      "HighBit": 11,
      "ImageOrientationPatient": [0.99995305083896, 0.0087488572783, 0.00416576693771, -0.009599157305, 0.95309713960038, 0.30251231159178],
      "ImagePositionPatient": [-713.00557548091, -685.16128986035, -276.25099989695],
      "ImageType": [
        "ORIGINAL",
        "PRIMARY",
        "M",
        "ND",
        "NORM",
        "MOSAIC"
],
      "ImagedNucleus": "1H",
      "ImagingFrequency": 123.25236,
      "InPlanePhaseEncodingDirection": "COL",
      "MRAcquisitionType": "2D",
      "MagneticFieldStrength": 3.0,
      "Manufacturer": "SIEMENS",
      "ManufacturerModelName": "Prisma",
      "Modality": "MR",
      "NumberOfAverages": 1.0,
      "NumberOfPhaseEncodingSteps": 80,
      "PercentPhaseFieldOfView": 100.0,
      "PercentSampling": 100.0,
      "PerformedProcedureStepStartTime": "091315.567000",
      "PhotometricInterpretation": "MONOCHROME2",
      "PixelBandwidth": 2315.0,
      "PixelRepresentation": 0,
      "PixelSpacing": [3.0, 3.0],
      "ProtocolName": "func-bold_fa-10",
      "RepetitionTime": 2000.0,
      "Rows": 480,
      "SAR": 0.01172322948714,
      "SamplesPerPixel": 1,
      "ScanOptions": "FS",
      "ScanningSequence": "EP",
      "SequenceName": "*epfid2d1_80",
      "SequenceVariant": "SK",
      "SeriesDescription": "func-bold_fa-10",
      "SeriesNumber": 10,
      "SeriesTime": "093557.970000",
      "SliceLocation": -55.073647293001,
      "SliceThickness": 3.5,
      "SmallestImagePixelValue": 0,
      "SoftwareVersions": "syngo MR E11",
      "SpacingBetweenSlices": 3.9899999005173,
      "SpecificCharacterSet": "ISO_IR 100",
      "StudyID": "12",
      "StudyTime": "091315.518000",
      "TransmitCoilName": "Body",
      "VariableFlipAngleFlag": "N",
      "WindowCenterWidthExplanation": "Algo1",
      "dBdt": 0.0},
    "slices": {}
  },
  "time": {
    "samples": {
      "AcquisitionNumber": [1, 2, 3, 4, 5, 6, 7, 8, 9, 10, 11, 12, 13, 14, 15, 16, 17, 18, 19, 20, 21, 22, 23, 24, 25, 26, 27, 28, 29, 30, 31, 32, 33, 34, 35, 36, 37, 38, 39, 40, 41, 42, 43, 44, 45, 46, 47, 48, 49, 50, 51, 52, 53, 54, 55, 56, 57, 58, 59, 60, 61, 62, 63, 64, 65, 66, 67, 68, 69, 70, 71, 72, 73, 74, 75, 76, 77, 78, 79, 80, 81, 82, 83, 84, 85, 86, 87, 88, 89, 90, 91, 92, 93, 94, 95, 96, 97, 98, 99, 100, 101, 102, 103, 104, 105, 106, 107, 108, 109, 110, 111, 112, 113, 114, 115, 116, 117, 118, 119, 120, 121, 122, 123, 124, 125, 126, 127, 128, 129, 130, 131, 132, 133, 134, 135, 136, 137, 138, 139, 140, 141, 142, 143, 144, 145, 146, 147, 148, 149, 150, 151, 152, 153, 154, 155, 156, 157, 158, 159, 160, 161, 162, 163, 164, 165, 166, 167, 168, 169, 170, 171, 172, 173, 174, 175, 176, 177, 178, 179, 180, 181, 182, 183, 184, 185, 186, 187, 188, 189, 190, 191, 192, 193, 194, 195, 196, 197, 198, 199, 200],
      "AcquisitionTime": ["093517.515000", "093519.515000", "093521.515000", "093523.515000", "093525.515000", "093527.515000", "093529.515000", "093531.515000", "093533.515000", "093535.515000", "093537.515000", "093539.515000", "093541.515000", "093543.515000", "093545.515000", "093547.515000", "093549.515000", "093551.515000", "093553.515000", "093555.515000", "093557.515000", "093559.515000", "093601.515000", "093603.515000", "093605.515000", "093607.515000", "093609.515000", "093611.515000", "093613.515000", "093615.515000", "093617.515000", "093619.515000", "093621.515000", "093623.515000", "093625.515000", "093627.515000", "093629.515000", "093631.515000", "093633.515000", "093635.515000", "093637.515000", "093639.515000", "093641.515000", "093643.515000", "093645.515000", "093647.515000", "093649.515000", "093651.515000", "093653.515000", "093655.515000", "093657.515000", "093659.515000", "093701.515000", "093703.515000", "093705.515000", "093707.515000", "093709.515000", "093711.515000", "093713.515000", "093715.515000", "093717.515000", "093719.515000", "093721.515000", "093723.515000", "093725.515000", "093727.515000", "093729.515000", "093731.515000", "093733.515000", "093735.515000", "093737.515000", "093739.515000", "093741.515000", "093743.515000", "093745.515000", "093747.515000", "093749.515000", "093751.515000", "093753.515000", "093755.515000", "093757.515000", "093759.515000", "093801.515000", "093803.515000", "093805.515000", "093807.515000", "093809.515000", "093811.515000", "093813.515000", "093815.515000", "093817.515000", "093819.515000", "093821.515000", "093823.515000", "093825.515000", "093827.515000", "093829.515000", "093831.515000", "093833.515000", "093835.515000", "093837.515000", "093839.515000", "093841.515000", "093843.515000", "093845.515000", "093847.515000", "093849.515000", "093851.515000", "093853.515000", "093855.515000", "093857.515000", "093859.515000", "093901.515000", "093903.515000", "093905.515000", "093907.515000", "093909.515000", "093911.515000", "093913.515000", "093915.515000", "093917.515000", "093919.515000", "093921.515000", "093923.515000", "093925.515000", "093927.515000", "093929.515000", "093931.515000", "093933.515000", "093935.515000", "093937.515000", "093939.515000", "093941.515000", "093943.515000", "093945.515000", "093947.515000", "093949.515000", "093951.515000", "093953.515000", "093955.515000", "093957.515000", "093959.515000", "094001.515000", "094003.515000", "094005.515000", "094007.515000", "094009.515000", "094011.515000", "094013.515000", "094015.515000", "094017.515000", "094019.515000", "094021.515000", "094023.515000", "094025.515000", "094027.515000", "094029.515000", "094031.515000", "094033.515000", "094035.515000", "094037.515000", "094039.515000", "094041.515000", "094043.515000", "094045.515000", "094047.515000", "094049.515000", "094051.515000", "094053.515000", "094055.515000", "094057.515000", "094059.515000", "094101.515000", "094103.515000", "094105.515000", "094107.515000", "094109.515000", "094111.515000", "094113.515000", "094115.515000", "094117.515000", "094119.515000", "094121.515000", "094123.515000", "094125.515000", "094127.515000", "094129.515000", "094131.515000", "094133.515000", "094135.515000", "094137.515000", "094139.515000", "094141.515000", "094143.515000", "094145.515000", "094147.515000", "094149.515000", "094151.515000", "094153.515000", "094155.515000"],
      "ContentTime": ["093557.973000", "093557.976000", "093557.979000", "093557.981000", "093557.984000", "093557.986000", "093557.989000", "093557.991000", "093558.002000", "093558.004000", "093558.007000", "093558.009000", "093558.012000", "093558.014000", "093558.017000", "093558.019000", "093558.022000", "093558.024000", "093558.027000", "093558.029000", "093637.968000", "093637.971000", "093637.974000", "093637.976000", "093637.979000", "093637.981000", "093637.984000", "093637.986000", "093637.989000", "093637.991000", "093637.994000", "093637.996000", "093637.998000", "093638.010000", "093638.012000", "093638.015000", "093638.017000", "093638.020000", "093638.022000", "093638.025000", "093717.969000", "093717.972000", "093717.975000", "093717.977000", "093717.980000", "093717.982000", "093717.985000", "093717.987000", "093717.990000", "093717.992000", "093717.994000", "093717.997000", "093718.000000", "093718.003000", "093718.005000", "093718.008000", "093718.010000", "093718.013000", "093718.015000", "093718.018000", "093757.968000", "093757.971000", "093757.974000", "093757.976000", "093757.979000", "093757.981000", "093757.984000", "093757.986000", "093757.988000", "093757.991000", "093757.993000", "093757.996000", "093757.998000", "093758.002000", "093758.004000", "093758.007000", "093758.009000", "093758.012000", "093758.014000", "093758.017000", "093837.968000", "093837.971000", "093837.974000", "093837.976000", "093837.978000", "093837.981000", "093837.983000", "093837.986000", "093837.988000", "093837.991000", "093837.993000", "093837.996000", "093837.998000", "093838.002000", "093838.004000", "093838.007000", "093838.009000", "093838.024000", "093838.027000", "093838.029000", "093917.970000", "093917.972000", "093917.975000", "093917.977000", "093917.980000", "093917.982000", "093917.985000", "093917.987000", "093917.990000", "093917.992000", "093917.995000", "093917.997000", "093918.000000", "093918.002000", "093918.005000", "093918.007000", "093918.010000", "093918.012000", "093918.015000", "093918.017000", "093957.968000", "093957.971000", "093957.974000", "093957.976000", "093957.979000", "093957.981000", "093957.984000", "093957.986000", "093957.989000", "093957.991000", "093957.994000", "093957.996000", "093958.000000", "093958.002000", "093958.005000", "093958.007000", "093958.009000", "093958.012000", "093958.014000", "093958.017000", "094037.968000", "094037.971000", "094037.974000", "094037.976000", "094037.979000", "094037.981000", "094037.983000", "094037.986000", "094037.988000", "094037.991000", "094037.993000", "094037.996000", "094037.998000", "094038.002000", "094038.004000", "094038.007000", "094038.009000", "094038.012000", "094038.014000", "094038.017000", "094117.968000", "094117.971000", "094117.974000", "094117.976000", "094117.979000", "094117.981000", "094117.984000", "094117.996000", "094118.000000", "094118.002000", "094118.005000", "094118.007000", "094118.010000", "094118.012000", "094118.015000", "094118.017000", "094118.020000", "094118.022000", "094118.024000", "094118.027000", "094157.157000", "094157.160000", "094157.163000", "094157.165000", "094157.168000", "094157.170000", "094157.173000", "094157.175000", "094157.178000", "094157.180000", "094157.183000", "094157.185000", "094157.188000", "094157.195000", "094157.199000", "094157.202000", "094157.206000", "094157.210000", "094157.213000", "094157.218000"],
      "InstanceCreationTime": ["093557.973000", "093557.976000", "093557.979000", "093557.981000", "093557.984000", "093557.986000", "093557.989000", "093557.991000", "093558.002000", "093558.004000", "093558.007000", "093558.009000", "093558.012000", "093558.014000", "093558.017000", "093558.019000", "093558.022000", "093558.024000", "093558.027000", "093558.029000", "093637.968000", "093637.971000", "093637.974000", "093637.976000", "093637.979000", "093637.981000", "093637.984000", "093637.986000", "093637.989000", "093637.991000", "093637.994000", "093637.996000", "093637.998000", "093638.010000", "093638.012000", "093638.015000", "093638.017000", "093638.020000", "093638.022000", "093638.025000", "093717.969000", "093717.972000", "093717.975000", "093717.977000", "093717.980000", "093717.982000", "093717.985000", "093717.987000", "093717.990000", "093717.992000", "093717.994000", "093717.997000", "093718.000000", "093718.003000", "093718.005000", "093718.008000", "093718.010000", "093718.013000", "093718.015000", "093718.018000", "093757.968000", "093757.971000", "093757.974000", "093757.976000", "093757.979000", "093757.981000", "093757.984000", "093757.986000", "093757.988000", "093757.991000", "093757.993000", "093757.996000", "093757.998000", "093758.002000", "093758.004000", "093758.007000", "093758.009000", "093758.012000", "093758.014000", "093758.017000", "093837.968000", "093837.971000", "093837.974000", "093837.976000", "093837.978000", "093837.981000", "093837.983000", "093837.986000", "093837.988000", "093837.991000", "093837.993000", "093837.996000", "093837.998000", "093838.002000", "093838.004000", "093838.007000", "093838.009000", "093838.024000", "093838.027000", "093838.029000", "093917.970000", "093917.972000", "093917.975000", "093917.977000", "093917.980000", "093917.982000", "093917.985000", "093917.987000", "093917.990000", "093917.992000", "093917.995000", "093917.997000", "093918.000000", "093918.002000", "093918.005000", "093918.007000", "093918.010000", "093918.012000", "093918.015000", "093918.017000", "093957.968000", "093957.971000", "093957.974000", "093957.976000", "093957.979000", "093957.981000", "093957.984000", "093957.986000", "093957.989000", "093957.991000", "093957.994000", "093957.996000", "093958.000000", "093958.002000", "093958.005000", "093958.007000", "093958.009000", "093958.012000", "093958.014000", "093958.017000", "094037.968000", "094037.971000", "094037.974000", "094037.976000", "094037.979000", "094037.981000", "094037.983000", "094037.986000", "094037.988000", "094037.991000", "094037.993000", "094037.996000", "094037.998000", "094038.002000", "094038.004000", "094038.007000", "094038.009000", "094038.012000", "094038.014000", "094038.017000", "094117.968000", "094117.971000", "094117.974000", "094117.976000", "094117.979000", "094117.981000", "094117.984000", "094117.996000", "094118.000000", "094118.002000", "094118.005000", "094118.007000", "094118.010000", "094118.012000", "094118.015000", "094118.017000", "094118.020000", "094118.022000", "094118.024000", "094118.027000", "094157.157000", "094157.160000", "094157.163000", "094157.165000", "094157.168000", "094157.170000", "094157.173000", "094157.175000", "094157.178000", "094157.180000", "094157.183000", "094157.185000", "094157.188000", "094157.195000", "094157.199000", "094157.202000", "094157.206000", "094157.210000", "094157.213000", "094157.218000"],
      "InstanceNumber": [1, 2, 3, 4, 5, 6, 7, 8, 9, 10, 11, 12, 13, 14, 15, 16, 17, 18, 19, 20, 21, 22, 23, 24, 25, 26, 27, 28, 29, 30, 31, 32, 33, 34, 35, 36, 37, 38, 39, 40, 41, 42, 43, 44, 45, 46, 47, 48, 49, 50, 51, 52, 53, 54, 55, 56, 57, 58, 59, 60, 61, 62, 63, 64, 65, 66, 67, 68, 69, 70, 71, 72, 73, 74, 75, 76, 77, 78, 79, 80, 81, 82, 83, 84, 85, 86, 87, 88, 89, 90, 91, 92, 93, 94, 95, 96, 97, 98, 99, 100, 101, 102, 103, 104, 105, 106, 107, 108, 109, 110, 111, 112, 113, 114, 115, 116, 117, 118, 119, 120, 121, 122, 123, 124, 125, 126, 127, 128, 129, 130, 131, 132, 133, 134, 135, 136, 137, 138, 139, 140, 141, 142, 143, 144, 145, 146, 147, 148, 149, 150, 151, 152, 153, 154, 155, 156, 157, 158, 159, 160, 161, 162, 163, 164, 165, 166, 167, 168, 169, 170, 171, 172, 173, 174, 175, 176, 177, 178, 179, 180, 181, 182, 183, 184, 185, 186, 187, 188, 189, 190, 191, 192, 193, 194, 195, 196, 197, 198, 199, 200],
      "LargestImagePixelValue": [337, 333, 334, 335, 335, 334, 334, 335, 335, 336, 336, 337, 334, 335, 335, 336, 335, 337, 335, 335, 336, 335, 335, 336, 334, 334, 335, 335, 334, 340, 333, 335, 336, 335, 335, 334, 334, 335, 334, 335, 336, 333, 334, 333, 333, 334, 335, 337, 334, 334, 334, 336, 336, 335, 335, 334, 335, 341, 337, 334, 335, 336, 335, 336, 335, 335, 334, 334, 340, 339, 333, 338, 334, 334, 335, 335, 336, 334, 334, 333, 334, 333, 334, 335, 334, 335, 333, 333, 339, 339, 335, 334, 334, 335, 338, 334, 341, 341, 335, 334, 334, 334, 333, 335, 334, 334, 336, 336, 338, 333, 333, 336, 335, 339, 338, 340, 340, 337, 339, 334, 339, 339, 335, 340, 336, 333, 333, 336, 340, 337, 339, 337, 339, 338, 335, 333, 337, 336, 334, 335, 333, 337, 336, 336, 333, 334, 334, 335, 336, 334, 337, 335, 334, 333, 337, 333, 333, 340, 338, 339, 339, 339, 337, 337, 337, 335, 336, 334, 335, 335, 338, 339, 340, 340, 339, 337, 339, 339, 340, 339, 339, 338, 338, 341, 339, 339, 339, 338, 338, 339, 341, 340, 339, 337, 339, 340, 337, 338, 339, 339],
      "WindowCenter": [274.0, 273.0, 273.0, 273.0, 273.0, 273.0, 273.0, 273.0, 273.0, 273.0, 273.0, 273.0, 273.0, 273.0, 273.0, 273.0, 273.0, 273.0, 273.0, 273.0, 273.0, 273.0, 273.0, 273.0, 273.0, 273.0, 273.0, 273.0, 273.0, 275.0, 273.0, 272.0, 273.0, 273.0, 273.0, 273.0, 273.0, 273.0, 273.0, 272.0, 273.0, 273.0, 272.0, 273.0, 273.0, 273.0, 272.0, 274.0, 272.0, 272.0, 273.0, 273.0, 273.0, 272.0, 273.0, 273.0, 274.0, 276.0, 273.0, 272.0, 272.0, 272.0, 273.0, 272.0, 272.0, 272.0, 272.0, 272.0, 273.0, 274.0, 272.0, 272.0, 272.0, 273.0, 273.0, 273.0, 272.0, 273.0, 272.0, 272.0, 272.0, 272.0, 273.0, 273.0, 272.0, 273.0, 273.0, 273.0, 273.0, 273.0, 273.0, 273.0, 273.0, 273.0, 274.0, 274.0, 275.0, 273.0, 272.0, 273.0, 272.0, 273.0, 273.0, 273.0, 273.0, 273.0, 273.0, 274.0, 273.0, 272.0, 272.0, 273.0, 272.0, 274.0, 275.0, 275.0, 275.0, 273.0, 273.0, 273.0, 273.0, 275.0, 274.0, 273.0, 273.0, 272.0, 272.0, 274.0, 274.0, 274.0, 274.0, 274.0, 274.0, 274.0, 272.0, 272.0, 272.0, 273.0, 272.0, 272.0, 273.0, 272.0, 272.0, 272.0, 272.0, 272.0, 272.0, 272.0, 272.0, 273.0, 272.0, 272.0, 273.0, 273.0, 273.0, 272.0, 273.0, 275.0, 275.0, 275.0, 275.0, 275.0, 275.0, 275.0, 274.0, 272.0, 272.0, 272.0, 272.0, 272.0, 273.0, 275.0, 275.0, 275.0, 275.0, 275.0, 275.0, 275.0, 275.0, 275.0, 275.0, 275.0, 275.0, 275.0, 275.0, 275.0, 275.0, 275.0, 275.0, 275.0, 275.0, 275.0, 275.0, 275.0, 275.0, 275.0, 275.0, 275.0, 275.0, 275.0],
      "WindowWidth": [601.0, 599.0, 599.0, 599.0, 599.0, 599.0, 599.0, 599.0, 599.0, 599.0, 599.0, 599.0, 599.0, 599.0, 599.0, 599.0, 599.0, 599.0, 599.0, 599.0, 599.0, 598.0, 598.0, 599.0, 599.0, 599.0, 599.0, 598.0, 599.0, 603.0, 599.0, 598.0, 598.0, 598.0, 599.0, 598.0, 598.0, 598.0, 598.0, 598.0, 599.0, 599.0, 598.0, 598.0, 598.0, 598.0, 598.0, 600.0, 598.0, 598.0, 599.0, 599.0, 598.0, 598.0, 598.0, 598.0, 601.0, 604.0, 599.0, 598.0, 598.0, 598.0, 598.0, 597.0, 598.0, 598.0, 598.0, 598.0, 599.0, 601.0, 598.0, 598.0, 598.0, 598.0, 598.0, 598.0, 598.0, 598.0, 598.0, 598.0, 597.0, 598.0, 598.0, 598.0, 597.0, 598.0, 598.0, 598.0, 599.0, 599.0, 598.0, 599.0, 598.0, 598.0, 601.0, 601.0, 603.0, 599.0, 598.0, 599.0, 597.0, 598.0, 598.0, 598.0, 598.0, 598.0, 599.0, 601.0, 600.0, 598.0, 598.0, 598.0, 598.0, 601.0, 603.0, 603.0, 602.0, 599.0, 599.0, 598.0, 599.0, 602.0, 601.0, 598.0, 598.0, 597.0, 597.0, 601.0, 601.0, 601.0, 601.0, 601.0, 602.0, 601.0, 598.0, 597.0, 598.0, 599.0, 598.0, 597.0, 599.0, 598.0, 597.0, 598.0, 598.0, 597.0, 597.0, 597.0, 597.0, 599.0, 598.0, 597.0, 599.0, 598.0, 599.0, 597.0, 598.0, 603.0, 603.0, 603.0, 603.0, 603.0, 603.0, 603.0, 601.0, 598.0, 598.0, 597.0, 597.0, 597.0, 599.0, 603.0, 603.0, 603.0, 603.0, 603.0, 603.0, 603.0, 603.0, 603.0, 603.0, 603.0, 603.0, 603.0, 603.0, 603.0, 603.0, 603.0, 603.0, 603.0, 603.0, 603.0, 603.0, 603.0, 603.0, 603.0, 603.0, 603.0, 603.0, 603.0]
    },
    "slices": {}
  }
}