{
  "AcquisitionMatrixPE": 80,
  "AcquisitionNumber": 1,
  "AcquisitionTime": "09:54:14.777500",
  "BandwidthPerPixelPhaseEncode": 48.077,
  "BaseResolution": 80,
  "BodyPartExamined": "BRAIN",
  "CoilCombinationMethod": "Sum of Squares",
  "ConsistencyInfo": "N4_VE11C_LATEST_20160120",
  "ConversionSoftware": "dcm2niix",
  "ConversionSoftwareVersion": "v1.0.20220720",
  "DerivedVendorReportedEchoSpacing": 0.000519999,
  "DeviceSerialNumber": "66112",
  "DwellTime": 2.7e-06,
  "EchoTime": 0.035,
  "EchoTrainLength": 39,
  "EffectiveEchoSpacing": 0.00026,
  "FlipAngle": 90,
  "HeudiconvVersion": "0.13.1",
  "ImageOrientationPatientDICOM": [0.999941, 0.00819645, 0.00711749, -0.00994809, 0.954317, 0.298631],
  "ImageOrientationText": "Tra>Cor(17.4)>Sag(0.2)",
  "ImageType": [
    "ORIGINAL",
    "PRIMARY",
    "M",
    "ND",
    "NORM",
    "MOSAIC"
],
  "ImagingFrequency": 123.252,
  "InPlanePhaseEncodingDirectionDICOM": "COL",
  "InstitutionAddress": "Maynard 3,Hanover,NH,US,03755",
  "InstitutionName": "Dartmouth College - PBS",
  "InstitutionalDepartmentName": "Department",
  "MRAcquisitionType": "2D",
  "MagneticFieldStrength": 3,
  "Manufacturer": "Siemens",
  "ManufacturersModelName": "Prisma",
  "MatrixCoilMode": "GRAPPA",
  "Modality": "MR",
  "NonlinearGradientCorrection": false,
  "ParallelReductionFactorInPlane": 2,
  "PartialFourier": 1,
  "PatientPosition": "HFS",
  "PercentPhaseFOV": 100,
  "PercentSampling": 100,
  "PhaseEncodingDirection": "j-",
  "PhaseEncodingSteps": 79,
  "PhaseResolution": 1,
  "PixelBandwidth": 2315,
  "ProcedureStepDescription": "dbic^QA",
  "ProtocolName": "func-bold_task-rest_acq-p2",
  "PulseSequenceDetails": "%SiemensSeq%\\ep2d_bold",
  "ReceiveCoilActiveElements": "HEA;HEP",
  "ReceiveCoilName": "Head_32",
  "ReconMatrixPE": 80,
  "RefLinesPE": 24,
  "RepetitionTime": 2,
  "SAR": 0.0556122,
  "ScanOptions": "FS",
  "ScanningSequence": "EP",
  "SequenceName": "*epfid2d1_80",
  "SequenceVariant": "SK",
  "SeriesDescription": "func-bold_task-rest_acq-p2",
  "SeriesNumber": 5,
  "ShimSetting": [4146, -7686, -7507, 251, -69, -111, -50, 65],
  "SliceThickness": 3.5,
  "SliceTiming": [0.9875, 0, 1.055, 0.065, 1.12, 0.13, 1.1875, 0.1975, 1.2525, 0.2625, 1.3175, 0.33, 1.385, 0.395, 1.45, 0.46, 1.5175, 0.5275, 1.5825, 0.5925, 1.6475, 0.66, 1.715, 0.725, 1.78, 0.79, 1.8475, 0.8575, 1.9125, 0.9225],
  "SoftwareVersions": "syngo MR E11",
  "SpacingBetweenSlices": 3.99,
  "StationName": "AWP66112",
  "TaskName": "rest",
  "TotalReadoutTime": 0.02054,
  "TxRefAmp": 237.661,
  "dcmmeta_affine": [
    [-2.9998233318328857, -0.02984427474439144, 0.017335066571831703, 121.46733856201172],
    [-0.024589333683252335, 2.8629508018493652, 1.1917484998703003, -125.13831329345703],
    [0.021352458745241165, -0.8958919048309326, 3.8078255653381348, -13.54204273223877],
    [0.0, 0.0, 0.0, 1.0]
],
  "dcmmeta_reorient_transform": [
    [0.0, -1.0, 0.0, 79.0],
    [1.0, 0.0, 0.0, 0.0],
    [0.0, 0.0, 1.0, 0.0],
    [0.0, 0.0, 0.0, 1.0]
],
  "dcmmeta_shape": [80, 80, 30, 200],
  "dcmmeta_slice_dim": 2,
  "dcmmeta_version": 0.6,
  "global": {
    "const": {
      "AccessionNumber": "qa",
      "AcquisitionMatrix": [80, 0, 0, 80],
      "AngioFlag": "N",
      "BitsAllocated": 16,
      "BitsStored": 12,
      "BodyPartExamined": "BRAIN",
      "Columns": 480,
      "EchoNumbers": 1,
      "EchoTime": 35.0,
      "EchoTrainLength": 39,
      "FlipAngle": 90.0,
      "HighBit": 11,
      "ImageOrientationPatient": [0.99994107810386, 0.00819644476193, 0.00711748647683, -0.0099480915391, 0.95431691960073, 0.29863062876823],
      "ImagePositionPatient": [-713.10543261998, -678.54281402202, -267.76637048499],
      "ImageType": [
        "ORIGINAL",
        "PRIMARY",
        "M",
        "ND",
        "NORM",
        "MOSAIC"
],
      "ImagedNucleus": "1H",
      "ImagingFrequency": 123.252438,
      "InPlanePhaseEncodingDirection": "COL",
      "MRAcquisitionType": "2D",
      "MagneticFieldStrength": 3.0,
      "Manufacturer": "SIEMENS",
      "ManufacturerModelName": "Prisma",
      "Modality": "MR",
      "NumberOfAverages": 1.0,
      "NumberOfPhaseEncodingSteps": 79,
      "PercentPhaseFieldOfView": 100.0,
      "PercentSampling": 100.0,
      "PerformedProcedureStepStartTime": "095028.483000",
      "PhotometricInterpretation": "MONOCHROME2",
      "PixelBandwidth": 2315.0,
      "PixelRepresentation": 0,
      "PixelSpacing": [3.0, 3.0],
      "ProtocolName": "func-bold_task-rest_acq-p2",
      "RepetitionTime": 2000.0,
      "Rows": 480,
      "SAR": 0.05561221418185,
      "SamplesPerPixel": 1,
      "ScanOptions": "FS",
      "ScanningSequence": "EP",
      "SequenceName": "*epfid2d1_80",
      "SequenceVariant": "SK",
      "SeriesDescription": "func-bold_task-rest_acq-p2",
      "SeriesNumber": 5,
      "SeriesTime": "095456.632000",
      "SliceLocation": -49.77280451156,
      "SliceThickness": 3.5,
      "SmallestImagePixelValue": 0,
      "SoftwareVersions": "syngo MR E11",
      "SpacingBetweenSlices": 3.9900000564447,
      "SpecificCharacterSet": "ISO_IR 100",
      "StudyID": "109",
      "StudyTime": "095028.374000",
      "TransmitCoilName": "Body",
      "VariableFlipAngleFlag": "N",
      "WindowCenterWidthExplanation": "Algo1",
      "dBdt": 0.0},
    "slices": {}
  },
  "time": {
    "samples": {
      "AcquisitionNumber": [1, 2, 3, 4, 5, 6, 7, 8, 9, 10, 11, 12, 13, 14, 15, 16, 17, 18, 19, 20, 21, 22, 23, 24, 25, 26, 27, 28, 29, 30, 31, 32, 33, 34, 35, 36, 37, 38, 39, 40, 41, 42, 43, 44, 45, 46, 47, 48, 49, 50, 51, 52, 53, 54, 55, 56, 57, 58, 59, 60, 61, 62, 63, 64, 65, 66, 67, 68, 69, 70, 71, 72, 73, 74, 75, 76, 77, 78, 79, 80, 81, 82, 83, 84, 85, 86, 87, 88, 89, 90, 91, 92, 93, 94, 95, 96, 97, 98, 99, 100, 101, 102, 103, 104, 105, 106, 107, 108, 109, 110, 111, 112, 113, 114, 115, 116, 117, 118, 119, 120, 121, 122, 123, 124, 125, 126, 127, 128, 129, 130, 131, 132, 133, 134, 135, 136, 137, 138, 139, 140, 141, 142, 143, 144, 145, 146, 147, 148, 149, 150, 151, 152, 153, 154, 155, 156, 157, 158, 159, 160, 161, 162, 163, 164, 165, 166, 167, 168, 169, 170, 171, 172, 173, 174, 175, 176, 177, 178, 179, 180, 181, 182, 183, 184, 185, 186, 187, 188, 189, 190, 191, 192, 193, 194, 195, 196, 197, 198, 199, 200],
      "AcquisitionTime": ["095414.777500", "095416.777500", "095418.777500", "095420.777500", "095422.777500", "095424.777500", "095426.777500", "095428.777500", "095430.777500", "095432.777500", "095434.777500", "095436.777500", "095438.777500", "095440.777500", "095442.777500", "095444.777500", "095446.777500", "095448.777500", "095450.777500", "095452.777500", "095454.777500", "095456.777500", "095458.777500", "095500.777500", "095502.777500", "095504.777500", "095506.777500", "095508.777500", "095510.777500", "095512.777500", "095514.777500", "095516.777500", "095518.777500", "095520.777500", "095522.777500", "095524.777500", "095526.777500", "095528.777500", "095530.777500", "095532.777500", "095534.777500", "095536.777500", "095538.777500", "095540.777500", "095542.777500", "095544.777500", "095546.777500", "095548.777500", "095550.777500", "095552.777500", "095554.777500", "095556.777500", "095558.777500", "095600.777500", "095602.777500", "095604.777500", "095606.777500", "095608.777500", "095610.777500", "095612.777500", "095614.777500", "095616.777500", "095618.777500", "095620.777500", "095622.777500", "095624.777500", "095626.777500", "095628.777500", "095630.777500", "095632.777500", "095634.777500", "095636.777500", "095638.777500", "095640.777500", "095642.777500", "095644.777500", "095646.777500", "095648.777500", "095650.777500", "095652.777500", "095654.777500", "095656.777500", "095658.777500", "095700.777500", "095702.777500", "095704.777500", "095706.777500", "095708.777500", "095710.777500", "095712.777500", "095714.777500", "095716.777500", "095718.777500", "095720.777500", "095722.777500", "095724.777500", "095726.777500", "095728.777500", "095730.777500", "095732.777500", "095734.777500", "095736.777500", "095738.777500", "095740.777500", "095742.777500", "095744.777500", "095746.777500", "095748.777500", "095750.777500", "095752.777500", "095754.777500", "095756.777500", "095758.777500", "095800.777500", "095802.777500", "095804.777500", "095806.777500", "095808.777500", "095810.777500", "095812.777500", "095814.777500", "095816.777500", "095818.777500", "095820.777500", "095822.777500", "095824.777500", "095826.777500", "095828.777500", "095830.777500", "095832.777500", "095834.777500", "095836.777500", "095838.777500", "095840.777500", "095842.777500", "095844.777500", "095846.777500", "095848.777500", "095850.777500", "095852.777500", "095854.777500", "095856.777500", "095858.777500", "095900.777500", "095902.777500", "095904.777500", "095906.777500", "095908.777500", "095910.777500", "095912.777500", "095914.777500", "095916.777500", "095918.777500", "095920.777500", "095922.777500", "095924.777500", "095926.777500", "095928.777500", "095930.777500", "095932.777500", "095934.777500", "095936.777500", "095938.777500", "095940.777500", "095942.777500", "095944.777500", "095946.777500", "095948.777500", "095950.777500", "095952.777500", "095954.777500", "095956.777500", "095958.777500", "100000.777500", "100002.777500", "100004.777500", "100006.777500", "100008.777500", "100010.777500", "100012.777500", "100014.777500", "100016.777500", "100018.777500", "100020.777500", "100022.777500", "100024.777500", "100026.777500", "100028.777500", "100030.777500", "100032.777500", "100034.777500", "100036.777500", "100038.777500", "100040.777500", "100042.777500", "100044.777500", "100046.777500", "100048.777500", "100050.777500", "100052.777500"],
      "ContentTime": ["095456.636000", "095456.639000", "095456.642000", "095456.644000", "095456.647000", "095456.650000", "095456.652000", "095456.655000", "095456.658000", "095456.660000", "095456.663000", "095456.665000", "095456.668000", "095456.671000", "095456.673000", "095456.676000", "095456.679000", "095456.681000", "095456.684000", "095456.686000", "095456.689000", "095536.630000", "095536.633000", "095536.635000", "095536.638000", "095536.640000", "095536.663000", "095536.665000", "095536.668000", "095536.671000", "095536.673000", "095536.676000", "095536.678000", "095536.681000", "095536.684000", "095536.686000", "095536.689000", "095536.691000", "095536.694000", "095536.696000", "095536.699000", "095616.631000", "095616.645000", "095616.648000", "095616.659000", "095616.662000", "095616.664000", "095616.667000", "095616.670000", "095616.672000", "095616.675000", "095616.677000", "095616.680000", "095616.683000", "095616.685000", "095616.688000", "095616.691000", "095616.693000", "095616.696000", "095616.699000", "095616.701000", "095656.631000", "095656.634000", "095656.636000", "095656.639000", "095656.641000", "095656.644000", "095656.647000", "095656.649000", "095656.652000", "095656.654000", "095656.657000", "095656.660000", "095656.662000", "095656.665000", "095656.667000", "095656.670000", "095656.672000", "095656.675000", "095656.678000", "095656.680000", "095736.630000", "095736.632000", "095736.635000", "095736.638000", "095736.640000", "095736.643000", "095736.645000", "095736.648000", "095736.651000", "095736.653000", "095736.656000", "095736.658000", "095736.661000", "095736.664000", "095736.666000", "095736.669000", "095736.671000", "095736.674000", "095736.677000", "095736.679000", "095816.630000", "095816.633000", "095816.635000", "095816.638000", "095816.641000", "095816.643000", "095816.646000", "095816.648000", "095816.651000", "095816.654000", "095816.656000", "095816.659000", "095816.661000", "095816.664000", "095816.667000", "095816.669000", "095816.672000", "095816.674000", "095816.677000", "095816.680000", "095856.631000", "095856.633000", "095856.636000", "095856.639000", "095856.641000", "095856.644000", "095856.647000", "095856.649000", "095856.652000", "095856.654000", "095856.657000", "095856.660000", "095856.662000", "095856.665000", "095856.667000", "095856.671000", "095856.674000", "095856.676000", "095856.679000", "095856.681000", "095936.630000", "095936.633000", "095936.636000", "095936.639000", "095936.641000", "095936.644000", "095936.646000", "095936.649000", "095936.652000", "095936.654000", "095936.657000", "095936.659000", "095936.662000", "095936.665000", "095936.667000", "095936.671000", "095936.673000", "095936.676000", "095936.679000", "095936.681000", "100016.630000", "100016.632000", "100016.635000", "100016.638000", "100016.640000", "100016.643000", "100016.645000", "100016.648000", "100016.650000", "100016.653000", "100016.656000", "100016.658000", "100016.661000", "100016.664000", "100016.666000", "100016.669000", "100016.672000", "100016.674000", "100016.677000", "100016.679000", "100054.093000", "100054.096000", "100054.098000", "100054.101000", "100054.104000", "100054.107000", "100054.109000", "100054.112000", "100054.115000", "100054.117000", "100054.120000", "100054.127000", "100054.130000", "100054.133000", "100054.137000", "100054.140000", "100054.146000", "100054.149000", "100054.152000"],
      "InstanceCreationTime": ["095456.636000", "095456.639000", "095456.642000", "095456.644000", "095456.647000", "095456.650000", "095456.652000", "095456.655000", "095456.658000", "095456.660000", "095456.663000", "095456.665000", "095456.668000", "095456.671000", "095456.673000", "095456.676000", "095456.679000", "095456.681000", "095456.684000", "095456.686000", "095456.689000", "095536.630000", "095536.633000", "095536.635000", "095536.638000", "095536.640000", "095536.663000", "095536.665000", "095536.668000", "095536.671000", "095536.673000", "095536.676000", "095536.678000", "095536.681000", "095536.684000", "095536.686000", "095536.689000", "095536.691000", "095536.694000", "095536.696000", "095536.699000", "095616.631000", "095616.645000", "095616.648000", "095616.659000", "095616.662000", "095616.664000", "095616.667000", "095616.670000", "095616.672000", "095616.675000", "095616.677000", "095616.680000", "095616.683000", "095616.685000", "095616.688000", "095616.691000", "095616.693000", "095616.696000", "095616.699000", "095616.701000", "095656.631000", "095656.634000", "095656.636000", "095656.639000", "095656.641000", "095656.644000", "095656.647000", "095656.649000", "095656.652000", "095656.654000", "095656.657000", "095656.660000", "095656.662000", "095656.665000", "095656.667000", "095656.670000", "095656.672000", "095656.675000", "095656.678000", "095656.680000", "095736.630000", "095736.632000", "095736.635000", "095736.638000", "095736.640000", "095736.643000", "095736.645000", "095736.648000", "095736.651000", "095736.653000", "095736.656000", "095736.658000", "095736.661000", "095736.664000", "095736.666000", "095736.669000", "095736.671000", "095736.674000", "095736.677000", "095736.679000", "095816.630000", "095816.633000", "095816.635000", "095816.638000", "095816.641000", "095816.643000", "095816.646000", "095816.648000", "095816.651000", "095816.654000", "095816.656000", "095816.659000", "095816.661000", "095816.664000", "095816.667000", "095816.669000", "095816.672000", "095816.674000", "095816.677000", "095816.680000", "095856.631000", "095856.633000", "095856.636000", "095856.639000", "095856.641000", "095856.644000", "095856.647000", "095856.649000", "095856.652000", "095856.654000", "095856.657000", "095856.660000", "095856.662000", "095856.665000", "095856.667000", "095856.671000", "095856.674000", "095856.676000", "095856.679000", "095856.681000", "095936.630000", "095936.633000", "095936.636000", "095936.639000", "095936.641000", "095936.644000", "095936.646000", "095936.649000", "095936.652000", "095936.654000", "095936.657000", "095936.659000", "095936.662000", "095936.665000", "095936.667000", "095936.671000", "095936.673000", "095936.676000", "095936.679000", "095936.681000", "100016.630000", "100016.632000", "100016.635000", "100016.638000", "100016.640000", "100016.643000", "100016.645000", "100016.648000", "100016.650000", "100016.653000", "100016.656000", "100016.658000", "100016.661000", "100016.664000", "100016.666000", "100016.669000", "100016.672000", "100016.674000", "100016.677000", "100016.679000", "100054.093000", "100054.096000", "100054.098000", "100054.101000", "100054.104000", "100054.107000", "100054.109000", "100054.112000", "100054.115000", "100054.117000", "100054.120000", "100054.127000", "100054.130000", "100054.133000", "100054.137000", "100054.140000", "100054.146000", "100054.149000", "100054.152000"],
      "InstanceNumber": [1, 2, 3, 4, 5, 6, 7, 8, 9, 10, 11, 12, 13, 14, 15, 16, 17, 18, 19, 20, 21, 22, 23, 24, 25, 26, 27, 28, 29, 30, 31, 32, 33, 34, 35, 36, 37, 38, 39, 40, 41, 42, 43, 44, 45, 46, 47, 48, 49, 50, 51, 52, 53, 54, 55, 56, 57, 58, 59, 60, 61, 62, 63, 64, 65, 66, 67, 68, 69, 70, 71, 72, 73, 74, 75, 76, 77, 78, 79, 80, 81, 82, 83, 84, 85, 86, 87, 88, 89, 90, 91, 92, 93, 94, 95, 96, 97, 98, 99, 100, 101, 102, 103, 104, 105, 106, 107, 108, 109, 110, 111, 112, 113, 114, 115, 116, 117, 118, 119, 120, 121, 122, 123, 124, 125, 126, 127, 128, 129, 130, 131, 132, 133, 134, 135, 136, 137, 138, 139, 140, 141, 142, 143, 144, 145, 146, 147, 148, 149, 150, 151, 152, 153, 154, 155, 156, 157, 158, 159, 160, 161, 162, 163, 164, 165, 166, 167, 168, 169, 170, 171, 172, 173, 174, 175, 176, 177, 178, 179, 180, 181, 182, 183, 184, 185, 186, 187, 188, 189, 190, 191, 192, 193, 194, 195, 196, 197, 198, 199, 200],
      "LargestImagePixelValue": [1898, 1892, 1890, 1886, 1892, 1891, 1895, 1891, 1885, 1887, 1886, 1890, 1895, 1888, 1895, 1892, 1894, 1885, 1884, 1886, 1890, 1887, 1895, 1893, 1895, 1887, 1891, 1891, 1890, 1892, 1892, 1885, 1887, 1892, 1892, 1891, 1889, 1894, 1890, 1890, 1891, 1889, 1893, 1891, 1890, 1897, 1888, 1887, 1892, 1889, 1892, 1899, 1886, 1889, 1885, 1884, 1885, 1890, 1893, 1893, 1891, 1895, 1892, 1897, 1884, 1880, 1891, 1894, 1889, 1888, 1891, 1890, 1885, 1883, 1892, 1892, 1894, 1884, 1882, 1892, 1887, 1892, 1896, 1886, 1889, 1893, 1895, 1896, 1892, 1893, 1887, 1888, 1893, 1890, 1887, 1889, 1884, 1894, 1893, 1895, 1889, 1890, 1892, 1886, 1896, 1887, 1885, 1892, 1890, 1888, 1893, 1889, 1885, 1889, 1887, 1890, 1888, 1896, 1884, 1891, 1887, 1887, 1894, 1891, 1894, 1892, 1889, 1891, 1891, 1888, 1891, 1892, 1887, 1890, 1893, 1893, 1887, 1885, 1896, 1888, 1889, 1891, 1892, 1895, 1896, 1888, 1887, 1890, 1888, 1889, 1887, 1888, 1897, 1886, 1890, 1883, 1888, 1892, 1890, 1887, 1890, 1892, 1890, 1892, 1887, 1887, 1896, 1893, 1892, 1896, 1891, 1896, 1892, 1902, 1884, 1894, 1889, 1890, 1892, 1892, 1891, 1897, 1891, 1889, 1889, 1895, 1887, 1885, 1885, 1891, 1887, 1888, 1892, 1890, 1894, 1890, 1886, 1885, 1890, 1887],
      "WindowCenter": [960.0, 961.0, 960.0, 960.0, 960.0, 960.0, 960.0, 960.0, 960.0, 961.0, 960.0, 960.0, 960.0, 960.0, 960.0, 960.0, 960.0, 960.0, 960.0, 960.0, 960.0, 960.0, 960.0, 959.0, 961.0, 960.0, 960.0, 960.0, 960.0, 960.0, 960.0, 959.0, 960.0, 960.0, 959.0, 961.0, 960.0, 960.0, 960.0, 959.0, 961.0, 959.0, 959.0, 960.0, 960.0, 960.0, 959.0, 960.0, 959.0, 960.0, 960.0, 960.0, 960.0, 960.0, 960.0, 960.0, 960.0, 960.0, 959.0, 960.0, 960.0, 960.0, 959.0, 960.0, 960.0, 959.0, 959.0, 959.0, 960.0, 959.0, 960.0, 960.0, 960.0, 960.0, 959.0, 960.0, 960.0, 960.0, 960.0, 959.0, 959.0, 960.0, 960.0, 960.0, 959.0, 959.0, 960.0, 959.0, 959.0, 959.0, 960.0, 960.0, 959.0, 959.0, 960.0, 959.0, 960.0, 960.0, 959.0, 960.0, 960.0, 959.0, 959.0, 959.0, 960.0, 960.0, 960.0, 959.0, 959.0, 960.0, 959.0, 959.0, 960.0, 959.0, 959.0, 959.0, 960.0, 960.0, 961.0, 960.0, 960.0, 961.0, 959.0, 959.0, 960.0, 960.0, 960.0, 960.0, 959.0, 960.0, 961.0, 959.0, 959.0, 960.0, 960.0, 960.0, 960.0, 960.0, 960.0, 961.0, 960.0, 959.0, 960.0, 960.0, 960.0, 959.0, 960.0, 959.0, 959.0, 959.0, 960.0, 961.0, 959.0, 959.0, 960.0, 959.0, 959.0, 961.0, 960.0, 959.0, 960.0, 959.0, 959.0, 960.0, 960.0, 960.0, 959.0, 959.0, 960.0, 959.0, 961.0, 959.0, 960.0, 959.0, 960.0, 960.0, 960.0, 959.0, 960.0, 959.0, 960.0, 959.0, 959.0, 961.0, 960.0, 959.0, 960.0, 959.0, 961.0, 959.0, 959.0, 960.0, 960.0, 959.0, 959.0, 959.0, 960.0, 960.0, 959.0, 959.0],
      "WindowWidth": [2079.0, 2080.0, 2078.0, 2079.0, 2079.0, 2080.0, 2079.0, 2079.0, 2078.0, 2080.0, 2079.0, 2079.0, 2080.0, 2079.0, 2079.0, 2080.0, 2079.0, 2080.0, 2079.0, 2078.0, 2080.0, 2079.0, 2079.0, 2078.0, 2080.0, 2078.0, 2079.0, 2079.0, 2078.0, 2079.0, 2079.0, 2078.0, 2078.0, 2079.0, 2079.0, 2080.0, 2078.0, 2079.0, 2079.0, 2078.0, 2079.0, 2078.0, 2078.0, 2080.0, 2079.0, 2079.0, 2078.0, 2079.0, 2078.0, 2079.0, 2079.0, 2079.0, 2079.0, 2079.0, 2079.0, 2079.0, 2079.0, 2079.0, 2078.0, 2079.0, 2079.0, 2079.0, 2079.0, 2079.0, 2079.0, 2078.0, 2078.0, 2078.0, 2079.0, 2078.0, 2079.0, 2079.0, 2079.0, 2079.0, 2078.0, 2079.0, 2079.0, 2079.0, 2079.0, 2078.0, 2078.0, 2079.0, 2079.0, 2079.0, 2078.0, 2078.0, 2079.0, 2078.0, 2078.0, 2079.0, 2079.0, 2079.0, 2078.0, 2078.0, 2078.0, 2078.0, 2079.0, 2079.0, 2078.0, 2079.0, 2079.0, 2078.0, 2078.0, 2078.0, 2078.0, 2078.0, 2079.0, 2078.0, 2078.0, 2078.0, 2078.0, 2078.0, 2078.0, 2078.0, 2078.0, 2078.0, 2079.0, 2079.0, 2079.0, 2078.0, 2078.0, 2079.0, 2078.0, 2078.0, 2078.0, 2078.0, 2078.0, 2078.0, 2078.0, 2078.0, 2079.0, 2078.0, 2078.0, 2078.0, 2079.0, 2078.0, 2078.0, 2078.0, 2078.0, 2079.0, 2078.0, 2078.0, 2079.0, 2078.0, 2078.0, 2078.0, 2078.0, 2077.0, 2077.0, 2077.0, 2078.0, 2079.0, 2077.0, 2077.0, 2078.0, 2077.0, 2077.0, 2079.0, 2078.0, 2077.0, 2078.0, 2077.0, 2077.0, 2078.0, 2078.0, 2078.0, 2077.0, 2077.0, 2078.0, 2077.0, 2078.0, 2077.0, 2078.0, 2077.0, 2077.0, 2078.0, 2077.0, 2076.0, 2077.0, 2077.0, 2077.0, 2077.0, 2077.0, 2078.0, 2077.0, 2077.0, 2077.0, 2077.0, 2078.0, 2077.0, 2077.0, 2077.0, 2078.0, 2077.0, 2077.0, 2077.0, 2077.0, 2077.0, 2077.0, 2077.0]
    },
    "slices": {}
  }
}