{
  "AcquisitionMatrixPE": 80,
  "AcquisitionNumber": 1,
  "AcquisitionTime": "10:07:58.487500",
  "BandwidthPerPixelPhaseEncode": 25,
  "BaseResolution": 80,
  "BodyPartExamined": "BRAIN",
  "CoilCombinationMethod": "Sum of Squares",
  "ConsistencyInfo": "N4_VE11C_LATEST_20160120",
  "ConversionSoftware": "dcm2niix",
  "ConversionSoftwareVersion": "v1.0.20220720",
  "DerivedVendorReportedEchoSpacing": 0.0005,
  "DeviceSerialNumber": "66112",
  "DwellTime": 2.7e-06,
  "EchoTime": 0.03,
  "EchoTrainLength": 80,
  "EffectiveEchoSpacing": 0.0005,
  "FlipAngle": 77,
  "HeudiconvVersion": "0.13.1",
  "ImageOrientationPatientDICOM": [0.999943, 0.00802995, 0.00706538, -0.00977363, 0.954318, 0.298632],
  "ImageOrientationText": "Tra>Cor(17.4)>Sag(0.2)",
  "ImageType": [
    "ORIGINAL",
    "PRIMARY",
    "M",
    "ND",
    "NORM",
    "MOSAIC"
],
  "ImagingFrequency": 123.252,
  "InPlanePhaseEncodingDirectionDICOM": "COL",
  "InstitutionAddress": "Maynard 3,Hanover,NH,US,03755",
  "InstitutionName": "Dartmouth College - PBS",
  "InstitutionalDepartmentName": "Department",
  "MRAcquisitionType": "2D",
  "MagneticFieldStrength": 3,
  "Manufacturer": "Siemens",
  "ManufacturersModelName": "Prisma",
  "MatrixCoilMode": "SENSE",
  "Modality": "MR",
  "NonlinearGradientCorrection": false,
  "PartialFourier": 1,
  "PatientPosition": "HFS",
  "PercentPhaseFOV": 100,
  "PercentSampling": 100,
  "PhaseEncodingDirection": "j-",
  "PhaseEncodingSteps": 80,
  "PhaseResolution": 1,
  "PixelBandwidth": 2315,
  "ProcedureStepDescription": "dbic^QA",
  "ProtocolName": "func-bold_acq-32ch-77flip",
  "PulseSequenceDetails": "%SiemensSeq%\\ep2d_bold",
  "ReceiveCoilActiveElements": "HEA;HEP",
  "ReceiveCoilName": "Head_32",
  "ReconMatrixPE": 80,
  "RepetitionTime": 2,
  "SAR": 0.0437029,
  "ScanOptions": "FS",
  "ScanningSequence": "EP",
  "SequenceName": "*epfid2d1_80",
  "SequenceVariant": "SK",
  "SeriesDescription": "func-bold_acq-32ch-77flip",
  "SeriesNumber": 8,
  "ShimSetting": [4146, -7686, -7507, 251, -69, -111, -48, 64],
  "SliceThickness": 3.5,
  "SliceTiming": [0.99, 0, 1.055, 0.0675, 1.1225, 0.1325, 1.1875, 0.1975, 1.255, 0.265, 1.32, 0.33, 1.385, 0.3975, 1.4525, 0.4625, 1.5175, 0.5275, 1.585, 0.595, 1.65, 0.66, 1.715, 0.725, 1.7825, 0.7925, 1.8475, 0.8575, 1.915, 0.925],
  "SoftwareVersions": "syngo MR E11",
  "SpacingBetweenSlices": 3.99,
  "StationName": "AWP66112",
  "TotalReadoutTime": 0.0395,
  "TxRefAmp": 237.661,
  "dcmmeta_affine": [
    [-2.999828338623047, -0.029320891946554184, 0.017335040494799614, 119.50721740722656],
    [-0.024089837446808815, 2.862955093383789, 1.1917484998703003, -122.38776397705078],
    [0.02119613252580166, -0.8958956003189087, 3.8078255653381348, -13.155133247375488],
    [0.0, 0.0, 0.0, 1.0]
],
  "dcmmeta_reorient_transform": [
    [0.0, -1.0, 0.0, 79.0],
    [1.0, 0.0, 0.0, 0.0],
    [0.0, 0.0, 1.0, 0.0],
    [0.0, 0.0, 0.0, 1.0]
],
  "dcmmeta_shape": [80, 80, 30, 200],
  "dcmmeta_slice_dim": 2,
  "dcmmeta_version": 0.6,
  "global": {
    "const": {
      "AccessionNumber": "qa",
      "AcquisitionMatrix": [80, 0, 0, 80],
      "AngioFlag": "N",
      "BitsAllocated": 16,
      "BitsStored": 12,
      "BodyPartExamined": "BRAIN",
      "Columns": 480,
      "EchoNumbers": 1,
      "EchoTime": 30.0,
      "EchoTrainLength": 80,
      "FlipAngle": 77.0,
      "HighBit": 11,
      "ImageOrientationPatient": [0.99994279856673, 0.00802994607702, 0.0070653775935, -0.0097736307042, 0.95431833701712, 0.29863185994756],
      "ImagePositionPatient": [-711.29236424887, -681.19464833401, -267.34922630056],
      "ImageType": [
        "ORIGINAL",
        "PRIMARY",
        "M",
        "ND",
        "NORM",
        "MOSAIC"
],
      "ImagedNucleus": "1H",
      "ImagingFrequency": 123.252438,
      "InPlanePhaseEncodingDirection": "COL",
      "MRAcquisitionType": "2D",
      "MagneticFieldStrength": 3.0,
      "Manufacturer": "SIEMENS",
      "ManufacturerModelName": "Prisma",
      "Modality": "MR",
      "NumberOfAverages": 1.0,
      "NumberOfPhaseEncodingSteps": 80,
      "PercentPhaseFieldOfView": 100.0,
      "PercentSampling": 100.0,
      "PerformedProcedureStepStartTime": "095028.483000",
      "PhotometricInterpretation": "MONOCHROME2",
      "PixelBandwidth": 2315.0,
      "PixelRepresentation": 0,
      "PixelSpacing": [3.0, 3.0],
      "ProtocolName": "func-bold_acq-32ch-77flip",
      "RepetitionTime": 2000.0,
      "Rows": 480,
      "SAR": 0.04370285498092,
      "SamplesPerPixel": 1,
      "ScanOptions": "FS",
      "ScanningSequence": "EP",
      "SequenceName": "*epfid2d1_80",
      "SequenceVariant": "SK",
      "SeriesDescription": "func-bold_acq-32ch-77flip",
      "SeriesNumber": 8,
      "SeriesTime": "100856.561000",
      "SliceLocation": -48.590532683168,
      "SliceThickness": 3.5,
      "SmallestImagePixelValue": 0,
      "SoftwareVersions": "syngo MR E11",
      "SpacingBetweenSlices": 3.9900000564581,
      "SpecificCharacterSet": "ISO_IR 100",
      "StudyID": "109",
      "StudyTime": "095028.374000",
      "TransmitCoilName": "Body",
      "VariableFlipAngleFlag": "N",
      "WindowCenterWidthExplanation": "Algo1",
      "dBdt": 0.0},
    "slices": {}
  },
  "time": {
    "samples": {
      "AcquisitionNumber": [1, 2, 3, 4, 5, 6, 7, 8, 9, 10, 11, 12, 13, 14, 15, 16, 17, 18, 19, 20, 21, 22, 23, 24, 25, 26, 27, 28, 29, 30, 31, 32, 33, 34, 35, 36, 37, 38, 39, 40, 41, 42, 43, 44, 45, 46, 47, 48, 49, 50, 51, 52, 53, 54, 55, 56, 57, 58, 59, 60, 61, 62, 63, 64, 65, 66, 67, 68, 69, 70, 71, 72, 73, 74, 75, 76, 77, 78, 79, 80, 81, 82, 83, 84, 85, 86, 87, 88, 89, 90, 91, 92, 93, 94, 95, 96, 97, 98, 99, 100, 101, 102, 103, 104, 105, 106, 107, 108, 109, 110, 111, 112, 113, 114, 115, 116, 117, 118, 119, 120, 121, 122, 123, 124, 125, 126, 127, 128, 129, 130, 131, 132, 133, 134, 135, 136, 137, 138, 139, 140, 141, 142, 143, 144, 145, 146, 147, 148, 149, 150, 151, 152, 153, 154, 155, 156, 157, 158, 159, 160, 161, 162, 163, 164, 165, 166, 167, 168, 169, 170, 171, 172, 173, 174, 175, 176, 177, 178, 179, 180, 181, 182, 183, 184, 185, 186, 187, 188, 189, 190, 191, 192, 193, 194, 195, 196, 197, 198, 199, 200],
      "AcquisitionTime": ["100758.487500", "100800.487500", "100802.487500", "100804.487500", "100806.487500", "100808.487500", "100810.487500", "100812.487500", "100814.487500", "100816.487500", "100818.487500", "100820.487500", "100822.487500", "100824.487500", "100826.487500", "100828.487500", "100830.487500", "100832.487500", "100834.487500", "100836.487500", "100838.487500", "100840.487500", "100842.487500", "100844.487500", "100846.487500", "100848.487500", "100850.487500", "100852.487500", "100854.487500", "100856.487500", "100858.487500", "100900.487500", "100902.487500", "100904.487500", "100906.487500", "100908.487500", "100910.487500", "100912.487500", "100914.487500", "100916.487500", "100918.487500", "100920.487500", "100922.487500", "100924.487500", "100926.487500", "100928.487500", "100930.487500", "100932.487500", "100934.487500", "100936.487500", "100938.487500", "100940.487500", "100942.487500", "100944.487500", "100946.487500", "100948.487500", "100950.487500", "100952.487500", "100954.487500", "100956.487500", "100958.487500", "101000.487500", "101002.487500", "101004.487500", "101006.487500", "101008.487500", "101010.487500", "101012.487500", "101014.487500", "101016.487500", "101018.487500", "101020.487500", "101022.487500", "101024.487500", "101026.487500", "101028.487500", "101030.487500", "101032.487500", "101034.487500", "101036.487500", "101038.487500", "101040.487500", "101042.487500", "101044.487500", "101046.487500", "101048.487500", "101050.487500", "101052.487500", "101054.487500", "101056.487500", "101058.487500", "101100.487500", "101102.487500", "101104.487500", "101106.487500", "101108.487500", "101110.487500", "101112.487500", "101114.487500", "101116.487500", "101118.487500", "101120.487500", "101122.487500", "101124.487500", "101126.487500", "101128.487500", "101130.487500", "101132.487500", "101134.487500", "101136.487500", "101138.487500", "101140.487500", "101142.487500", "101144.487500", "101146.487500", "101148.487500", "101150.487500", "101152.487500", "101154.487500", "101156.487500", "101158.487500", "101200.487500", "101202.487500", "101204.487500", "101206.487500", "101208.487500", "101210.487500", "101212.487500", "101214.487500", "101216.487500", "101218.487500", "101220.487500", "101222.487500", "101224.487500", "101226.487500", "101228.487500", "101230.487500", "101232.487500", "101234.487500", "101236.487500", "101238.487500", "101240.487500", "101242.487500", "101244.487500", "101246.487500", "101248.487500", "101250.487500", "101252.487500", "101254.487500", "101256.487500", "101258.487500", "101300.487500", "101302.487500", "101304.487500", "101306.487500", "101308.487500", "101310.487500", "101312.487500", "101314.487500", "101316.487500", "101318.487500", "101320.487500", "101322.487500", "101324.487500", "101326.487500", "101328.487500", "101330.487500", "101332.487500", "101334.487500", "101336.487500", "101338.487500", "101340.487500", "101342.487500", "101344.487500", "101346.487500", "101348.487500", "101350.487500", "101352.487500", "101354.487500", "101356.487500", "101358.487500", "101400.487500", "101402.487500", "101404.487500", "101406.487500", "101408.487500", "101410.487500", "101412.487500", "101414.487500", "101416.487500", "101418.487500", "101420.487500", "101422.487500", "101424.487500", "101426.487500", "101428.487500", "101430.487500", "101432.487500", "101434.487500", "101436.487500"],
      "ContentTime": ["100856.564000", "100856.568000", "100856.571000", "100856.573000", "100856.576000", "100856.578000", "100856.581000", "100856.584000", "100856.586000", "100856.589000", "100856.591000", "100856.594000", "100856.597000", "100856.599000", "100856.602000", "100856.605000", "100856.607000", "100856.610000", "100856.612000", "100856.615000", "100856.617000", "100856.620000", "100856.623000", "100856.625000", "100856.628000", "100856.630000", "100856.633000", "100856.635000", "100856.646000", "100936.558000", "100936.561000", "100936.564000", "100936.566000", "100936.569000", "100936.572000", "100936.574000", "100936.577000", "100936.579000", "100936.582000", "100936.584000", "100936.587000", "100936.590000", "100936.592000", "100936.595000", "100936.597000", "100936.600000", "100936.602000", "100936.605000", "100936.607000", "101016.559000", "101016.562000", "101016.565000", "101016.568000", "101016.570000", "101016.573000", "101016.575000", "101016.578000", "101016.581000", "101016.584000", "101016.586000", "101016.589000", "101016.592000", "101016.594000", "101016.597000", "101016.599000", "101016.602000", "101016.605000", "101016.607000", "101016.610000", "101056.560000", "101056.562000", "101056.565000", "101056.568000", "101056.571000", "101056.574000", "101056.576000", "101056.579000", "101056.582000", "101056.584000", "101056.587000", "101056.589000", "101056.592000", "101056.595000", "101056.597000", "101056.600000", "101056.602000", "101056.605000", "101056.608000", "101056.610000", "101136.558000", "101136.561000", "101136.564000", "101136.567000", "101136.569000", "101136.572000", "101136.574000", "101136.577000", "101136.580000", "101136.582000", "101136.585000", "101136.588000", "101136.590000", "101136.593000", "101136.595000", "101136.598000", "101136.600000", "101136.603000", "101136.605000", "101136.608000", "101216.558000", "101216.561000", "101216.564000", "101216.567000", "101216.569000", "101216.572000", "101216.575000", "101216.577000", "101216.580000", "101216.582000", "101216.585000", "101216.587000", "101216.590000", "101216.593000", "101216.595000", "101216.598000", "101216.601000", "101216.603000", "101216.606000", "101216.608000", "101256.559000", "101256.562000", "101256.565000", "101256.568000", "101256.570000", "101256.573000", "101256.576000", "101256.578000", "101256.581000", "101256.583000", "101256.586000", "101256.589000", "101256.591000", "101256.594000", "101256.597000", "101256.599000", "101256.602000", "101256.604000", "101256.607000", "101256.610000", "101336.560000", "101336.563000", "101336.565000", "101336.568000", "101336.571000", "101336.573000", "101336.576000", "101336.578000", "101336.581000", "101336.584000", "101336.586000", "101336.589000", "101336.591000", "101336.594000", "101336.596000", "101336.599000", "101336.602000", "101336.604000", "101336.607000", "101336.609000", "101416.559000", "101416.561000", "101416.564000", "101416.567000", "101416.569000", "101416.572000", "101416.574000", "101416.577000", "101416.579000", "101416.582000", "101416.585000", "101416.587000", "101416.590000", "101416.596000", "101416.606000", "101416.609000", "101416.612000", "101416.614000", "101416.617000", "101416.619000", "101438.359000", "101438.362000", "101438.373000", "101438.375000", "101438.378000", "101438.381000", "101438.384000", "101438.386000", "101438.389000", "101438.395000", "101438.400000"],
      "InstanceCreationTime": ["100856.564000", "100856.568000", "100856.571000", "100856.573000", "100856.576000", "100856.578000", "100856.581000", "100856.584000", "100856.586000", "100856.589000", "100856.591000", "100856.594000", "100856.597000", "100856.599000", "100856.602000", "100856.605000", "100856.607000", "100856.610000", "100856.612000", "100856.615000", "100856.617000", "100856.620000", "100856.623000", "100856.625000", "100856.628000", "100856.630000", "100856.633000", "100856.635000", "100856.646000", "100936.558000", "100936.561000", "100936.564000", "100936.566000", "100936.569000", "100936.572000", "100936.574000", "100936.577000", "100936.579000", "100936.582000", "100936.584000", "100936.587000", "100936.590000", "100936.592000", "100936.595000", "100936.597000", "100936.600000", "100936.602000", "100936.605000", "100936.607000", "101016.559000", "101016.562000", "101016.565000", "101016.568000", "101016.570000", "101016.573000", "101016.575000", "101016.578000", "101016.581000", "101016.584000", "101016.586000", "101016.589000", "101016.592000", "101016.594000", "101016.597000", "101016.599000", "101016.602000", "101016.605000", "101016.607000", "101016.610000", "101056.560000", "101056.562000", "101056.565000", "101056.568000", "101056.571000", "101056.574000", "101056.576000", "101056.579000", "101056.582000", "101056.584000", "101056.587000", "101056.589000", "101056.592000", "101056.595000", "101056.597000", "101056.600000", "101056.602000", "101056.605000", "101056.608000", "101056.610000", "101136.558000", "101136.561000", "101136.564000", "101136.567000", "101136.569000", "101136.572000", "101136.574000", "101136.577000", "101136.580000", "101136.582000", "101136.585000", "101136.588000", "101136.590000", "101136.593000", "101136.595000", "101136.598000", "101136.600000", "101136.603000", "101136.605000", "101136.608000", "101216.558000", "101216.561000", "101216.564000", "101216.567000", "101216.569000", "101216.572000", "101216.575000", "101216.577000", "101216.580000", "101216.582000", "101216.585000", "101216.587000", "101216.590000", "101216.593000", "101216.595000", "101216.598000", "101216.601000", "101216.603000", "101216.606000", "101216.608000", "101256.559000", "101256.562000", "101256.565000", "101256.568000", "101256.570000", "101256.573000", "101256.576000", "101256.578000", "101256.581000", "101256.583000", "101256.586000", "101256.589000", "101256.591000", "101256.594000", "101256.597000", "101256.599000", "101256.602000", "101256.604000", "101256.607000", "101256.610000", "101336.560000", "101336.563000", "101336.565000", "101336.568000", "101336.571000", "101336.573000", "101336.576000", "101336.578000", "101336.581000", "101336.584000", "101336.586000", "101336.589000", "101336.591000", "101336.594000", "101336.596000", "101336.599000", "101336.602000", "101336.604000", "101336.607000", "101336.609000", "101416.559000", "101416.561000", "101416.564000", "101416.567000", "101416.569000", "101416.572000", "101416.574000", "101416.577000", "101416.579000", "101416.582000", "101416.585000", "101416.587000", "101416.590000", "101416.596000", "101416.606000", "101416.609000", "101416.612000", "101416.614000", "101416.617000", "101416.619000", "101438.359000", "101438.362000", "101438.373000", "101438.375000", "101438.378000", "101438.381000", "101438.384000", "101438.386000", "101438.389000", "101438.395000", "101438.400000"],
      "InstanceNumber": [1, 2, 3, 4, 5, 6, 7, 8, 9, 10, 11, 12, 13, 14, 15, 16, 17, 18, 19, 20, 21, 22, 23, 24, 25, 26, 27, 28, 29, 30, 31, 32, 33, 34, 35, 36, 37, 38, 39, 40, 41, 42, 43, 44, 45, 46, 47, 48, 49, 50, 51, 52, 53, 54, 55, 56, 57, 58, 59, 60, 61, 62, 63, 64, 65, 66, 67, 68, 69, 70, 71, 72, 73, 74, 75, 76, 77, 78, 79, 80, 81, 82, 83, 84, 85, 86, 87, 88, 89, 90, 91, 92, 93, 94, 95, 96, 97, 98, 99, 100, 101, 102, 103, 104, 105, 106, 107, 108, 109, 110, 111, 112, 113, 114, 115, 116, 117, 118, 119, 120, 121, 122, 123, 124, 125, 126, 127, 128, 129, 130, 131, 132, 133, 134, 135, 136, 137, 138, 139, 140, 141, 142, 143, 144, 145, 146, 147, 148, 149, 150, 151, 152, 153, 154, 155, 156, 157, 158, 159, 160, 161, 162, 163, 164, 165, 166, 167, 168, 169, 170, 171, 172, 173, 174, 175, 176, 177, 178, 179, 180, 181, 182, 183, 184, 185, 186, 187, 188, 189, 190, 191, 192, 193, 194, 195, 196, 197, 198, 199, 200],
      "LargestImagePixelValue": [1899, 1898, 1899, 1900, 1900, 1898, 1898, 1899, 1898, 1899, 1898, 1898, 1898, 1900, 1899, 1898, 1898, 1897, 1899, 1898, 1899, 1899, 1900, 1897, 1898, 1899, 1898, 1900, 1902, 1898, 1898, 1899, 1898, 1899, 1899, 1899, 1899, 1897, 1899, 1900, 1898, 1900, 1900, 1899, 1900, 1900, 1899, 1898, 1897, 1901, 1899, 1899, 1899, 1899, 1900, 1899, 1899, 1899, 1897, 1901, 1898, 1899, 1898, 1897, 1897, 1900, 1898, 1898, 1898, 1899, 1899, 1899, 1900, 1898, 1897, 1898, 1899, 1898, 1895, 1900, 1899, 1897, 1899, 1897, 1898, 1898, 1899, 1898, 1898, 1899, 1898, 1898, 1898, 1898, 1898, 1899, 1897, 1899, 1897, 1897, 1898, 1898, 1898, 1899, 1899, 1897, 1898, 1899, 1899, 1898, 1899, 1899, 1900, 1900, 1899, 1900, 1898, 1899, 1898, 1897, 1898, 1900, 1897, 1897, 1899, 1897, 1900, 1900, 1899, 1898, 1900, 1899, 1899, 1900, 1897, 1899, 1899, 1898, 1900, 1897, 1901, 1898, 1900, 1898, 1898, 1899, 1898, 1899, 1898, 1898, 1899, 1899, 1900, 1898, 1898, 1898, 1899, 1899, 1897, 1899, 1899, 1898, 1899, 1898, 1899, 1899, 1901, 1900, 1900, 1899, 1900, 1901, 1899, 1899, 1898, 1898, 1899, 1899, 1899, 1900, 1900, 1900, 1898, 1900, 1897, 1899, 1899, 1899, 1900, 1899, 1898, 1900, 1900, 1900, 1899, 1899, 1896, 1900, 1899, 1899],
      "WindowCenter": [951.0, 950.0, 950.0, 950.0, 951.0, 950.0, 950.0, 951.0, 950.0, 950.0, 950.0, 950.0, 950.0, 951.0, 951.0, 949.0, 950.0, 951.0, 949.0, 951.0, 951.0, 950.0, 950.0, 949.0, 950.0, 949.0, 950.0, 950.0, 950.0, 950.0, 950.0, 949.0, 950.0, 950.0, 950.0, 950.0, 950.0, 949.0, 950.0, 950.0, 949.0, 950.0, 950.0, 950.0, 950.0, 949.0, 950.0, 951.0, 950.0, 950.0, 949.0, 950.0, 948.0, 950.0, 950.0, 950.0, 950.0, 950.0, 950.0, 951.0, 950.0, 949.0, 950.0, 950.0, 950.0, 951.0, 951.0, 951.0, 950.0, 951.0, 950.0, 950.0, 950.0, 949.0, 950.0, 949.0, 949.0, 950.0, 949.0, 950.0, 949.0, 949.0, 949.0, 949.0, 949.0, 949.0, 949.0, 949.0, 949.0, 949.0, 949.0, 949.0, 950.0, 949.0, 950.0, 949.0, 949.0, 948.0, 949.0, 949.0, 949.0, 948.0, 950.0, 949.0, 949.0, 949.0, 948.0, 949.0, 949.0, 949.0, 949.0, 949.0, 948.0, 950.0, 949.0, 949.0, 949.0, 948.0, 949.0, 949.0, 948.0, 948.0, 949.0, 949.0, 950.0, 949.0, 949.0, 948.0, 950.0, 948.0, 949.0, 949.0, 949.0, 949.0, 949.0, 949.0, 949.0, 949.0, 950.0, 949.0, 949.0, 949.0, 949.0, 949.0, 950.0, 948.0, 949.0, 948.0, 949.0, 949.0, 950.0, 949.0, 950.0, 950.0, 950.0, 949.0, 949.0, 949.0, 949.0, 948.0, 949.0, 949.0, 948.0, 949.0, 949.0, 950.0, 949.0, 949.0, 949.0, 948.0, 949.0, 949.0, 949.0, 949.0, 949.0, 950.0, 949.0, 948.0, 949.0, 950.0, 949.0, 950.0, 949.0, 949.0, 949.0, 950.0, 949.0, 949.0, 948.0, 949.0, 948.0, 948.0, 949.0, 949.0, 948.0, 949.0, 949.0, 949.0, 949.0, 949.0],
      "WindowWidth": [2060.0, 2060.0, 2060.0, 2060.0, 2061.0, 2060.0, 2060.0, 2061.0, 2060.0, 2060.0, 2060.0, 2060.0, 2060.0, 2061.0, 2061.0, 2059.0, 2060.0, 2060.0, 2059.0, 2061.0, 2060.0, 2060.0, 2060.0, 2059.0, 2060.0, 2059.0, 2060.0, 2060.0, 2060.0, 2060.0, 2060.0, 2059.0, 2060.0, 2060.0, 2060.0, 2060.0, 2060.0, 2059.0, 2060.0, 2060.0, 2059.0, 2060.0, 2060.0, 2060.0, 2060.0, 2059.0, 2060.0, 2060.0, 2060.0, 2060.0, 2059.0, 2060.0, 2058.0, 2060.0, 2059.0, 2060.0, 2059.0, 2060.0, 2060.0, 2060.0, 2060.0, 2059.0, 2060.0, 2060.0, 2060.0, 2060.0, 2060.0, 2060.0, 2059.0, 2060.0, 2060.0, 2059.0, 2059.0, 2058.0, 2059.0, 2058.0, 2058.0, 2059.0, 2058.0, 2059.0, 2058.0, 2058.0, 2058.0, 2058.0, 2058.0, 2058.0, 2058.0, 2058.0, 2058.0, 2058.0, 2058.0, 2058.0, 2059.0, 2058.0, 2059.0, 2058.0, 2058.0, 2058.0, 2058.0, 2058.0, 2058.0, 2057.0, 2059.0, 2058.0, 2058.0, 2058.0, 2057.0, 2058.0, 2058.0, 2058.0, 2058.0, 2058.0, 2057.0, 2059.0, 2058.0, 2058.0, 2058.0, 2057.0, 2058.0, 2058.0, 2057.0, 2057.0, 2058.0, 2058.0, 2059.0, 2058.0, 2057.0, 2057.0, 2059.0, 2057.0, 2058.0, 2058.0, 2058.0, 2058.0, 2058.0, 2058.0, 2057.0, 2057.0, 2059.0, 2057.0, 2058.0, 2057.0, 2058.0, 2057.0, 2058.0, 2057.0, 2058.0, 2057.0, 2057.0, 2058.0, 2059.0, 2057.0, 2058.0, 2058.0, 2058.0, 2057.0, 2057.0, 2057.0, 2057.0, 2057.0, 2057.0, 2057.0, 2057.0, 2057.0, 2057.0, 2058.0, 2057.0, 2057.0, 2057.0, 2057.0, 2057.0, 2057.0, 2057.0, 2057.0, 2057.0, 2058.0, 2057.0, 2057.0, 2058.0, 2058.0, 2058.0, 2058.0, 2057.0, 2057.0, 2057.0, 2058.0, 2057.0, 2057.0, 2056.0, 2057.0, 2056.0, 2058.0, 2058.0, 2058.0, 2056.0, 2058.0, 2058.0, 2058.0, 2057.0, 2057.0]
    },
    "slices": {}
  }
}