{
  "AcquisitionMatrixPE": 122,
  "AcquisitionNumber": 1,
  "AcquisitionTime": "10:18:45.455000",
  "BandwidthPerPixelPhaseEncode": 27.785,
  "BaseResolution": 122,
  "BodyPartExamined": "BRAIN",
  "CoilCombinationMethod": "Adaptive Combine",
  "ConsistencyInfo": "N4_VE11C_LATEST_20160120",
  "ConversionSoftware": "dcm2niix",
  "ConversionSoftwareVersion": "v1.0.20220720",
  "DerivedVendorReportedEchoSpacing": 0.000590011,
  "DeviceSerialNumber": "66112",
  "DiffusionScheme": "Monopolar",
  "DwellTime": 2e-06,
  "EchoTime": 0.068,
  "EchoTrainLength": 61,
  "EffectiveEchoSpacing": 0.000295005,
  "FlipAngle": 90,
  "HeudiconvVersion": "0.13.1",
  "ImageOrientationPatientDICOM": [0.999345, 0.00724426, -0.0354418, 0.00296512, 0.960043, 0.279838],
  "ImageOrientationText": "Tra>Cor(16.3)>Sag(-2.1)",
  "ImageType": [
    "ORIGINAL",
    "PRIMARY",
    "DIFFUSION",
    "NONE",
    "ND",
    "NORM"
],
  "ImagingFrequency": 123.253,
  "InPlanePhaseEncodingDirectionDICOM": "COL",
  "InstitutionAddress": "Maynard 3,Hanover,NH,US,03755",
  "InstitutionName": "Dartmouth College - PBS",
  "InstitutionalDepartmentName": "Department",
  "MRAcquisitionType": "2D",
  "MagneticFieldStrength": 3,
  "Manufacturer": "Siemens",
  "ManufacturersModelName": "Prisma",
  "Modality": "MR",
  "MultibandAccelerationFactor": 4,
  "NonlinearGradientCorrection": false,
  "ParallelReductionFactorInPlane": 2,
  "PartialFourier": 1,
  "PatientPosition": "HFS",
  "PercentPhaseFOV": 100,
  "PercentSampling": 100,
  "PhaseEncodingDirection": "j-",
  "PhaseEncodingSteps": 122,
  "PhaseResolution": 1,
  "PixelBandwidth": 2050,
  "ProcedureStepDescription": "dbic^QA",
  "ProtocolName": "dwi_acq-DTI-30-p2-s4",
  "PulseSequenceDetails": "%SiemensSeq%\\ep2d_diff",
  "ReceiveCoilActiveElements": "HEA;HEP",
  "ReceiveCoilName": "Head_32",
  "ReconMatrixPE": 122,
  "RefLinesPE": 38,
  "RepetitionTime": 3.6,
  "SAR": 0.163636,
  "ScanOptions": "FS",
  "ScanningSequence": "EP",
  "SequenceName": "*ep_b0",
  "SequenceVariant": "SK\\SP",
  "SeriesDescription": "dwi_acq-DTI-30-p2-s4",
  "SeriesNumber": 9,
  "ShimSetting": [4145, -7691, -7519, 352, -56, -201, -59, 53],
  "SliceThickness": 2,
  "SliceTiming": [2.58594, 0, 1.78906, 0.20312, 1.99219, 0.39844, 2.1875, 0.60156, 2.39062, 1, 2.78906, 1.19531, 2.98438, 1.39844, 3.1875, 1.59375, 3.38281, 0.79688, 2.58594, 0, 1.78906, 0.20312, 1.99219, 0.39844, 2.1875, 0.60156, 2.39062, 1, 2.78906, 1.19531, 2.98438, 1.39844, 3.1875, 1.59375, 3.38281, 0.79688, 2.58594, 0, 1.78906, 0.20312, 1.99219, 0.39844, 2.1875, 0.60156, 2.39062, 1, 2.78906, 1.19531, 2.98438, 1.39844, 3.1875, 1.59375, 3.38281, 0.79688, 2.58594, 0, 1.78906, 0.20312, 1.99219, 0.39844, 2.1875, 0.60156, 2.39062, 1, 2.78906, 1.19531, 2.98438, 1.39844, 3.1875, 1.59375, 3.38281, 0.79688],
  "SoftwareVersions": "syngo MR E11",
  "SpacingBetweenSlices": 2,
  "SpoilingState": true,
  "StationName": "AWP66112",
  "TotalReadoutTime": 0.0356956,
  "TxRefAmp": 229.12,
  "dcmmeta_affine": [
    [-1.9659255743026733, 0.0058330269530415535, -0.0721057653427124, 124.97335815429688],
    [-0.014251003973186016, 1.8886083364486694, 0.5595207214355469, -129.30030822753906],
    [-0.06972162425518036, -0.5505015850067139, 1.9187850952148438, -40.217533111572266],
    [0.0, 0.0, 0.0, 1.0]
],
  "dcmmeta_reorient_transform": [
    [0.0, -1.0, 0.0, 121.0],
    [1.0, 0.0, 0.0, 0.0],
    [0.0, 0.0, -1.0, 71.0],
    [0.0, 0.0, 0.0, 1.0]
],
  "dcmmeta_shape": [122, 122, 72, 31],
  "dcmmeta_slice_dim": 2,
  "dcmmeta_version": 0.6,
  "global": {
    "const": {
      "AccessionNumber": "qa",
      "AcquisitionMatrix": [122, 0, 0, 122],
      "AngioFlag": "N",
      "BitsAllocated": 16,
      "BitsStored": 12,
      "BodyPartExamined": "BRAIN",
      "Columns": 122,
      "EchoNumbers": 1,
      "EchoTime": 68.0,
      "EchoTrainLength": 61,
      "FlipAngle": 90.0,
      "HighBit": 11,
      "ImageOrientationPatient": [0.99934548467358, 0.00724426039302, -0.0354418249232, 0.00296512187719, 0.96004257282836, 0.27983828617501],
      "ImageType": [
        "ORIGINAL",
        "PRIMARY",
        "DIFFUSION",
        "NONE",
        "ND",
        "NORM"
],
      "ImagedNucleus": "1H",
      "ImagingFrequency": 123.252512,
      "InPlanePhaseEncodingDirection": "COL",
      "MRAcquisitionType": "2D",
      "MagneticFieldStrength": 3.0,
      "Manufacturer": "SIEMENS",
      "ManufacturerModelName": "Prisma",
      "Modality": "MR",
      "NumberOfAverages": 1.0,
      "NumberOfPhaseEncodingSteps": 122,
      "PercentPhaseFieldOfView": 100.0,
      "PercentSampling": 100.0,
      "PerformedProcedureStepStartTime": "095746.055000",
      "PhotometricInterpretation": "MONOCHROME2",
      "PixelBandwidth": 2050.0,
      "PixelRepresentation": 0,
      "PixelSpacing": [1.9672131538391, 1.9672131538391],
      "ProtocolName": "dwi_acq-DTI-30-p2-s4",
      "RepetitionTime": 3600.0,
      "Rows": 122,
      "SAR": 0.16363556676254,
      "SamplesPerPixel": 1,
      "ScanOptions": "FS",
      "ScanningSequence": "EP",
      "SequenceVariant": [
        "SK",
        "SP"
],
      "SeriesDescription": "dwi_acq-DTI-30-p2-s4",
      "SeriesNumber": 9,
      "SeriesTime": "101854.676000",
      "SliceThickness": 2.0,
      "SmallestImagePixelValue": 0,
      "SoftwareVersions": "syngo MR E11",
      "SpacingBetweenSlices": 2.0,
      "SpecificCharacterSet": "ISO_IR 100",
      "StudyID": "48",
      "StudyTime": "095745.943000",
      "TransmitCoilName": "Body",
      "VariableFlipAngleFlag": "N",
      "WindowCenterWidthExplanation": "Algo1",
      "dBdt": 0.0},
    "slices": {
      "AcquisitionTime": ["101845.455000", "101842.870000", "101844.660000", "101843.070000", "101844.860000", "101843.267500", "101845.057500", "101843.467500", "101845.257500", "101843.865000", "101845.655000", "101844.062500", "101845.852500", "101844.262500", "101846.052500", "101844.462500", "101846.252500", "101843.665000", "101845.455000", "101842.870000", "101844.660000", "101843.070000", "101844.860000", "101843.267500", "101845.057500", "101843.467500", "101845.257500", "101843.865000", "101845.655000", "101844.062500", "101845.852500", "101844.262500", "101846.052500", "101844.462500", "101846.252500", "101843.665000", "101845.455000", "101842.870000", "101844.660000", "101843.070000", "101844.860000", "101843.267500", "101845.057500", "101843.467500", "101845.257500", "101843.865000", "101845.655000", "101844.062500", "101845.852500", "101844.262500", "101846.052500", "101844.462500", "101846.252500", "101843.665000", "101845.455000", "101842.870000", "101844.660000", "101843.070000", "101844.860000", "101843.267500", "101845.057500", "101843.467500", "101845.257500", "101843.865000", "101845.655000", "101844.062500", "101845.852500", "101844.262500", "101846.052500", "101844.462500", "101846.252500", "101843.665000", "101849.055000", "101846.470000", "101848.260000", "101846.670000", "101848.460000", "101846.867500", "101848.657500", "101847.067500", "101848.857500", "101847.465000", "101849.255000", "101847.662500", "101849.452500", "101847.862500", "101849.652500", "101848.062500", "101849.852500", "101847.265000", "101849.055000", "101846.470000", "101848.260000", "101846.670000", "101848.460000", "101846.867500", "101848.657500", "101847.067500", "101848.857500", "101847.465000", "101849.255000", "101847.662500", "101849.452500", "101847.862500", "101849.652500", "101848.062500", "101849.852500", "101847.265000", "101849.055000", "101846.470000", "101848.260000", "101846.670000", "101848.460000", "101846.867500", "101848.657500", "101847.067500", "101848.857500", "101847.465000", "101849.255000", "101847.662500", "101849.452500", "101847.862500", "101849.652500", "101848.062500", "101849.852500", "101847.265000", "101849.055000", "101846.470000", "101848.260000", "101846.670000", "101848.460000", "101846.867500", "101848.657500", "101847.067500", "101848.857500", "101847.465000", "101849.255000", "101847.662500", "101849.452500", "101847.862500", "101849.652500", "101848.062500", "101849.852500", "101847.265000", "101852.655000", "101850.070000", "101851.860000", "101850.270000", "101852.060000", "101850.467500", "101852.257500", "101850.667500", "101852.457500", "101851.065000", "101852.855000", "101851.262500", "101853.052500", "101851.462500", "101853.252500", "101851.662500", "101853.452500", "101850.865000", "101852.655000", "101850.070000", "101851.860000", "101850.270000", "101852.060000", "101850.467500", "101852.257500", "101850.667500", "101852.457500", "101851.065000", "101852.855000", "101851.262500", "101853.052500", "101851.462500", "101853.252500", "101851.662500", "101853.452500", "101850.865000", "101852.655000", "101850.070000", "101851.860000", "101850.270000", "101852.060000", "101850.467500", "101852.257500", "101850.667500", "101852.457500", "101851.065000", "101852.855000", "101851.262500", "101853.052500", "101851.462500", "101853.252500", "101851.662500", "101853.452500", "101850.865000", "101852.655000", "101850.070000", "101851.860000", "101850.270000", "101852.060000", "101850.467500", "101852.257500", "101850.667500", "101852.457500", "101851.065000", "101852.855000", "101851.262500", "101853.052500", "101851.462500", "101853.252500", "101851.662500", "101853.452500", "101850.865000", "101856.255000", "101853.670000", "101855.460000", "101853.870000", "101855.660000", "101854.067500", "101855.857500", "101854.267500", "101856.057500", "101854.665000", "101856.455000", "101854.862500", "101856.652500", "101855.062500", "101856.852500", "101855.262500", "101857.052500", "101854.465000", "101856.255000", "101853.670000", "101855.460000", "101853.870000", "101855.660000", "101854.067500", "101855.857500", "101854.267500", "101856.057500", "101854.665000", "101856.455000", "101854.862500", "101856.652500", "101855.062500", "101856.852500", "101855.262500", "101857.052500", "101854.465000", "101856.255000", "101853.670000", "101855.460000", "101853.870000", "101855.660000", "101854.067500", "101855.857500", "101854.267500", "101856.057500", "101854.665000", "101856.455000", "101854.862500", "101856.652500", "101855.062500", "101856.852500", "101855.262500", "101857.052500", "101854.465000", "101856.255000", "101853.670000", "101855.460000", "101853.870000", "101855.660000", "101854.067500", "101855.857500", "101854.267500", "101856.057500", "101854.665000", "101856.455000", "101854.862500", "101856.652500", "101855.062500", "101856.852500", "101855.262500", "101857.052500", "101854.465000", "101859.855000", "101857.270000", "101859.060000", "101857.470000", "101859.260000", "101857.667500", "101859.457500", "101857.867500", "101859.657500", "101858.265000", "101900.055000", "101858.462500", "101900.252500", "101858.662500", "101900.452500", "101858.862500", "101900.652500", "101858.065000", "101859.855000", "101857.270000", "101859.060000", "101857.470000", "101859.260000", "101857.667500", "101859.457500", "101857.867500", "101859.657500", "101858.265000", "101900.055000", "101858.462500", "101900.252500", "101858.662500", "101900.452500", "101858.862500", "101900.652500", "101858.065000", "101859.855000", "101857.270000", "101859.060000", "101857.470000", "101859.260000", "101857.667500", "101859.457500", "101857.867500", "101859.657500", "101858.265000", "101900.055000", "101858.462500", "101900.252500", "101858.662500", "101900.452500", "101858.862500", "101900.652500", "101858.065000", "101859.855000", "101857.270000", "101859.060000", "101857.470000", "101859.260000", "101857.667500", "101859.457500", "101857.867500", "101859.657500", "101858.265000", "101900.055000", "101858.462500", "101900.252500", "101858.662500", "101900.452500", "101858.862500", "101900.652500", "101858.065000", "101903.455000", "101900.870000", "101902.660000", "101901.070000", "101902.860000", "101901.267500", "101903.057500", "101901.467500", "101903.257500", "101901.865000", "101903.655000", "101902.062500", "101903.852500", "101902.262500", "101904.052500", "101902.462500", "101904.252500", "101901.665000", "101903.455000", "101900.870000", "101902.660000", "101901.070000", "101902.860000", "101901.267500", "101903.057500", "101901.467500", "101903.257500", "101901.865000", "101903.655000", "101902.062500", "101903.852500", "101902.262500", "101904.052500", "101902.462500", "101904.252500", "101901.665000", "101903.455000", "101900.870000", "101902.660000", "101901.070000", "101902.860000", "101901.267500", "101903.057500", "101901.467500", "101903.257500", "101901.865000", "101903.655000", "101902.062500", "101903.852500", "101902.262500", "101904.052500", "101902.462500", "101904.252500", "101901.665000", "101903.455000", "101900.870000", "101902.660000", "101901.070000", "101902.860000", "101901.267500", "101903.057500", "101901.467500", "101903.257500", "101901.865000", "101903.655000", "101902.062500", "101903.852500", "101902.262500", "101904.052500", "101902.462500", "101904.252500", "101901.665000", "101907.055000", "101904.470000", "101906.260000", "101904.670000", "101906.460000", "101904.867500", "101906.657500", "101905.067500", "101906.857500", "101905.465000", "101907.255000", "101905.662500", "101907.452500", "101905.862500", "101907.652500", "101906.062500", "101907.852500", "101905.265000", "101907.055000", "101904.470000", "101906.260000", "101904.670000", "101906.460000", "101904.867500", "101906.657500", "101905.067500", "101906.857500", "101905.465000", "101907.255000", "101905.662500", "101907.452500", "101905.862500", "101907.652500", "101906.062500", "101907.852500", "101905.265000", "101907.055000", "101904.470000", "101906.260000", "101904.670000", "101906.460000", "101904.867500", "101906.657500", "101905.067500", "101906.857500", "101905.465000", "101907.255000", "101905.662500", "101907.452500", "101905.862500", "101907.652500", "101906.062500", "101907.852500", "101905.265000", "101907.055000", "101904.470000", "101906.260000", "101904.670000", "101906.460000", "101904.867500", "101906.657500", "101905.067500", "101906.857500", "101905.465000", "101907.255000", "101905.662500", "101907.452500", "101905.862500", "101907.652500", "101906.062500", "101907.852500", "101905.265000", "101910.655000", "101908.070000", "101909.860000", "101908.270000", "101910.060000", "101908.467500", "101910.257500", "101908.667500", "101910.457500", "101909.065000", "101910.855000", "101909.262500", "101911.052500", "101909.462500", "101911.252500", "101909.662500", "101911.452500", "101908.865000", "101910.655000", "101908.070000", "101909.860000", "101908.270000", "101910.060000", "101908.467500", "101910.257500", "101908.667500", "101910.457500", "101909.065000", "101910.855000", "101909.262500", "101911.052500", "101909.462500", "101911.252500", "101909.662500", "101911.452500", "101908.865000", "101910.655000", "101908.070000", "101909.860000", "101908.270000", "101910.060000", "101908.467500", "101910.257500", "101908.667500", "101910.457500", "101909.065000", "101910.855000", "101909.262500", "101911.052500", "101909.462500", "101911.252500", "101909.662500", "101911.452500", "101908.865000", "101910.655000", "101908.070000", "101909.860000", "101908.270000", "101910.060000", "101908.467500", "101910.257500", "101908.667500", "101910.457500", "101909.065000", "101910.855000", "101909.262500", "101911.052500", "101909.462500", "101911.252500", "101909.662500", "101911.452500", "101908.865000", "101914.255000", "101911.670000", "101913.460000", "101911.870000", "101913.660000", "101912.067500", "101913.857500", "101912.267500", "101914.057500", "101912.665000", "101914.455000", "101912.862500", "101914.652500", "101913.062500", "101914.852500", "101913.262500", "101915.052500", "101912.465000", "101914.255000", "101911.670000", "101913.460000", "101911.870000", "101913.660000", "101912.067500", "101913.857500", "101912.267500", "101914.057500", "101912.665000", "101914.455000", "101912.862500", "101914.652500", "101913.062500", "101914.852500", "101913.262500", "101915.052500", "101912.465000", "101914.255000", "101911.670000", "101913.460000", "101911.870000", "101913.660000", "101912.067500", "101913.857500", "101912.267500", "101914.057500", "101912.665000", "101914.455000", "101912.862500", "101914.652500", "101913.062500", "101914.852500", "101913.262500", "101915.052500", "101912.465000", "101914.255000", "101911.670000", "101913.460000", "101911.870000", "101913.660000", "101912.067500", "101913.857500", "101912.267500", "101914.057500", "101912.665000", "101914.455000", "101912.862500", "101914.652500", "101913.062500", "101914.852500", "101913.262500", "101915.052500", "101912.465000", "101917.855000", "101915.270000", "101917.060000", "101915.470000", "101917.260000", "101915.667500", "101917.457500", "101915.867500", "101917.657500", "101916.265000", "101918.055000", "101916.462500", "101918.252500", "101916.662500", "101918.452500", "101916.862500", "101918.652500", "101916.065000", "101917.855000", "101915.270000", "101917.060000", "101915.470000", "101917.260000", "101915.667500", "101917.457500", "101915.867500", "101917.657500", "101916.265000", "101918.055000", "101916.462500", "101918.252500", "101916.662500", "101918.452500", "101916.862500", "101918.652500", "101916.065000", "101917.855000", "101915.270000", "101917.060000", "101915.470000", "101917.260000", "101915.667500", "101917.457500", "101915.867500", "101917.657500", "101916.265000", "101918.055000", "101916.462500", "101918.252500", "101916.662500", "101918.452500", "101916.862500", "101918.652500", "101916.065000", "101917.855000", "101915.270000", "101917.060000", "101915.470000", "101917.260000", "101915.667500", "101917.457500", "101915.867500", "101917.657500", "101916.265000", "101918.055000", "101916.462500", "101918.252500", "101916.662500", "101918.452500", "101916.862500", "101918.652500", "101916.065000", "101921.455000", "101918.870000", "101920.660000", "101919.070000", "101920.860000", "101919.267500", "101921.057500", "101919.467500", "101921.257500", "101919.865000", "101921.655000", "101920.062500", "101921.852500", "101920.262500", "101922.052500", "101920.462500", "101922.252500", "101919.665000", "101921.455000", "101918.870000", "101920.660000", "101919.070000", "101920.860000", "101919.267500", "101921.057500", "101919.467500", "101921.257500", "101919.865000", "101921.655000", "101920.062500", "101921.852500", "101920.262500", "101922.052500", "101920.462500", "101922.252500", "101919.665000", "101921.455000", "101918.870000", "101920.660000", "101919.070000", "101920.860000", "101919.267500", "101921.057500", "101919.467500", "101921.257500", "101919.865000", "101921.655000", "101920.062500", "101921.852500", "101920.262500", "101922.052500", "101920.462500", "101922.252500", "101919.665000", "101921.455000", "101918.870000", "101920.660000", "101919.070000", "101920.860000", "101919.267500", "101921.057500", "101919.467500", "101921.257500", "101919.865000", "101921.655000", "101920.062500", "101921.852500", "101920.262500", "101922.052500", "101920.462500", "101922.252500", "101919.665000", "101925.055000", "101922.470000", "101924.260000", "101922.670000", "101924.460000", "101922.867500", "101924.657500", "101923.067500", "101924.857500", "101923.465000", "101925.255000", "101923.662500", "101925.452500", "101923.862500", "101925.652500", "101924.062500", "101925.852500", "101923.265000", "101925.055000", "101922.470000", "101924.260000", "101922.670000", "101924.460000", "101922.867500", "101924.657500", "101923.067500", "101924.857500", "101923.465000", "101925.255000", "101923.662500", "101925.452500", "101923.862500", "101925.652500", "101924.062500", "101925.852500", "101923.265000", "101925.055000", "101922.470000", "101924.260000", "101922.670000", "101924.460000", "101922.867500", "101924.657500", "101923.067500", "101924.857500", "101923.465000", "101925.255000", "101923.662500", "101925.452500", "101923.862500", "101925.652500", "101924.062500", "101925.852500", "101923.265000", "101925.055000", "101922.470000", "101924.260000", "101922.670000", "101924.460000", "101922.867500", "101924.657500", "101923.067500", "101924.857500", "101923.465000", "101925.255000", "101923.662500", "101925.452500", "101923.862500", "101925.652500", "101924.062500", "101925.852500", "101923.265000", "101928.655000", "101926.070000", "101927.860000", "101926.270000", "101928.060000", "101926.467500", "101928.257500", "101926.667500", "101928.457500", "101927.065000", "101928.855000", "101927.262500", "101929.052500", "101927.462500", "101929.252500", "101927.662500", "101929.452500", "101926.865000", "101928.655000", "101926.070000", "101927.860000", "101926.270000", "101928.060000", "101926.467500", "101928.257500", "101926.667500", "101928.457500", "101927.065000", "101928.855000", "101927.262500", "101929.052500", "101927.462500", "101929.252500", "101927.662500", "101929.452500", "101926.865000", "101928.655000", "101926.070000", "101927.860000", "101926.270000", "101928.060000", "101926.467500", "101928.257500", "101926.667500", "101928.457500", "101927.065000", "101928.855000", "101927.262500", "101929.052500", "101927.462500", "101929.252500", "101927.662500", "101929.452500", "101926.865000", "101928.655000", "101926.070000", "101927.860000", "101926.270000", "101928.060000", "101926.467500", "101928.257500", "101926.667500", "101928.457500", "101927.065000", "101928.855000", "101927.262500", "101929.052500", "101927.462500", "101929.252500", "101927.662500", "101929.452500", "101926.865000", "101932.255000", "101929.670000", "101931.460000", "101929.870000", "101931.660000", "101930.067500", "101931.857500", "101930.267500", "101932.057500", "101930.665000", "101932.455000", "101930.862500", "101932.652500", "101931.062500", "101932.852500", "101931.262500", "101933.052500", "101930.465000", "101932.255000", "101929.670000", "101931.460000", "101929.870000", "101931.660000", "101930.067500", "101931.857500", "101930.267500", "101932.057500", "101930.665000", "101932.455000", "101930.862500", "101932.652500", "101931.062500", "101932.852500", "101931.262500", "101933.052500", "101930.465000", "101932.255000", "101929.670000", "101931.460000", "101929.870000", "101931.660000", "101930.067500", "101931.857500", "101930.267500", "101932.057500", "101930.665000", "101932.455000", "101930.862500", "101932.652500", "101931.062500", "101932.852500", "101931.262500", "101933.052500", "101930.465000", "101932.255000", "101929.670000", "101931.460000", "101929.870000", "101931.660000", "101930.067500", "101931.857500", "101930.267500", "101932.057500", "101930.665000", "101932.455000", "101930.862500", "101932.652500", "101931.062500", "101932.852500", "101931.262500", "101933.052500", "101930.465000", "101935.855000", "101933.270000", "101935.060000", "101933.470000", "101935.260000", "101933.667500", "101935.457500", "101933.867500", "101935.657500", "101934.265000", "101936.055000", "101934.462500", "101936.252500", "101934.662500", "101936.452500", "101934.862500", "101936.652500", "101934.065000", "101935.855000", "101933.270000", "101935.060000", "101933.470000", "101935.260000", "101933.667500", "101935.457500", "101933.867500", "101935.657500", "101934.265000", "101936.055000", "101934.462500", "101936.252500", "101934.662500", "101936.452500", "101934.862500", "101936.652500", "101934.065000", "101935.855000", "101933.270000", "101935.060000", "101933.470000", "101935.260000", "101933.667500", "101935.457500", "101933.867500", "101935.657500", "101934.265000", "101936.055000", "101934.462500", "101936.252500", "101934.662500", "101936.452500", "101934.862500", "101936.652500", "101934.065000", "101935.855000", "101933.270000", "101935.060000", "101933.470000", "101935.260000", "101933.667500", "101935.457500", "101933.867500", "101935.657500", "101934.265000", "101936.055000", "101934.462500", "101936.252500", "101934.662500", "101936.452500", "101934.862500", "101936.652500", "101934.065000", "101939.455000", "101936.870000", "101938.660000", "101937.070000", "101938.860000", "101937.267500", "101939.057500", "101937.467500", "101939.257500", "101937.865000", "101939.655000", "101938.062500", "101939.852500", "101938.262500", "101940.052500", "101938.462500", "101940.252500", "101937.665000", "101939.455000", "101936.870000", "101938.660000", "101937.070000", "101938.860000", "101937.267500", "101939.057500", "101937.467500", "101939.257500", "101937.865000", "101939.655000", "101938.062500", "101939.852500", "101938.262500", "101940.052500", "101938.462500", "101940.252500", "101937.665000", "101939.455000", "101936.870000", "101938.660000", "101937.070000", "101938.860000", "101937.267500", "101939.057500", "101937.467500", "101939.257500", "101937.865000", "101939.655000", "101938.062500", "101939.852500", "101938.262500", "101940.052500", "101938.462500", "101940.252500", "101937.665000", "101939.455000", "101936.870000", "101938.660000", "101937.070000", "101938.860000", "101937.267500", "101939.057500", "101937.467500", "101939.257500", "101937.865000", "101939.655000", "101938.062500", "101939.852500", "101938.262500", "101940.052500", "101938.462500", "101940.252500", "101937.665000", "101943.055000", "101940.470000", "101942.260000", "101940.670000", "101942.460000", "101940.867500", "101942.657500", "101941.067500", "101942.857500", "101941.465000", "101943.255000", "101941.662500", "101943.452500", "101941.862500", "101943.652500", "101942.062500", "101943.852500", "101941.265000", "101943.055000", "101940.470000", "101942.260000", "101940.670000", "101942.460000", "101940.867500", "101942.657500", "101941.067500", "101942.857500", "101941.465000", "101943.255000", "101941.662500", "101943.452500", "101941.862500", "101943.652500", "101942.062500", "101943.852500", "101941.265000", "101943.055000", "101940.470000", "101942.260000", "101940.670000", "101942.460000", "101940.867500", "101942.657500", "101941.067500", "101942.857500", "101941.465000", "101943.255000", "101941.662500", "101943.452500", "101941.862500", "101943.652500", "101942.062500", "101943.852500", "101941.265000", "101943.055000", "101940.470000", "101942.260000", "101940.670000", "101942.460000", "101940.867500", "101942.657500", "101941.067500", "101942.857500", "101941.465000", "101943.255000", "101941.662500", "101943.452500", "101941.862500", "101943.652500", "101942.062500", "101943.852500", "101941.265000", "101946.655000", "101944.070000", "101945.860000", "101944.270000", "101946.060000", "101944.467500", "101946.257500", "101944.667500", "101946.457500", "101945.065000", "101946.855000", "101945.262500", "101947.052500", "101945.462500", "101947.252500", "101945.662500", "101947.452500", "101944.865000", "101946.655000", "101944.070000", "101945.860000", "101944.270000", "101946.060000", "101944.467500", "101946.257500", "101944.667500", "101946.457500", "101945.065000", "101946.855000", "101945.262500", "101947.052500", "101945.462500", "101947.252500", "101945.662500", "101947.452500", "101944.865000", "101946.655000", "101944.070000", "101945.860000", "101944.270000", "101946.060000", "101944.467500", "101946.257500", "101944.667500", "101946.457500", "101945.065000", "101946.855000", "101945.262500", "101947.052500", "101945.462500", "101947.252500", "101945.662500", "101947.452500", "101944.865000", "101946.655000", "101944.070000", "101945.860000", "101944.270000", "101946.060000", "101944.467500", "101946.257500", "101944.667500", "101946.457500", "101945.065000", "101946.855000", "101945.262500", "101947.052500", "101945.462500", "101947.252500", "101945.662500", "101947.452500", "101944.865000", "101950.255000", "101947.670000", "101949.460000", "101947.870000", "101949.660000", "101948.067500", "101949.857500", "101948.267500", "101950.057500", "101948.665000", "101950.455000", "101948.862500", "101950.652500", "101949.062500", "101950.852500", "101949.262500", "101951.052500", "101948.465000", "101950.255000", "101947.670000", "101949.460000", "101947.870000", "101949.660000", "101948.067500", "101949.857500", "101948.267500", "101950.057500", "101948.665000", "101950.455000", "101948.862500", "101950.652500", "101949.062500", "101950.852500", "101949.262500", "101951.052500", "101948.465000", "101950.255000", "101947.670000", "101949.460000", "101947.870000", "101949.660000", "101948.067500", "101949.857500", "101948.267500", "101950.057500", "101948.665000", "101950.455000", "101948.862500", "101950.652500", "101949.062500", "101950.852500", "101949.262500", "101951.052500", "101948.465000", "101950.255000", "101947.670000", "101949.460000", "101947.870000", "101949.660000", "101948.067500", "101949.857500", "101948.267500", "101950.057500", "101948.665000", "101950.455000", "101948.862500", "101950.652500", "101949.062500", "101950.852500", "101949.262500", "101951.052500", "101948.465000", "101953.855000", "101951.270000", "101953.060000", "101951.470000", "101953.260000", "101951.667500", "101953.457500", "101951.867500", "101953.657500", "101952.265000", "101954.055000", "101952.462500", "101954.252500", "101952.662500", "101954.452500", "101952.862500", "101954.652500", "101952.065000", "101953.855000", "101951.270000", "101953.060000", "101951.470000", "101953.260000", "101951.667500", "101953.457500", "101951.867500", "101953.657500", "101952.265000", "101954.055000", "101952.462500", "101954.252500", "101952.662500", "101954.452500", "101952.862500", "101954.652500", "101952.065000", "101953.855000", "101951.270000", "101953.060000", "101951.470000", "101953.260000", "101951.667500", "101953.457500", "101951.867500", "101953.657500", "101952.265000", "101954.055000", "101952.462500", "101954.252500", "101952.662500", "101954.452500", "101952.862500", "101954.652500", "101952.065000", "101953.855000", "101951.270000", "101953.060000", "101951.470000", "101953.260000", "101951.667500", "101953.457500", "101951.867500", "101953.657500", "101952.265000", "101954.055000", "101952.462500", "1019