{
  "AcquisitionMatrixPE": 80,
  "AcquisitionNumber": 1,
  "AcquisitionTime": "09:27:12.455000",
  "BandwidthPerPixelPhaseEncode": 25,
  "BaseResolution": 80,
  "BodyPartExamined": "BRAIN",
  "CoilCombinationMethod": "Sum of Squares",
  "ConsistencyInfo": "N4_VE11E_LATEST_20181129",
  "ConversionSoftware": "dcm2niix",
  "ConversionSoftwareVersion": "v1.0.20220720",
  "DerivedVendorReportedEchoSpacing": 0.0005,
  "DeviceSerialNumber": "66112",
  "DwellTime": 2.7e-06,
  "EchoTime": 0.03,
  "EchoTrainLength": 80,
  "EffectiveEchoSpacing": 0.0005,
  "FlipAngle": 77,
  "HeudiconvVersion": "0.13.1",
  "ImageOrientationPatientDICOM": [0.993638, -0.11142, -0.0164193, 0.111454, 0.951867, 0.285528],
  "ImageOrientationText": "Tra>Cor(16.6)>Sag(0.9)",
  "ImageType": [
    "ORIGINAL",
    "PRIMARY",
    "M",
    "ND",
    "NORM",
    "MOSAIC"
],
  "ImagingFrequency": 123.259,
  "InPlanePhaseEncodingDirectionDICOM": "COL",
  "InstitutionAddress": "Maynard 3,Hanover,NH,US,03755",
  "InstitutionName": "Dartmouth College - PBS",
  "InstitutionalDepartmentName": "Department",
  "MRAcquisitionType": "2D",
  "MagneticFieldStrength": 3,
  "Manufacturer": "Siemens",
  "ManufacturersModelName": "Prisma",
  "MatrixCoilMode": "SENSE",
  "Modality": "MR",
  "NonlinearGradientCorrection": false,
  "PartialFourier": 1,
  "PatientPosition": "HFS",
  "PercentPhaseFOV": 100,
  "PercentSampling": 100,
  "PhaseEncodingDirection": "j-",
  "PhaseEncodingSteps": 80,
  "PhaseResolution": 1,
  "PixelBandwidth": 2315,
  "ProcedureStepDescription": "dbic^QA",
  "ProtocolName": "func-bold_fa-77",
  "PulseSequenceDetails": "%SiemensSeq%\\ep2d_bold",
  "ReceiveCoilActiveElements": "HC1-7;NC1,2",
  "ReceiveCoilName": "HeadNeck_64",
  "ReconMatrixPE": 80,
  "RepetitionTime": 2,
  "SAR": 0.0280845,
  "ScanOptions": "FS",
  "ScanningSequence": "EP",
  "SequenceName": "*epfid2d1_80",
  "SequenceVariant": "SK",
  "SeriesDescription": "func-bold_fa-77",
  "SeriesNumber": 7,
  "ShimSetting": [4220, -7730, -7488, -151, -169, -238, -46, 95],
  "SliceThickness": 3.5,
  "SliceTiming": [0.99, 0, 1.055, 0.065, 1.12, 0.1325, 1.1875, 0.1975, 1.2525, 0.2625, 1.32, 0.33, 1.385, 0.395, 1.45, 0.4625, 1.5175, 0.5275, 1.5825, 0.5925, 1.65, 0.66, 1.715, 0.725, 1.78, 0.79, 1.8475, 0.8575, 1.9125, 0.9225],
  "SoftwareVersions": "syngo MR E11",
  "SpacingBetweenSlices": 3.99,
  "StationName": "AWP66112",
  "TotalReadoutTime": 0.0395,
  "TxRefAmp": 213.822,
  "dcmmeta_affine": [
    [-2.9809131622314453, 0.33436310291290283, 0.06457652896642685, 106.4731216430664],
    [0.33426010608673096, 2.855602264404297, 1.1393104791641235, -134.21151733398438],
    [-0.04925777390599251, -0.8565843105316162, 3.823336124420166, -33.082130432128906],
    [0.0, 0.0, 0.0, 1.0]
],
  "dcmmeta_reorient_transform": [
    [0.0, -1.0, 0.0, 79.0],
    [1.0, 0.0, 0.0, 0.0],
    [0.0, 0.0, 1.0, 0.0],
    [0.0, 0.0, 0.0, 1.0]
],
  "dcmmeta_shape": [80, 80, 30, 200],
  "dcmmeta_slice_dim": 2,
  "dcmmeta_version": 0.6,
  "global": {
    "const": {
      "AccessionNumber": "qa64",
      "AcquisitionMatrix": [80, 0, 0, 80],
      "AngioFlag": "N",
      "BitsAllocated": 16,
      "BitsStored": 12,
      "BodyPartExamined": "BRAIN",
      "Columns": 480,
      "EchoNumbers": 1,
      "EchoTime": 30.0,
      "EchoTrainLength": 80,
      "FlipAngle": 77.0,
      "HighBit": 11,
      "ImageOrientationPatient": [0.99363775265328, -0.1114200361891, -0.0164192581367, 0.11145436470207, 0.951867442125, 0.2855281023144],
      "ImagePositionPatient": [-795.94307523924, -595.6495151245, -262.21759632358],
      "ImageType": [
        "ORIGINAL",
        "PRIMARY",
        "M",
        "ND",
        "NORM",
        "MOSAIC"
],
      "ImagedNucleus": "1H",
      "ImagingFrequency": 123.259235,
      "InPlanePhaseEncodingDirection": "COL",
      "MRAcquisitionType": "2D",
      "MagneticFieldStrength": 3.0,
      "Manufacturer": "SIEMENS",
      "ManufacturerModelName": "Prisma",
      "Modality": "MR",
      "NumberOfAverages": 1.0,
      "NumberOfPhaseEncodingSteps": 80,
      "PercentPhaseFieldOfView": 100.0,
      "PercentSampling": 100.0,
      "PerformedProcedureStepStartTime": "090330.146000",
      "PhotometricInterpretation": "MONOCHROME2",
      "PixelBandwidth": 2315.0,
      "PixelRepresentation": 0,
      "PixelSpacing": [3.0, 3.0],
      "ProtocolName": "func-bold_fa-77",
      "RepetitionTime": 2000.0,
      "Rows": 480,
      "SAR": 0.02808449945242,
      "SamplesPerPixel": 1,
      "ScanOptions": "FS",
      "ScanningSequence": "EP",
      "SequenceName": "*epfid2d1_80",
      "SequenceVariant": "SK",
      "SeriesDescription": "func-bold_fa-77",
      "SeriesNumber": 7,
      "SeriesTime": "092758.211000",
      "SliceLocation": -68.300010526494,
      "SliceThickness": 3.5,
      "SmallestImagePixelValue": 0,
      "SoftwareVersions": "syngo MR E11",
      "SpacingBetweenSlices": 3.9899998290621,
      "SpecificCharacterSet": "ISO_IR 100",
      "StudyID": "21",
      "StudyTime": "090330.068000",
      "TransmitCoilName": "Body",
      "VariableFlipAngleFlag": "N",
      "WindowCenterWidthExplanation": "Algo1"
    },
    "slices": {}
  },
  "time": {
    "samples": {
      "AcquisitionNumber": [1, 2, 3, 4, 5, 6, 7, 8, 9, 10, 11, 12, 13, 14, 15, 16, 17, 18, 19, 20, 21, 22, 23, 24, 25, 26, 27, 28, 29, 30, 31, 32, 33, 34, 35, 36, 37, 38, 39, 40, 41, 42, 43, 44, 45, 46, 47, 48, 49, 50, 51, 52, 53, 54, 55, 56, 57, 58, 59, 60, 61, 62, 63, 64, 65, 66, 67, 68, 69, 70, 71, 72, 73, 74, 75, 76, 77, 78, 79, 80, 81, 82, 83, 84, 85, 86, 87, 88, 89, 90, 91, 92, 93, 94, 95, 96, 97, 98, 99, 100, 101, 102, 103, 104, 105, 106, 107, 108, 109, 110, 111, 112, 113, 114, 115, 116, 117, 118, 119, 120, 121, 122, 123, 124, 125, 126, 127, 128, 129, 130, 131, 132, 133, 134, 135, 136, 137, 138, 139, 140, 141, 142, 143, 144, 145, 146, 147, 148, 149, 150, 151, 152, 153, 154, 155, 156, 157, 158, 159, 160, 161, 162, 163, 164, 165, 166, 167, 168, 169, 170, 171, 172, 173, 174, 175, 176, 177, 178, 179, 180, 181, 182, 183, 184, 185, 186, 187, 188, 189, 190, 191, 192, 193, 194, 195, 196, 197, 198, 199, 200],
      "AcquisitionTime": ["092712.455000", "092714.455000", "092716.455000", "092718.455000", "092720.455000", "092722.455000", "092724.455000", "092726.455000", "092728.455000", "092730.455000", "092732.455000", "092734.455000", "092736.455000", "092738.455000", "092740.455000", "092742.455000", "092744.455000", "092746.455000", "092748.455000", "092750.455000", "092752.455000", "092754.455000", "092756.455000", "092758.455000", "092800.455000", "092802.455000", "092804.455000", "092806.455000", "092808.455000", "092810.455000", "092812.455000", "092814.455000", "092816.455000", "092818.455000", "092820.455000", "092822.455000", "092824.455000", "092826.455000", "092828.455000", "092830.455000", "092832.455000", "092834.455000", "092836.455000", "092838.455000", "092840.455000", "092842.455000", "092844.455000", "092846.455000", "092848.455000", "092850.455000", "092852.455000", "092854.455000", "092856.455000", "092858.455000", "092900.455000", "092902.455000", "092904.455000", "092906.455000", "092908.455000", "092910.455000", "092912.455000", "092914.455000", "092916.455000", "092918.455000", "092920.455000", "092922.455000", "092924.455000", "092926.455000", "092928.455000", "092930.455000", "092932.455000", "092934.455000", "092936.455000", "092938.455000", "092940.455000", "092942.455000", "092944.455000", "092946.455000", "092948.455000", "092950.455000", "092952.455000", "092954.455000", "092956.455000", "092958.455000", "093000.455000", "093002.455000", "093004.455000", "093006.455000", "093008.455000", "093010.455000", "093012.455000", "093014.455000", "093016.455000", "093018.455000", "093020.455000", "093022.455000", "093024.455000", "093026.455000", "093028.455000", "093030.455000", "093032.455000", "093034.455000", "093036.455000", "093038.455000", "093040.455000", "093042.455000", "093044.455000", "093046.455000", "093048.455000", "093050.455000", "093052.455000", "093054.455000", "093056.455000", "093058.455000", "093100.455000", "093102.455000", "093104.455000", "093106.455000", "093108.455000", "093110.455000", "093112.455000", "093114.455000", "093116.455000", "093118.455000", "093120.455000", "093122.455000", "093124.455000", "093126.455000", "093128.455000", "093130.455000", "093132.455000", "093134.455000", "093136.455000", "093138.455000", "093140.455000", "093142.455000", "093144.455000", "093146.455000", "093148.455000", "093150.455000", "093152.455000", "093154.455000", "093156.455000", "093158.455000", "093200.455000", "093202.455000", "093204.455000", "093206.455000", "093208.455000", "093210.455000", "093212.455000", "093214.455000", "093216.455000", "093218.455000", "093220.455000", "093222.455000", "093224.455000", "093226.455000", "093228.455000", "093230.455000", "093232.455000", "093234.455000", "093236.455000", "093238.455000", "093240.455000", "093242.455000", "093244.455000", "093246.455000", "093248.455000", "093250.455000", "093252.455000", "093254.455000", "093256.455000", "093258.455000", "093300.455000", "093302.455000", "093304.455000", "093306.455000", "093308.455000", "093310.455000", "093312.455000", "093314.455000", "093316.455000", "093318.455000", "093320.455000", "093322.455000", "093324.455000", "093326.455000", "093328.455000", "093330.455000", "093332.455000", "093334.455000", "093336.455000", "093338.455000", "093340.455000", "093342.455000", "093344.455000", "093346.455000", "093348.455000", "093350.455000"],
      "ContentTime": ["092758.214000", "092758.217000", "092758.220000", "092758.222000", "092758.224000", "092758.227000", "092758.229000", "092758.231000", "092758.234000", "092758.236000", "092758.238000", "092758.241000", "092758.243000", "092758.251000", "092758.253000", "092758.256000", "092758.258000", "092758.260000", "092758.263000", "092758.265000", "092758.267000", "092758.270000", "092758.272000", "092818.208000", "092818.211000", "092818.213000", "092818.216000", "092818.222000", "092818.224000", "092818.227000", "092818.229000", "092818.231000", "092818.234000", "092858.208000", "092858.211000", "092858.213000", "092858.215000", "092858.218000", "092858.220000", "092858.222000", "092858.225000", "092858.227000", "092858.229000", "092858.232000", "092858.234000", "092858.236000", "092858.239000", "092858.241000", "092858.243000", "092858.246000", "092858.248000", "092858.250000", "092858.253000", "092938.209000", "092938.212000", "092938.214000", "092938.216000", "092938.219000", "092938.221000", "092938.223000", "092938.233000", "092938.235000", "092938.237000", "092938.240000", "092938.242000", "092938.244000", "092938.247000", "092938.249000", "092938.251000", "092938.254000", "092938.256000", "092938.258000", "092938.261000", "093018.209000", "093018.212000", "093018.214000", "093018.217000", "093018.219000", "093018.221000", "093018.223000", "093018.226000", "093018.228000", "093018.231000", "093018.233000", "093018.235000", "093018.238000", "093018.240000", "093018.242000", "093018.245000", "093018.247000", "093018.249000", "093018.252000", "093018.254000", "093058.208000", "093058.211000", "093058.213000", "093058.215000", "093058.218000", "093058.220000", "093058.223000", "093058.225000", "093058.227000", "093058.230000", "093058.232000", "093058.234000", "093058.237000", "093058.239000", "093058.241000", "093058.244000", "093058.246000", "093058.248000", "093058.251000", "093058.253000", "093138.209000", "093138.212000", "093138.214000", "093138.217000", "093138.219000", "093138.221000", "093138.224000", "093138.226000", "093138.229000", "093138.231000", "093138.233000", "093138.236000", "093138.238000", "093138.240000", "093138.243000", "093138.245000", "093138.247000", "093138.250000", "093138.252000", "093138.254000", "093218.209000", "093218.212000", "093218.214000", "093218.217000", "093218.219000", "093218.221000", "093218.224000", "093218.226000", "093218.228000", "093218.231000", "093218.233000", "093218.235000", "093218.238000", "093218.240000", "093218.242000", "093218.245000", "093218.247000", "093218.249000", "093218.252000", "093218.254000", "093258.208000", "093258.211000", "093258.213000", "093258.216000", "093258.218000", "093258.220000", "093258.223000", "093258.225000", "093258.227000", "093258.230000", "093258.232000", "093258.235000", "093258.237000", "093258.239000", "093258.241000", "093258.244000", "093258.246000", "093258.249000", "093258.251000", "093258.253000", "093338.208000", "093338.211000", "093338.213000", "093338.215000", "093338.218000", "093338.220000", "093338.222000", "093338.225000", "093338.227000", "093338.230000", "093338.232000", "093338.234000", "093338.237000", "093338.239000", "093338.241000", "093338.244000", "093338.246000", "093338.248000", "093338.251000", "093338.253000", "093352.133000", "093352.135000", "093352.138000", "093352.140000", "093352.143000", "093352.145000", "093352.147000"],
      "InstanceCreationTime": ["092758.214000", "092758.217000", "092758.220000", "092758.222000", "092758.224000", "092758.227000", "092758.229000", "092758.231000", "092758.234000", "092758.236000", "092758.238000", "092758.241000", "092758.243000", "092758.251000", "092758.253000", "092758.256000", "092758.258000", "092758.260000", "092758.263000", "092758.265000", "092758.267000", "092758.270000", "092758.272000", "092818.208000", "092818.211000", "092818.213000", "092818.216000", "092818.222000", "092818.224000", "092818.227000", "092818.229000", "092818.231000", "092818.234000", "092858.208000", "092858.211000", "092858.213000", "092858.215000", "092858.218000", "092858.220000", "092858.222000", "092858.225000", "092858.227000", "092858.229000", "092858.232000", "092858.234000", "092858.236000", "092858.239000", "092858.241000", "092858.243000", "092858.246000", "092858.248000", "092858.250000", "092858.253000", "092938.209000", "092938.212000", "092938.214000", "092938.216000", "092938.219000", "092938.221000", "092938.223000", "092938.233000", "092938.235000", "092938.237000", "092938.240000", "092938.242000", "092938.244000", "092938.247000", "092938.249000", "092938.251000", "092938.254000", "092938.256000", "092938.258000", "092938.261000", "093018.209000", "093018.212000", "093018.214000", "093018.217000", "093018.219000", "093018.221000", "093018.223000", "093018.226000", "093018.228000", "093018.231000", "093018.233000", "093018.235000", "093018.238000", "093018.240000", "093018.242000", "093018.245000", "093018.247000", "093018.249000", "093018.252000", "093018.254000", "093058.208000", "093058.211000", "093058.213000", "093058.215000", "093058.218000", "093058.220000", "093058.223000", "093058.225000", "093058.227000", "093058.230000", "093058.232000", "093058.234000", "093058.237000", "093058.239000", "093058.241000", "093058.244000", "093058.246000", "093058.248000", "093058.251000", "093058.253000", "093138.209000", "093138.212000", "093138.214000", "093138.217000", "093138.219000", "093138.221000", "093138.224000", "093138.226000", "093138.229000", "093138.231000", "093138.233000", "093138.236000", "093138.238000", "093138.240000", "093138.243000", "093138.245000", "093138.247000", "093138.250000", "093138.252000", "093138.254000", "093218.209000", "093218.212000", "093218.214000", "093218.217000", "093218.219000", "093218.221000", "093218.224000", "093218.226000", "093218.228000", "093218.231000", "093218.233000", "093218.235000", "093218.238000", "093218.240000", "093218.242000", "093218.245000", "093218.247000", "093218.249000", "093218.252000", "093218.254000", "093258.208000", "093258.211000", "093258.213000", "093258.216000", "093258.218000", "093258.220000", "093258.223000", "093258.225000", "093258.227000", "093258.230000", "093258.232000", "093258.235000", "093258.237000", "093258.239000", "093258.241000", "093258.244000", "093258.246000", "093258.249000", "093258.251000", "093258.253000", "093338.208000", "093338.211000", "093338.213000", "093338.215000", "093338.218000", "093338.220000", "093338.222000", "093338.225000", "093338.227000", "093338.230000", "093338.232000", "093338.234000", "093338.237000", "093338.239000", "093338.241000", "093338.244000", "093338.246000", "093338.248000", "093338.251000", "093338.253000", "093352.133000", "093352.135000", "093352.138000", "093352.140000", "093352.143000", "093352.145000", "093352.147000"],
      "InstanceNumber": [1, 2, 3, 4, 5, 6, 7, 8, 9, 10, 11, 12, 13, 14, 15, 16, 17, 18, 19, 20, 21, 22, 23, 24, 25, 26, 27, 28, 29, 30, 31, 32, 33, 34, 35, 36, 37, 38, 39, 40, 41, 42, 43, 44, 45, 46, 47, 48, 49, 50, 51, 52, 53, 54, 55, 56, 57, 58, 59, 60, 61, 62, 63, 64, 65, 66, 67, 68, 69, 70, 71, 72, 73, 74, 75, 76, 77, 78, 79, 80, 81, 82, 83, 84, 85, 86, 87, 88, 89, 90, 91, 92, 93, 94, 95, 96, 97, 98, 99, 100, 101, 102, 103, 104, 105, 106, 107, 108, 109, 110, 111, 112, 113, 114, 115, 116, 117, 118, 119, 120, 121, 122, 123, 124, 125, 126, 127, 128, 129, 130, 131, 132, 133, 134, 135, 136, 137, 138, 139, 140, 141, 142, 143, 144, 145, 146, 147, 148, 149, 150, 151, 152, 153, 154, 155, 156, 157, 158, 159, 160, 161, 162, 163, 164, 165, 166, 167, 168, 169, 170, 171, 172, 173, 174, 175, 176, 177, 178, 179, 180, 181, 182, 183, 184, 185, 186, 187, 188, 189, 190, 191, 192, 193, 194, 195, 196, 197, 198, 199, 200],
      "LargestImagePixelValue": [3750, 3750, 3748, 3748, 3751, 3752, 3753, 3749, 3747, 3753, 3751, 3749, 3754, 3752, 3748, 3748, 3746, 3750, 3748, 3746, 3747, 3754, 3752, 3756, 3756, 3754, 3755, 3753, 3756, 3754, 3754, 3751, 3754, 3750, 3748, 3751, 3751, 3747, 3751, 3752, 3752, 3753, 3749, 3749, 3758, 3757, 3752, 3754, 3753, 3753, 3759, 3754, 3753, 3754, 3758, 3753, 3751, 3751, 3753, 3752, 3750, 3757, 3757, 3756, 3753, 3755, 3750, 3753, 3752, 3755, 3752, 3754, 3753, 3753, 3757, 3757, 3754, 3755, 3753, 3752, 3753, 3753, 3751, 3753, 3749, 3749, 3755, 3749, 3753, 3750, 3750, 3756, 3752, 3753, 3750, 3752, 3755, 3756, 3760, 3753, 3756, 3750, 3749, 3752, 3748, 3752, 3750, 3758, 3754, 3752, 3754, 3747, 3746, 3743, 3748, 3750, 3748, 3750, 3754, 3750, 3753, 3752, 3755, 3752, 3751, 3749, 3752, 3753, 3758, 3753, 3750, 3752, 3752, 3753, 3750, 3750, 3750, 3756, 3755, 3753, 3753, 3757, 3756, 3752, 3757, 3753, 3751, 3753, 3752, 3751, 3757, 3754, 3755, 3757, 3753, 3753, 3760, 3753, 3758, 3754, 3758, 3752, 3753, 3758, 3756, 3758, 3760, 3754, 3751, 3747, 3748, 3757, 3756, 3755, 3754, 3755, 3751, 3755, 3752, 3751, 3750, 3752, 3756, 3753, 3758, 3746, 3744, 3735, 3753, 3756, 3757, 3753, 3750, 3749, 3751, 3746, 3753, 3754, 3755, 3757],
      "WindowCenter": [1380.0, 1380.0, 1380.0, 1381.0, 1380.0, 1380.0, 1380.0, 1380.0, 1380.0, 1380.0, 1380.0, 1379.0, 1380.0, 1379.0, 1380.0, 1380.0, 1379.0, 1379.0, 1380.0, 1380.0, 1380.0, 1379.0, 1379.0, 1380.0, 1379.0, 1379.0, 1379.0, 1379.0, 1379.0, 1379.0, 1378.0, 1379.0, 1379.0, 1379.0, 1379.0, 1378.0, 1378.0, 1378.0, 1378.0, 1378.0, 1378.0, 1378.0, 1378.0, 1379.0, 1378.0, 1378.0, 1379.0, 1379.0, 1378.0, 1378.0, 1378.0, 1378.0, 1378.0, 1378.0, 1378.0, 1378.0, 1379.0, 1379.0, 1378.0, 1378.0, 1378.0, 1378.0, 1378.0, 1378.0, 1378.0, 1378.0, 1378.0, 1378.0, 1377.0, 1377.0, 1378.0, 1378.0, 1378.0, 1378.0, 1378.0, 1378.0, 1378.0, 1377.0, 1378.0, 1377.0, 1377.0, 1378.0, 1378.0, 1378.0, 1377.0, 1377.0, 1377.0, 1377.0, 1377.0, 1377.0, 1377.0, 1378.0, 1377.0, 1377.0, 1377.0, 1377.0, 1377.0, 1378.0, 1377.0, 1377.0, 1377.0, 1377.0, 1377.0, 1377.0, 1377.0, 1377.0, 1377.0, 1377.0, 1377.0, 1377.0, 1377.0, 1377.0, 1377.0, 1377.0, 1376.0, 1377.0, 1377.0, 1377.0, 1377.0, 1377.0, 1377.0, 1377.0, 1376.0, 1376.0, 1377.0, 1377.0, 1376.0, 1377.0, 1376.0, 1377.0, 1376.0, 1376.0, 1376.0, 1376.0, 1376.0, 1376.0, 1376.0, 1376.0, 1376.0, 1376.0, 1377.0, 1377.0, 1376.0, 1376.0, 1376.0, 1376.0, 1377.0, 1377.0, 1377.0, 1376.0, 1376.0, 1376.0, 1376.0, 1376.0, 1376.0, 1376.0, 1376.0, 1376.0, 1376.0, 1376.0, 1376.0, 1376.0, 1376.0, 1376.0, 1376.0, 1376.0, 1376.0, 1375.0, 1376.0, 1377.0, 1376.0, 1376.0, 1375.0, 1375.0, 1376.0, 1375.0, 1376.0, 1375.0, 1376.0, 1375.0, 1375.0, 1375.0, 1375.0, 1375.0, 1375.0, 1376.0, 1376.0, 1375.0, 1375.0, 1375.0, 1375.0, 1375.0, 1376.0, 1376.0, 1376.0, 1376.0, 1376.0, 1376.0, 1376.0, 1375.0],
      "WindowWidth": [3297.0, 3297.0, 3297.0, 3297.0, 3297.0, 3297.0, 3297.0, 3297.0, 3297.0, 3297.0, 3297.0, 3297.0, 3297.0, 3297.0, 3297.0, 3297.0, 3297.0, 3297.0, 3297.0, 3297.0, 3297.0, 3296.0, 3296.0, 3296.0, 3296.0, 3296.0, 3296.0, 3296.0, 3296.0, 3296.0, 3296.0, 3296.0, 3296.0, 3296.0, 3296.0, 3296.0, 3296.0, 3296.0, 3296.0, 3296.0, 3296.0, 3296.0, 3296.0, 3296.0, 3296.0, 3296.0, 3296.0, 3296.0, 3296.0, 3296.0, 3296.0, 3296.0, 3296.0, 3296.0, 3296.0, 3296.0, 3296.0, 3296.0, 3295.0, 3295.0, 3296.0, 3295.0, 3295.0, 3295.0, 3295.0, 3295.0, 3295.0, 3295.0, 3296.0, 3296.0, 3295.0, 3295.0, 3295.0, 3295.0, 3295.0, 3295.0, 3295.0, 3295.0, 3295.0, 3295.0, 3295.0, 3295.0, 3295.0, 3295.0, 3295.0, 3295.0, 3295.0, 3295.0, 3295.0, 3295.0, 3295.0, 3295.0, 3295.0, 3295.0, 3295.0, 3295.0, 3295.0, 3295.0, 3295.0, 3295.0, 3295.0, 3295.0, 3295.0, 3295.0, 3295.0, 3295.0, 3295.0, 3295.0, 3295.0, 3295.0, 3295.0, 3295.0, 3295.0, 3295.0, 3295.0, 3295.0, 3294.0, 3294.0, 3294.0, 3295.0, 3294.0, 3294.0, 3295.0, 3295.0, 3294.0, 3294.0, 3294.0, 3294.0, 3294.0, 3294.0, 3294.0, 3294.0, 3294.0, 3294.0, 3294.0, 3294.0, 3294.0, 3294.0, 3294.0, 3294.0, 3294.0, 3294.0, 3292.0, 3294.0, 3294.0, 3294.0, 3294.0, 3294.0, 3294.0, 3294.0, 3294.0, 3294.0, 3294.0, 3294.0, 3294.0, 3294.0, 3294.0, 3294.0, 3294.0, 3294.0, 3294.0, 3294.0, 3294.0, 3293.0, 3293.0, 3293.0, 3293.0, 3293.0, 3293.0, 3293.0, 3294.0, 3293.0, 3293.0, 3293.0, 3293.0, 3293.0, 3293.0, 3293.0, 3293.0, 3293.0, 3293.0, 3293.0, 3293.0, 3293.0, 3293.0, 3293.0, 3293.0, 3293.0, 3293.0, 3293.0, 3293.0, 3293.0, 3293.0, 3293.0, 3293.0, 3293.0, 3293.0, 3293.0, 3293.0, 3293.0]
    },
    "slices": {}
  }
}