{
  "AcquisitionMatrixPE": 80,
  "AcquisitionNumber": 1,
  "AcquisitionTime": "09:20:21.785000",
  "BandwidthPerPixelPhaseEncode": 48.077,
  "BaseResolution": 80,
  "BodyPartExamined": "BRAIN",
  "CoilCombinationMethod": "Sum of Squares",
  "ConsistencyInfo": "N4_VE11E_LATEST_20181129",
  "ConversionSoftware": "dcm2niix",
  "ConversionSoftwareVersion": "v1.0.20220720",
  "DerivedVendorReportedEchoSpacing": 0.000519999,
  "DeviceSerialNumber": "66112",
  "DwellTime": 2.7e-06,
  "EchoTime": 0.035,
  "EchoTrainLength": 39,
  "EffectiveEchoSpacing": 0.00026,
  "FlipAngle": 90,
  "HeudiconvVersion": "0.13.1",
  "ImageOrientationPatientDICOM": [0.993638, -0.11142, -0.0164193, 0.111454, 0.951867, 0.285528],
  "ImageOrientationText": "Tra>Cor(16.6)>Sag(0.9)",
  "ImageType": [
    "ORIGINAL",
    "PRIMARY",
    "M",
    "ND",
    "NORM",
    "MOSAIC"
],
  "ImagingFrequency": 123.259,
  "InPlanePhaseEncodingDirectionDICOM": "COL",
  "InstitutionAddress": "Maynard 3,Hanover,NH,US,03755",
  "InstitutionName": "Dartmouth College - PBS",
  "InstitutionalDepartmentName": "Department",
  "MRAcquisitionType": "2D",
  "MagneticFieldStrength": 3,
  "Manufacturer": "Siemens",
  "ManufacturersModelName": "Prisma",
  "MatrixCoilMode": "GRAPPA",
  "Modality": "MR",
  "NonlinearGradientCorrection": false,
  "ParallelReductionFactorInPlane": 2,
  "PartialFourier": 1,
  "PatientPosition": "HFS",
  "PercentPhaseFOV": 100,
  "PercentSampling": 100,
  "PhaseEncodingDirection": "j-",
  "PhaseEncodingSteps": 79,
  "PhaseResolution": 1,
  "PixelBandwidth": 2315,
  "ProcedureStepDescription": "dbic^QA",
  "ProtocolName": "func-bold_task-rest_acq-p2",
  "PulseSequenceDetails": "%SiemensSeq%\\ep2d_bold",
  "ReceiveCoilActiveElements": "HC1-7;NC1,2",
  "ReceiveCoilName": "HeadNeck_64",
  "ReconMatrixPE": 80,
  "RefLinesPE": 24,
  "RepetitionTime": 2,
  "SAR": 0.0357377,
  "ScanOptions": "FS",
  "ScanningSequence": "EP",
  "SequenceName": "*epfid2d1_80",
  "SequenceVariant": "SK",
  "SeriesDescription": "func-bold_task-rest_acq-p2",
  "SeriesNumber": 5,
  "ShimSetting": [4220, -7730, -7488, -154, -170, -238, -47, 95],
  "SliceThickness": 3.5,
  "SliceTiming": [0.99, 0, 1.055, 0.065, 1.12, 0.1325, 1.1875, 0.1975, 1.2525, 0.2625, 1.32, 0.33, 1.385, 0.395, 1.45, 0.4625, 1.5175, 0.5275, 1.5825, 0.5925, 1.65, 0.66, 1.715, 0.725, 1.78, 0.79, 1.8475, 0.8575, 1.9125, 0.9225],
  "SoftwareVersions": "syngo MR E11",
  "SpacingBetweenSlices": 3.99,
  "StationName": "AWP66112",
  "TaskName": "rest",
  "TotalReadoutTime": 0.02054,
  "TxRefAmp": 213.822,
  "dcmmeta_affine": [
    [-2.9809131622314453, 0.33436310291290283, 0.06457652896642685, 108.14606475830078],
    [0.33426010608673096, 2.855602264404297, 1.139310598373413, -136.61898803710938],
    [-0.04925777390599251, -0.8565843105316162, 3.823336362838745, -33.72700500488281],
    [0.0, 0.0, 0.0, 1.0]
],
  "dcmmeta_reorient_transform": [
    [0.0, -1.0, 0.0, 79.0],
    [1.0, 0.0, 0.0, 0.0],
    [0.0, 0.0, 1.0, 0.0],
    [0.0, 0.0, 0.0, 1.0]
],
  "dcmmeta_shape": [80, 80, 30, 200],
  "dcmmeta_slice_dim": 2,
  "dcmmeta_version": 0.6,
  "global": {
    "const": {
      "AccessionNumber": "qa64",
      "AcquisitionMatrix": [80, 0, 0, 80],
      "AngioFlag": "N",
      "BitsAllocated": 16,
      "BitsStored": 12,
      "BodyPartExamined": "BRAIN",
      "Columns": 480,
      "EchoNumbers": 1,
      "EchoTime": 35.0,
      "EchoTrainLength": 39,
      "FlipAngle": 90.0,
      "HighBit": 11,
      "ImageOrientationPatient": [0.99363775265328, -0.1114200361891, -0.0164192581367, 0.11145436470207, 0.951867442125, 0.2855281023144],
      "ImagePositionPatient": [-797.61601817566, -593.24204537505, -262.86247089633],
      "ImageType": [
        "ORIGINAL",
        "PRIMARY",
        "M",
        "ND",
        "NORM",
        "MOSAIC"
],
      "ImagedNucleus": "1H",
      "ImagingFrequency": 123.259235,
      "InPlanePhaseEncodingDirection": "COL",
      "MRAcquisitionType": "2D",
      "MagneticFieldStrength": 3.0,
      "Manufacturer": "SIEMENS",
      "ManufacturerModelName": "Prisma",
      "Modality": "MR",
      "NumberOfAverages": 1.0,
      "NumberOfPhaseEncodingSteps": 79,
      "PercentPhaseFieldOfView": 100.0,
      "PercentSampling": 100.0,
      "PerformedProcedureStepStartTime": "090330.146000",
      "PhotometricInterpretation": "MONOCHROME2",
      "PixelBandwidth": 2315.0,
      "PixelRepresentation": 0,
      "PixelSpacing": [3.0, 3.0],
      "ProtocolName": "func-bold_task-rest_acq-p2",
      "RepetitionTime": 2000.0,
      "Rows": 480,
      "SAR": 0.03573773893245,
      "SamplesPerPixel": 1,
      "ScanOptions": "FS",
      "ScanningSequence": "EP",
      "SequenceName": "*epfid2d1_80",
      "SequenceVariant": "SK",
      "SeriesDescription": "func-bold_task-rest_acq-p2",
      "SeriesNumber": 5,
      "SeriesTime": "092118.110000",
      "SliceLocation": -69.57830509956,
      "SliceThickness": 3.5,
      "SmallestImagePixelValue": 0,
      "SoftwareVersions": "syngo MR E11",
      "SpacingBetweenSlices": 3.9900000717322,
      "SpecificCharacterSet": "ISO_IR 100",
      "StudyID": "21",
      "StudyTime": "090330.068000",
      "TransmitCoilName": "Body",
      "VariableFlipAngleFlag": "N",
      "WindowCenterWidthExplanation": "Algo1"
    },
    "slices": {}
  },
  "time": {
    "samples": {
      "AcquisitionNumber": [1, 2, 3, 4, 5, 6, 7, 8, 9, 10, 11, 12, 13, 14, 15, 16, 17, 18, 19, 20, 21, 22, 23, 24, 25, 26, 27, 28, 29, 30, 31, 32, 33, 34, 35, 36, 37, 38, 39, 40, 41, 42, 43, 44, 45, 46, 47, 48, 49, 50, 51, 52, 53, 54, 55, 56, 57, 58, 59, 60, 61, 62, 63, 64, 65, 66, 67, 68, 69, 70, 71, 72, 73, 74, 75, 76, 77, 78, 79, 80, 81, 82, 83, 84, 85, 86, 87, 88, 89, 90, 91, 92, 93, 94, 95, 96, 97, 98, 99, 100, 101, 102, 103, 104, 105, 106, 107, 108, 109, 110, 111, 112, 113, 114, 115, 116, 117, 118, 119, 120, 121, 122, 123, 124, 125, 126, 127, 128, 129, 130, 131, 132, 133, 134, 135, 136, 137, 138, 139, 140, 141, 142, 143, 144, 145, 146, 147, 148, 149, 150, 151, 152, 153, 154, 155, 156, 157, 158, 159, 160, 161, 162, 163, 164, 165, 166, 167, 168, 169, 170, 171, 172, 173, 174, 175, 176, 177, 178, 179, 180, 181, 182, 183, 184, 185, 186, 187, 188, 189, 190, 191, 192, 193, 194, 195, 196, 197, 198, 199, 200],
      "AcquisitionTime": ["092021.785000", "092023.785000", "092025.785000", "092027.785000", "092029.785000", "092031.785000", "092033.785000", "092035.785000", "092037.785000", "092039.785000", "092041.785000", "092043.785000", "092045.785000", "092047.785000", "092049.785000", "092051.785000", "092053.785000", "092055.785000", "092057.785000", "092059.785000", "092101.785000", "092103.785000", "092105.785000", "092107.785000", "092109.785000", "092111.785000", "092113.785000", "092115.785000", "092117.785000", "092119.785000", "092121.785000", "092123.785000", "092125.785000", "092127.785000", "092129.785000", "092131.785000", "092133.785000", "092135.785000", "092137.785000", "092139.785000", "092141.785000", "092143.785000", "092145.785000", "092147.785000", "092149.785000", "092151.785000", "092153.785000", "092155.785000", "092157.785000", "092159.785000", "092201.785000", "092203.785000", "092205.785000", "092207.785000", "092209.785000", "092211.785000", "092213.785000", "092215.785000", "092217.785000", "092219.785000", "092221.785000", "092223.785000", "092225.785000", "092227.785000", "092229.785000", "092231.785000", "092233.785000", "092235.785000", "092237.785000", "092239.785000", "092241.785000", "092243.785000", "092245.785000", "092247.785000", "092249.785000", "092251.785000", "092253.785000", "092255.785000", "092257.785000", "092259.785000", "092301.785000", "092303.785000", "092305.785000", "092307.785000", "092309.785000", "092311.785000", "092313.785000", "092315.785000", "092317.785000", "092319.785000", "092321.785000", "092323.785000", "092325.785000", "092327.785000", "092329.785000", "092331.785000", "092333.785000", "092335.785000", "092337.785000", "092339.785000", "092341.785000", "092343.785000", "092345.785000", "092347.785000", "092349.785000", "092351.785000", "092353.785000", "092355.785000", "092357.785000", "092359.785000", "092401.785000", "092403.785000", "092405.785000", "092407.785000", "092409.785000", "092411.785000", "092413.785000", "092415.785000", "092417.785000", "092419.785000", "092421.785000", "092423.785000", "092425.785000", "092427.785000", "092429.785000", "092431.785000", "092433.785000", "092435.785000", "092437.785000", "092439.785000", "092441.785000", "092443.785000", "092445.785000", "092447.785000", "092449.785000", "092451.785000", "092453.785000", "092455.785000", "092457.785000", "092459.785000", "092501.785000", "092503.785000", "092505.785000", "092507.785000", "092509.785000", "092511.785000", "092513.785000", "092515.785000", "092517.785000", "092519.785000", "092521.785000", "092523.785000", "092525.785000", "092527.785000", "092529.785000", "092531.785000", "092533.785000", "092535.785000", "092537.785000", "092539.785000", "092541.785000", "092543.785000", "092545.785000", "092547.785000", "092549.785000", "092551.785000", "092553.785000", "092555.785000", "092557.785000", "092559.785000", "092601.785000", "092603.785000", "092605.785000", "092607.785000", "092609.785000", "092611.785000", "092613.785000", "092615.785000", "092617.785000", "092619.785000", "092621.785000", "092623.785000", "092625.785000", "092627.785000", "092629.785000", "092631.785000", "092633.785000", "092635.785000", "092637.785000", "092639.785000", "092641.785000", "092643.785000", "092645.785000", "092647.785000", "092649.785000", "092651.785000", "092653.785000", "092655.785000", "092657.785000", "092659.785000"],
      "ContentTime": ["092118.114000", "092118.117000", "092118.119000", "092118.122000", "092118.124000", "092118.127000", "092118.129000", "092118.131000", "092118.134000", "092118.136000", "092118.138000", "092118.141000", "092118.143000", "092118.145000", "092118.148000", "092118.155000", "092118.158000", "092118.160000", "092118.163000", "092118.165000", "092118.167000", "092118.170000", "092118.172000", "092118.174000", "092118.177000", "092118.179000", "092118.181000", "092118.184000", "092158.108000", "092158.111000", "092158.113000", "092158.115000", "092158.118000", "092158.120000", "092158.123000", "092158.125000", "092158.127000", "092158.130000", "092158.132000", "092158.134000", "092158.137000", "092158.142000", "092158.144000", "092158.147000", "092158.149000", "092158.151000", "092158.154000", "092158.156000", "092238.109000", "092238.111000", "092238.114000", "092238.116000", "092238.119000", "092238.121000", "092238.123000", "092238.126000", "092238.128000", "092238.130000", "092238.133000", "092238.135000", "092238.138000", "092238.140000", "092238.142000", "092238.145000", "092238.147000", "092238.149000", "092238.152000", "092238.154000", "092318.109000", "092318.112000", "092318.114000", "092318.117000", "092318.119000", "092318.121000", "092318.124000", "092318.126000", "092318.129000", "092318.131000", "092318.133000", "092318.136000", "092318.138000", "092318.140000", "092318.143000", "092318.145000", "092318.148000", "092318.150000", "092318.152000", "092318.155000", "092358.108000", "092358.111000", "092358.113000", "092358.115000", "092358.118000", "092358.120000", "092358.123000", "092358.125000", "092358.127000", "092358.130000", "092358.139000", "092358.141000", "092358.144000", "092358.146000", "092358.148000", "092358.159000", "092358.162000", "092358.164000", "092358.167000", "092358.169000", "092438.109000", "092438.112000", "092438.114000", "092438.116000", "092438.119000", "092438.122000", "092438.124000", "092438.126000", "092438.129000", "092438.131000", "092438.134000", "092438.136000", "092438.139000", "092438.141000", "092438.143000", "092438.146000", "092438.149000", "092438.151000", "092438.153000", "092438.156000", "092518.109000", "092518.112000", "092518.114000", "092518.117000", "092518.119000", "092518.122000", "092518.124000", "092518.126000", "092518.129000", "092518.131000", "092518.133000", "092518.136000", "092518.138000", "092518.141000", "092518.143000", "092518.145000", "092518.148000", "092518.150000", "092518.153000", "092518.155000", "092558.108000", "092558.111000", "092558.113000", "092558.116000", "092558.118000", "092558.120000", "092558.123000", "092558.125000", "092558.128000", "092558.130000", "092558.132000", "092558.135000", "092558.137000", "092558.140000", "092558.142000", "092558.144000", "092558.147000", "092558.149000", "092558.151000", "092558.154000", "092638.108000", "092638.111000", "092638.113000", "092638.115000", "092638.118000", "092638.120000", "092638.123000", "092638.125000", "092638.128000", "092638.130000", "092638.132000", "092638.135000", "092638.137000", "092638.140000", "092638.142000", "092638.144000", "092638.147000", "092638.149000", "092638.152000", "092638.154000", "092701.445000", "092701.451000", "092701.455000", "092701.457000", "092701.460000", "092701.463000", "092701.467000", "092701.469000", "092701.472000", "092701.474000", "092701.477000", "092701.479000"],
      "InstanceCreationTime": ["092118.114000", "092118.117000", "092118.119000", "092118.122000", "092118.124000", "092118.127000", "092118.129000", "092118.131000", "092118.134000", "092118.136000", "092118.138000", "092118.141000", "092118.143000", "092118.145000", "092118.148000", "092118.155000", "092118.158000", "092118.160000", "092118.163000", "092118.165000", "092118.167000", "092118.170000", "092118.172000", "092118.174000", "092118.177000", "092118.179000", "092118.181000", "092118.184000", "092158.108000", "092158.111000", "092158.113000", "092158.115000", "092158.118000", "092158.120000", "092158.123000", "092158.125000", "092158.127000", "092158.130000", "092158.132000", "092158.134000", "092158.137000", "092158.142000", "092158.144000", "092158.147000", "092158.149000", "092158.151000", "092158.154000", "092158.156000", "092238.109000", "092238.111000", "092238.114000", "092238.116000", "092238.119000", "092238.121000", "092238.123000", "092238.126000", "092238.128000", "092238.130000", "092238.133000", "092238.135000", "092238.138000", "092238.140000", "092238.142000", "092238.145000", "092238.147000", "092238.149000", "092238.152000", "092238.154000", "092318.109000", "092318.112000", "092318.114000", "092318.117000", "092318.119000", "092318.121000", "092318.124000", "092318.126000", "092318.129000", "092318.131000", "092318.133000", "092318.136000", "092318.138000", "092318.140000", "092318.143000", "092318.145000", "092318.148000", "092318.150000", "092318.152000", "092318.155000", "092358.108000", "092358.111000", "092358.113000", "092358.115000", "092358.118000", "092358.120000", "092358.123000", "092358.125000", "092358.127000", "092358.130000", "092358.139000", "092358.141000", "092358.144000", "092358.146000", "092358.148000", "092358.159000", "092358.162000", "092358.164000", "092358.167000", "092358.169000", "092438.109000", "092438.112000", "092438.114000", "092438.116000", "092438.119000", "092438.122000", "092438.124000", "092438.126000", "092438.129000", "092438.131000", "092438.134000", "092438.136000", "092438.139000", "092438.141000", "092438.143000", "092438.146000", "092438.149000", "092438.151000", "092438.153000", "092438.156000", "092518.109000", "092518.112000", "092518.114000", "092518.117000", "092518.119000", "092518.122000", "092518.124000", "092518.126000", "092518.129000", "092518.131000", "092518.133000", "092518.136000", "092518.138000", "092518.141000", "092518.143000", "092518.145000", "092518.148000", "092518.150000", "092518.153000", "092518.155000", "092558.108000", "092558.111000", "092558.113000", "092558.116000", "092558.118000", "092558.120000", "092558.123000", "092558.125000", "092558.128000", "092558.130000", "092558.132000", "092558.135000", "092558.137000", "092558.140000", "092558.142000", "092558.144000", "092558.147000", "092558.149000", "092558.151000", "092558.154000", "092638.108000", "092638.111000", "092638.113000", "092638.115000", "092638.118000", "092638.120000", "092638.123000", "092638.125000", "092638.128000", "092638.130000", "092638.132000", "092638.135000", "092638.137000", "092638.140000", "092638.142000", "092638.144000", "092638.147000", "092638.149000", "092638.152000", "092638.154000", "092701.445000", "092701.451000", "092701.455000", "092701.457000", "092701.460000", "092701.463000", "092701.467000", "092701.469000", "092701.472000", "092701.474000", "092701.477000", "092701.479000"],
      "InstanceNumber": [1, 2, 3, 4, 5, 6, 7, 8, 9, 10, 11, 12, 13, 14, 15, 16, 17, 18, 19, 20, 21, 22, 23, 24, 25, 26, 27, 28, 29, 30, 31, 32, 33, 34, 35, 36, 37, 38, 39, 40, 41, 42, 43, 44, 45, 46, 47, 48, 49, 50, 51, 52, 53, 54, 55, 56, 57, 58, 59, 60, 61, 62, 63, 64, 65, 66, 67, 68, 69, 70, 71, 72, 73, 74, 75, 76, 77, 78, 79, 80, 81, 82, 83, 84, 85, 86, 87, 88, 89, 90, 91, 92, 93, 94, 95, 96, 97, 98, 99, 100, 101, 102, 103, 104, 105, 106, 107, 108, 109, 110, 111, 112, 113, 114, 115, 116, 117, 118, 119, 120, 121, 122, 123, 124, 125, 126, 127, 128, 129, 130, 131, 132, 133, 134, 135, 136, 137, 138, 139, 140, 141, 142, 143, 144, 145, 146, 147, 148, 149, 150, 151, 152, 153, 154, 155, 156, 157, 158, 159, 160, 161, 162, 163, 164, 165, 166, 167, 168, 169, 170, 171, 172, 173, 174, 175, 176, 177, 178, 179, 180, 181, 182, 183, 184, 185, 186, 187, 188, 189, 190, 191, 192, 193, 194, 195, 196, 197, 198, 199, 200],
      "LargestImagePixelValue": [3812, 3820, 3817, 3816, 3809, 3804, 3814, 3823, 3820, 3834, 3828, 3815, 3822, 3825, 3830, 3826, 3823, 3820, 3798, 3813, 3823, 3816, 3819, 3820, 3816, 3806, 3806, 3815, 3814, 3817, 3815, 3839, 3819, 3832, 3833, 3816, 3823, 3836, 3820, 3813, 3816, 3810, 3830, 3819, 3812, 3818, 3820, 3821, 3814, 3808, 3827, 3811, 3812, 3817, 3813, 3825, 3816, 3831, 3813, 3816, 3813, 3824, 3811, 3792, 3823, 3810, 3805, 3809, 3793, 3802, 3802, 3811, 3809, 3826, 3814, 3819, 3804, 3817, 3825, 3820, 3811, 3822, 3804, 3822, 3818, 3809, 3803, 3818, 3810, 3816, 3825, 3836, 3810, 3809, 3823, 3824, 3819, 3813, 3805, 3808, 3823, 3799, 3796, 3813, 3808, 3817, 3815, 3826, 3818, 3818, 3815, 3813, 3805, 3818, 3820, 3824, 3816, 3819, 3816, 3820, 3818, 3815, 3804, 3817, 3806, 3823, 3819, 3814, 3807, 3824, 3812, 3812, 3827, 3813, 3827, 3832, 3825, 3825, 3823, 3824, 3821, 3825, 3823, 3821, 3810, 3817, 3814, 3822, 3826, 3825, 3799, 3818, 3825, 3822, 3834, 3819, 3815, 3823, 3836, 3823, 3800, 3875, 3815, 3814, 3837, 3804, 3828, 3829, 3806, 3838, 3817, 3831, 3825, 3823, 3832, 3807, 3819, 3814, 3821, 3811, 3826, 3819, 3826, 3812, 3825, 3891, 3816, 3818, 3824, 3831, 3827, 3831, 3815, 3825, 3813, 3812, 3840, 3827, 3825, 3813],
      "WindowCenter": [1452.0, 1451.0, 1451.0, 1450.0, 1451.0, 1451.0, 1450.0, 1451.0, 1450.0, 1450.0, 1450.0, 1450.0, 1450.0, 1450.0, 1449.0, 1450.0, 1450.0, 1450.0, 1450.0, 1449.0, 1450.0, 1450.0, 1450.0, 1450.0, 1450.0, 1450.0, 1450.0, 1449.0, 1450.0, 1449.0, 1449.0, 1449.0, 1449.0, 1449.0, 1449.0, 1449.0, 1449.0, 1448.0, 1449.0, 1449.0, 1449.0, 1449.0, 1449.0, 1448.0, 1449.0, 1449.0, 1449.0, 1448.0, 1449.0, 1449.0, 1449.0, 1449.0, 1449.0, 1449.0, 1449.0, 1449.0, 1449.0, 1449.0, 1449.0, 1449.0, 1448.0, 1448.0, 1449.0, 1449.0, 1449.0, 1448.0, 1449.0, 1449.0, 1448.0, 1448.0, 1448.0, 1448.0, 1448.0, 1448.0, 1448.0, 1448.0, 1447.0, 1448.0, 1449.0, 1448.0, 1449.0, 1448.0, 1448.0, 1448.0, 1448.0, 1448.0, 1448.0, 1448.0, 1448.0, 1448.0, 1448.0, 1448.0, 1447.0, 1448.0, 1448.0, 1448.0, 1448.0, 1448.0, 1449.0, 1448.0, 1448.0, 1448.0, 1448.0, 1448.0, 1448.0, 1446.0, 1448.0, 1448.0, 1447.0, 1448.0, 1448.0, 1448.0, 1448.0, 1448.0, 1448.0, 1448.0, 1445.0, 1448.0, 1448.0, 1447.0, 1447.0, 1448.0, 1448.0, 1448.0, 1448.0, 1448.0, 1447.0, 1447.0, 1448.0, 1447.0, 1448.0, 1447.0, 1448.0, 1447.0, 1445.0, 1447.0, 1448.0, 1447.0, 1447.0, 1447.0, 1447.0, 1447.0, 1448.0, 1446.0, 1447.0, 1448.0, 1447.0, 1448.0, 1447.0, 1447.0, 1447.0, 1447.0, 1445.0, 1448.0, 1447.0, 1447.0, 1447.0, 1446.0, 1447.0, 1447.0, 1447.0, 1445.0, 1447.0, 1447.0, 1447.0, 1447.0, 1447.0, 1447.0, 1447.0, 1446.0, 1447.0, 1446.0, 1447.0, 1447.0, 1447.0, 1448.0, 1447.0, 1447.0, 1447.0, 1448.0, 1446.0, 1447.0, 1445.0, 1447.0, 1447.0, 1445.0, 1446.0, 1447.0, 1446.0, 1446.0, 1446.0, 1446.0, 1446.0, 1446.0, 1447.0, 1446.0, 1446.0, 1447.0, 1447.0, 1447.0],
      "WindowWidth": [3340.0, 3338.0, 3339.0, 3339.0, 3338.0, 3338.0, 3338.0, 3338.0, 3338.0, 3338.0, 3338.0, 3338.0, 3338.0, 3339.0, 3338.0, 3338.0, 3339.0, 3338.0, 3338.0, 3338.0, 3338.0, 3338.0, 3338.0, 3339.0, 3338.0, 3338.0, 3338.0, 3338.0, 3338.0, 3338.0, 3338.0, 3338.0, 3338.0, 3338.0, 3338.0, 3338.0, 3338.0, 3338.0, 3338.0, 3338.0, 3338.0, 3338.0, 3338.0, 3338.0, 3338.0, 3338.0, 3338.0, 3338.0, 3338.0, 3338.0, 3338.0, 3338.0, 3338.0, 3338.0, 3338.0, 3338.0, 3338.0, 3338.0, 3337.0, 3337.0, 3337.0, 3337.0, 3337.0, 3337.0, 3337.0, 3337.0, 3337.0, 3337.0, 3337.0, 3337.0, 3337.0, 3337.0, 3337.0, 3337.0, 3337.0, 3337.0, 3338.0, 3337.0, 3337.0, 3337.0, 3337.0, 3337.0, 3337.0, 3337.0, 3337.0, 3337.0, 3337.0, 3337.0, 3337.0, 3337.0, 3336.0, 3337.0, 3337.0, 3336.0, 3337.0, 3337.0, 3337.0, 3337.0, 3336.0, 3337.0, 3337.0, 3337.0, 3337.0, 3337.0, 3337.0, 3336.0, 3337.0, 3337.0, 3337.0, 3337.0, 3337.0, 3337.0, 3337.0, 3336.0, 3337.0, 3337.0, 3334.0, 3336.0, 3336.0, 3337.0, 3337.0, 3337.0, 3337.0, 3337.0, 3336.0, 3336.0, 3337.0, 3337.0, 3336.0, 3337.0, 3336.0, 3336.0, 3336.0, 3337.0, 3335.0, 3337.0, 3336.0, 3336.0, 3336.0, 3336.0, 3336.0, 3336.0, 3336.0, 3336.0, 3336.0, 3336.0, 3336.0, 3336.0, 3336.0, 3336.0, 3336.0, 3336.0, 3334.0, 3336.0, 3336.0, 3336.0, 3336.0, 3336.0, 3336.0, 3336.0, 3336.0, 3335.0, 3336.0, 3336.0, 3336.0, 3336.0, 3336.0, 3336.0, 3336.0, 3336.0, 3335.0, 3336.0, 3335.0, 3336.0, 3336.0, 3335.0, 3336.0, 3335.0, 3335.0, 3335.0, 3336.0, 3335.0, 3333.0, 3336.0, 3336.0, 3335.0, 3336.0, 3336.0, 3336.0, 3336.0, 3335.0, 3335.0, 3336.0, 3334.0, 3335.0, 3334.0, 3336.0, 3336.0, 3335.0, 3335.0]
    },
    "slices": {}
  }
}