{
  "AcquisitionMatrixPE": 122,
  "AcquisitionNumber": 1,
  "AcquisitionTime": "10:25:36.030000",
  "BandwidthPerPixelPhaseEncode": 28.76,
  "BaseResolution": 122,
  "BodyPartExamined": "BRAIN",
  "CoilCombinationMethod": "Adaptive Combine",
  "ConsistencyInfo": "N4_VE11C_LATEST_20160120",
  "ConversionSoftware": "dcm2niix",
  "ConversionSoftwareVersion": "v1.0.20220720",
  "DerivedVendorReportedEchoSpacing": 0.000570008,
  "DeviceSerialNumber": "66112",
  "DiffusionScheme": "Monopolar",
  "DwellTime": 2e-06,
  "EchoTime": 0.075,
  "EchoTrainLength": 61,
  "EffectiveEchoSpacing": 0.000285004,
  "FlipAngle": 90,
  "HeudiconvVersion": "0.13.1",
  "ImageOrientationPatientDICOM": [0.985115, 0.17145, 0.0123575, -0.166797, 0.93605, 0.309822],
  "ImageOrientationText": "Tra>Cor(17.9)>Sag(-2.4)",
  "ImageType": [
    "ORIGINAL",
    "PRIMARY",
    "DIFFUSION",
    "NONE",
    "ND",
    "NORM"
],
  "ImagingFrequency": 123.252,
  "InPlanePhaseEncodingDirectionDICOM": "COL",
  "InstitutionAddress": "Maynard 3,Hanover,NH,US,03755",
  "InstitutionName": "Dartmouth College - PBS",
  "InstitutionalDepartmentName": "Department",
  "MRAcquisitionType": "2D",
  "MagneticFieldStrength": 3,
  "Manufacturer": "Siemens",
  "ManufacturersModelName": "Prisma",
  "MatrixCoilMode": "GRAPPA",
  "Modality": "MR",
  "NonlinearGradientCorrection": false,
  "ParallelReductionFactorInPlane": 2,
  "PartialFourier": 1,
  "PatientPosition": "HFS",
  "PercentPhaseFOV": 100,
  "PercentSampling": 100,
  "PhaseEncodingDirection": "j-",
  "PhaseEncodingSteps": 122,
  "PhaseResolution": 1,
  "PixelBandwidth": 2050,
  "ProcedureStepDescription": "dbic^QA",
  "ProtocolName": "dwi_acq-DTI-30-p2",
  "PulseSequenceDetails": "%SiemensSeq%\\ep2d_diff",
  "ReceiveCoilActiveElements": "HEA;HEP",
  "ReceiveCoilName": "Head_32",
  "ReconMatrixPE": 122,
  "RefLinesPE": 38,
  "RepetitionTime": 7.7,
  "SAR": 0.120355,
  "ScanOptions": "FS",
  "ScanningSequence": "EP",
  "SequenceName": "*ep_b0",
  "SequenceVariant": "SK\\SP",
  "SeriesDescription": "dwi_acq-DTI-30-p2",
  "SeriesNumber": 12,
  "ShimSetting": [4150, -7704, -7510, 280, -65, -75, -39, 62],
  "SliceThickness": 2,
  "SliceTiming": [3.84375, 0, 3.95312, 0.10938, 4.0625, 0.21875, 4.17188, 0.33594, 4.28125, 0.44531, 4.39062, 0.55469, 4.5, 0.66406, 4.60938, 0.77344, 4.71875, 0.88281, 4.82812, 0.99219, 4.9375, 1.10156, 5.04688, 1.21094, 5.15625, 1.32031, 5.27344, 1.42969, 5.38281, 1.53906, 5.49219, 1.64844, 5.59375, 1.75781, 5.71094, 1.86719, 5.82031, 1.97656, 5.92969, 2.08594, 6.03906, 2.19531, 6.14844, 2.30469, 6.25781, 2.41406, 6.36719, 2.53125, 6.47656, 2.64062, 6.58594, 2.74219, 6.69531, 2.85156, 6.80469, 2.96875, 6.91406, 3.07812, 7.02344, 3.1875, 7.13281, 3.29688, 7.24219, 3.40625, 7.35156, 3.51562, 7.46094, 3.625, 7.57031, 3.73438],
  "SoftwareVersions": "syngo MR E11",
  "SpacingBetweenSlices": 2,
  "SpoilingState": true,
  "StationName": "AWP66112",
  "TotalReadoutTime": 0.0344855,
  "TxRefAmp": 237.779,
  "dcmmeta_affine": [
    [-1.9379318952560425, -0.32812467217445374, -0.08310329914093018, 144.9674835205078],
    [-0.33727794885635376, 1.8414093255996704, 0.6145420074462891, -106.8833236694336],
    [0.024309853091835976, -0.6094861030578613, 1.90142822265625, -16.409156799316406],
    [0.0, 0.0, 0.0, 1.0]
],
  "dcmmeta_reorient_transform": [
    [0.0, -1.0, 0.0, 121.0],
    [1.0, 0.0, 0.0, 0.0],
    [0.0, 0.0, -1.0, 69.0],
    [0.0, 0.0, 0.0, 1.0]
],
  "dcmmeta_shape": [122, 122, 70, 31],
  "dcmmeta_slice_dim": 2,
  "dcmmeta_version": 0.6,
  "global": {
    "const": {
      "AccessionNumber": "qa",
      "AcquisitionMatrix": [122, 0, 0, 122],
      "AngioFlag": "N",
      "BitsAllocated": 16,
      "BitsStored": 12,
      "BodyPartExamined": "BRAIN",
      "Columns": 122,
      "EchoNumbers": 1,
      "EchoTime": 75.0,
      "EchoTrainLength": 61,
      "FlipAngle": 90.0,
      "HighBit": 11,
      "ImageOrientationPatient": [0.98511538426028, 0.17144961848494, 0.01235750844968, -0.1667967060852, 0.93604974742408, 0.30982209279917],
      "ImageType": [
        "ORIGINAL",
        "PRIMARY",
        "DIFFUSION",
        "NONE",
        "ND",
        "NORM"
],
      "ImagedNucleus": "1H",
      "ImagingFrequency": 123.252354,
      "InPlanePhaseEncodingDirection": "COL",
      "MRAcquisitionType": "2D",
      "MagneticFieldStrength": 3.0,
      "Manufacturer": "SIEMENS",
      "ManufacturerModelName": "Prisma",
      "Modality": "MR",
      "NumberOfAverages": 1.0,
      "NumberOfPhaseEncodingSteps": 122,
      "PercentPhaseFieldOfView": 100.0,
      "PercentSampling": 100.0,
      "PerformedProcedureStepStartTime": "095546.097000",
      "PhotometricInterpretation": "MONOCHROME2",
      "PixelBandwidth": 2050.0,
      "PixelRepresentation": 0,
      "PixelSpacing": [1.9672131538391, 1.9672131538391],
      "ProtocolName": "dwi_acq-DTI-30-p2",
      "RepetitionTime": 7700.0,
      "Rows": 122,
      "SAR": 0.12035462151001,
      "SamplesPerPixel": 1,
      "ScanOptions": "FS",
      "ScanningSequence": "EP",
      "SequenceVariant": [
        "SK",
        "SP"
],
      "SeriesDescription": "dwi_acq-DTI-30-p2",
      "SeriesNumber": 12,
      "SeriesTime": "102538.927000",
      "SliceThickness": 2.0,
      "SmallestImagePixelValue": 0,
      "SoftwareVersions": "syngo MR E11",
      "SpacingBetweenSlices": 2.0,
      "SpecificCharacterSet": "ISO_IR 100",
      "StudyID": "3",
      "StudyTime": "095546.048000",
      "TransmitCoilName": "Body",
      "VariableFlipAngleFlag": "N",
      "WindowCenterWidthExplanation": "Algo1",
      "dBdt": 0.0},
    "slices": {
      "AcquisitionTime": ["102536.030000", "102532.190000", "102536.140000", "102532.300000", "102536.250000", "102532.410000", "102536.360000", "102532.520000", "102536.470000", "102532.630000", "102536.580000", "102532.740000", "102536.690000", "102532.850000", "102536.797500", "102532.960000", "102536.907500", "102533.067500", "102537.017500", "102533.177500", "102537.127500", "102533.287500", "102537.237500", "102533.397500", "102537.347500", "102533.507500", "102537.457500", "102533.617500", "102537.567500", "102533.727500", "102537.677500", "102533.837500", "102537.785000", "102533.945000", "102537.895000", "102534.055000", "102538.005000", "102534.165000", "102538.115000", "102534.275000", "102538.225000", "102534.385000", "102538.335000", "102534.495000", "102538.445000", "102534.605000", "102538.555000", "102534.715000", "102538.665000", "102534.825000", "102538.772500", "102534.932500", "102538.882500", "102535.042500", "102538.992500", "102535.152500", "102539.102500", "102535.262500", "102539.212500", "102535.372500", "102539.322500", "102535.482500", "102539.432500", "102535.592500", "102539.542500", "102535.702500", "102539.650000", "102535.812500", "102539.760000", "102535.920000", "102543.730000", "102539.890000", "102543.840000", "102540.000000", "102543.950000", "102540.110000", "102544.060000", "102540.220000", "102544.170000", "102540.330000", "102544.280000", "102540.440000", "102544.390000", "102540.550000", "102544.497500", "102540.660000", "102544.607500", "102540.767500", "102544.717500", "102540.877500", "102544.827500", "102540.987500", "102544.937500", "102541.097500", "102545.047500", "102541.207500", "102545.157500", "102541.317500", "102545.267500", "102541.427500", "102545.377500", "102541.537500", "102545.485000", "102541.645000", "102545.595000", "102541.755000", "102545.705000", "102541.865000", "102545.815000", "102541.975000", "102545.925000", "102542.085000", "102546.035000", "102542.195000", "102546.145000", "102542.305000", "102546.255000", "102542.415000", "102546.365000", "102542.525000", "102546.472500", "102542.632500", "102546.582500", "102542.742500", "102546.692500", "102542.852500", "102546.802500", "102542.962500", "102546.912500", "102543.072500", "102547.022500", "102543.182500", "102547.132500", "102543.292500", "102547.242500", "102543.402500", "102547.350000", "102543.512500", "102547.460000", "102543.620000", "102551.430000", "102547.590000", "102551.540000", "102547.700000", "102551.650000", "102547.810000", "102551.760000", "102547.920000", "102551.870000", "102548.030000", "102551.980000", "102548.140000", "102552.090000", "102548.250000", "102552.197500", "102548.360000", "102552.307500", "102548.467500", "102552.417500", "102548.577500", "102552.527500", "102548.687500", "102552.637500", "102548.797500", "102552.747500", "102548.907500", "102552.857500", "102549.017500", "102552.967500", "102549.127500", "102553.077500", "102549.237500", "102553.185000", "102549.345000", "102553.295000", "102549.455000", "102553.405000", "102549.565000", "102553.515000", "102549.675000", "102553.625000", "102549.785000", "102553.735000", "102549.895000", "102553.845000", "102550.005000", "102553.955000", "102550.115000", "102554.065000", "102550.225000", "102554.172500", "102550.332500", "102554.282500", "102550.442500", "102554.392500", "102550.552500", "102554.502500", "102550.662500", "102554.612500", "102550.772500", "102554.722500", "102550.882500", "102554.832500", "102550.992500", "102554.942500", "102551.102500", "102555.050000", "102551.212500", "102555.160000", "102551.320000", "102559.130000", "102555.290000", "102559.240000", "102555.400000", "102559.350000", "102555.510000", "102559.460000", "102555.620000", "102559.570000", "102555.730000", "102559.680000", "102555.840000", "102559.790000", "102555.950000", "102559.897500", "102556.060000", "102600.007500", "102556.167500", "102600.117500", "102556.277500", "102600.227500", "102556.387500", "102600.337500", "102556.497500", "102600.447500", "102556.607500", "102600.557500", "102556.717500", "102600.667500", "102556.827500", "102600.777500", "102556.937500", "102600.885000", "102557.045000", "102600.995000", "102557.155000", "102601.105000", "102557.265000", "102601.215000", "102557.375000", "102601.325000", "102557.485000", "102601.435000", "102557.595000", "102601.545000", "102557.705000", "102601.655000", "102557.815000", "102601.765000", "102557.925000", "102601.872500", "102558.032500", "102601.982500", "102558.142500", "102602.092500", "102558.252500", "102602.202500", "102558.362500", "102602.312500", "102558.472500", "102602.422500", "102558.582500", "102602.532500", "102558.692500", "102602.642500", "102558.802500", "102602.750000", "102558.912500", "102602.860000", "102559.020000", "102606.830000", "102602.990000", "102606.940000", "102603.100000", "102607.050000", "102603.210000", "102607.160000", "102603.320000", "102607.270000", "102603.430000", "102607.380000", "102603.540000", "102607.490000", "102603.650000", "102607.597500", "102603.760000", "102607.707500", "102603.867500", "102607.817500", "102603.977500", "102607.927500", "102604.087500", "102608.037500", "102604.197500", "102608.147500", "102604.307500", "102608.257500", "102604.417500", "102608.367500", "102604.527500", "102608.477500", "102604.637500", "102608.585000", "102604.745000", "102608.695000", "102604.855000", "102608.805000", "102604.965000", "102608.915000", "102605.075000", "102609.025000", "102605.185000", "102609.135000", "102605.295000", "102609.245000", "102605.405000", "102609.355000", "102605.515000", "102609.465000", "102605.625000", "102609.572500", "102605.732500", "102609.682500", "102605.842500", "102609.792500", "102605.952500", "102609.902500", "102606.062500", "102610.012500", "102606.172500", "102610.122500", "102606.282500", "102610.232500", "102606.392500", "102610.342500", "102606.502500", "102610.450000", "102606.612500", "102610.560000", "102606.720000", "102614.530000", "102610.690000", "102614.640000", "102610.800000", "102614.750000", "102610.910000", "102614.860000", "102611.020000", "102614.970000", "102611.130000", "102615.080000", "102611.240000", "102615.190000", "102611.350000", "102615.297500", "102611.460000", "102615.407500", "102611.567500", "102615.517500", "102611.677500", "102615.627500", "102611.787500", "102615.737500", "102611.897500", "102615.847500", "102612.007500", "102615.957500", "102612.117500", "102616.067500", "102612.227500", "102616.177500", "102612.337500", "102616.285000", "102612.445000", "102616.395000", "102612.555000", "102616.505000", "102612.665000", "102616.615000", "102612.775000", "102616.725000", "102612.885000", "102616.835000", "102612.995000", "102616.945000", "102613.105000", "102617.055000", "102613.215000", "102617.165000", "102613.325000", "102617.272500", "102613.432500", "102617.382500", "102613.542500", "102617.492500", "102613.652500", "102617.602500", "102613.762500", "102617.712500", "102613.872500", "102617.822500", "102613.982500", "102617.932500", "102614.092500", "102618.042500", "102614.202500", "102618.150000", "102614.312500", "102618.260000", "102614.420000", "102622.230000", "102618.390000", "102622.340000", "102618.500000", "102622.450000", "102618.610000", "102622.560000", "102618.720000", "102622.670000", "102618.830000", "102622.780000", "102618.940000", "102622.890000", "102619.050000", "102622.997500", "102619.160000", "102623.107500", "102619.267500", "102623.217500", "102619.377500", "102623.327500", "102619.487500", "102623.437500", "102619.597500", "102623.547500", "102619.707500", "102623.657500", "102619.817500", "102623.767500", "102619.927500", "102623.877500", "102620.037500", "102623.985000", "102620.145000", "102624.095000", "102620.255000", "102624.205000", "102620.365000", "102624.315000", "102620.475000", "102624.425000", "102620.585000", "102624.535000", "102620.695000", "102624.645000", "102620.805000", "102624.755000", "102620.915000", "102624.865000", "102621.025000", "102624.972500", "102621.132500", "102625.082500", "102621.242500", "102625.192500", "102621.352500", "102625.302500", "102621.462500", "102625.412500", "102621.572500", "102625.522500", "102621.682500", "102625.632500", "102621.792500", "102625.742500", "102621.902500", "102625.850000", "102622.012500", "102625.960000", "102622.120000", "102629.930000", "102626.090000", "102630.040000", "102626.200000", "102630.150000", "102626.310000", "102630.260000", "102626.420000", "102630.370000", "102626.530000", "102630.480000", "102626.640000", "102630.590000", "102626.750000", "102630.697500", "102626.860000", "102630.807500", "102626.967500", "102630.917500", "102627.077500", "102631.027500", "102627.187500", "102631.137500", "102627.297500", "102631.247500", "102627.407500", "102631.357500", "102627.517500", "102631.467500", "102627.627500", "102631.577500", "102627.737500", "102631.685000", "102627.845000", "102631.795000", "102627.955000", "102631.905000", "102628.065000", "102632.015000", "102628.175000", "102632.125000", "102628.285000", "102632.235000", "102628.395000", "102632.345000", "102628.505000", "102632.455000", "102628.615000", "102632.565000", "102628.725000", "102632.672500", "102628.832500", "102632.782500", "102628.942500", "102632.892500", "102629.052500", "102633.002500", "102629.162500", "102633.112500", "102629.272500", "102633.222500", "102629.382500", "102633.332500", "102629.492500", "102633.442500", "102629.602500", "102633.550000", "102629.712500", "102633.660000", "102629.820000", "102637.630000", "102633.790000", "102637.740000", "102633.900000", "102637.850000", "102634.010000", "102637.960000", "102634.120000", "102638.070000", "102634.230000", "102638.180000", "102634.340000", "102638.290000", "102634.450000", "102638.397500", "102634.560000", "102638.507500", "102634.667500", "102638.617500", "102634.777500", "102638.727500", "102634.887500", "102638.837500", "102634.997500", "102638.947500", "102635.107500", "102639.057500", "102635.217500", "102639.167500", "102635.327500", "102639.277500", "102635.437500", "102639.385000", "102635.545000", "102639.495000", "102635.655000", "102639.605000", "102635.765000", "102639.715000", "102635.875000", "102639.825000", "102635.985000", "102639.935000", "102636.095000", "102640.045000", "102636.205000", "102640.155000", "102636.315000", "102640.265000", "102636.425000", "102640.372500", "102636.532500", "102640.482500", "102636.642500", "102640.592500", "102636.752500", "102640.702500", "102636.862500", "102640.812500", "102636.972500", "102640.922500", "102637.082500", "102641.032500", "102637.192500", "102641.142500", "102637.302500", "102641.250000", "102637.412500", "102641.360000", "102637.520000", "102645.330000", "102641.490000", "102645.440000", "102641.600000", "102645.550000", "102641.710000", "102645.660000", "102641.820000", "102645.770000", "102641.930000", "102645.880000", "102642.040000", "102645.990000", "102642.150000", "102646.097500", "102642.260000", "102646.207500", "102642.367500", "102646.317500", "102642.477500", "102646.427500", "102642.587500", "102646.537500", "102642.697500", "102646.647500", "102642.807500", "102646.757500", "102642.917500", "102646.867500", "102643.027500", "102646.977500", "102643.137500", "102647.085000", "102643.245000", "102647.195000", "102643.355000", "102647.305000", "102643.465000", "102647.415000", "102643.575000", "102647.525000", "102643.685000", "102647.635000", "102643.795000", "102647.745000", "102643.905000", "102647.855000", "102644.015000", "102647.965000", "102644.125000", "102648.072500", "102644.232500", "102648.182500", "102644.342500", "102648.292500", "102644.452500", "102648.402500", "102644.562500", "102648.512500", "102644.672500", "102648.622500", "102644.782500", "102648.732500", "102644.892500", "102648.842500", "102645.002500", "102648.950000", "102645.112500", "102649.060000", "102645.220000", "102653.030000", "102649.190000", "102653.140000", "102649.300000", "102653.250000", "102649.410000", "102653.360000", "102649.520000", "102653.470000", "102649.630000", "102653.580000", "102649.740000", "102653.690000", "102649.850000", "102653.797500", "102649.960000", "102653.907500", "102650.067500", "102654.017500", "102650.177500", "102654.127500", "102650.287500", "102654.237500", "102650.397500", "102654.347500", "102650.507500", "102654.457500", "102650.617500", "102654.567500", "102650.727500", "102654.677500", "102650.837500", "102654.785000", "102650.945000", "102654.895000", "102651.055000", "102655.005000", "102651.165000", "102655.115000", "102651.275000", "102655.225000", "102651.385000", "102655.335000", "102651.495000", "102655.445000", "102651.605000", "102655.555000", "102651.715000", "102655.665000", "102651.825000", "102655.772500", "102651.932500", "102655.882500", "102652.042500", "102655.992500", "102652.152500", "102656.102500", "102652.262500", "102656.212500", "102652.372500", "102656.322500", "102652.482500", "102656.432500", "102652.592500", "102656.542500", "102652.702500", "102656.650000", "102652.812500", "102656.760000", "102652.920000", "102700.730000", "102656.890000", "102700.840000", "102657.000000", "102700.950000", "102657.110000", "102701.060000", "102657.220000", "102701.170000", "102657.330000", "102701.280000", "102657.440000", "102701.390000", "102657.550000", "102701.497500", "102657.660000", "102701.607500", "102657.767500", "102701.717500", "102657.877500", "102701.827500", "102657.987500", "102701.937500", "102658.097500", "102702.047500", "102658.207500", "102702.157500", "102658.317500", "102702.267500", "102658.427500", "102702.377500", "102658.537500", "102702.485000", "102658.645000", "102702.595000", "102658.755000", "102702.705000", "102658.865000", "102702.815000", "102658.975000", "102702.925000", "102659.085000", "102703.035000", "102659.195000", "102703.145000", "102659.305000", "102703.255000", "102659.415000", "102703.365000", "102659.525000", "102703.472500", "102659.632500", "102703.582500", "102659.742500", "102703.692500", "102659.852500", "102703.802500", "102659.962500", "102703.912500", "102700.072500", "102704.022500", "102700.182500", "102704.132500", "102700.292500", "102704.242500", "102700.402500", "102704.350000", "102700.512500", "102704.460000", "102700.620000", "102708.430000", "102704.590000", "102708.540000", "102704.700000", "102708.650000", "102704.810000", "102708.760000", "102704.920000", "102708.870000", "102705.030000", "102708.980000", "102705.140000", "102709.090000", "102705.250000", "102709.197500", "102705.360000", "102709.307500", "102705.467500", "102709.417500", "102705.577500", "102709.527500", "102705.687500", "102709.637500", "102705.797500", "102709.747500", "102705.907500", "102709.857500", "102706.017500", "102709.967500", "102706.127500", "102710.077500", "102706.237500", "102710.185000", "102706.345000", "102710.295000", "102706.455000", "102710.405000", "102706.565000", "102710.515000", "102706.675000", "102710.625000", "102706.785000", "102710.735000", "102706.895000", "102710.845000", "102707.005000", "102710.955000", "102707.115000", "102711.065000", "102707.225000", "102711.172500", "102707.332500", "102711.282500", "102707.442500", "102711.392500", "102707.552500", "102711.502500", "102707.662500", "102711.612500", "102707.772500", "102711.722500", "102707.882500", "102711.832500", "102707.992500", "102711.942500", "102708.102500", "102712.050000", "102708.212500", "102712.160000", "102708.320000", "102716.130000", "102712.290000", "102716.240000", "102712.400000", "102716.350000", "102712.510000", "102716.460000", "102712.620000", "102716.570000", "102712.730000", "102716.680000", "102712.840000", "102716.790000", "102712.950000", "102716.897500", "102713.060000", "102717.007500", "102713.167500", "102717.117500", "102713.277500", "102717.227500", "102713.387500", "102717.337500", "102713.497500", "102717.447500", "102713.607500", "102717.557500", "102713.717500", "102717.667500", "102713.827500", "102717.777500", "102713.937500", "102717.885000", "102714.045000", "102717.995000", "102714.155000", "102718.105000", "102714.265000", "102718.215000", "102714.375000", "102718.325000", "102714.485000", "102718.435000", "102714.595000", "102718.545000", "102714.705000", "102718.655000", "102714.815000", "102718.765000", "102714.925000", "102718.872500", "102715.032500", "102718.982500", "102715.142500", "102719.092500", "102715.252500", "102719.202500", "102715.362500", "102719.312500", "102715.472500", "102719.422500", "102715.582500", "102719.532500", "102715.692500", "102719.642500", "102715.802500", "102719.750000", "102715.912500", "102719.860000", "102716.020000", "102723.830000", "102719.990000", "102723.940000", "102720.100000", "102724.050000", "102720.210000", "102724.160000", "102720.320000", "102724.270000", "102720.430000", "102724.380000", "102720.540000", "102724.490000", "102720.650000", "102724.597500", "102720.760000", "102724.707500", "102720.867500", "102724.817500", "102720.977500", "102724.927500", "102721.087500", "102725.037500", "102721.197500", "102725.147500", "102721.307500", "102725.257500", "102721.417500", "102725.367500", "102721.527500", "102725.477500", "102721.637500", "102725.585000", "102721.745000", "102725.695000", "102721.855000", "102725.805000", "102721.965000", "102725.915000", "102722.075000", "102726.025000", "102722.185000", "102726.135000", "102722.295000", "102726.245000", "102722.405000", "102726.355000", "102722.515000", "102726.465000", "102722.625000", "102726.572500", "102722.732500", "102726.682500", "102722.842500", "102726.792500", "102722.952500", "102726.902500", "102723.062500", "102727.012500", "102723.172500", "102727.122500", "102723.282500", "102727.232500", "102723.392500", "102727.342500", "102723.502500", "102727.450000", "102723.612500", "102727.560000", "102723.720000", "102731.530000", "102727.690000", "102731.640000", "102727.800000", "102731.750000", "102727.910000", "102731.860000", "102728.020000", "102731.970000", "102728.130000", "102732.080000", "102728.240000", "102732.190000", "102728.350000", "102732.297500", "102728.460000", "102732.407500", "102728.567500", "102732.517500", "102728.677500", "102732.627500", "102728.787500", "102732.737500", "102728.897500", "102732.847500", "102729.007500", "102732.957500", "102729.117500", "102733.067500", "102729.227500", "102733.177500", "102729.337500", "102733.285000", "102729.445000", "102733.395000", "102729.555000", "102733.505000", "102729.665000", "102733.615000", "102729.775000", "102733.725000", "102729.885000", "102733.835000", "102729.995000", "102733.945000", "102730.105000", "102734.055000", "102730.215000", "102734.165000", "102730.325000", "102734.272500", "102730.432500", "102734.382500", "102730.542500", "102734.492500", "102730.652500", "102734.602500", "102730.762500", "102734.712500", "102730.872500", "102734.822500", "102730.982500", "102734.932500", "102731.092500", "102735.042500", "102731.202500", "102735.150000", "102731.312500", "102735.260000", "102731.420000", "102739.230000", "102735.390000", "102739.340000", "102735.500000", "102739.450000", "102735.610000", "102739.560000", "102735.720000", "102739.670000", "102735.830000", "102739.780000", "102735.940000", "102739.890000", "102736.050000", "102739.997500", "102736.160000", "102740.107500", "102736.267500", "102740.217500", "102736.377500", "102740.327500", "102736.487500", "102740.437500", "102736.597500", "102740.547500", "102736.707500", "102740.657500", "102736.817500", "102740.767500", "102736.927500", "102740.877500", "102737.037500", "102740.985000", "102737.145000", "102741.095000", "102737.255000", "102741.205000", "102737.365000", "102741.315000", "102737.475000", "102741.425000", "102737.585000", "102741.535000", "102737.695000", "102741.645000", "102737.805000", "102741.755000", "102737.915000", "102741.865000", "102738.025000", "102741.972500", "102738.132500", "102742.082500", "102738.242500", "102742.192500", "102738.352500", "102742.302500", "102738.462500", "102742.412500", "102738.572500", "102742.522500", "102738.682500", "102742.632500", "102738.792500", "102742.742500", "102738.902500", "102742.850000", "102739.012500", "102742.960000", "102739.120000", "102746.930000", "102743.090000", "102747.040000", "102743.200000", "102747.150000", "102743.310000", "102747.260000", "102743.420000", "102747.370000", "102743.530000", "102747.480000", "102743.640000", "102747.590000", "102743.750000", "102747.697500", "102743.860000", "102747.807500", "102743.967500", "102747.917500", "102744.077500", "102748.027500", "102744.187500", "102748.137500", "102744.297500", "102748.247500", "102744.407500", "102748.357500", "102744.517500", "102748.467500", "102744.627500", "102748.577500", "102744.737500", "102748.685000", "102744.845000", "102748.795000", "102744.955000", "102748.905000", "102745.065000", "102749.015000", "102745.175000", "102749.125000", "102745.285000", "102749.235000", "102745.395000", "102749.345000", "102745.505000", "102749.455000", "102745.615000", "102749.565000", "102745.725000", "102749.672500", "102745.832500", "102749.782500", "102745.942500", "102749.892500", "102746.052500", "102750.002500", "102746.162500", "102750.112500", "102746.272500", "102750.222500", "102746.382500", "102750.332500", "102746.492500", "102750.442500", "102746.602500", "102750.550000", "102746.712500", "102750.660000", "102746.820000", "102754.630000", "102750.790000", "102754.740000", "102750.900000", "102754.850000", "102751.010000", "102754.960000", "102751.120000", "102755.070000", "102751.230000", "102755.180000", "102751.340000", "102755.290000", "102751.450000", "102755.397500", "102751.560000", "102755.507500", "102751.667500", "102755.617500", "102751.777500", "102755.727500", "102751.887500", "102755.837500", "102751.997500", "102755.947500", "102752.107500", "102756.057500", "102752.217500", "102756.167500", "102752.327500", "102756.277500", "102752.437500", "102756.385000", "102752.545000", "102756.495000", "102752.655000", "102756.605000", "102752.765000", "102756.715000", "102752.875000", "102756.825000", "102752.985000", "102756.935000", "102753.095000", "102757.045000", "102753.205000", "102757.155000", "102753.315000", "102757.265000", "102753.425000", "102757.372500", "102753.532500", "102757.482500", "102753.642500", "102757.592500", "102753.752500", "102757.702500", "102753.862500", "102757.812500", "102753.972500", "102757.922500", "102754.082500", "102758.032500", "102754.192500", "102758.142500", "102754.302500", "102758.250000", "102754.412500", "102758.360000", "102754.520000", "102802.330000", "102758.490000", "102802.440000", "102758.600000", "102802.550000", "102758.710000", "102802.660000", "102758.820000", "102802.770000", "102758.930000", "102802.880000", "102759.040000", "102802.990000", "102759.150000", "102803.097500", "102759.260000", "102803.207500", "102759.367500", "102803.317500", "102759.477500", "102803.427500", "102759.587500", "102803.537500", "102759.697500", "102803.647500", "102759.807500", "102803.757500", "102759.917500", "102803.867500", "102800.027500", "102803.977500", "102800.137500", "102804.085000", "102800.245000", "102804.195000", "102800.355000", "102804.305000", "102800.465000", "102804.415000", "102800.575000", "102804.525000", "102800.685000", "102804.635000", "102800.795000", "102804.745000", "102800.905000", "102804.855000", "102801.015000", "102804.965000", "102801.125000", "102805.072500", "102801.232500", "102805.182500", "102801.342500", "102805.292500", "102801.452500", "102805.402500", "102801.562500", "102805.512500", "102801.672500", "102805.622500", "102801.782500", "102805.732500", "102801.892500", "102805.842500", "102802.002500", "102805.950000", "102802.112500", "102806.060000", "102802.220000", "102810.030000", "102806.190000", "102810.140000", "102806.300000", "102810.250000", "102806.410000", "102810.360000", "102806.520000", "102810.470000", "102806.630000", "102810.580000", "102806.740000", "102810.690000", "102806.850000", "102810.797500", "102806.960000", "102810.907500", "102807.067500", "102811.017500", "102807.177500", "102811.127500", "102807.287500", "102811.237500", "102807.397500", "102811.347500", "102807.507500", "102811.457500", "102807.617500", "102811.567500", "102807.727500", "102811.677500", "102807.837500", "102811.785000", "102807.945000", "102811.895