{
  "AcquisitionMatrixPE": 122,
  "AcquisitionNumber": 1,
  "AcquisitionTime": "10:29:57.457500",
  "BandwidthPerPixelPhaseEncode": 27.785,
  "BaseResolution": 122,
  "BodyPartExamined": "BRAIN",
  "CoilCombinationMethod": "Adaptive Combine",
  "ConsistencyInfo": "N4_VE11C_LATEST_20160120",
  "ConversionSoftware": "dcm2niix",
  "ConversionSoftwareVersion": "v1.0.20220720",
  "DerivedVendorReportedEchoSpacing": 0.000590011,
  "DeviceSerialNumber": "66112",
  "DiffusionScheme": "Monopolar",
  "DwellTime": 2e-06,
  "EchoTime": 0.068,
  "EchoTrainLength": 61,
  "EffectiveEchoSpacing": 0.000295005,
  "FlipAngle": 90,
  "HeudiconvVersion": "0.13.1",
  "ImageOrientationPatientDICOM": [0.985115, 0.17145, 0.0123575, -0.166797, 0.93605, 0.309822],
  "ImageOrientationText": "Tra>Cor(17.9)>Sag(-2.4)",
  "ImageType": [
    "ORIGINAL",
    "PRIMARY",
    "DIFFUSION",
    "NONE",
    "ND",
    "NORM"
],
  "ImagingFrequency": 123.252,
  "InPlanePhaseEncodingDirectionDICOM": "COL",
  "InstitutionAddress": "Maynard 3,Hanover,NH,US,03755",
  "InstitutionName": "Dartmouth College - PBS",
  "InstitutionalDepartmentName": "Department",
  "MRAcquisitionType": "2D",
  "MagneticFieldStrength": 3,
  "Manufacturer": "Siemens",
  "ManufacturersModelName": "Prisma",
  "Modality": "MR",
  "MultibandAccelerationFactor": 4,
  "NonlinearGradientCorrection": false,
  "ParallelReductionFactorInPlane": 2,
  "PartialFourier": 1,
  "PatientPosition": "HFS",
  "PercentPhaseFOV": 100,
  "PercentSampling": 100,
  "PhaseEncodingDirection": "j-",
  "PhaseEncodingSteps": 122,
  "PhaseResolution": 1,
  "PixelBandwidth": 2050,
  "ProcedureStepDescription": "dbic^QA",
  "ProtocolName": "dwi_acq-DTI-30-p2-s4",
  "PulseSequenceDetails": "%SiemensSeq%\\ep2d_diff",
  "ReceiveCoilActiveElements": "HEA;HEP",
  "ReceiveCoilName": "Head_32",
  "ReconMatrixPE": 122,
  "RefLinesPE": 38,
  "RepetitionTime": 3.6,
  "SAR": 0.185194,
  "ScanOptions": "FS",
  "ScanningSequence": "EP",
  "SequenceName": "*ep_b0",
  "SequenceVariant": "SK\\SP",
  "SeriesDescription": "dwi_acq-DTI-30-p2-s4",
  "SeriesNumber": 13,
  "ShimSetting": [4150, -7704, -7510, 279, -66, -74, -38, 61],
  "SliceThickness": 2,
  "SliceTiming": [2.58594, 0, 1.78906, 0.19531, 1.98438, 0.39844, 2.1875, 0.59375, 2.38281, 0.99219, 2.78125, 1.1875, 2.97656, 1.39062, 3.17969, 1.58594, 3.375, 0.78906, 2.58594, 0, 1.78906, 0.19531, 1.98438, 0.39844, 2.1875, 0.59375, 2.38281, 0.99219, 2.78125, 1.1875, 2.97656, 1.39062, 3.17969, 1.58594, 3.375, 0.78906, 2.58594, 0, 1.78906, 0.19531, 1.98438, 0.39844, 2.1875, 0.59375, 2.38281, 0.99219, 2.78125, 1.1875, 2.97656, 1.39062, 3.17969, 1.58594, 3.375, 0.78906, 2.58594, 0, 1.78906, 0.19531, 1.98438, 0.39844, 2.1875, 0.59375, 2.38281, 0.99219, 2.78125, 1.1875, 2.97656, 1.39062, 3.17969, 1.58594, 3.375, 0.78906],
  "SoftwareVersions": "syngo MR E11",
  "SpacingBetweenSlices": 2,
  "SpoilingState": true,
  "StationName": "AWP66112",
  "TotalReadoutTime": 0.0356956,
  "TxRefAmp": 237.779,
  "dcmmeta_affine": [
    [-1.9379318952560425, -0.32812467217445374, -0.08310329914093018, 145.05059814453125],
    [-0.33727794885635376, 1.8414093255996704, 0.6145439147949219, -107.49800109863281],
    [0.024309853091835976, -0.6094861030578613, 1.90142822265625, -18.310585021972656],
    [0.0, 0.0, 0.0, 1.0]
],
  "dcmmeta_reorient_transform": [
    [0.0, -1.0, 0.0, 121.0],
    [1.0, 0.0, 0.0, 0.0],
    [0.0, 0.0, -1.0, 71.0],
    [0.0, 0.0, 0.0, 1.0]
],
  "dcmmeta_shape": [122, 122, 72, 31],
  "dcmmeta_slice_dim": 2,
  "dcmmeta_version": 0.6,
  "global": {
    "const": {
      "AccessionNumber": "qa",
      "AcquisitionMatrix": [122, 0, 0, 122],
      "AngioFlag": "N",
      "BitsAllocated": 16,
      "BitsStored": 12,
      "BodyPartExamined": "BRAIN",
      "Columns": 122,
      "EchoNumbers": 1,
      "EchoTime": 68.0,
      "EchoTrainLength": 61,
      "FlipAngle": 90.0,
      "HighBit": 11,
      "ImageOrientationPatient": [0.98511538426028, 0.17144961848494, 0.01235750844968, -0.1667967060852, 0.93604974742408, 0.30982209279917],
      "ImageType": [
        "ORIGINAL",
        "PRIMARY",
        "DIFFUSION",
        "NONE",
        "ND",
        "NORM"
],
      "ImagedNucleus": "1H",
      "ImagingFrequency": 123.252356,
      "InPlanePhaseEncodingDirection": "COL",
      "MRAcquisitionType": "2D",
      "MagneticFieldStrength": 3.0,
      "Manufacturer": "SIEMENS",
      "ManufacturerModelName": "Prisma",
      "Modality": "MR",
      "NumberOfAverages": 1.0,
      "NumberOfPhaseEncodingSteps": 122,
      "PercentPhaseFieldOfView": 100.0,
      "PercentSampling": 100.0,
      "PerformedProcedureStepStartTime": "095546.097000",
      "PhotometricInterpretation": "MONOCHROME2",
      "PixelBandwidth": 2050.0,
      "PixelRepresentation": 0,
      "PixelSpacing": [1.9672131538391, 1.9672131538391],
      "ProtocolName": "dwi_acq-DTI-30-p2-s4",
      "RepetitionTime": 3600.0,
      "Rows": 122,
      "SAR": 0.18519358531334,
      "SamplesPerPixel": 1,
      "ScanOptions": "FS",
      "ScanningSequence": "EP",
      "SequenceVariant": [
        "SK",
        "SP"
],
      "SeriesDescription": "dwi_acq-DTI-30-p2-s4",
      "SeriesNumber": 13,
      "SeriesTime": "103006.568000",
      "SliceThickness": 2.0,
      "SmallestImagePixelValue": 0,
      "SoftwareVersions": "syngo MR E11",
      "SpacingBetweenSlices": 2.0,
      "SpecificCharacterSet": "ISO_IR 100",
      "StudyID": "3",
      "StudyTime": "095546.048000",
      "TransmitCoilName": "Body",
      "VariableFlipAngleFlag": "N",
      "WindowCenterWidthExplanation": "Algo1",
      "dBdt": 0.0},
    "slices": {
      "AcquisitionTime": ["102957.457500", "102954.872500", "102956.662500", "102955.070000", "102956.860000", "102955.270000", "102957.060000", "102955.467500", "102957.257500", "102955.865000", "102957.655000", "102956.065000", "102957.855000", "102956.265000", "102958.055000", "102956.462500", "102958.252500", "102955.667500", "102957.457500", "102954.872500", "102956.662500", "102955.070000", "102956.860000", "102955.270000", "102957.060000", "102955.467500", "102957.257500", "102955.865000", "102957.655000", "102956.065000", "102957.855000", "102956.265000", "102958.055000", "102956.462500", "102958.252500", "102955.667500", "102957.457500", "102954.872500", "102956.662500", "102955.070000", "102956.860000", "102955.270000", "102957.060000", "102955.467500", "102957.257500", "102955.865000", "102957.655000", "102956.065000", "102957.855000", "102956.265000", "102958.055000", "102956.462500", "102958.252500", "102955.667500", "102957.457500", "102954.872500", "102956.662500", "102955.070000", "102956.860000", "102955.270000", "102957.060000", "102955.467500", "102957.257500", "102955.865000", "102957.655000", "102956.065000", "102957.855000", "102956.265000", "102958.055000", "102956.462500", "102958.252500", "102955.667500", "103001.057500", "102958.472500", "103000.262500", "102958.670000", "103000.460000", "102958.870000", "103000.660000", "102959.067500", "103000.857500", "102959.465000", "103001.255000", "102959.665000", "103001.455000", "102959.865000", "103001.655000", "103000.062500", "103001.852500", "102959.267500", "103001.057500", "102958.472500", "103000.262500", "102958.670000", "103000.460000", "102958.870000", "103000.660000", "102959.067500", "103000.857500", "102959.465000", "103001.255000", "102959.665000", "103001.455000", "102959.865000", "103001.655000", "103000.062500", "103001.852500", "102959.267500", "103001.057500", "102958.472500", "103000.262500", "102958.670000", "103000.460000", "102958.870000", "103000.660000", "102959.067500", "103000.857500", "102959.465000", "103001.255000", "102959.665000", "103001.455000", "102959.865000", "103001.655000", "103000.062500", "103001.852500", "102959.267500", "103001.057500", "102958.472500", "103000.262500", "102958.670000", "103000.460000", "102958.870000", "103000.660000", "102959.067500", "103000.857500", "102959.465000", "103001.255000", "102959.665000", "103001.455000", "102959.865000", "103001.655000", "103000.062500", "103001.852500", "102959.267500", "103004.657500", "103002.072500", "103003.862500", "103002.270000", "103004.060000", "103002.470000", "103004.260000", "103002.667500", "103004.457500", "103003.065000", "103004.855000", "103003.265000", "103005.055000", "103003.465000", "103005.255000", "103003.662500", "103005.452500", "103002.867500", "103004.657500", "103002.072500", "103003.862500", "103002.270000", "103004.060000", "103002.470000", "103004.260000", "103002.667500", "103004.457500", "103003.065000", "103004.855000", "103003.265000", "103005.055000", "103003.465000", "103005.255000", "103003.662500", "103005.452500", "103002.867500", "103004.657500", "103002.072500", "103003.862500", "103002.270000", "103004.060000", "103002.470000", "103004.260000", "103002.667500", "103004.457500", "103003.065000", "103004.855000", "103003.265000", "103005.055000", "103003.465000", "103005.255000", "103003.662500", "103005.452500", "103002.867500", "103004.657500", "103002.072500", "103003.862500", "103002.270000", "103004.060000", "103002.470000", "103004.260000", "103002.667500", "103004.457500", "103003.065000", "103004.855000", "103003.265000", "103005.055000", "103003.465000", "103005.255000", "103003.662500", "103005.452500", "103002.867500", "103008.257500", "103005.672500", "103007.462500", "103005.870000", "103007.660000", "103006.070000", "103007.860000", "103006.267500", "103008.057500", "103006.665000", "103008.455000", "103006.865000", "103008.655000", "103007.065000", "103008.855000", "103007.262500", "103009.052500", "103006.467500", "103008.257500", "103005.672500", "103007.462500", "103005.870000", "103007.660000", "103006.070000", "103007.860000", "103006.267500", "103008.057500", "103006.665000", "103008.455000", "103006.865000", "103008.655000", "103007.065000", "103008.855000", "103007.262500", "103009.052500", "103006.467500", "103008.257500", "103005.672500", "103007.462500", "103005.870000", "103007.660000", "103006.070000", "103007.860000", "103006.267500", "103008.057500", "103006.665000", "103008.455000", "103006.865000", "103008.655000", "103007.065000", "103008.855000", "103007.262500", "103009.052500", "103006.467500", "103008.257500", "103005.672500", "103007.462500", "103005.870000", "103007.660000", "103006.070000", "103007.860000", "103006.267500", "103008.057500", "103006.665000", "103008.455000", "103006.865000", "103008.655000", "103007.065000", "103008.855000", "103007.262500", "103009.052500", "103006.467500", "103011.857500", "103009.272500", "103011.062500", "103009.470000", "103011.260000", "103009.670000", "103011.460000", "103009.867500", "103011.657500", "103010.265000", "103012.055000", "103010.465000", "103012.255000", "103010.665000", "103012.455000", "103010.862500", "103012.652500", "103010.067500", "103011.857500", "103009.272500", "103011.062500", "103009.470000", "103011.260000", "103009.670000", "103011.460000", "103009.867500", "103011.657500", "103010.265000", "103012.055000", "103010.465000", "103012.255000", "103010.665000", "103012.455000", "103010.862500", "103012.652500", "103010.067500", "103011.857500", "103009.272500", "103011.062500", "103009.470000", "103011.260000", "103009.670000", "103011.460000", "103009.867500", "103011.657500", "103010.265000", "103012.055000", "103010.465000", "103012.255000", "103010.665000", "103012.455000", "103010.862500", "103012.652500", "103010.067500", "103011.857500", "103009.272500", "103011.062500", "103009.470000", "103011.260000", "103009.670000", "103011.460000", "103009.867500", "103011.657500", "103010.265000", "103012.055000", "103010.465000", "103012.255000", "103010.665000", "103012.455000", "103010.862500", "103012.652500", "103010.067500", "103015.457500", "103012.872500", "103014.662500", "103013.070000", "103014.860000", "103013.270000", "103015.060000", "103013.467500", "103015.257500", "103013.865000", "103015.655000", "103014.065000", "103015.855000", "103014.265000", "103016.055000", "103014.462500", "103016.252500", "103013.667500", "103015.457500", "103012.872500", "103014.662500", "103013.070000", "103014.860000", "103013.270000", "103015.060000", "103013.467500", "103015.257500", "103013.865000", "103015.655000", "103014.065000", "103015.855000", "103014.265000", "103016.055000", "103014.462500", "103016.252500", "103013.667500", "103015.457500", "103012.872500", "103014.662500", "103013.070000", "103014.860000", "103013.270000", "103015.060000", "103013.467500", "103015.257500", "103013.865000", "103015.655000", "103014.065000", "103015.855000", "103014.265000", "103016.055000", "103014.462500", "103016.252500", "103013.667500", "103015.457500", "103012.872500", "103014.662500", "103013.070000", "103014.860000", "103013.270000", "103015.060000", "103013.467500", "103015.257500", "103013.865000", "103015.655000", "103014.065000", "103015.855000", "103014.265000", "103016.055000", "103014.462500", "103016.252500", "103013.667500", "103019.057500", "103016.472500", "103018.262500", "103016.670000", "103018.460000", "103016.870000", "103018.660000", "103017.067500", "103018.857500", "103017.465000", "103019.255000", "103017.665000", "103019.455000", "103017.865000", "103019.655000", "103018.062500", "103019.852500", "103017.267500", "103019.057500", "103016.472500", "103018.262500", "103016.670000", "103018.460000", "103016.870000", "103018.660000", "103017.067500", "103018.857500", "103017.465000", "103019.255000", "103017.665000", "103019.455000", "103017.865000", "103019.655000", "103018.062500", "103019.852500", "103017.267500", "103019.057500", "103016.472500", "103018.262500", "103016.670000", "103018.460000", "103016.870000", "103018.660000", "103017.067500", "103018.857500", "103017.465000", "103019.255000", "103017.665000", "103019.455000", "103017.865000", "103019.655000", "103018.062500", "103019.852500", "103017.267500", "103019.057500", "103016.472500", "103018.262500", "103016.670000", "103018.460000", "103016.870000", "103018.660000", "103017.067500", "103018.857500", "103017.465000", "103019.255000", "103017.665000", "103019.455000", "103017.865000", "103019.655000", "103018.062500", "103019.852500", "103017.267500", "103022.657500", "103020.072500", "103021.862500", "103020.270000", "103022.060000", "103020.470000", "103022.260000", "103020.667500", "103022.457500", "103021.065000", "103022.855000", "103021.265000", "103023.055000", "103021.465000", "103023.255000", "103021.662500", "103023.452500", "103020.867500", "103022.657500", "103020.072500", "103021.862500", "103020.270000", "103022.060000", "103020.470000", "103022.260000", "103020.667500", "103022.457500", "103021.065000", "103022.855000", "103021.265000", "103023.055000", "103021.465000", "103023.255000", "103021.662500", "103023.452500", "103020.867500", "103022.657500", "103020.072500", "103021.862500", "103020.270000", "103022.060000", "103020.470000", "103022.260000", "103020.667500", "103022.457500", "103021.065000", "103022.855000", "103021.265000", "103023.055000", "103021.465000", "103023.255000", "103021.662500", "103023.452500", "103020.867500", "103022.657500", "103020.072500", "103021.862500", "103020.270000", "103022.060000", "103020.470000", "103022.260000", "103020.667500", "103022.457500", "103021.065000", "103022.855000", "103021.265000", "103023.055000", "103021.465000", "103023.255000", "103021.662500", "103023.452500", "103020.867500", "103026.257500", "103023.672500", "103025.462500", "103023.870000", "103025.660000", "103024.070000", "103025.860000", "103024.267500", "103026.057500", "103024.665000", "103026.455000", "103024.865000", "103026.655000", "103025.065000", "103026.855000", "103025.262500", "103027.052500", "103024.467500", "103026.257500", "103023.672500", "103025.462500", "103023.870000", "103025.660000", "103024.070000", "103025.860000", "103024.267500", "103026.057500", "103024.665000", "103026.455000", "103024.865000", "103026.655000", "103025.065000", "103026.855000", "103025.262500", "103027.052500", "103024.467500", "103026.257500", "103023.672500", "103025.462500", "103023.870000", "103025.660000", "103024.070000", "103025.860000", "103024.267500", "103026.057500", "103024.665000", "103026.455000", "103024.865000", "103026.655000", "103025.065000", "103026.855000", "103025.262500", "103027.052500", "103024.467500", "103026.257500", "103023.672500", "103025.462500", "103023.870000", "103025.660000", "103024.070000", "103025.860000", "103024.267500", "103026.057500", "103024.665000", "103026.455000", "103024.865000", "103026.655000", "103025.065000", "103026.855000", "103025.262500", "103027.052500", "103024.467500", "103029.857500", "103027.272500", "103029.062500", "103027.470000", "103029.260000", "103027.670000", "103029.460000", "103027.867500", "103029.657500", "103028.265000", "103030.055000", "103028.465000", "103030.255000", "103028.665000", "103030.455000", "103028.862500", "103030.652500", "103028.067500", "103029.857500", "103027.272500", "103029.062500", "103027.470000", "103029.260000", "103027.670000", "103029.460000", "103027.867500", "103029.657500", "103028.265000", "103030.055000", "103028.465000", "103030.255000", "103028.665000", "103030.455000", "103028.862500", "103030.652500", "103028.067500", "103029.857500", "103027.272500", "103029.062500", "103027.470000", "103029.260000", "103027.670000", "103029.460000", "103027.867500", "103029.657500", "103028.265000", "103030.055000", "103028.465000", "103030.255000", "103028.665000", "103030.455000", "103028.862500", "103030.652500", "103028.067500", "103029.857500", "103027.272500", "103029.062500", "103027.470000", "103029.260000", "103027.670000", "103029.460000", "103027.867500", "103029.657500", "103028.265000", "103030.055000", "103028.465000", "103030.255000", "103028.665000", "103030.455000", "103028.862500", "103030.652500", "103028.067500", "103033.457500", "103030.872500", "103032.662500", "103031.070000", "103032.860000", "103031.270000", "103033.060000", "103031.467500", "103033.257500", "103031.865000", "103033.655000", "103032.065000", "103033.855000", "103032.265000", "103034.055000", "103032.462500", "103034.252500", "103031.667500", "103033.457500", "103030.872500", "103032.662500", "103031.070000", "103032.860000", "103031.270000", "103033.060000", "103031.467500", "103033.257500", "103031.865000", "103033.655000", "103032.065000", "103033.855000", "103032.265000", "103034.055000", "103032.462500", "103034.252500", "103031.667500", "103033.457500", "103030.872500", "103032.662500", "103031.070000", "103032.860000", "103031.270000", "103033.060000", "103031.467500", "103033.257500", "103031.865000", "103033.655000", "103032.065000", "103033.855000", "103032.265000", "103034.055000", "103032.462500", "103034.252500", "103031.667500", "103033.457500", "103030.872500", "103032.662500", "103031.070000", "103032.860000", "103031.270000", "103033.060000", "103031.467500", "103033.257500", "103031.865000", "103033.655000", "103032.065000", "103033.855000", "103032.265000", "103034.055000", "103032.462500", "103034.252500", "103031.667500", "103037.057500", "103034.472500", "103036.262500", "103034.670000", "103036.460000", "103034.870000", "103036.660000", "103035.067500", "103036.857500", "103035.465000", "103037.255000", "103035.665000", "103037.455000", "103035.865000", "103037.655000", "103036.062500", "103037.852500", "103035.267500", "103037.057500", "103034.472500", "103036.262500", "103034.670000", "103036.460000", "103034.870000", "103036.660000", "103035.067500", "103036.857500", "103035.465000", "103037.255000", "103035.665000", "103037.455000", "103035.865000", "103037.655000", "103036.062500", "103037.852500", "103035.267500", "103037.057500", "103034.472500", "103036.262500", "103034.670000", "103036.460000", "103034.870000", "103036.660000", "103035.067500", "103036.857500", "103035.465000", "103037.255000", "103035.665000", "103037.455000", "103035.865000", "103037.655000", "103036.062500", "103037.852500", "103035.267500", "103037.057500", "103034.472500", "103036.262500", "103034.670000", "103036.460000", "103034.870000", "103036.660000", "103035.067500", "103036.857500", "103035.465000", "103037.255000", "103035.665000", "103037.455000", "103035.865000", "103037.655000", "103036.062500", "103037.852500", "103035.267500", "103040.657500", "103038.072500", "103039.862500", "103038.270000", "103040.060000", "103038.470000", "103040.260000", "103038.667500", "103040.457500", "103039.065000", "103040.855000", "103039.265000", "103041.055000", "103039.465000", "103041.255000", "103039.662500", "103041.452500", "103038.867500", "103040.657500", "103038.072500", "103039.862500", "103038.270000", "103040.060000", "103038.470000", "103040.260000", "103038.667500", "103040.457500", "103039.065000", "103040.855000", "103039.265000", "103041.055000", "103039.465000", "103041.255000", "103039.662500", "103041.452500", "103038.867500", "103040.657500", "103038.072500", "103039.862500", "103038.270000", "103040.060000", "103038.470000", "103040.260000", "103038.667500", "103040.457500", "103039.065000", "103040.855000", "103039.265000", "103041.055000", "103039.465000", "103041.255000", "103039.662500", "103041.452500", "103038.867500", "103040.657500", "103038.072500", "103039.862500", "103038.270000", "103040.060000", "103038.470000", "103040.260000", "103038.667500", "103040.457500", "103039.065000", "103040.855000", "103039.265000", "103041.055000", "103039.465000", "103041.255000", "103039.662500", "103041.452500", "103038.867500", "103044.257500", "103041.672500", "103043.462500", "103041.870000", "103043.660000", "103042.070000", "103043.860000", "103042.267500", "103044.057500", "103042.665000", "103044.455000", "103042.865000", "103044.655000", "103043.065000", "103044.855000", "103043.262500", "103045.052500", "103042.467500", "103044.257500", "103041.672500", "103043.462500", "103041.870000", "103043.660000", "103042.070000", "103043.860000", "103042.267500", "103044.057500", "103042.665000", "103044.455000", "103042.865000", "103044.655000", "103043.065000", "103044.855000", "103043.262500", "103045.052500", "103042.467500", "103044.257500", "103041.672500", "103043.462500", "103041.870000", "103043.660000", "103042.070000", "103043.860000", "103042.267500", "103044.057500", "103042.665000", "103044.455000", "103042.865000", "103044.655000", "103043.065000", "103044.855000", "103043.262500", "103045.052500", "103042.467500", "103044.257500", "103041.672500", "103043.462500", "103041.870000", "103043.660000", "103042.070000", "103043.860000", "103042.267500", "103044.057500", "103042.665000", "103044.455000", "103042.865000", "103044.655000", "103043.065000", "103044.855000", "103043.262500", "103045.052500", "103042.467500", "103047.857500", "103045.272500", "103047.062500", "103045.470000", "103047.260000", "103045.670000", "103047.460000", "103045.867500", "103047.657500", "103046.265000", "103048.055000", "103046.465000", "103048.255000", "103046.665000", "103048.455000", "103046.862500", "103048.652500", "103046.067500", "103047.857500", "103045.272500", "103047.062500", "103045.470000", "103047.260000", "103045.670000", "103047.460000", "103045.867500", "103047.657500", "103046.265000", "103048.055000", "103046.465000", "103048.255000", "103046.665000", "103048.455000", "103046.862500", "103048.652500", "103046.067500", "103047.857500", "103045.272500", "103047.062500", "103045.470000", "103047.260000", "103045.670000", "103047.460000", "103045.867500", "103047.657500", "103046.265000", "103048.055000", "103046.465000", "103048.255000", "103046.665000", "103048.455000", "103046.862500", "103048.652500", "103046.067500", "103047.857500", "103045.272500", "103047.062500", "103045.470000", "103047.260000", "103045.670000", "103047.460000", "103045.867500", "103047.657500", "103046.265000", "103048.055000", "103046.465000", "103048.255000", "103046.665000", "103048.455000", "103046.862500", "103048.652500", "103046.067500", "103051.457500", "103048.872500", "103050.662500", "103049.070000", "103050.860000", "103049.270000", "103051.060000", "103049.467500", "103051.257500", "103049.865000", "103051.655000", "103050.065000", "103051.855000", "103050.265000", "103052.055000", "103050.462500", "103052.252500", "103049.667500", "103051.457500", "103048.872500", "103050.662500", "103049.070000", "103050.860000", "103049.270000", "103051.060000", "103049.467500", "103051.257500", "103049.865000", "103051.655000", "103050.065000", "103051.855000", "103050.265000", "103052.055000", "103050.462500", "103052.252500", "103049.667500", "103051.457500", "103048.872500", "103050.662500", "103049.070000", "103050.860000", "103049.270000", "103051.060000", "103049.467500", "103051.257500", "103049.865000", "103051.655000", "103050.065000", "103051.855000", "103050.265000", "103052.055000", "103050.462500", "103052.252500", "103049.667500", "103051.457500", "103048.872500", "103050.662500", "103049.070000", "103050.860000", "103049.270000", "103051.060000", "103049.467500", "103051.257500", "103049.865000", "103051.655000", "103050.065000", "103051.855000", "103050.265000", "103052.055000", "103050.462500", "103052.252500", "103049.667500", "103055.057500", "103052.472500", "103054.262500", "103052.670000", "103054.460000", "103052.870000", "103054.660000", "103053.067500", "103054.857500", "103053.465000", "103055.255000", "103053.665000", "103055.455000", "103053.865000", "103055.655000", "103054.062500", "103055.852500", "103053.267500", "103055.057500", "103052.472500", "103054.262500", "103052.670000", "103054.460000", "103052.870000", "103054.660000", "103053.067500", "103054.857500", "103053.465000", "103055.255000", "103053.665000", "103055.455000", "103053.865000", "103055.655000", "103054.062500", "103055.852500", "103053.267500", "103055.057500", "103052.472500", "103054.262500", "103052.670000", "103054.460000", "103052.870000", "103054.660000", "103053.067500", "103054.857500", "103053.465000", "103055.255000", "103053.665000", "103055.455000", "103053.865000", "103055.655000", "103054.062500", "103055.852500", "103053.267500", "103055.057500", "103052.472500", "103054.262500", "103052.670000", "103054.460000", "103052.870000", "103054.660000", "103053.067500", "103054.857500", "103053.465000", "103055.255000", "103053.665000", "103055.455000", "103053.865000", "103055.655000", "103054.062500", "103055.852500", "103053.267500", "103058.657500", "103056.072500", "103057.862500", "103056.270000", "103058.060000", "103056.470000", "103058.260000", "103056.667500", "103058.457500", "103057.065000", "103058.855000", "103057.265000", "103059.055000", "103057.465000", "103059.255000", "103057.662500", "103059.452500", "103056.867500", "103058.657500", "103056.072500", "103057.862500", "103056.270000", "103058.060000", "103056.470000", "103058.260000", "103056.667500", "103058.457500", "103057.065000", "103058.855000", "103057.265000", "103059.055000", "103057.465000", "103059.255000", "103057.662500", "103059.452500", "103056.867500", "103058.657500", "103056.072500", "103057.862500", "103056.270000", "103058.060000", "103056.470000", "103058.260000", "103056.667500", "103058.457500", "103057.065000", "103058.855000", "103057.265000", "103059.055000", "103057.465000", "103059.255000", "103057.662500", "103059.452500", "103056.867500", "103058.657500", "103056.072500", "103057.862500", "103056.270000", "103058.060000", "103056.470000", "103058.260000", "103056.667500", "103058.457500", "103057.065000", "103058.855000", "103057.265000", "103059.055000", "103057.465000", "103059.255000", "103057.662500", "103059.452500", "103056.867500", "103102.257500", "103059.672500", "103101.462500", "103059.870000", "103101.660000", "103100.070000", "103101.860000", "103100.267500", "103102.057500", "103100.665000", "103102.455000", "103100.865000", "103102.655000", "103101.065000", "103102.855000", "103101.262500", "103103.052500", "103100.467500", "103102.257500", "103059.672500", "103101.462500", "103059.870000", "103101.660000", "103100.070000", "103101.860000", "103100.267500", "103102.057500", "103100.665000", "103102.455000", "103100.865000", "103102.655000", "103101.065000", "103102.855000", "103101.262500", "103103.052500", "103100.467500", "103102.257500", "103059.672500", "103101.462500", "103059.870000", "103101.660000", "103100.070000", "103101.860000", "103100.267500", "103102.057500", "103100.665000", "103102.455000", "103100.865000", "103102.655000", "103101.065000", "103102.855000", "103101.262500", "103103.052500", "103100.467500", "103102.257500", "103059.672500", "103101.462500", "103059.870000", "103101.660000", "103100.070000", "103101.860000", "103100.267500", "103102.057500", "103100.665000", "103102.455000", "103100.865000", "103102.655000", "103101.065000", "103102.855000", "103101.262500", "103103.052500", "103100.467500", "103105.857500", "103103.272500", "103105.062500", "103103.470000", "103105.260000", "103103.670000", "103105.460000", "103103.867500", "103105.657500", "103104.265000", "103106.055000", "103104.465000", "103106.255000", "103104.665000", "103106.455000", "103104.862500", "103106.652500", "103104.067500", "103105.857500", "103103.272500", "103105.062500", "103103.470000", "103105.260000", "103103.670000", "103105.460000", "103103.867500", "103105.657500", "103104.265000", "103106.055000", "103104.465000", "103106.255000", "103104.665000", "103106.455000", "103104.862500", "103106.652500", "103104.067500", "103105.857500", "103103.272500", "103105.062500", "103103.470000", "103105.260000", "103103.670000", "103105.460000", "103103.867500", "103105.657500", "103104.265000", "103106.055000", "103104.465000", "103106.255000", "103104.665000", "103106.455000", "103104.862500", "103106.652500", "103104.067500", "103105.857500", "103103.272500", "103105.062500", "103103.470000", "103105.260000", "103103.670000", "103105.460000", "103103.867500", "103105.657500", "103104.265000", "103106.055000", "103104.465000