{
  "AcquisitionDateTime": "2017-03-20T10:41:54.140625", 
  "ConversionSoftware": "dcm2niix", 
  "ConversionSoftwareVersion": "v1.0.20170130", 
  "EchoTime": 0.035, 
  "EffectiveEchoSpacing": 0.000279999, 
  "FlipAngle": 90, 
  "ImageType": [
    "ORIGINAL", 
    "PRIMARY", 
    "M", 
    "ND", 
    "NORM", 
    "MOSAIC"
], 
  "MagneticFieldStrength": 3, 
  "Manufacturer": "Siemens", 
  "ManufacturersModelName": "Prisma", 
  "PhaseEncodingDirection": "j-", 
  "ProcedureStepDescription": "dbic_QA", 
  "ProtocolName": "func-bold_task-rest_acq-p2-s4-3.5mm", 
  "RepetitionTime": 2, 
  "SliceTiming": [1.485, 0, 0.99, 0.2475, 1.2375, 0.7425, 1.7325, 0.495, 1.485, 0, 0.99, 0.2475, 1.2375, 0.7425, 1.7325, 0.495, 1.485, 0, 0.99, 0.2475, 1.2375, 0.7425, 1.7325, 0.495, 1.485, 0, 0.99, 0.2475, 1.2375, 0.7425, 1.7325, 0.495], 
  "dcmmeta_affine": [
    [-2.9378066062927246, -0.5907649993896484, -0.1894417703151703, 149.14059448242188], 
    [-0.6059784889221191, 2.7951107025146484, 1.2044737339019775, -93.17579650878906], 
    [0.04562661796808243, -0.9156161546707153, 3.7991387844085693, -36.065757751464844], 
    [0.0, 0.0, 0.0, 1.0]
], 
  "dcmmeta_reorient_transform": [
    [0.0, -1.0, 0.0, 79.0], 
    [1.0, 0.0, 0.0, 0.0], 
    [0.0, 0.0, 1.0, 0.0], 
    [0.0, 0.0, 0.0, 1.0]
], 
  "dcmmeta_shape": [80, 80, 32, 200], 
  "dcmmeta_slice_dim": 2, 
  "dcmmeta_version": 0.6, 
  "global": {
    "const": {
      "AccessionNumber": "qa", 
      "AcquisitionMatrix": [80, 0, 0, 80], 
      "AngioFlag": "N", 
      "BitsAllocated": 16, 
      "BitsStored": 12, 
      "BodyPartExamined": "BRAIN", 
      "Columns": 480, 
      "EchoNumbers": 1, 
      "EchoTime": 35.0, 
      "EchoTrainLength": 39, 
      "FlipAngle": 90.0, 
      "HighBit": 11, 
      "ImageOrientationPatient": [0.97926890377821, 0.20199283230202, 0.0152088721353, -0.1969216729138, 0.93170356025279, 0.30520539076026], 
      "ImagePositionPatient": [-571.87849194018, -807.85578587921, -300.64799157484], 
      "ImageType": [
        "ORIGINAL", 
        "PRIMARY", 
        "M", 
        "ND", 
        "NORM", 
        "MOSAIC"
], 
      "ImagedNucleus": "1H", 
      "ImagingFrequency": 123.252515, 
      "InPlanePhaseEncodingDirection": "COL", 
      "MRAcquisitionType": "2D", 
      "MagneticFieldStrength": 3.0, 
      "Manufacturer": "SIEMENS", 
      "ManufacturerModelName": "Prisma", 
      "Modality": "MR", 
      "NumberOfAverages": 1.0, 
      "NumberOfPhaseEncodingSteps": 79, 
      "PercentPhaseFieldOfView": 100.0, 
      "PercentSampling": 100.0, 
      "PerformedProcedureStepStartTime": "103324.916000", 
      "PhotometricInterpretation": "MONOCHROME2", 
      "PixelBandwidth": 2315.0, 
      "PixelRepresentation": 0, 
      "PixelSpacing": [3.0, 3.0], 
      "PositionReferenceIndicator": "", 
      "ProtocolName": "func-bold_task-rest_acq-p2-s4-3.5mm", 
      "RepetitionTime": 2000.0, 
      "Rows": 480, 
      "SAR": 0.02092043423453, 
      "SamplesPerPixel": 1, 
      "ScanOptions": "FS", 
      "ScanningSequence": "EP", 
      "SequenceName": "*epfid2d1_80", 
      "SequenceVariant": "SK", 
      "SeriesDescription": "func-bold_task-rest_acq-p2-s4-3.5mm", 
      "SeriesNumber": 7, 
      "SeriesTime": "104246.220000", 
      "SliceLocation": -69.548887213187, 
      "SliceThickness": 3.5, 
      "SmallestImagePixelValue": 0, 
      "SoftwareVersions": "syngo MR E11", 
      "SpacingBetweenSlices": 3.9900000014505, 
      "SpecificCharacterSet": "ISO_IR 100", 
      "StudyID": "37", 
      "StudyTime": "103324.815000", 
      "TransmitCoilName": "Body", 
      "VariableFlipAngleFlag": "N", 
      "WindowCenterWidthExplanation": "Algo1", 
      "dBdt": 0.0}, 
    "slices": {}
  }, 
  "time": {
    "samples": {
      "AcquisitionNumber": [1, 2, 3, 4, 5, 6, 7, 8, 9, 10, 11, 12, 13, 14, 15, 16, 17, 18, 19, 20, 21, 22, 23, 24, 25, 26, 27, 28, 29, 30, 31, 32, 33, 34, 35, 36, 37, 38, 39, 40, 41, 42, 43, 44, 45, 46, 47, 48, 49, 50, 51, 52, 53, 54, 55, 56, 57, 58, 59, 60, 61, 62, 63, 64, 65, 66, 67, 68, 69, 70, 71, 72, 73, 74, 75, 76, 77, 78, 79, 80, 81, 82, 83, 84, 85, 86, 87, 88, 89, 90, 91, 92, 93, 94, 95, 96, 97, 98, 99, 100, 101, 102, 103, 104, 105, 106, 107, 108, 109, 110, 111, 112, 113, 114, 115, 116, 117, 118, 119, 120, 121, 122, 123, 124, 125, 126, 127, 128, 129, 130, 131, 132, 133, 134, 135, 136, 137, 138, 139, 140, 141, 142, 143, 144, 145, 146, 147, 148, 149, 150, 151, 152, 153, 154, 155, 156, 157, 158, 159, 160, 161, 162, 163, 164, 165, 166, 167, 168, 169, 170, 171, 172, 173, 174, 175, 176, 177, 178, 179, 180, 181, 182, 183, 184, 185, 186, 187, 188, 189, 190, 191, 192, 193, 194, 195, 196, 197, 198, 199, 200], 
      "AcquisitionTime": ["104154.140000", "104156.140000", "104158.140000", "104200.140000", "104202.140000", "104204.140000", "104206.140000", "104208.140000", "104210.140000", "104212.140000", "104214.140000", "104216.140000", "104218.140000", "104220.140000", "104222.140000", "104224.140000", "104226.140000", "104228.140000", "104230.140000", "104232.140000", "104234.140000", "104236.140000", "104238.140000", "104240.140000", "104242.140000", "104244.140000", "104246.140000", "104248.140000", "104250.140000", "104252.140000", "104254.140000", "104256.140000", "104258.140000", "104300.140000", "104302.140000", "104304.140000", "104306.140000", "104308.140000", "104310.140000", "104312.140000", "104314.140000", "104316.140000", "104318.140000", "104320.140000", "104322.140000", "104324.140000", "104326.140000", "104328.140000", "104330.140000", "104332.140000", "104334.140000", "104336.140000", "104338.140000", "104340.140000", "104342.140000", "104344.140000", "104346.140000", "104348.140000", "104350.140000", "104352.140000", "104354.140000", "104356.140000", "104358.140000", "104400.140000", "104402.140000", "104404.140000", "104406.140000", "104408.140000", "104410.140000", "104412.140000", "104414.140000", "104416.140000", "104418.140000", "104420.140000", "104422.140000", "104424.140000", "104426.140000", "104428.140000", "104430.140000", "104432.140000", "104434.140000", "104436.140000", "104438.140000", "104440.140000", "104442.140000", "104444.140000", "104446.140000", "104448.140000", "104450.140000", "104452.140000", "104454.140000", "104456.140000", "104458.140000", "104500.140000", "104502.140000", "104504.140000", "104506.140000", "104508.140000", "104510.140000", "104512.140000", "104514.140000", "104516.140000", "104518.140000", "104520.140000", "104522.140000", "104524.140000", "104526.140000", "104528.140000", "104530.140000", "104532.140000", "104534.140000", "104536.140000", "104538.140000", "104540.140000", "104542.140000", "104544.140000", "104546.140000", "104548.140000", "104550.140000", "104552.140000", "104554.140000", "104556.140000", "104558.140000", "104600.140000", "104602.140000", "104604.140000", "104606.140000", "104608.140000", "104610.140000", "104612.140000", "104614.140000", "104616.140000", "104618.140000", "104620.140000", "104622.140000", "104624.140000", "104626.140000", "104628.140000", "104630.140000", "104632.140000", "104634.140000", "104636.140000", "104638.140000", "104640.140000", "104642.140000", "104644.140000", "104646.140000", "104648.140000", "104650.140000", "104652.140000", "104654.140000", "104656.140000", "104658.140000", "104700.140000", "104702.140000", "104704.140000", "104706.140000", "104708.140000", "104710.140000", "104712.140000", "104714.140000", "104716.140000", "104718.140000", "104720.140000", "104722.140000", "104724.140000", "104726.140000", "104728.140000", "104730.140000", "104732.140000", "104734.140000", "104736.140000", "104738.140000", "104740.140000", "104742.140000", "104744.140000", "104746.140000", "104748.140000", "104750.140000", "104752.140000", "104754.140000", "104756.140000", "104758.140000", "104800.140000", "104802.140000", "104804.140000", "104806.140000", "104808.140000", "104810.140000", "104812.140000", "104814.140000", "104816.140000", "104818.140000", "104820.140000", "104822.140000", "104824.140000", "104826.140000", "104828.140000", "104830.140000", "104832.140000"], 
      "ContentTime": ["104246.223000", "104246.227000", "104246.229000", "104246.239000", "104246.241000", "104246.244000", "104246.250000", "104246.256000", "104246.259000", "104246.261000", "104246.264000", "104246.266000", "104246.269000", "104246.275000", "104246.278000", "104246.280000", "104246.283000", "104246.285000", "104246.288000", "104246.290000", "104246.293000", "104246.296000", "104246.298000", "104246.301000", "104246.303000", "104246.306000", "104326.219000", "104326.221000", "104326.224000", "104326.226000", "104326.229000", "104326.231000", "104326.234000", "104326.236000", "104326.239000", "104326.241000", "104326.244000", "104326.246000", "104326.249000", "104326.270000", "104326.272000", "104326.275000", "104326.277000", "104326.280000", "104326.282000", "104326.285000", "104406.218000", "104406.221000", "104406.224000", "104406.226000", "104406.229000", "104406.231000", "104406.234000", "104406.236000", "104406.239000", "104406.241000", "104406.244000", "104406.246000", "104406.249000", "104406.251000", "104406.254000", "104406.256000", "104406.259000", "104406.261000", "104406.264000", "104406.266000", "104446.217000", "104446.220000", "104446.223000", "104446.225000", "104446.228000", "104446.230000", "104446.233000", "104446.235000", "104446.238000", "104446.240000", "104446.243000", "104446.245000", "104446.248000", "104446.250000", "104446.253000", "104446.255000", "104446.258000", "104446.260000", "104446.263000", "104446.265000", "104526.218000", "104526.221000", "104526.224000", "104526.226000", "104526.229000", "104526.231000", "104526.234000", "104526.236000", "104526.239000", "104526.241000", "104526.244000", "104526.246000", "104526.249000", "104526.251000", "104526.254000", "104526.256000", "104526.259000", "104526.261000", "104526.264000", "104526.267000", "104606.218000", "104606.221000", "104606.224000", "104606.226000", "104606.229000", "104606.231000", "104606.234000", "104606.236000", "104606.239000", "104606.241000", "104606.244000", "104606.246000", "104606.249000", "104606.251000", "104606.254000", "104606.256000", "104606.259000", "104606.261000", "104606.264000", "104606.267000", "104626.218000", "104626.221000", "104626.224000", "104626.226000", "104626.229000", "104626.231000", "104626.234000", "104626.236000", "104626.245000", "104626.247000", "104706.217000", "104706.220000", "104706.223000", "104706.225000", "104706.228000", "104706.230000", "104706.233000", "104706.235000", "104706.238000", "104706.250000", "104706.252000", "104706.255000", "104706.257000", "104706.260000", "104706.262000", "104706.265000", "104706.267000", "104706.270000", "104706.272000", "104706.275000", "104746.218000", "104746.221000", "104746.224000", "104746.226000", "104746.229000", "104746.231000", "104746.234000", "104746.236000", "104746.239000", "104746.241000", "104746.244000", "104746.247000", "104746.260000", "104746.263000", "104746.265000", "104746.268000", "104746.270000", "104746.273000", "104746.275000", "104746.278000", "104826.218000", "104826.221000", "104826.224000", "104826.226000", "104826.229000", "104826.231000", "104826.234000", "104826.236000", "104826.239000", "104826.241000", "104826.244000", "104826.246000", "104826.249000", "104826.251000", "104826.254000", "104826.256000", "104826.259000", "104826.261000", "104826.264000", "104826.267000", "104833.620000", "104833.622000", "104833.625000", "104833.628000"], 
      "InstanceCreationTime": ["104246.223000", "104246.227000", "104246.229000", "104246.239000", "104246.241000", "104246.244000", "104246.250000", "104246.256000", "104246.259000", "104246.261000", "104246.264000", "104246.266000", "104246.269000", "104246.275000", "104246.278000", "104246.280000", "104246.283000", "104246.285000", "104246.288000", "104246.290000", "104246.293000", "104246.296000", "104246.298000", "104246.301000", "104246.303000", "104246.306000", "104326.219000", "104326.221000", "104326.224000", "104326.226000", "104326.229000", "104326.231000", "104326.234000", "104326.236000", "104326.239000", "104326.241000", "104326.244000", "104326.246000", "104326.249000", "104326.270000", "104326.272000", "104326.275000", "104326.277000", "104326.280000", "104326.282000", "104326.285000", "104406.218000", "104406.221000", "104406.224000", "104406.226000", "104406.229000", "104406.231000", "104406.234000", "104406.236000", "104406.239000", "104406.241000", "104406.244000", "104406.246000", "104406.249000", "104406.251000", "104406.254000", "104406.256000", "104406.259000", "104406.261000", "104406.264000", "104406.266000", "104446.217000", "104446.220000", "104446.223000", "104446.225000", "104446.228000", "104446.230000", "104446.233000", "104446.235000", "104446.238000", "104446.240000", "104446.243000", "104446.245000", "104446.248000", "104446.250000", "104446.253000", "104446.255000", "104446.258000", "104446.260000", "104446.263000", "104446.265000", "104526.218000", "104526.221000", "104526.224000", "104526.226000", "104526.229000", "104526.231000", "104526.234000", "104526.236000", "104526.239000", "104526.241000", "104526.244000", "104526.246000", "104526.249000", "104526.251000", "104526.254000", "104526.256000", "104526.259000", "104526.261000", "104526.264000", "104526.267000", "104606.218000", "104606.221000", "104606.224000", "104606.226000", "104606.229000", "104606.231000", "104606.234000", "104606.236000", "104606.239000", "104606.241000", "104606.244000", "104606.246000", "104606.249000", "104606.251000", "104606.254000", "104606.256000", "104606.259000", "104606.261000", "104606.264000", "104606.267000", "104626.218000", "104626.221000", "104626.224000", "104626.226000", "104626.229000", "104626.231000", "104626.234000", "104626.236000", "104626.245000", "104626.247000", "104706.217000", "104706.220000", "104706.223000", "104706.225000", "104706.228000", "104706.230000", "104706.233000", "104706.235000", "104706.238000", "104706.250000", "104706.252000", "104706.255000", "104706.257000", "104706.260000", "104706.262000", "104706.265000", "104706.267000", "104706.270000", "104706.272000", "104706.275000", "104746.218000", "104746.221000", "104746.224000", "104746.226000", "104746.229000", "104746.231000", "104746.234000", "104746.236000", "104746.239000", "104746.241000", "104746.244000", "104746.247000", "104746.260000", "104746.263000", "104746.265000", "104746.268000", "104746.270000", "104746.273000", "104746.275000", "104746.278000", "104826.218000", "104826.221000", "104826.224000", "104826.226000", "104826.229000", "104826.231000", "104826.234000", "104826.236000", "104826.239000", "104826.241000", "104826.244000", "104826.246000", "104826.249000", "104826.251000", "104826.254000", "104826.256000", "104826.259000", "104826.261000", "104826.264000", "104826.267000", "104833.620000", "104833.622000", "104833.625000", "104833.628000"], 
      "InstanceNumber": [1, 2, 3, 4, 5, 6, 7, 8, 9, 10, 11, 12, 13, 14, 15, 16, 17, 18, 19, 20, 21, 22, 23, 24, 25, 26, 27, 28, 29, 30, 31, 32, 33, 34, 35, 36, 37, 38, 39, 40, 41, 42, 43, 44, 45, 46, 47, 48, 49, 50, 51, 52, 53, 54, 55, 56, 57, 58, 59, 60, 61, 62, 63, 64, 65, 66, 67, 68, 69, 70, 71, 72, 73, 74, 75, 76, 77, 78, 79, 80, 81, 82, 83, 84, 85, 86, 87, 88, 89, 90, 91, 92, 93, 94, 95, 96, 97, 98, 99, 100, 101, 102, 103, 104, 105, 106, 107, 108, 109, 110, 111, 112, 113, 114, 115, 116, 117, 118, 119, 120, 121, 122, 123, 124, 125, 126, 127, 128, 129, 130, 131, 132, 133, 134, 135, 136, 137, 138, 139, 140, 141, 142, 143, 144, 145, 146, 147, 148, 149, 150, 151, 152, 153, 154, 155, 156, 157, 158, 159, 160, 161, 162, 163, 164, 165, 166, 167, 168, 169, 170, 171, 172, 173, 174, 175, 176, 177, 178, 179, 180, 181, 182, 183, 184, 185, 186, 187, 188, 189, 190, 191, 192, 193, 194, 195, 196, 197, 198, 199, 200], 
      "LargestImagePixelValue": [1948, 1950, 1945, 1952, 1949, 1956, 1956, 1949, 1947, 1947, 1951, 1951, 1956, 1957, 1948, 1953, 1944, 1947, 1948, 1953, 1951, 1947, 1952, 1943, 1943, 1948, 1950, 1951, 1947, 1955, 1950, 1947, 1953, 1951, 1952, 1951, 1951, 1950, 1949, 1953, 1942, 1947, 1948, 1951, 1951, 1948, 1951, 1958, 1953, 1951, 1945, 1957, 1950, 1947, 1953, 1950, 1948, 1950, 1949, 1949, 1949, 1953, 1948, 1948, 1951, 1953, 1955, 1947, 1949, 1954, 1957, 1955, 1949, 1951, 1950, 1949, 1950, 1947, 1950, 1947, 1958, 1955, 1947, 1949, 1947, 1950, 1945, 1963, 1952, 1951, 1951, 1944, 1953, 1946, 1948, 1950, 1948, 1951, 1949, 1946, 1954, 1946, 1945, 1948, 1951, 1953, 1953, 1953, 1949, 1955, 1953, 1952, 1954, 1950, 1954, 1949, 1948, 1949, 1948, 1948, 1953, 1948, 1950, 1954, 1951, 1950, 1952, 1955, 1949, 1950, 1954, 1947, 1950, 1950, 1956, 1946, 1949, 1952, 1954, 1956, 1953, 1953, 1948, 1944, 1951, 1948, 1947, 1954, 1952, 1949, 1950, 1952, 1955, 1948, 1946, 1950, 1944, 1948, 1950, 1960, 1949, 1952, 1949, 1954, 1950, 1951, 1948, 1952, 1951, 1949, 1950, 1949, 1951, 1949, 1950, 1952, 1947, 1949, 1944, 1950, 1947, 1949, 1947, 1944, 1947, 1951, 1953, 1944, 1948, 1951, 1951, 1946, 1945, 1946, 1948, 1943, 1955, 1945, 1948, 1945], 
      "WindowCenter": [895.0, 894.0, 894.0, 894.0, 894.0, 895.0, 895.0, 895.0, 895.0, 895.0, 895.0, 895.0, 895.0, 894.0, 895.0, 895.0, 895.0, 895.0, 895.0, 895.0, 895.0, 895.0, 895.0, 895.0, 895.0, 894.0, 895.0, 895.0, 895.0, 895.0, 895.0, 895.0, 895.0, 895.0, 895.0, 895.0, 895.0, 895.0, 895.0, 895.0, 895.0, 895.0, 895.0, 895.0, 895.0, 895.0, 895.0, 895.0, 895.0, 895.0, 895.0, 895.0, 895.0, 895.0, 895.0, 895.0, 895.0, 895.0, 895.0, 895.0, 895.0, 895.0, 895.0, 895.0, 895.0, 895.0, 895.0, 895.0, 895.0, 895.0, 895.0, 895.0, 895.0, 895.0, 895.0, 895.0, 895.0, 895.0, 895.0, 895.0, 895.0, 895.0, 895.0, 895.0, 895.0, 895.0, 895.0, 895.0, 895.0, 895.0, 895.0, 895.0, 895.0, 895.0, 895.0, 895.0, 895.0, 895.0, 895.0, 895.0, 895.0, 895.0, 895.0, 895.0, 895.0, 895.0, 895.0, 895.0, 895.0, 895.0, 895.0, 895.0, 895.0, 895.0, 895.0, 895.0, 895.0, 895.0, 895.0, 895.0, 895.0, 895.0, 895.0, 895.0, 895.0, 895.0, 895.0, 895.0, 895.0, 895.0, 895.0, 895.0, 895.0, 895.0, 895.0, 895.0, 895.0, 895.0, 895.0, 895.0, 895.0, 895.0, 895.0, 895.0, 895.0, 895.0, 895.0, 895.0, 895.0, 895.0, 895.0, 895.0, 895.0, 895.0, 895.0, 895.0, 895.0, 895.0, 895.0, 895.0, 895.0, 895.0, 895.0, 895.0, 895.0, 895.0, 895.0, 895.0, 895.0, 895.0, 895.0, 895.0, 895.0, 895.0, 895.0, 895.0, 895.0, 895.0, 895.0, 895.0, 895.0, 895.0, 895.0, 895.0, 895.0, 895.0, 895.0, 895.0, 895.0, 895.0, 895.0, 895.0, 895.0, 895.0, 895.0, 895.0, 895.0, 895.0, 895.0, 895.0], 
      "WindowWidth": [2010.0, 2009.0, 2009.0, 2009.0, 2010.0, 2010.0, 2010.0, 2009.0, 2009.0, 2009.0, 2009.0, 2010.0, 2010.0, 2010.0, 2009.0, 2010.0, 2009.0, 2010.0, 2009.0, 2010.0, 2010.0, 2009.0, 2010.0, 2010.0, 2010.0, 2010.0, 2010.0, 2010.0, 2009.0, 2010.0, 2009.0, 2010.0, 2010.0, 2010.0, 2010.0, 2010.0, 2010.0, 2010.0, 2009.0, 2010.0, 2010.0, 2010.0, 2010.0, 2009.0, 2010.0, 2009.0, 2010.0, 2010.0, 2010.0, 2010.0, 2010.0, 2010.0, 2010.0, 2010.0, 2010.0, 2010.0, 2010.0, 2010.0, 2009.0, 2009.0, 2010.0, 2010.0, 2010.0, 2009.0, 2010.0, 2010.0, 2010.0, 2010.0, 2010.0, 2010.0, 2009.0, 2009.0, 2009.0, 2009.0, 2010.0, 2010.0, 2010.0, 2009.0, 2010.0, 2010.0, 2010.0, 2010.0, 2010.0, 2009.0, 2010.0, 2010.0, 2010.0, 2010.0, 2010.0, 2010.0, 2009.0, 2009.0, 2010.0, 2010.0, 2010.0, 2010.0, 2010.0, 2010.0, 2010.0, 2010.0, 2010.0, 2010.0, 2010.0, 2010.0, 2010.0, 2010.0, 2010.0, 2010.0, 2010.0, 2010.0, 2010.0, 2010.0, 2010.0, 2010.0, 2010.0, 2010.0, 2010.0, 2009.0, 2010.0, 2009.0, 2010.0, 2010.0, 2010.0, 2010.0, 2010.0, 2010.0, 2010.0, 2010.0, 2010.0, 2010.0, 2010.0, 2010.0, 2010.0, 2010.0, 2010.0, 2010.0, 2010.0, 2010.0, 2010.0, 2010.0, 2010.0, 2010.0, 2010.0, 2010.0, 2010.0, 2010.0, 2010.0, 2010.0, 2010.0, 2010.0, 2010.0, 2010.0, 2010.0, 2010.0, 2010.0, 2009.0, 2010.0, 2010.0, 2009.0, 2010.0, 2009.0, 2010.0, 2010.0, 2010.0, 2010.0, 2009.0, 2010.0, 2009.0, 2010.0, 2009.0, 2009.0, 2009.0, 2010.0, 2010.0, 2009.0, 2010.0, 2009.0, 2010.0, 2010.0, 2010.0, 2010.0, 2010.0, 2009.0, 2010.0, 2010.0, 2010.0, 2010.0, 2010.0, 2010.0, 2009.0, 2009.0, 2009.0, 2009.0, 2009.0, 2010.0, 2010.0, 2009.0, 2010.0, 2010.0, 2010.0]
    }, 
    "slices": {}
  }
}