{
  "AcquisitionMatrixPE": 80,
  "AcquisitionNumber": 1,
  "AcquisitionTime": "09:16:4.192500",
  "BandwidthPerPixelPhaseEncode": 48.077,
  "BaseResolution": 80,
  "BodyPartExamined": "BRAIN",
  "CoilCombinationMethod": "Sum of Squares",
  "ConsistencyInfo": "N4_VE11C_LATEST_20160120",
  "ConversionSoftware": "dcm2niix",
  "ConversionSoftwareVersion": "v1.0.20220720",
  "DerivedVendorReportedEchoSpacing": 0.000519999,
  "DeviceSerialNumber": "66112",
  "DwellTime": 2.7e-06,
  "EchoTime": 0.035,
  "EchoTrainLength": 39,
  "EffectiveEchoSpacing": 0.00026,
  "FlipAngle": 90,
  "HeudiconvVersion": "0.13.1",
  "ImageOrientationPatientDICOM": [0.977437, 0.210887, 0.0119609, -0.204553, 0.930921, 0.302562],
  "ImageOrientationText": "Tra>Cor(17.4)>Sag(-3.0)",
  "ImageType": [
    "ORIGINAL",
    "PRIMARY",
    "M",
    "ND",
    "NORM",
    "MOSAIC"
],
  "ImagingFrequency": 123.252,
  "InPlanePhaseEncodingDirectionDICOM": "COL",
  "InstitutionAddress": "Maynard 3,Hanover,NH,US,03755",
  "InstitutionName": "Dartmouth College - PBS",
  "InstitutionalDepartmentName": "Department",
  "MRAcquisitionType": "2D",
  "MagneticFieldStrength": 3,
  "Manufacturer": "Siemens",
  "ManufacturersModelName": "Prisma",
  "MatrixCoilMode": "GRAPPA",
  "Modality": "MR",
  "NonlinearGradientCorrection": false,
  "ParallelReductionFactorInPlane": 2,
  "PartialFourier": 1,
  "PatientPosition": "HFS",
  "PercentPhaseFOV": 100,
  "PercentSampling": 100,
  "PhaseEncodingDirection": "j-",
  "PhaseEncodingSteps": 79,
  "PhaseResolution": 1,
  "PixelBandwidth": 2315,
  "ProcedureStepDescription": "dbic^QA",
  "ProtocolName": "func-bold_task-rest_acq-p2",
  "PulseSequenceDetails": "%SiemensSeq%\\ep2d_bold",
  "ReceiveCoilActiveElements": "HEA;HEP",
  "ReceiveCoilName": "Head_32",
  "ReconMatrixPE": 80,
  "RefLinesPE": 24,
  "RepetitionTime": 2,
  "SAR": 0.0557279,
  "ScanOptions": "FS",
  "ScanningSequence": "EP",
  "SequenceName": "*epfid2d1_80",
  "SequenceVariant": "SK",
  "SeriesDescription": "func-bold_task-rest_acq-p2",
  "SeriesNumber": 5,
  "ShimSetting": [4143, -7692, -7508, 275, -49, -206, -30, 44],
  "SliceThickness": 3.5,
  "SliceTiming": [0.99, 0, 1.0575, 0.0675, 1.1225, 0.1325, 1.1875, 0.1975, 1.255, 0.265, 1.32, 0.33, 1.3875, 0.3975, 1.4525, 0.4625, 1.5175, 0.5275, 1.585, 0.595, 1.65, 0.66, 1.7175, 0.7275, 1.7825, 0.7925, 1.8475, 0.8575, 1.915, 0.925],
  "SoftwareVersions": "syngo MR E11",
  "SpacingBetweenSlices": 3.99,
  "StationName": "AWP66112",
  "TaskName": "rest",
  "TotalReadoutTime": 0.02054,
  "TxRefAmp": 231.444,
  "dcmmeta_affine": [
    [-2.932311773300171, -0.6136600971221924, -0.2101605087518692, 148.13482666015625],
    [-0.6326610445976257, 2.7927629947662354, 1.1897480487823486, -93.822998046875],
    [0.035882819443941116, -0.9076873660087585, 3.802687644958496, -22.041563034057617],
    [0.0, 0.0, 0.0, 1.0]
],
  "dcmmeta_reorient_transform": [
    [0.0, -1.0, 0.0, 79.0],
    [1.0, 0.0, 0.0, 0.0],
    [0.0, 0.0, 1.0, 0.0],
    [0.0, 0.0, 0.0, 1.0]
],
  "dcmmeta_shape": [80, 80, 30, 200],
  "dcmmeta_slice_dim": 2,
  "dcmmeta_version": 0.6,
  "global": {
    "const": {
      "AccessionNumber": "qa",
      "AcquisitionMatrix": [80, 0, 0, 80],
      "AngioFlag": "N",
      "BitsAllocated": 16,
      "BitsStored": 12,
      "BodyPartExamined": "BRAIN",
      "Columns": 480,
      "EchoNumbers": 1,
      "EchoTime": 35.0,
      "EchoTrainLength": 39,
      "FlipAngle": 90.0,
      "HighBit": 11,
      "ImageOrientationPatient": [0.97743726118545, 0.21088702274585, 0.01196093991634, -0.2045533707207, 0.93092098602833, 0.30256245024598],
      "ImagePositionPatient": [-563.38601855864, -811.8900792294, -282.46289865613],
      "ImageType": [
        "ORIGINAL",
        "PRIMARY",
        "M",
        "ND",
        "NORM",
        "MOSAIC"
],
      "ImagedNucleus": "1H",
      "ImagingFrequency": 123.252438,
      "InPlanePhaseEncodingDirection": "COL",
      "MRAcquisitionType": "2D",
      "MagneticFieldStrength": 3.0,
      "Manufacturer": "SIEMENS",
      "ManufacturerModelName": "Prisma",
      "Modality": "MR",
      "NumberOfAverages": 1.0,
      "NumberOfPhaseEncodingSteps": 79,
      "PercentPhaseFieldOfView": 100.0,
      "PercentSampling": 100.0,
      "PerformedProcedureStepStartTime": "091136.316000",
      "PhotometricInterpretation": "MONOCHROME2",
      "PixelBandwidth": 2315.0,
      "PixelRepresentation": 0,
      "PixelSpacing": [3.0, 3.0],
      "ProtocolName": "func-bold_task-rest_acq-p2",
      "RepetitionTime": 2000.0,
      "Rows": 480,
      "SAR": 0.05572789764277,
      "SamplesPerPixel": 1,
      "ScanOptions": "FS",
      "ScanningSequence": "EP",
      "SequenceName": "*epfid2d1_80",
      "SequenceVariant": "SK",
      "SeriesDescription": "func-bold_task-rest_acq-p2",
      "SeriesNumber": 5,
      "SeriesTime": "091624.129000",
      "SliceLocation": -56.785713960185,
      "SliceThickness": 3.5,
      "SmallestImagePixelValue": 0,
      "SoftwareVersions": "syngo MR E11",
      "SpacingBetweenSlices": 3.9900000519937,
      "SpecificCharacterSet": "ISO_IR 100",
      "StudyID": "100",
      "StudyTime": "091136.188000",
      "TransmitCoilName": "Body",
      "VariableFlipAngleFlag": "N",
      "WindowCenterWidthExplanation": "Algo1",
      "dBdt": 0.0},
    "slices": {}
  },
  "time": {
    "samples": {
      "AcquisitionNumber": [1, 2, 3, 4, 5, 6, 7, 8, 9, 10, 11, 12, 13, 14, 15, 16, 17, 18, 19, 20, 21, 22, 23, 24, 25, 26, 27, 28, 29, 30, 31, 32, 33, 34, 35, 36, 37, 38, 39, 40, 41, 42, 43, 44, 45, 46, 47, 48, 49, 50, 51, 52, 53, 54, 55, 56, 57, 58, 59, 60, 61, 62, 63, 64, 65, 66, 67, 68, 69, 70, 71, 72, 73, 74, 75, 76, 77, 78, 79, 80, 81, 82, 83, 84, 85, 86, 87, 88, 89, 90, 91, 92, 93, 94, 95, 96, 97, 98, 99, 100, 101, 102, 103, 104, 105, 106, 107, 108, 109, 110, 111, 112, 113, 114, 115, 116, 117, 118, 119, 120, 121, 122, 123, 124, 125, 126, 127, 128, 129, 130, 131, 132, 133, 134, 135, 136, 137, 138, 139, 140, 141, 142, 143, 144, 145, 146, 147, 148, 149, 150, 151, 152, 153, 154, 155, 156, 157, 158, 159, 160, 161, 162, 163, 164, 165, 166, 167, 168, 169, 170, 171, 172, 173, 174, 175, 176, 177, 178, 179, 180, 181, 182, 183, 184, 185, 186, 187, 188, 189, 190, 191, 192, 193, 194, 195, 196, 197, 198, 199, 200],
      "AcquisitionTime": ["091604.192500", "091606.192500", "091608.192500", "091610.192500", "091612.192500", "091614.192500", "091616.192500", "091618.192500", "091620.192500", "091622.192500", "091624.192500", "091626.192500", "091628.192500", "091630.192500", "091632.192500", "091634.192500", "091636.192500", "091638.192500", "091640.192500", "091642.192500", "091644.192500", "091646.192500", "091648.192500", "091650.192500", "091652.192500", "091654.192500", "091656.192500", "091658.192500", "091700.192500", "091702.192500", "091704.192500", "091706.192500", "091708.192500", "091710.192500", "091712.192500", "091714.192500", "091716.192500", "091718.192500", "091720.192500", "091722.192500", "091724.192500", "091726.192500", "091728.192500", "091730.192500", "091732.192500", "091734.192500", "091736.192500", "091738.192500", "091740.192500", "091742.192500", "091744.192500", "091746.192500", "091748.192500", "091750.192500", "091752.192500", "091754.192500", "091756.192500", "091758.192500", "091800.192500", "091802.192500", "091804.192500", "091806.192500", "091808.192500", "091810.192500", "091812.192500", "091814.192500", "091816.192500", "091818.192500", "091820.192500", "091822.192500", "091824.192500", "091826.192500", "091828.192500", "091830.192500", "091832.192500", "091834.192500", "091836.192500", "091838.192500", "091840.192500", "091842.192500", "091844.192500", "091846.192500", "091848.192500", "091850.192500", "091852.192500", "091854.192500", "091856.192500", "091858.192500", "091900.192500", "091902.192500", "091904.192500", "091906.192500", "091908.192500", "091910.192500", "091912.192500", "091914.192500", "091916.192500", "091918.192500", "091920.192500", "091922.192500", "091924.192500", "091926.192500", "091928.192500", "091930.192500", "091932.192500", "091934.192500", "091936.192500", "091938.192500", "091940.192500", "091942.192500", "091944.192500", "091946.192500", "091948.192500", "091950.192500", "091952.192500", "091954.192500", "091956.192500", "091958.192500", "092000.192500", "092002.192500", "092004.192500", "092006.192500", "092008.192500", "092010.192500", "092012.192500", "092014.192500", "092016.192500", "092018.192500", "092020.192500", "092022.192500", "092024.192500", "092026.192500", "092028.192500", "092030.192500", "092032.192500", "092034.192500", "092036.192500", "092038.192500", "092040.192500", "092042.192500", "092044.192500", "092046.192500", "092048.192500", "092050.192500", "092052.192500", "092054.192500", "092056.192500", "092058.192500", "092100.192500", "092102.192500", "092104.192500", "092106.192500", "092108.192500", "092110.192500", "092112.192500", "092114.192500", "092116.192500", "092118.192500", "092120.192500", "092122.192500", "092124.192500", "092126.192500", "092128.192500", "092130.192500", "092132.192500", "092134.192500", "092136.192500", "092138.192500", "092140.192500", "092142.192500", "092144.192500", "092146.192500", "092148.192500", "092150.192500", "092152.192500", "092154.192500", "092156.192500", "092158.192500", "092200.192500", "092202.192500", "092204.192500", "092206.192500", "092208.192500", "092210.192500", "092212.192500", "092214.192500", "092216.192500", "092218.192500", "092220.192500", "092222.192500", "092224.192500", "092226.192500", "092228.192500", "092230.192500", "092232.192500", "092234.192500", "092236.192500", "092238.192500", "092240.192500", "092242.192500"],
      "ContentTime": ["091624.133000", "091624.136000", "091624.139000", "091624.141000", "091624.144000", "091624.147000", "091624.161000", "091624.163000", "091624.169000", "091624.172000", "091704.127000", "091704.129000", "091704.132000", "091704.135000", "091704.137000", "091704.140000", "091704.142000", "091704.145000", "091704.147000", "091704.150000", "091704.152000", "091704.155000", "091704.158000", "091704.160000", "091704.163000", "091704.165000", "091704.168000", "091704.170000", "091704.173000", "091704.176000", "091744.127000", "091744.132000", "091744.134000", "091744.137000", "091744.140000", "091744.142000", "091744.145000", "091744.147000", "091744.150000", "091744.152000", "091744.155000", "091744.158000", "091744.161000", "091744.163000", "091744.166000", "091744.169000", "091744.171000", "091744.174000", "091744.176000", "091744.179000", "091824.128000", "091824.130000", "091824.133000", "091824.136000", "091824.138000", "091824.141000", "091824.143000", "091824.146000", "091824.148000", "091824.151000", "091824.153000", "091824.156000", "091824.159000", "091824.161000", "091824.164000", "091824.166000", "091824.169000", "091824.171000", "091824.174000", "091824.176000", "091904.126000", "091904.129000", "091904.132000", "091904.135000", "091904.137000", "091904.140000", "091904.142000", "091904.145000", "091904.147000", "091904.150000", "091904.153000", "091904.155000", "091904.158000", "091904.160000", "091904.163000", "091904.165000", "091904.168000", "091904.170000", "091904.173000", "091904.175000", "091944.127000", "091944.130000", "091944.133000", "091944.135000", "091944.138000", "091944.140000", "091944.143000", "091944.146000", "091944.148000", "091944.151000", "091944.157000", "091944.160000", "091944.163000", "091944.165000", "091944.168000", "091944.170000", "091944.173000", "091944.176000", "091944.178000", "091944.181000", "092024.127000", "092024.130000", "092024.133000", "092024.136000", "092024.138000", "092024.141000", "092024.143000", "092024.146000", "092024.149000", "092024.151000", "092024.154000", "092024.157000", "092024.159000", "092024.162000", "092024.164000", "092024.167000", "092024.170000", "092024.172000", "092024.175000", "092024.177000", "092104.127000", "092104.130000", "092104.133000", "092104.136000", "092104.138000", "092104.141000", "092104.143000", "092104.146000", "092104.149000", "092104.151000", "092104.154000", "092104.156000", "092104.159000", "092104.161000", "092104.164000", "092104.166000", "092104.169000", "092104.172000", "092104.174000", "092104.177000", "092144.127000", "092144.129000", "092144.132000", "092144.134000", "092144.137000", "092144.140000", "092144.142000", "092144.145000", "092144.147000", "092144.150000", "092144.152000", "092144.155000", "092144.158000", "092144.160000", "092144.163000", "092144.165000", "092144.168000", "092144.170000", "092144.173000", "092144.176000", "092224.128000", "092224.130000", "092224.133000", "092224.135000", "092224.138000", "092224.141000", "092224.143000", "092224.146000", "092224.148000", "092224.151000", "092224.153000", "092224.156000", "092224.159000", "092224.161000", "092224.164000", "092224.166000", "092224.169000", "092224.172000", "092224.174000", "092224.177000", "092243.651000", "092243.654000", "092243.656000", "092243.659000", "092243.671000", "092243.673000", "092243.676000", "092243.679000", "092243.685000", "092243.688000"],
      "InstanceCreationTime": ["091624.133000", "091624.136000", "091624.139000", "091624.141000", "091624.144000", "091624.147000", "091624.161000", "091624.163000", "091624.169000", "091624.172000", "091704.127000", "091704.129000", "091704.132000", "091704.135000", "091704.137000", "091704.140000", "091704.142000", "091704.145000", "091704.147000", "091704.150000", "091704.152000", "091704.155000", "091704.158000", "091704.160000", "091704.163000", "091704.165000", "091704.168000", "091704.170000", "091704.173000", "091704.176000", "091744.127000", "091744.132000", "091744.134000", "091744.137000", "091744.140000", "091744.142000", "091744.145000", "091744.147000", "091744.150000", "091744.152000", "091744.155000", "091744.158000", "091744.161000", "091744.163000", "091744.166000", "091744.169000", "091744.171000", "091744.174000", "091744.176000", "091744.179000", "091824.128000", "091824.130000", "091824.133000", "091824.136000", "091824.138000", "091824.141000", "091824.143000", "091824.146000", "091824.148000", "091824.151000", "091824.153000", "091824.156000", "091824.159000", "091824.161000", "091824.164000", "091824.166000", "091824.169000", "091824.171000", "091824.174000", "091824.176000", "091904.126000", "091904.129000", "091904.132000", "091904.135000", "091904.137000", "091904.140000", "091904.142000", "091904.145000", "091904.147000", "091904.150000", "091904.153000", "091904.155000", "091904.158000", "091904.160000", "091904.163000", "091904.165000", "091904.168000", "091904.170000", "091904.173000", "091904.175000", "091944.127000", "091944.130000", "091944.133000", "091944.135000", "091944.138000", "091944.140000", "091944.143000", "091944.146000", "091944.148000", "091944.151000", "091944.157000", "091944.160000", "091944.163000", "091944.165000", "091944.168000", "091944.170000", "091944.173000", "091944.176000", "091944.178000", "091944.181000", "092024.127000", "092024.130000", "092024.133000", "092024.136000", "092024.138000", "092024.141000", "092024.143000", "092024.146000", "092024.149000", "092024.151000", "092024.154000", "092024.157000", "092024.159000", "092024.162000", "092024.164000", "092024.167000", "092024.170000", "092024.172000", "092024.175000", "092024.177000", "092104.127000", "092104.130000", "092104.133000", "092104.136000", "092104.138000", "092104.141000", "092104.143000", "092104.146000", "092104.149000", "092104.151000", "092104.154000", "092104.156000", "092104.159000", "092104.161000", "092104.164000", "092104.166000", "092104.169000", "092104.172000", "092104.174000", "092104.177000", "092144.127000", "092144.129000", "092144.132000", "092144.134000", "092144.137000", "092144.140000", "092144.142000", "092144.145000", "092144.147000", "092144.150000", "092144.152000", "092144.155000", "092144.158000", "092144.160000", "092144.163000", "092144.165000", "092144.168000", "092144.170000", "092144.173000", "092144.176000", "092224.128000", "092224.130000", "092224.133000", "092224.135000", "092224.138000", "092224.141000", "092224.143000", "092224.146000", "092224.148000", "092224.151000", "092224.153000", "092224.156000", "092224.159000", "092224.161000", "092224.164000", "092224.166000", "092224.169000", "092224.172000", "092224.174000", "092224.177000", "092243.651000", "092243.654000", "092243.656000", "092243.659000", "092243.671000", "092243.673000", "092243.676000", "092243.679000", "092243.685000", "092243.688000"],
      "InstanceNumber": [1, 2, 3, 4, 5, 6, 7, 8, 9, 10, 11, 12, 13, 14, 15, 16, 17, 18, 19, 20, 21, 22, 23, 24, 25, 26, 27, 28, 29, 30, 31, 32, 33, 34, 35, 36, 37, 38, 39, 40, 41, 42, 43, 44, 45, 46, 47, 48, 49, 50, 51, 52, 53, 54, 55, 56, 57, 58, 59, 60, 61, 62, 63, 64, 65, 66, 67, 68, 69, 70, 71, 72, 73, 74, 75, 76, 77, 78, 79, 80, 81, 82, 83, 84, 85, 86, 87, 88, 89, 90, 91, 92, 93, 94, 95, 96, 97, 98, 99, 100, 101, 102, 103, 104, 105, 106, 107, 108, 109, 110, 111, 112, 113, 114, 115, 116, 117, 118, 119, 120, 121, 122, 123, 124, 125, 126, 127, 128, 129, 130, 131, 132, 133, 134, 135, 136, 137, 138, 139, 140, 141, 142, 143, 144, 145, 146, 147, 148, 149, 150, 151, 152, 153, 154, 155, 156, 157, 158, 159, 160, 161, 162, 163, 164, 165, 166, 167, 168, 169, 170, 171, 172, 173, 174, 175, 176, 177, 178, 179, 180, 181, 182, 183, 184, 185, 186, 187, 188, 189, 190, 191, 192, 193, 194, 195, 196, 197, 198, 199, 200],
      "LargestImagePixelValue": [2046, 2035, 2040, 2040, 2041, 2038, 2036, 2041, 2031, 2036, 2039, 2041, 2042, 2046, 2047, 2038, 2037, 2037, 2041, 2043, 2042, 2037, 2042, 2037, 2043, 2041, 2037, 2037, 2048, 2043, 2047, 2044, 2044, 2040, 2044, 2046, 2041, 2043, 2045, 2039, 2042, 2046, 2040, 2045, 2047, 2043, 2039, 2043, 2040, 2046, 2045, 2044, 2049, 2047, 2040, 2042, 2043, 2041, 2050, 2039, 2046, 2040, 2046, 2051, 2043, 2044, 2043, 2043, 2044, 2041, 2040, 2043, 2044, 2043, 2040, 2045, 2040, 2037, 2045, 2039, 2051, 2055, 2044, 2044, 2048, 2043, 2041, 2042, 2048, 2048, 2047, 2050, 2038, 2046, 2046, 2043, 2043, 2043, 2046, 2040, 2047, 2047, 2047, 2045, 2040, 2041, 2048, 2041, 2045, 2043, 2045, 2047, 2046, 2039, 2046, 2045, 2048, 2045, 2046, 2046, 2043, 2050, 2044, 2037, 2044, 2041, 2042, 2043, 2045, 2039, 2039, 2036, 2046, 2043, 2045, 2047, 2041, 2043, 2040, 2050, 2046, 2046, 2042, 2049, 2046, 2046, 2042, 2038, 2040, 2039, 2041, 2048, 2046, 2049, 2040, 2045, 2044, 2041, 2051, 2043, 2042, 2040, 2043, 2040, 2046, 2040, 2039, 2040, 2046, 2036, 2042, 2043, 2039, 2040, 2039, 2045, 2044, 2046, 2046, 2046, 2041, 2040, 2049, 2037, 2040, 2048, 2044, 2041, 2041, 2044, 2040, 2040, 2043, 2042, 2037, 2045, 2049, 2038, 2041, 2036],
      "WindowCenter": [984.0, 984.0, 984.0, 984.0, 984.0, 984.0, 984.0, 985.0, 984.0, 984.0, 984.0, 984.0, 984.0, 984.0, 985.0, 984.0, 984.0, 984.0, 984.0, 984.0, 984.0, 984.0, 984.0, 985.0, 984.0, 984.0, 984.0, 984.0, 984.0, 984.0, 984.0, 984.0, 984.0, 984.0, 984.0, 984.0, 985.0, 984.0, 983.0, 984.0, 983.0, 984.0, 984.0, 984.0, 984.0, 984.0, 983.0, 983.0, 984.0, 984.0, 983.0, 983.0, 983.0, 983.0, 983.0, 984.0, 983.0, 983.0, 983.0, 984.0, 983.0, 983.0, 983.0, 983.0, 984.0, 983.0, 983.0, 983.0, 983.0, 983.0, 983.0, 983.0, 983.0, 983.0, 984.0, 983.0, 983.0, 983.0, 983.0, 983.0, 983.0, 983.0, 983.0, 983.0, 983.0, 983.0, 983.0, 984.0, 983.0, 983.0, 983.0, 984.0, 983.0, 983.0, 984.0, 983.0, 983.0, 984.0, 983.0, 983.0, 983.0, 983.0, 983.0, 983.0, 983.0, 984.0, 983.0, 983.0, 983.0, 984.0, 983.0, 983.0, 983.0, 983.0, 984.0, 983.0, 983.0, 983.0, 983.0, 984.0, 984.0, 983.0, 983.0, 983.0, 983.0, 984.0, 983.0, 983.0, 983.0, 984.0, 983.0, 983.0, 984.0, 983.0, 983.0, 983.0, 983.0, 983.0, 983.0, 983.0, 984.0, 983.0, 983.0, 984.0, 984.0, 983.0, 983.0, 984.0, 984.0, 983.0, 983.0, 983.0, 984.0, 983.0, 983.0, 984.0, 983.0, 983.0, 983.0, 983.0, 983.0, 983.0, 983.0, 983.0, 983.0, 984.0, 983.0, 983.0, 983.0, 983.0, 983.0, 983.0, 984.0, 983.0, 983.0, 983.0, 983.0, 983.0, 983.0, 984.0, 983.0, 983.0, 983.0, 983.0, 983.0, 983.0, 983.0, 983.0, 984.0, 984.0, 983.0, 983.0, 983.0, 983.0, 983.0, 983.0, 983.0, 983.0, 983.0, 983.0],
      "WindowWidth": [2152.0, 2152.0, 2152.0, 2152.0, 2151.0, 2151.0, 2151.0, 2152.0, 2151.0, 2151.0, 2151.0, 2151.0, 2151.0, 2151.0, 2152.0, 2151.0, 2152.0, 2151.0, 2151.0, 2152.0, 2151.0, 2152.0, 2152.0, 2152.0, 2152.0, 2152.0, 2151.0, 2151.0, 2151.0, 2151.0, 2151.0, 2151.0, 2151.0, 2151.0, 2151.0, 2151.0, 2152.0, 2151.0, 2151.0, 2151.0, 2151.0, 2151.0, 2151.0, 2151.0, 2151.0, 2151.0, 2151.0, 2151.0, 2151.0, 2151.0, 2151.0, 2151.0, 2151.0, 2151.0, 2151.0, 2151.0, 2150.0, 2150.0, 2150.0, 2151.0, 2150.0, 2150.0, 2150.0, 2150.0, 2151.0, 2150.0, 2150.0, 2150.0, 2150.0, 2150.0, 2150.0, 2150.0, 2150.0, 2150.0, 2150.0, 2150.0, 2150.0, 2150.0, 2150.0, 2150.0, 2150.0, 2150.0, 2150.0, 2150.0, 2150.0, 2150.0, 2150.0, 2151.0, 2150.0, 2150.0, 2150.0, 2151.0, 2150.0, 2150.0, 2151.0, 2150.0, 2150.0, 2151.0, 2150.0, 2150.0, 2150.0, 2150.0, 2149.0, 2150.0, 2150.0, 2151.0, 2149.0, 2150.0, 2149.0, 2150.0, 2150.0, 2149.0, 2150.0, 2149.0, 2150.0, 2150.0, 2150.0, 2150.0, 2149.0, 2150.0, 2150.0, 2150.0, 2149.0, 2149.0, 2149.0, 2150.0, 2149.0, 2149.0, 2149.0, 2150.0, 2149.0, 2149.0, 2150.0, 2149.0, 2149.0, 2149.0, 2149.0, 2149.0, 2149.0, 2149.0, 2150.0, 2149.0, 2149.0, 2150.0, 2150.0, 2149.0, 2149.0, 2150.0, 2150.0, 2149.0, 2149.0, 2149.0, 2150.0, 2149.0, 2149.0, 2150.0, 2149.0, 2149.0, 2149.0, 2149.0, 2149.0, 2149.0, 2149.0, 2149.0, 2148.0, 2149.0, 2148.0, 2148.0, 2149.0, 2149.0, 2148.0, 2149.0, 2150.0, 2148.0, 2148.0, 2148.0, 2148.0, 2148.0, 2149.0, 2149.0, 2148.0, 2149.0, 2148.0, 2148.0, 2149.0, 2149.0, 2148.0, 2148.0, 2149.0, 2149.0, 2149.0, 2148.0, 2149.0, 2148.0, 2148.0, 2149.0, 2148.0, 2148.0, 2149.0, 2148.0]
    },
    "slices": {}
  }
}