{
  "AcquisitionMatrixPE": 80,
  "AcquisitionNumber": 1,
  "AcquisitionTime": "09:19:11.167500",
  "BandwidthPerPixelPhaseEncode": 44.643,
  "BaseResolution": 80,
  "BodyPartExamined": "BRAIN",
  "CoilCombinationMethod": "Sum of Squares",
  "ConsistencyInfo": "N4_VE11C_LATEST_20160120",
  "ConversionSoftware": "dcm2niix",
  "ConversionSoftwareVersion": "v1.0.20220720",
  "DerivedVendorReportedEchoSpacing": 0.000559998,
  "DeviceSerialNumber": "66112",
  "DwellTime": 2.7e-06,
  "EchoTime": 0.035,
  "EchoTrainLength": 39,
  "EffectiveEchoSpacing": 0.000279999,
  "FlipAngle": 90,
  "HeudiconvVersion": "0.13.1",
  "ImageOrientationPatientDICOM": [0.98139, 0.191664, 0.0117865, -0.186145, 0.934468, 0.303512],
  "ImageOrientationText": "Tra>Cor(17.5)>Sag(-2.7)",
  "ImageType": [
    "ORIGINAL",
    "PRIMARY",
    "M",
    "ND",
    "NORM",
    "MOSAIC"
],
  "ImagingFrequency": 123.252,
  "InPlanePhaseEncodingDirectionDICOM": "COL",
  "InstitutionAddress": "Maynard 3,Hanover,NH,US,03755",
  "InstitutionName": "Dartmouth College - PBS",
  "InstitutionalDepartmentName": "Department",
  "MRAcquisitionType": "2D",
  "MagneticFieldStrength": 3,
  "Manufacturer": "Siemens",
  "ManufacturersModelName": "Prisma",
  "Modality": "MR",
  "MultibandAccelerationFactor": 4,
  "NonlinearGradientCorrection": false,
  "ParallelReductionFactorInPlane": 2,
  "PartialFourier": 1,
  "PatientPosition": "HFS",
  "PercentPhaseFOV": 100,
  "PercentSampling": 100,
  "PhaseEncodingDirection": "j-",
  "PhaseEncodingSteps": 79,
  "PhaseResolution": 1,
  "PixelBandwidth": 2315,
  "ProcedureStepDescription": "dbic^QA",
  "ProtocolName": "func-bold_task-rest_acq-p2-s4-3.5mm",
  "PulseSequenceDetails": "%SiemensSeq%\\ep2d_bold",
  "ReceiveCoilActiveElements": "HEA;HEP",
  "ReceiveCoilName": "Head_32",
  "ReconMatrixPE": 80,
  "RefLinesPE": 24,
  "RepetitionTime": 2,
  "SAR": 0.020903,
  "ScanOptions": "FS",
  "ScanningSequence": "EP",
  "SequenceName": "*epfid2d1_80",
  "SequenceVariant": "SK",
  "SeriesDescription": "func-bold_task-rest_acq-p2-s4-3.5mm",
  "SeriesNumber": 7,
  "ShimSetting": [4136, -7690, -7510, 328, -38, -168, -68, 24],
  "SliceThickness": 3.5,
  "SliceTiming": [1.485, 0, 0.99, 0.2475, 1.2375, 0.7425, 1.7325, 0.495, 1.485, 0, 0.99, 0.2475, 1.2375, 0.7425, 1.7325, 0.495, 1.485, 0, 0.99, 0.2475, 1.2375, 0.7425, 1.7325, 0.495, 1.485, 0, 0.99, 0.2475, 1.2375, 0.7425, 1.7325, 0.495],
  "SoftwareVersions": "syngo MR E11",
  "SpacingBetweenSlices": 3.99,
  "StationName": "AWP66112",
  "TaskName": "rest",
  "TotalReadoutTime": 0.0221199,
  "TxRefAmp": 226.468,
  "dcmmeta_affine": [
    [-2.944169521331787, -0.5584359169006348, -0.18816064298152924, 149.3979034423828],
    [-0.5749915242195129, 2.8034043312072754, 1.197228193283081, -99.08751678466797],
    [0.035359613597393036, -0.9105347394943237, 3.8014919757843018, -29.873432159423828],
    [0.0, 0.0, 0.0, 1.0]
],
  "dcmmeta_reorient_transform": [
    [0.0, -1.0, 0.0, 79.0],
    [1.0, 0.0, 0.0, 0.0],
    [0.0, 0.0, 1.0, 0.0],
    [0.0, 0.0, 0.0, 1.0]
],
  "dcmmeta_shape": [80, 80, 32, 200],
  "dcmmeta_slice_dim": 2,
  "dcmmeta_version": 0.6,
  "global": {
    "const": {
      "AccessionNumber": "qa",
      "AcquisitionMatrix": [80, 0, 0, 80],
      "AngioFlag": "N",
      "BitsAllocated": 16,
      "BitsStored": 12,
      "BodyPartExamined": "BRAIN",
      "Columns": 480,
      "EchoNumbers": 1,
      "EchoTime": 35.0,
      "EchoTrainLength": 39,
      "FlipAngle": 90.0,
      "HighBit": 11,
      "ImageOrientationPatient": [0.98138985451314, 0.19166384893745, 0.01178653762396, -0.1861452964923, 0.93446811063487, 0.30351157935122],
      "ImagePositionPatient": [-582.42819549874, -798.06060205571, -290.9845462607],
      "ImageType": [
        "ORIGINAL",
        "PRIMARY",
        "M",
        "ND",
        "NORM",
        "MOSAIC"
],
      "ImagedNucleus": "1H",
      "ImagingFrequency": 123.252417,
      "InPlanePhaseEncodingDirection": "COL",
      "MRAcquisitionType": "2D",
      "MagneticFieldStrength": 3.0,
      "Manufacturer": "SIEMENS",
      "ManufacturerModelName": "Prisma",
      "Modality": "MR",
      "NumberOfAverages": 1.0,
      "NumberOfPhaseEncodingSteps": 79,
      "PercentPhaseFieldOfView": 100.0,
      "PercentSampling": 100.0,
      "PerformedProcedureStepStartTime": "090201.702000",
      "PhotometricInterpretation": "MONOCHROME2",
      "PixelBandwidth": 2315.0,
      "PixelRepresentation": 0,
      "PixelSpacing": [3.0, 3.0],
      "ProtocolName": "func-bold_task-rest_acq-p2-s4-3.5mm",
      "RepetitionTime": 2000.0,
      "Rows": 480,
      "SAR": 0.02090297776523,
      "SamplesPerPixel": 1,
      "ScanOptions": "FS",
      "ScanningSequence": "EP",
      "SequenceName": "*epfid2d1_80",
      "SequenceVariant": "SK",
      "SeriesDescription": "func-bold_task-rest_acq-p2-s4-3.5mm",
      "SeriesNumber": 7,
      "SeriesTime": "092002.200000",
      "SliceLocation": -65.239292865145,
      "SliceThickness": 3.5,
      "SmallestImagePixelValue": 0,
      "SoftwareVersions": "syngo MR E11",
      "SpacingBetweenSlices": 3.9900000603467,
      "SpecificCharacterSet": "ISO_IR 100",
      "StudyID": "84",
      "StudyTime": "090201.640000",
      "TransmitCoilName": "Body",
      "VariableFlipAngleFlag": "N",
      "WindowCenterWidthExplanation": "Algo1",
      "dBdt": 0.0},
    "slices": {}
  },
  "time": {
    "samples": {
      "AcquisitionNumber": [1, 2, 3, 4, 5, 6, 7, 8, 9, 10, 11, 12, 13, 14, 15, 16, 17, 18, 19, 20, 21, 22, 23, 24, 25, 26, 27, 28, 29, 30, 31, 32, 33, 34, 35, 36, 37, 38, 39, 40, 41, 42, 43, 44, 45, 46, 47, 48, 49, 50, 51, 52, 53, 54, 55, 56, 57, 58, 59, 60, 61, 62, 63, 64, 65, 66, 67, 68, 69, 70, 71, 72, 73, 74, 75, 76, 77, 78, 79, 80, 81, 82, 83, 84, 85, 86, 87, 88, 89, 90, 91, 92, 93, 94, 95, 96, 97, 98, 99, 100, 101, 102, 103, 104, 105, 106, 107, 108, 109, 110, 111, 112, 113, 114, 115, 116, 117, 118, 119, 120, 121, 122, 123, 124, 125, 126, 127, 128, 129, 130, 131, 132, 133, 134, 135, 136, 137, 138, 139, 140, 141, 142, 143, 144, 145, 146, 147, 148, 149, 150, 151, 152, 153, 154, 155, 156, 157, 158, 159, 160, 161, 162, 163, 164, 165, 166, 167, 168, 169, 170, 171, 172, 173, 174, 175, 176, 177, 178, 179, 180, 181, 182, 183, 184, 185, 186, 187, 188, 189, 190, 191, 192, 193, 194, 195, 196, 197, 198, 199, 200],
      "AcquisitionTime": ["091911.167500", "091913.167500", "091915.167500", "091917.167500", "091919.167500", "091921.167500", "091923.167500", "091925.167500", "091927.167500", "091929.167500", "091931.167500", "091933.167500", "091935.167500", "091937.167500", "091939.167500", "091941.167500", "091943.167500", "091945.167500", "091947.167500", "091949.167500", "091951.167500", "091953.167500", "091955.167500", "091957.167500", "091959.167500", "092001.167500", "092003.167500", "092005.167500", "092007.167500", "092009.167500", "092011.167500", "092013.167500", "092015.167500", "092017.167500", "092019.167500", "092021.167500", "092023.167500", "092025.167500", "092027.167500", "092029.167500", "092031.167500", "092033.167500", "092035.167500", "092037.167500", "092039.167500", "092041.167500", "092043.167500", "092045.167500", "092047.167500", "092049.167500", "092051.167500", "092053.167500", "092055.167500", "092057.167500", "092059.167500", "092101.167500", "092103.167500", "092105.167500", "092107.167500", "092109.167500", "092111.167500", "092113.167500", "092115.167500", "092117.167500", "092119.167500", "092121.167500", "092123.167500", "092125.167500", "092127.167500", "092129.167500", "092131.167500", "092133.167500", "092135.167500", "092137.167500", "092139.167500", "092141.167500", "092143.167500", "092145.167500", "092147.167500", "092149.167500", "092151.167500", "092153.167500", "092155.167500", "092157.167500", "092159.167500", "092201.167500", "092203.167500", "092205.167500", "092207.167500", "092209.167500", "092211.167500", "092213.167500", "092215.167500", "092217.167500", "092219.167500", "092221.167500", "092223.167500", "092225.167500", "092227.167500", "092229.167500", "092231.167500", "092233.167500", "092235.167500", "092237.167500", "092239.167500", "092241.167500", "092243.167500", "092245.167500", "092247.167500", "092249.167500", "092251.167500", "092253.167500", "092255.167500", "092257.167500", "092259.167500", "092301.167500", "092303.167500", "092305.167500", "092307.167500", "092309.167500", "092311.167500", "092313.167500", "092315.167500", "092317.167500", "092319.167500", "092321.167500", "092323.167500", "092325.167500", "092327.167500", "092329.167500", "092331.167500", "092333.167500", "092335.167500", "092337.167500", "092339.167500", "092341.167500", "092343.167500", "092345.167500", "092347.167500", "092349.167500", "092351.167500", "092353.167500", "092355.167500", "092357.167500", "092359.167500", "092401.167500", "092403.167500", "092405.167500", "092407.167500", "092409.167500", "092411.167500", "092413.167500", "092415.167500", "092417.167500", "092419.167500", "092421.167500", "092423.167500", "092425.167500", "092427.167500", "092429.167500", "092431.167500", "092433.167500", "092435.167500", "092437.167500", "092439.167500", "092441.167500", "092443.167500", "092445.167500", "092447.167500", "092449.167500", "092451.167500", "092453.167500", "092455.167500", "092457.167500", "092459.167500", "092501.167500", "092503.167500", "092505.167500", "092507.167500", "092509.167500", "092511.167500", "092513.167500", "092515.167500", "092517.167500", "092519.167500", "092521.167500", "092523.167500", "092525.167500", "092527.167500", "092529.167500", "092531.167500", "092533.167500", "092535.167500", "092537.167500", "092539.167500", "092541.167500", "092543.167500", "092545.167500", "092547.167500", "092549.167500"],
      "ContentTime": ["092002.203000", "092002.207000", "092002.209000", "092002.212000", "092002.214000", "092002.217000", "092002.228000", "092002.235000", "092002.237000", "092002.240000", "092002.242000", "092002.245000", "092002.254000", "092002.262000", "092002.265000", "092002.268000", "092002.270000", "092002.273000", "092002.275000", "092002.278000", "092002.281000", "092002.283000", "092002.286000", "092002.288000", "092002.291000", "092002.293000", "092042.197000", "092042.200000", "092042.203000", "092042.205000", "092042.208000", "092042.211000", "092042.213000", "092042.216000", "092042.218000", "092042.221000", "092042.223000", "092042.226000", "092042.229000", "092042.239000", "092042.242000", "092042.244000", "092042.247000", "092042.250000", "092042.252000", "092042.256000", "092122.198000", "092122.201000", "092122.204000", "092122.206000", "092122.209000", "092122.211000", "092122.214000", "092122.216000", "092122.219000", "092122.222000", "092122.224000", "092122.227000", "092122.229000", "092122.232000", "092122.234000", "092122.237000", "092122.240000", "092122.242000", "092122.245000", "092122.247000", "092202.197000", "092202.200000", "092202.203000", "092202.205000", "092202.208000", "092202.210000", "092202.213000", "092202.216000", "092202.218000", "092202.221000", "092202.223000", "092202.226000", "092202.228000", "092202.231000", "092202.233000", "092202.236000", "092202.238000", "092202.241000", "092202.244000", "092202.246000", "092242.198000", "092242.201000", "092242.204000", "092242.206000", "092242.209000", "092242.211000", "092242.214000", "092242.217000", "092242.219000", "092242.222000", "092242.224000", "092242.227000", "092242.229000", "092242.232000", "092242.234000", "092242.237000", "092242.240000", "092242.242000", "092242.245000", "092242.247000", "092322.197000", "092322.200000", "092322.203000", "092322.205000", "092322.208000", "092322.210000", "092322.213000", "092322.216000", "092322.218000", "092322.221000", "092322.223000", "092322.226000", "092322.229000", "092322.231000", "092322.234000", "092322.236000", "092322.239000", "092322.241000", "092322.244000", "092322.247000", "092402.197000", "092402.200000", "092402.203000", "092402.205000", "092402.208000", "092402.211000", "092402.213000", "092402.216000", "092402.218000", "092402.221000", "092402.223000", "092402.226000", "092402.229000", "092402.231000", "092402.234000", "092402.236000", "092402.239000", "092402.241000", "092402.244000", "092402.246000", "092442.199000", "092442.201000", "092442.204000", "092442.207000", "092442.209000", "092442.212000", "092442.214000", "092442.217000", "092442.219000", "092442.222000", "092442.225000", "092442.227000", "092442.230000", "092442.232000", "092442.235000", "092442.237000", "092442.240000", "092442.242000", "092442.245000", "092442.248000", "092522.197000", "092522.200000", "092522.203000", "092522.205000", "092522.208000", "092522.210000", "092522.213000", "092522.216000", "092522.218000", "092522.221000", "092522.223000", "092522.226000", "092522.228000", "092522.231000", "092522.233000", "092522.236000", "092522.239000", "092522.241000", "092522.244000", "092522.257000", "092550.292000", "092550.295000", "092550.298000", "092550.302000", "092550.304000", "092550.307000", "092550.310000", "092550.312000", "092550.315000", "092550.318000", "092550.321000", "092550.324000", "092550.327000", "092550.330000"],
      "InstanceCreationTime": ["092002.203000", "092002.207000", "092002.209000", "092002.212000", "092002.214000", "092002.217000", "092002.228000", "092002.235000", "092002.237000", "092002.240000", "092002.242000", "092002.245000", "092002.254000", "092002.262000", "092002.265000", "092002.268000", "092002.270000", "092002.273000", "092002.275000", "092002.278000", "092002.281000", "092002.283000", "092002.286000", "092002.288000", "092002.291000", "092002.293000", "092042.197000", "092042.200000", "092042.203000", "092042.205000", "092042.208000", "092042.211000", "092042.213000", "092042.216000", "092042.218000", "092042.221000", "092042.223000", "092042.226000", "092042.229000", "092042.239000", "092042.242000", "092042.244000", "092042.247000", "092042.250000", "092042.252000", "092042.256000", "092122.198000", "092122.201000", "092122.204000", "092122.206000", "092122.209000", "092122.211000", "092122.214000", "092122.216000", "092122.219000", "092122.222000", "092122.224000", "092122.227000", "092122.229000", "092122.232000", "092122.234000", "092122.237000", "092122.240000", "092122.242000", "092122.245000", "092122.247000", "092202.197000", "092202.200000", "092202.203000", "092202.205000", "092202.208000", "092202.210000", "092202.213000", "092202.216000", "092202.218000", "092202.221000", "092202.223000", "092202.226000", "092202.228000", "092202.231000", "092202.233000", "092202.236000", "092202.238000", "092202.241000", "092202.244000", "092202.246000", "092242.198000", "092242.201000", "092242.204000", "092242.206000", "092242.209000", "092242.211000", "092242.214000", "092242.217000", "092242.219000", "092242.222000", "092242.224000", "092242.227000", "092242.229000", "092242.232000", "092242.234000", "092242.237000", "092242.240000", "092242.242000", "092242.245000", "092242.247000", "092322.197000", "092322.200000", "092322.203000", "092322.205000", "092322.208000", "092322.210000", "092322.213000", "092322.216000", "092322.218000", "092322.221000", "092322.223000", "092322.226000", "092322.229000", "092322.231000", "092322.234000", "092322.236000", "092322.239000", "092322.241000", "092322.244000", "092322.247000", "092402.197000", "092402.200000", "092402.203000", "092402.205000", "092402.208000", "092402.211000", "092402.213000", "092402.216000", "092402.218000", "092402.221000", "092402.223000", "092402.226000", "092402.229000", "092402.231000", "092402.234000", "092402.236000", "092402.239000", "092402.241000", "092402.244000", "092402.246000", "092442.199000", "092442.201000", "092442.204000", "092442.207000", "092442.209000", "092442.212000", "092442.214000", "092442.217000", "092442.219000", "092442.222000", "092442.225000", "092442.227000", "092442.230000", "092442.232000", "092442.235000", "092442.237000", "092442.240000", "092442.242000", "092442.245000", "092442.248000", "092522.197000", "092522.200000", "092522.203000", "092522.205000", "092522.208000", "092522.210000", "092522.213000", "092522.216000", "092522.218000", "092522.221000", "092522.223000", "092522.226000", "092522.228000", "092522.231000", "092522.233000", "092522.236000", "092522.239000", "092522.241000", "092522.244000", "092522.257000", "092550.292000", "092550.295000", "092550.298000", "092550.302000", "092550.304000", "092550.307000", "092550.310000", "092550.312000", "092550.315000", "092550.318000", "092550.321000", "092550.324000", "092550.327000", "092550.330000"],
      "InstanceNumber": [1, 2, 3, 4, 5, 6, 7, 8, 9, 10, 11, 12, 13, 14, 15, 16, 17, 18, 19, 20, 21, 22, 23, 24, 25, 26, 27, 28, 29, 30, 31, 32, 33, 34, 35, 36, 37, 38, 39, 40, 41, 42, 43, 44, 45, 46, 47, 48, 49, 50, 51, 52, 53, 54, 55, 56, 57, 58, 59, 60, 61, 62, 63, 64, 65, 66, 67, 68, 69, 70, 71, 72, 73, 74, 75, 76, 77, 78, 79, 80, 81, 82, 83, 84, 85, 86, 87, 88, 89, 90, 91, 92, 93, 94, 95, 96, 97, 98, 99, 100, 101, 102, 103, 104, 105, 106, 107, 108, 109, 110, 111, 112, 113, 114, 115, 116, 117, 118, 119, 120, 121, 122, 123, 124, 125, 126, 127, 128, 129, 130, 131, 132, 133, 134, 135, 136, 137, 138, 139, 140, 141, 142, 143, 144, 145, 146, 147, 148, 149, 150, 151, 152, 153, 154, 155, 156, 157, 158, 159, 160, 161, 162, 163, 164, 165, 166, 167, 168, 169, 170, 171, 172, 173, 174, 175, 176, 177, 178, 179, 180, 181, 182, 183, 184, 185, 186, 187, 188, 189, 190, 191, 192, 193, 194, 195, 196, 197, 198, 199, 200],
      "LargestImagePixelValue": [2099, 2097, 2095, 2097, 2099, 2092, 2095, 2097, 2093, 2096, 2092, 2096, 2098, 2100, 2095, 2096, 2096, 2098, 2096, 2101, 2093, 2092, 2098, 2093, 2097, 2097, 2098, 2098, 2101, 2094, 2097, 2100, 2098, 2099, 2093, 2097, 2096, 2095, 2092, 2097, 2097, 2094, 2093, 2096, 2095, 2092, 2092, 2095, 2091, 2098, 2095, 2097, 2098, 2097, 2100, 2098, 2094, 2092, 2094, 2098, 2091, 2096, 2097, 2094, 2102, 2096, 2098, 2094, 2098, 2100, 2101, 2099, 2092, 2093, 2102, 2097, 2092, 2095, 2097, 2096, 2095, 2097, 2096, 2094, 2099, 2098, 2100, 2098, 2102, 2093, 2099, 2100, 2097, 2101, 2098, 2097, 2100, 2098, 2097, 2100, 2099, 2094, 2101, 2100, 2093, 2099, 2097, 2098, 2097, 2096, 2093, 2099, 2095, 2097, 2097, 2097, 2095, 2096, 2099, 2097, 2093, 2100, 2100, 2096, 2095, 2102, 2096, 2094, 2097, 2095, 2100, 2095, 2101, 2096, 2096, 2098, 2102, 2102, 2095, 2096, 2098, 2093, 2095, 2102, 2093, 2099, 2098, 2096, 2099, 2094, 2095, 2100, 2097, 2098, 2094, 2095, 2098, 2099, 2102, 2096, 2098, 2095, 2102, 2097, 2099, 2098, 2099, 2096, 2096, 2098, 2100, 2098, 2094, 2098, 2099, 2095, 2095, 2101, 2098, 2097, 2099, 2102, 2098, 2096, 2096, 2099, 2095, 2095, 2099, 2094, 2098, 2102, 2097, 2099, 2094, 2096, 2095, 2102, 2094, 2103],
      "WindowCenter": [921.0, 921.0, 921.0, 921.0, 921.0, 921.0, 921.0, 921.0, 921.0, 921.0, 921.0, 921.0, 921.0, 921.0, 921.0, 921.0, 921.0, 921.0, 921.0, 921.0, 921.0, 921.0, 921.0, 921.0, 921.0, 921.0, 921.0, 921.0, 921.0, 921.0, 921.0, 921.0, 921.0, 921.0, 921.0, 921.0, 921.0, 921.0, 921.0, 921.0, 921.0, 921.0, 921.0, 921.0, 921.0, 921.0, 921.0, 921.0, 921.0, 921.0, 921.0, 921.0, 921.0, 921.0, 921.0, 921.0, 921.0, 921.0, 921.0, 921.0, 921.0, 921.0, 921.0, 921.0, 921.0, 921.0, 921.0, 920.0, 921.0, 920.0, 921.0, 921.0, 920.0, 920.0, 920.0, 920.0, 921.0, 920.0, 921.0, 921.0, 921.0, 920.0, 921.0, 921.0, 921.0, 921.0, 920.0, 920.0, 921.0, 921.0, 921.0, 920.0, 921.0, 921.0, 920.0, 920.0, 920.0, 921.0, 920.0, 920.0, 921.0, 921.0, 920.0, 921.0, 921.0, 920.0, 920.0, 921.0, 921.0, 921.0, 920.0, 920.0, 921.0, 920.0, 920.0, 920.0, 921.0, 920.0, 921.0, 920.0, 920.0, 921.0, 920.0, 920.0, 921.0, 921.0, 921.0, 920.0, 920.0, 920.0, 921.0, 920.0, 921.0, 920.0, 920.0, 921.0, 921.0, 920.0, 920.0, 920.0, 920.0, 920.0, 920.0, 920.0, 921.0, 921.0, 921.0, 920.0, 920.0, 920.0, 920.0, 920.0, 920.0, 920.0, 921.0, 920.0, 921.0, 920.0, 921.0, 920.0, 920.0, 920.0, 920.0, 920.0, 920.0, 920.0, 921.0, 920.0, 920.0, 920.0, 920.0, 920.0, 921.0, 920.0, 921.0, 921.0, 921.0, 921.0, 920.0, 920.0, 920.0, 921.0, 920.0, 921.0, 920.0, 920.0, 920.0, 920.0, 920.0, 921.0, 920.0, 921.0, 921.0, 920.0, 921.0, 921.0, 921.0, 920.0, 920.0, 920.0],
      "WindowWidth": [2098.0, 2098.0, 2098.0, 2098.0, 2098.0, 2098.0, 2099.0, 2099.0, 2098.0, 2098.0, 2098.0, 2098.0, 2098.0, 2098.0, 2098.0, 2098.0, 2098.0, 2098.0, 2098.0, 2098.0, 2098.0, 2098.0, 2098.0, 2099.0, 2098.0, 2098.0, 2098.0, 2098.0, 2098.0, 2098.0, 2098.0, 2098.0, 2099.0, 2099.0, 2099.0, 2099.0, 2098.0, 2098.0, 2099.0, 2098.0, 2098.0, 2099.0, 2099.0, 2099.0, 2098.0, 2098.0, 2098.0, 2098.0, 2098.0, 2099.0, 2099.0, 2099.0, 2099.0, 2099.0, 2099.0, 2099.0, 2099.0, 2099.0, 2098.0, 2099.0, 2099.0, 2099.0, 2099.0, 2098.0, 2098.0, 2098.0, 2098.0, 2098.0, 2098.0, 2098.0, 2098.0, 2098.0, 2098.0, 2098.0, 2098.0, 2098.0, 2098.0, 2098.0, 2098.0, 2098.0, 2098.0, 2098.0, 2098.0, 2098.0, 2098.0, 2098.0, 2098.0, 2098.0, 2098.0, 2098.0, 2098.0, 2098.0, 2098.0, 2098.0, 2098.0, 2098.0, 2098.0, 2098.0, 2098.0, 2098.0, 2098.0, 2098.0, 2098.0, 2098.0, 2098.0, 2098.0, 2098.0, 2098.0, 2098.0, 2098.0, 2098.0, 2098.0, 2098.0, 2098.0, 2098.0, 2098.0, 2098.0, 2098.0, 2098.0, 2098.0, 2098.0, 2098.0, 2098.0, 2098.0, 2098.0, 2098.0, 2098.0, 2098.0, 2098.0, 2098.0, 2097.0, 2098.0, 2098.0, 2098.0, 2098.0, 2098.0, 2098.0, 2098.0, 2098.0, 2098.0, 2098.0, 2098.0, 2098.0, 2098.0, 2098.0, 2098.0, 2098.0, 2098.0, 2098.0, 2098.0, 2098.0, 2098.0, 2098.0, 2098.0, 2098.0, 2098.0, 2098.0, 2098.0, 2097.0, 2098.0, 2098.0, 2098.0, 2098.0, 2098.0, 2098.0, 2098.0, 2097.0, 2098.0, 2097.0, 2098.0, 2098.0, 2098.0, 2097.0, 2098.0, 2098.0, 2098.0, 2098.0, 2098.0, 2098.0, 2098.0, 2098.0, 2098.0, 2098.0, 2098.0, 2098.0, 2098.0, 2098.0, 2098.0, 2098.0, 2097.0, 2098.0, 2098.0, 2097.0, 2098.0, 2098.0, 2097.0, 2097.0, 2098.0, 2098.0, 2098.0]
    },
    "slices": {}
  }
}