{
  "AcquisitionMatrixPE": 80,
  "AcquisitionNumber": 1,
  "AcquisitionTime": "10:22:18.510000",
  "BandwidthPerPixelPhaseEncode": 25,
  "BaseResolution": 80,
  "BodyPartExamined": "BRAIN",
  "CoilCombinationMethod": "Sum of Squares",
  "ConsistencyInfo": "N4_VE11C_LATEST_20160120",
  "ConversionSoftware": "dcm2niix",
  "ConversionSoftwareVersion": "v1.0.20220720",
  "DerivedVendorReportedEchoSpacing": 0.0005,
  "DeviceSerialNumber": "66112",
  "DwellTime": 2.7e-06,
  "EchoTime": 0.03,
  "EchoTrainLength": 80,
  "EffectiveEchoSpacing": 0.0005,
  "FlipAngle": 10,
  "HeudiconvVersion": "0.13.1",
  "ImageOrientationPatientDICOM": [0.992512, 0.122057, 0.00471027, -0.117472, 0.943238, 0.310647],
  "ImageOrientationText": "Tra>Cor(18.0)>Sag(-1.9)",
  "ImageType": [
    "ORIGINAL",
    "PRIMARY",
    "M",
    "ND",
    "NORM",
    "MOSAIC"
],
  "ImagingFrequency": 123.252,
  "InPlanePhaseEncodingDirectionDICOM": "COL",
  "InstitutionAddress": "Maynard 3,Hanover,NH,US,03755",
  "InstitutionName": "Dartmouth College - PBS",
  "InstitutionalDepartmentName": "Department",
  "MRAcquisitionType": "2D",
  "MagneticFieldStrength": 3,
  "Manufacturer": "Siemens",
  "ManufacturersModelName": "Prisma",
  "MatrixCoilMode": "SENSE",
  "Modality": "MR",
  "NonlinearGradientCorrection": false,
  "PartialFourier": 1,
  "PatientPosition": "HFS",
  "PercentPhaseFOV": 100,
  "PercentSampling": 100,
  "PhaseEncodingDirection": "j-",
  "PhaseEncodingSteps": 80,
  "PhaseResolution": 1,
  "PixelBandwidth": 2315,
  "ProcedureStepDescription": "dbic^QA",
  "ProtocolName": "func-bold_fa-10",
  "PulseSequenceDetails": "%SiemensSeq%\\ep2d_bold",
  "ReceiveCoilActiveElements": "HEA;HEP",
  "ReceiveCoilName": "Head_32",
  "ReconMatrixPE": 80,
  "RepetitionTime": 2,
  "SAR": 0.00997908,
  "ScanOptions": "FS",
  "ScanningSequence": "EP",
  "SequenceName": "*epfid2d1_80",
  "SequenceVariant": "SK",
  "SeriesDescription": "func-bold_fa-10",
  "SeriesNumber": 10,
  "ShimSetting": [4145, -7701, -7534, 297, -31, -168, 7, 124],
  "SliceThickness": 3.5,
  "SliceTiming": [0.99, 0, 1.0575, 0.0675, 1.1225, 0.1325, 1.19, 0.2, 1.255, 0.265, 1.32, 0.33, 1.3875, 0.3975, 1.4525, 0.4625, 1.52, 0.53, 1.585, 0.595, 1.65, 0.66, 1.7175, 0.7275, 1.7825, 0.7925, 1.85, 0.86, 1.915, 0.925],
  "SoftwareVersions": "syngo MR E11",
  "SpacingBetweenSlices": 3.99,
  "StationName": "AWP66112",
  "TotalReadoutTime": 0.0395,
  "TxRefAmp": 220.53,
  "dcmmeta_affine": [
    [-2.9775357246398926, -0.35241463780403137, -0.13356000185012817, 135.3163299560547],
    [-0.3661704361438751, 2.8297154903411865, 1.2324082851409912, -115.02143859863281],
    [0.014130805619060993, -0.9319412112236023, 3.7925496101379395, -22.91286849975586],
    [0.0, 0.0, 0.0, 1.0]
],
  "dcmmeta_reorient_transform": [
    [0.0, -1.0, 0.0, 79.0],
    [1.0, 0.0, 0.0, 0.0],
    [0.0, 0.0, 1.0, 0.0],
    [0.0, 0.0, 0.0, 1.0]
],
  "dcmmeta_shape": [80, 80, 30, 200],
  "dcmmeta_slice_dim": 2,
  "dcmmeta_version": 0.6,
  "global": {
    "const": {
      "AccessionNumber": "qa",
      "AcquisitionMatrix": [80, 0, 0, 80],
      "AngioFlag": "N",
      "BitsAllocated": 16,
      "BitsStored": 12,
      "BodyPartExamined": "BRAIN",
      "Columns": 480,
      "EchoNumbers": 1,
      "EchoTime": 30.0,
      "EchoTrainLength": 80,
      "FlipAngle": 10.0,
      "HighBit": 11,
      "ImageOrientationPatient": [0.99251193878449, 0.12205680948316, 0.00471026846868, -0.1174715448316, 0.94323848124323, 0.31064707250648],
      "ImagePositionPatient": [-632.49980655984, -747.70325644824, -285.75062961833],
      "ImageType": [
        "ORIGINAL",
        "PRIMARY",
        "M",
        "ND",
        "NORM",
        "MOSAIC"
],
      "ImagedNucleus": "1H",
      "ImagingFrequency": 123.252358,
      "InPlanePhaseEncodingDirection": "COL",
      "MRAcquisitionType": "2D",
      "MagneticFieldStrength": 3.0,
      "Manufacturer": "SIEMENS",
      "ManufacturerModelName": "Prisma",
      "Modality": "MR",
      "NumberOfAverages": 1.0,
      "NumberOfPhaseEncodingSteps": 80,
      "PercentPhaseFieldOfView": 100.0,
      "PercentSampling": 100.0,
      "PerformedProcedureStepStartTime": "100017.693000",
      "PhotometricInterpretation": "MONOCHROME2",
      "PixelBandwidth": 2315.0,
      "PixelRepresentation": 0,
      "PixelSpacing": [3.0, 3.0],
      "ProtocolName": "func-bold_fa-10",
      "RepetitionTime": 2000.0,
      "Rows": 480,
      "SAR": 0.00997908189654,
      "SamplesPerPixel": 1,
      "ScanOptions": "FS",
      "ScanningSequence": "EP",
      "SequenceName": "*epfid2d1_80",
      "SequenceVariant": "SK",
      "SeriesDescription": "func-bold_fa-10",
      "SeriesNumber": 10,
      "SeriesTime": "102300.436000",
      "SliceLocation": -61.835691181858,
      "SliceThickness": 3.5,
      "SmallestImagePixelValue": 0,
      "SoftwareVersions": "syngo MR E11",
      "SpacingBetweenSlices": 3.9900000392986,
      "SpecificCharacterSet": "ISO_IR 100",
      "StudyID": "38",
      "StudyTime": "100017.590000",
      "TransmitCoilName": "Body",
      "VariableFlipAngleFlag": "N",
      "WindowCenterWidthExplanation": "Algo1",
      "dBdt": 0.0},
    "slices": {}
  },
  "time": {
    "samples": {
      "AcquisitionNumber": [1, 2, 3, 4, 5, 6, 7, 8, 9, 10, 11, 12, 13, 14, 15, 16, 17, 18, 19, 20, 21, 22, 23, 24, 25, 26, 27, 28, 29, 30, 31, 32, 33, 34, 35, 36, 37, 38, 39, 40, 41, 42, 43, 44, 45, 46, 47, 48, 49, 50, 51, 52, 53, 54, 55, 56, 57, 58, 59, 60, 61, 62, 63, 64, 65, 66, 67, 68, 69, 70, 71, 72, 73, 74, 75, 76, 77, 78, 79, 80, 81, 82, 83, 84, 85, 86, 87, 88, 89, 90, 91, 92, 93, 94, 95, 96, 97, 98, 99, 100, 101, 102, 103, 104, 105, 106, 107, 108, 109, 110, 111, 112, 113, 114, 115, 116, 117, 118, 119, 120, 121, 122, 123, 124, 125, 126, 127, 128, 129, 130, 131, 132, 133, 134, 135, 136, 137, 138, 139, 140, 141, 142, 143, 144, 145, 146, 147, 148, 149, 150, 151, 152, 153, 154, 155, 156, 157, 158, 159, 160, 161, 162, 163, 164, 165, 166, 167, 168, 169, 170, 171, 172, 173, 174, 175, 176, 177, 178, 179, 180, 181, 182, 183, 184, 185, 186, 187, 188, 189, 190, 191, 192, 193, 194, 195, 196, 197, 198, 199, 200],
      "AcquisitionTime": ["102218.510000", "102220.510000", "102222.510000", "102224.510000", "102226.510000", "102228.510000", "102230.510000", "102232.510000", "102234.510000", "102236.510000", "102238.510000", "102240.510000", "102242.510000", "102244.510000", "102246.510000", "102248.510000", "102250.510000", "102252.510000", "102254.510000", "102256.510000", "102258.510000", "102300.510000", "102302.510000", "102304.510000", "102306.510000", "102308.510000", "102310.510000", "102312.510000", "102314.510000", "102316.510000", "102318.510000", "102320.510000", "102322.510000", "102324.510000", "102326.510000", "102328.510000", "102330.510000", "102332.510000", "102334.510000", "102336.510000", "102338.510000", "102340.510000", "102342.510000", "102344.510000", "102346.510000", "102348.510000", "102350.510000", "102352.510000", "102354.510000", "102356.510000", "102358.510000", "102400.510000", "102402.510000", "102404.510000", "102406.510000", "102408.510000", "102410.510000", "102412.510000", "102414.510000", "102416.510000", "102418.510000", "102420.510000", "102422.510000", "102424.510000", "102426.510000", "102428.510000", "102430.510000", "102432.510000", "102434.510000", "102436.510000", "102438.510000", "102440.510000", "102442.510000", "102444.510000", "102446.510000", "102448.510000", "102450.510000", "102452.510000", "102454.510000", "102456.510000", "102458.510000", "102500.510000", "102502.510000", "102504.510000", "102506.510000", "102508.510000", "102510.510000", "102512.510000", "102514.510000", "102516.510000", "102518.510000", "102520.510000", "102522.510000", "102524.510000", "102526.510000", "102528.510000", "102530.510000", "102532.510000", "102534.510000", "102536.510000", "102538.510000", "102540.510000", "102542.510000", "102544.510000", "102546.510000", "102548.510000", "102550.510000", "102552.510000", "102554.510000", "102556.510000", "102558.510000", "102600.510000", "102602.510000", "102604.510000", "102606.510000", "102608.510000", "102610.510000", "102612.510000", "102614.510000", "102616.510000", "102618.510000", "102620.510000", "102622.510000", "102624.510000", "102626.510000", "102628.510000", "102630.510000", "102632.510000", "102634.510000", "102636.510000", "102638.510000", "102640.510000", "102642.510000", "102644.510000", "102646.510000", "102648.510000", "102650.510000", "102652.510000", "102654.510000", "102656.510000", "102658.510000", "102700.510000", "102702.510000", "102704.510000", "102706.510000", "102708.510000", "102710.510000", "102712.510000", "102714.510000", "102716.510000", "102718.510000", "102720.510000", "102722.510000", "102724.510000", "102726.510000", "102728.510000", "102730.510000", "102732.510000", "102734.510000", "102736.510000", "102738.510000", "102740.510000", "102742.510000", "102744.510000", "102746.510000", "102748.510000", "102750.510000", "102752.510000", "102754.510000", "102756.510000", "102758.510000", "102800.510000", "102802.510000", "102804.510000", "102806.510000", "102808.510000", "102810.510000", "102812.510000", "102814.510000", "102816.510000", "102818.510000", "102820.510000", "102822.510000", "102824.510000", "102826.510000", "102828.510000", "102830.510000", "102832.510000", "102834.510000", "102836.510000", "102838.510000", "102840.510000", "102842.510000", "102844.510000", "102846.510000", "102848.510000", "102850.510000", "102852.510000", "102854.510000", "102856.510000"],
      "ContentTime": ["102300.439000", "102300.442000", "102300.445000", "102300.447000", "102300.450000", "102300.452000", "102300.461000", "102300.463000", "102300.466000", "102300.468000", "102300.471000", "102300.473000", "102300.476000", "102300.478000", "102300.481000", "102300.483000", "102300.486000", "102300.488000", "102300.490000", "102300.493000", "102300.495000", "102340.435000", "102340.438000", "102340.441000", "102340.443000", "102340.446000", "102340.448000", "102340.451000", "102340.453000", "102340.456000", "102340.458000", "102340.460000", "102340.463000", "102340.465000", "102340.468000", "102340.475000", "102340.477000", "102340.480000", "102340.482000", "102340.485000", "102340.487000", "102420.434000", "102420.437000", "102420.440000", "102420.442000", "102420.445000", "102420.453000", "102420.456000", "102420.458000", "102420.461000", "102420.463000", "102420.465000", "102420.468000", "102420.470000", "102420.473000", "102420.475000", "102420.478000", "102420.480000", "102420.483000", "102420.485000", "102420.488000", "102440.434000", "102440.437000", "102440.440000", "102440.442000", "102440.444000", "102440.447000", "102440.450000", "102440.452000", "102440.454000", "102440.457000", "102520.434000", "102520.437000", "102520.440000", "102520.442000", "102520.445000", "102520.447000", "102520.450000", "102520.452000", "102520.455000", "102520.457000", "102520.460000", "102520.462000", "102520.465000", "102520.467000", "102520.469000", "102520.472000", "102520.474000", "102520.477000", "102520.479000", "102520.482000", "102600.435000", "102600.438000", "102600.441000", "102600.443000", "102600.446000", "102600.448000", "102600.451000", "102600.453000", "102600.456000", "102600.458000", "102600.460000", "102600.463000", "102600.465000", "102600.468000", "102600.470000", "102600.473000", "102600.475000", "102600.492000", "102600.494000", "102600.497000", "102640.434000", "102640.437000", "102640.440000", "102640.442000", "102640.445000", "102640.447000", "102640.450000", "102640.452000", "102640.465000", "102640.468000", "102640.470000", "102640.473000", "102640.475000", "102640.478000", "102640.480000", "102640.483000", "102640.485000", "102640.487000", "102640.490000", "102640.492000", "102720.434000", "102720.437000", "102720.440000", "102720.442000", "102720.445000", "102720.447000", "102720.450000", "102720.452000", "102720.455000", "102720.457000", "102720.460000", "102720.462000", "102720.465000", "102720.467000", "102720.470000", "102720.472000", "102720.474000", "102720.477000", "102720.479000", "102720.482000", "102800.435000", "102800.438000", "102800.441000", "102800.443000", "102800.446000", "102800.448000", "102800.451000", "102800.453000", "102800.456000", "102800.458000", "102800.461000", "102800.463000", "102800.466000", "102800.468000", "102800.471000", "102800.473000", "102800.476000", "102800.478000", "102800.481000", "102800.483000", "102840.434000", "102840.437000", "102840.440000", "102840.442000", "102840.445000", "102840.447000", "102840.450000", "102840.452000", "102840.455000", "102840.457000", "102840.460000", "102840.462000", "102840.465000", "102840.467000", "102840.470000", "102840.472000", "102840.475000", "102840.477000", "102840.480000", "102840.482000", "102858.078000", "102858.081000", "102858.084000", "102858.086000", "102858.089000", "102858.091000", "102858.094000", "102858.096000", "102858.099000"],
      "InstanceCreationTime": ["102300.439000", "102300.442000", "102300.445000", "102300.447000", "102300.450000", "102300.452000", "102300.461000", "102300.463000", "102300.466000", "102300.468000", "102300.471000", "102300.473000", "102300.476000", "102300.478000", "102300.481000", "102300.483000", "102300.486000", "102300.488000", "102300.490000", "102300.493000", "102300.495000", "102340.435000", "102340.438000", "102340.441000", "102340.443000", "102340.446000", "102340.448000", "102340.451000", "102340.453000", "102340.456000", "102340.458000", "102340.460000", "102340.463000", "102340.465000", "102340.468000", "102340.475000", "102340.477000", "102340.480000", "102340.482000", "102340.485000", "102340.487000", "102420.434000", "102420.437000", "102420.440000", "102420.442000", "102420.445000", "102420.453000", "102420.456000", "102420.458000", "102420.461000", "102420.463000", "102420.465000", "102420.468000", "102420.470000", "102420.473000", "102420.475000", "102420.478000", "102420.480000", "102420.483000", "102420.485000", "102420.488000", "102440.434000", "102440.437000", "102440.440000", "102440.442000", "102440.444000", "102440.447000", "102440.450000", "102440.452000", "102440.454000", "102440.457000", "102520.434000", "102520.437000", "102520.440000", "102520.442000", "102520.445000", "102520.447000", "102520.450000", "102520.452000", "102520.455000", "102520.457000", "102520.460000", "102520.462000", "102520.465000", "102520.467000", "102520.469000", "102520.472000", "102520.474000", "102520.477000", "102520.479000", "102520.482000", "102600.435000", "102600.438000", "102600.441000", "102600.443000", "102600.446000", "102600.448000", "102600.451000", "102600.453000", "102600.456000", "102600.458000", "102600.460000", "102600.463000", "102600.465000", "102600.468000", "102600.470000", "102600.473000", "102600.475000", "102600.492000", "102600.494000", "102600.497000", "102640.434000", "102640.437000", "102640.440000", "102640.442000", "102640.445000", "102640.447000", "102640.450000", "102640.452000", "102640.465000", "102640.468000", "102640.470000", "102640.473000", "102640.475000", "102640.478000", "102640.480000", "102640.483000", "102640.485000", "102640.487000", "102640.490000", "102640.492000", "102720.434000", "102720.437000", "102720.440000", "102720.442000", "102720.445000", "102720.447000", "102720.450000", "102720.452000", "102720.455000", "102720.457000", "102720.460000", "102720.462000", "102720.465000", "102720.467000", "102720.470000", "102720.472000", "102720.474000", "102720.477000", "102720.479000", "102720.482000", "102800.435000", "102800.438000", "102800.441000", "102800.443000", "102800.446000", "102800.448000", "102800.451000", "102800.453000", "102800.456000", "102800.458000", "102800.461000", "102800.463000", "102800.466000", "102800.468000", "102800.471000", "102800.473000", "102800.476000", "102800.478000", "102800.481000", "102800.483000", "102840.434000", "102840.437000", "102840.440000", "102840.442000", "102840.445000", "102840.447000", "102840.450000", "102840.452000", "102840.455000", "102840.457000", "102840.460000", "102840.462000", "102840.465000", "102840.467000", "102840.470000", "102840.472000", "102840.475000", "102840.477000", "102840.480000", "102840.482000", "102858.078000", "102858.081000", "102858.084000", "102858.086000", "102858.089000", "102858.091000", "102858.094000", "102858.096000", "102858.099000"],
      "InstanceNumber": [1, 2, 3, 4, 5, 6, 7, 8, 9, 10, 11, 12, 13, 14, 15, 16, 17, 18, 19, 20, 21, 22, 23, 24, 25, 26, 27, 28, 29, 30, 31, 32, 33, 34, 35, 36, 37, 38, 39, 40, 41, 42, 43, 44, 45, 46, 47, 48, 49, 50, 51, 52, 53, 54, 55, 56, 57, 58, 59, 60, 61, 62, 63, 64, 65, 66, 67, 68, 69, 70, 71, 72, 73, 74, 75, 76, 77, 78, 79, 80, 81, 82, 83, 84, 85, 86, 87, 88, 89, 90, 91, 92, 93, 94, 95, 96, 97, 98, 99, 100, 101, 102, 103, 104, 105, 106, 107, 108, 109, 110, 111, 112, 113, 114, 115, 116, 117, 118, 119, 120, 121, 122, 123, 124, 125, 126, 127, 128, 129, 130, 131, 132, 133, 134, 135, 136, 137, 138, 139, 140, 141, 142, 143, 144, 145, 146, 147, 148, 149, 150, 151, 152, 153, 154, 155, 156, 157, 158, 159, 160, 161, 162, 163, 164, 165, 166, 167, 168, 169, 170, 171, 172, 173, 174, 175, 176, 177, 178, 179, 180, 181, 182, 183, 184, 185, 186, 187, 188, 189, 190, 191, 192, 193, 194, 195, 196, 197, 198, 199, 200],
      "LargestImagePixelValue": [392, 392, 391, 392, 391, 392, 395, 392, 392, 392, 394, 393, 394, 393, 398, 392, 394, 393, 393, 392, 395, 392, 393, 394, 392, 393, 391, 392, 393, 391, 393, 391, 392, 392, 393, 392, 392, 394, 394, 392, 392, 393, 394, 393, 393, 394, 392, 394, 392, 392, 393, 394, 393, 394, 392, 393, 394, 392, 393, 392, 392, 391, 392, 393, 393, 393, 393, 395, 393, 394, 392, 392, 394, 392, 395, 394, 393, 391, 393, 395, 393, 395, 394, 392, 393, 394, 396, 393, 393, 394, 394, 394, 391, 392, 393, 393, 394, 393, 392, 393, 394, 392, 392, 393, 391, 392, 392, 392, 395, 392, 392, 392, 392, 393, 392, 393, 392, 393, 393, 394, 392, 391, 394, 393, 392, 393, 392, 392, 394, 393, 392, 393, 392, 393, 394, 392, 394, 392, 392, 391, 391, 392, 392, 394, 392, 392, 393, 393, 393, 391, 391, 393, 393, 393, 393, 392, 393, 392, 393, 391, 393, 393, 393, 391, 393, 392, 391, 394, 392, 393, 392, 393, 393, 392, 392, 392, 394, 392, 391, 393, 392, 393, 394, 391, 392, 393, 393, 392, 394, 392, 394, 392, 393, 392, 392, 393, 392, 391, 391, 393],
      "WindowCenter": [311.0, 311.0, 311.0, 311.0, 311.0, 311.0, 311.0, 312.0, 311.0, 311.0, 312.0, 311.0, 311.0, 311.0, 311.0, 311.0, 311.0, 311.0, 311.0, 311.0, 311.0, 312.0, 311.0, 311.0, 312.0, 311.0, 311.0, 311.0, 311.0, 311.0, 311.0, 311.0, 311.0, 311.0, 311.0, 311.0, 311.0, 311.0, 311.0, 311.0, 311.0, 311.0, 311.0, 311.0, 311.0, 311.0, 311.0, 311.0, 311.0, 311.0, 311.0, 311.0, 312.0, 311.0, 311.0, 311.0, 311.0, 311.0, 311.0, 311.0, 312.0, 311.0, 311.0, 311.0, 311.0, 312.0, 311.0, 311.0, 311.0, 311.0, 311.0, 312.0, 311.0, 311.0, 311.0, 311.0, 311.0, 311.0, 311.0, 312.0, 311.0, 311.0, 311.0, 311.0, 311.0, 311.0, 312.0, 312.0, 312.0, 312.0, 312.0, 311.0, 311.0, 311.0, 311.0, 311.0, 311.0, 312.0, 312.0, 311.0, 311.0, 311.0, 311.0, 311.0, 311.0, 311.0, 311.0, 311.0, 311.0, 312.0, 311.0, 311.0, 311.0, 311.0, 311.0, 311.0, 311.0, 311.0, 311.0, 312.0, 311.0, 311.0, 311.0, 311.0, 311.0, 311.0, 311.0, 311.0, 311.0, 311.0, 311.0, 311.0, 311.0, 311.0, 311.0, 311.0, 311.0, 311.0, 311.0, 311.0, 311.0, 311.0, 311.0, 311.0, 311.0, 311.0, 312.0, 311.0, 311.0, 311.0, 311.0, 311.0, 311.0, 311.0, 311.0, 311.0, 311.0, 311.0, 311.0, 311.0, 310.0, 312.0, 311.0, 311.0, 311.0, 311.0, 311.0, 311.0, 311.0, 311.0, 311.0, 311.0, 311.0, 311.0, 311.0, 311.0, 311.0, 310.0, 311.0, 311.0, 311.0, 311.0, 311.0, 311.0, 311.0, 311.0, 311.0, 311.0, 311.0, 311.0, 311.0, 311.0, 311.0, 311.0, 311.0, 311.0, 311.0, 311.0, 311.0, 310.0],
      "WindowWidth": [672.0, 672.0, 672.0, 672.0, 672.0, 672.0, 672.0, 672.0, 672.0, 672.0, 672.0, 672.0, 672.0, 672.0, 672.0, 672.0, 672.0, 672.0, 672.0, 672.0, 672.0, 672.0, 672.0, 672.0, 672.0, 672.0, 672.0, 672.0, 672.0, 672.0, 672.0, 672.0, 672.0, 672.0, 672.0, 672.0, 672.0, 672.0, 672.0, 672.0, 672.0, 672.0, 672.0, 672.0, 672.0, 672.0, 672.0, 672.0, 672.0, 672.0, 672.0, 672.0, 672.0, 672.0, 672.0, 672.0, 672.0, 672.0, 672.0, 672.0, 672.0, 672.0, 672.0, 672.0, 672.0, 673.0, 672.0, 672.0, 672.0, 672.0, 672.0, 672.0, 672.0, 672.0, 672.0, 672.0, 672.0, 672.0, 672.0, 672.0, 672.0, 672.0, 672.0, 672.0, 672.0, 672.0, 674.0, 674.0, 672.0, 672.0, 672.0, 672.0, 672.0, 672.0, 672.0, 672.0, 672.0, 672.0, 672.0, 672.0, 672.0, 672.0, 672.0, 671.0, 672.0, 672.0, 672.0, 672.0, 672.0, 672.0, 672.0, 672.0, 672.0, 672.0, 672.0, 672.0, 672.0, 672.0, 672.0, 673.0, 672.0, 672.0, 672.0, 672.0, 672.0, 672.0, 672.0, 672.0, 672.0, 672.0, 672.0, 671.0, 672.0, 671.0, 672.0, 672.0, 672.0, 672.0, 671.0, 672.0, 671.0, 672.0, 672.0, 672.0, 672.0, 672.0, 672.0, 671.0, 672.0, 672.0, 671.0, 672.0, 672.0, 672.0, 672.0, 672.0, 672.0, 672.0, 672.0, 672.0, 671.0, 672.0, 672.0, 671.0, 671.0, 672.0, 672.0, 672.0, 672.0, 671.0, 671.0, 672.0, 672.0, 672.0, 671.0, 671.0, 671.0, 670.0, 671.0, 671.0, 671.0, 672.0, 671.0, 671.0, 671.0, 671.0, 672.0, 671.0, 671.0, 671.0, 672.0, 671.0, 671.0, 671.0, 672.0, 671.0, 671.0, 671.0, 671.0, 670.0]
    },
    "slices": {}
  }
}