{
  "AcquisitionMatrixPE": 122,
  "AcquisitionNumber": 1,
  "AcquisitionTime": "10:52:33.265000",
  "BandwidthPerPixelPhaseEncode": 28.76,
  "BaseResolution": 122,
  "BodyPartExamined": "BRAIN",
  "CoilCombinationMethod": "Adaptive Combine",
  "ConsistencyInfo": "N4_VE11C_LATEST_20160120",
  "ConversionSoftware": "dcm2niix",
  "ConversionSoftwareVersion": "v1.0.20220720",
  "DerivedVendorReportedEchoSpacing": 0.000570008,
  "DeviceSerialNumber": "66112",
  "DiffusionScheme": "Monopolar",
  "DwellTime": 2e-06,
  "EchoTime": 0.075,
  "EchoTrainLength": 61,
  "EffectiveEchoSpacing": 0.000285004,
  "FlipAngle": 90,
  "HeudiconvVersion": "0.13.1",
  "ImageOrientationPatientDICOM": [0.984751, 0.173569, 0.0117625, -0.168857, 0.93737, 0.304671],
  "ImageOrientationText": "Tra>Cor(17.6)>Sag(-2.4)",
  "ImageType": [
    "ORIGINAL",
    "PRIMARY",
    "DIFFUSION",
    "NONE",
    "ND",
    "NORM"
],
  "ImagingFrequency": 123.252,
  "InPlanePhaseEncodingDirectionDICOM": "COL",
  "InstitutionAddress": "Maynard 3,Hanover,NH,US,03755",
  "InstitutionName": "Dartmouth College - PBS",
  "InstitutionalDepartmentName": "Department",
  "MRAcquisitionType": "2D",
  "MagneticFieldStrength": 3,
  "Manufacturer": "Siemens",
  "ManufacturersModelName": "Prisma",
  "MatrixCoilMode": "GRAPPA",
  "Modality": "MR",
  "NonlinearGradientCorrection": false,
  "ParallelReductionFactorInPlane": 2,
  "PartialFourier": 1,
  "PatientPosition": "HFS",
  "PercentPhaseFOV": 100,
  "PercentSampling": 100,
  "PhaseEncodingDirection": "j-",
  "PhaseEncodingSteps": 122,
  "PhaseResolution": 1,
  "PixelBandwidth": 2050,
  "ProcedureStepDescription": "dbic^QA",
  "ProtocolName": "dwi_acq-DTI-30-p2",
  "PulseSequenceDetails": "%SiemensSeq%\\ep2d_diff",
  "ReceiveCoilActiveElements": "HEA;HEP",
  "ReceiveCoilName": "Head_32",
  "ReconMatrixPE": 122,
  "RefLinesPE": 38,
  "RepetitionTime": 7.7,
  "SAR": 0.101709,
  "ScanOptions": "FS",
  "ScanningSequence": "EP",
  "SequenceName": "*ep_b0",
  "SequenceVariant": "SK\\SP",
  "SeriesDescription": "dwi_acq-DTI-30-p2",
  "SeriesNumber": 12,
  "ShimSetting": [4146, -7690, -7507, 274, -59, -61, -66, 59],
  "SliceThickness": 2,
  "SliceTiming": [3.84375, 0, 3.95312, 0.10938, 4.0625, 0.22656, 4.17188, 0.33594, 4.28125, 0.44531, 4.39062, 0.55469, 4.5, 0.66406, 4.60938, 0.77344, 4.71875, 0.88281, 4.82812, 0.99219, 4.9375, 1.10156, 5.04688, 1.21094, 5.16406, 1.32031, 5.27344, 1.42969, 5.38281, 1.53906, 5.49219, 1.64844, 5.60156, 1.75781, 5.71094, 1.86719, 5.82031, 1.97656, 5.92969, 2.08594, 6.03906, 2.19531, 6.14844, 2.30469, 6.25781, 2.42188, 6.36719, 2.53125, 6.47656, 2.64062, 6.58594, 2.75, 6.69531, 2.85938, 6.80469, 2.96875, 6.91406, 3.07812, 7.02344, 3.1875, 7.13281, 3.29688, 7.24219, 3.40625, 7.35938, 3.51562, 7.46875, 3.625, 7.57031, 3.73438],
  "SoftwareVersions": "syngo MR E11",
  "SpacingBetweenSlices": 2,
  "SpoilingState": true,
  "StationName": "AWP66112",
  "TotalReadoutTime": 0.0344855,
  "TxRefAmp": 225.106,
  "dcmmeta_affine": [
    [-1.9372159242630005, -0.33217838406562805, -0.08371155709028244, 143.89251708984375],
    [-0.3414480984210968, 1.8440067768096924, 0.6040229797363281, -104.42434692382812],
    [0.02313937433063984, -0.5993531942367554, 1.9047698974609375, -30.059343338012695],
    [0.0, 0.0, 0.0, 1.0]
],
  "dcmmeta_reorient_transform": [
    [0.0, -1.0, 0.0, 121.0],
    [1.0, 0.0, 0.0, 0.0],
    [0.0, 0.0, -1.0, 69.0],
    [0.0, 0.0, 0.0, 1.0]
],
  "dcmmeta_shape": [122, 122, 70, 31],
  "dcmmeta_slice_dim": 2,
  "dcmmeta_version": 0.6,
  "global": {
    "const": {
      "AccessionNumber": "qa",
      "AcquisitionMatrix": [122, 0, 0, 122],
      "AngioFlag": "N",
      "BitsAllocated": 16,
      "BitsStored": 12,
      "BodyPartExamined": "BRAIN",
      "Columns": 122,
      "EchoNumbers": 1,
      "EchoTime": 75.0,
      "EchoTrainLength": 61,
      "FlipAngle": 90.0,
      "HighBit": 11,
      "ImageOrientationPatient": [0.98475138451098, 0.17356944992919, 0.01176251482407, -0.1688573486406, 0.93737007564915, 0.30467119504079],
      "ImageType": [
        "ORIGINAL",
        "PRIMARY",
        "DIFFUSION",
        "NONE",
        "ND",
        "NORM"
],
      "ImagedNucleus": "1H",
      "ImagingFrequency": 123.252483,
      "InPlanePhaseEncodingDirection": "COL",
      "MRAcquisitionType": "2D",
      "MagneticFieldStrength": 3.0,
      "Manufacturer": "SIEMENS",
      "ManufacturerModelName": "Prisma",
      "Modality": "MR",
      "NumberOfAverages": 1.0,
      "NumberOfPhaseEncodingSteps": 122,
      "PercentPhaseFieldOfView": 100.0,
      "PercentSampling": 100.0,
      "PerformedProcedureStepStartTime": "100513.466000",
      "PhotometricInterpretation": "MONOCHROME2",
      "PixelBandwidth": 2050.0,
      "PixelRepresentation": 0,
      "PixelSpacing": [1.9672131538391, 1.9672131538391],
      "ProtocolName": "dwi_acq-DTI-30-p2",
      "RepetitionTime": 7700.0,
      "Rows": 122,
      "SAR": 0.10170853884114,
      "SamplesPerPixel": 1,
      "ScanOptions": "FS",
      "ScanningSequence": "EP",
      "SequenceVariant": [
        "SK",
        "SP"
],
      "SeriesDescription": "dwi_acq-DTI-30-p2",
      "SeriesNumber": 12,
      "SeriesTime": "105252.212000",
      "SliceThickness": 2.0,
      "SmallestImagePixelValue": 0,
      "SoftwareVersions": "syngo MR E11",
      "SpacingBetweenSlices": 2.0,
      "SpecificCharacterSet": "ISO_IR 100",
      "StudyID": "31",
      "StudyTime": "100513.424000",
      "TransmitCoilName": "Body",
      "VariableFlipAngleFlag": "N",
      "WindowCenterWidthExplanation": "Algo1",
      "dBdt": 0.0},
    "slices": {
      "AcquisitionTime": ["105233.265000", "105229.425000", "105233.375000", "105229.535000", "105233.485000", "105229.645000", "105233.595000", "105229.755000", "105233.705000", "105229.865000", "105233.815000", "105229.975000", "105233.925000", "105230.085000", "105234.035000", "105230.195000", "105234.142500", "105230.305000", "105234.252500", "105230.412500", "105234.362500", "105230.522500", "105234.472500", "105230.632500", "105234.582500", "105230.742500", "105234.692500", "105230.852500", "105234.802500", "105230.962500", "105234.912500", "105231.072500", "105235.022500", "105231.182500", "105235.130000", "105231.290000", "105235.240000", "105231.400000", "105235.350000", "105231.510000", "105235.460000", "105231.620000", "105235.570000", "105231.730000", "105235.680000", "105231.840000", "105235.790000", "105231.950000", "105235.900000", "105232.060000", "105236.007500", "105232.170000", "105236.117500", "105232.277500", "105236.227500", "105232.387500", "105236.337500", "105232.497500", "105236.447500", "105232.607500", "105236.557500", "105232.717500", "105236.667500", "105232.827500", "105236.777500", "105232.937500", "105236.887500", "105233.047500", "105236.995000", "105233.155000", "105240.965000", "105237.125000", "105241.075000", "105237.235000", "105241.185000", "105237.345000", "105241.295000", "105237.455000", "105241.405000", "105237.565000", "105241.515000", "105237.675000", "105241.625000", "105237.785000", "105241.735000", "105237.895000", "105241.842500", "105238.005000", "105241.952500", "105238.112500", "105242.062500", "105238.222500", "105242.172500", "105238.332500", "105242.282500", "105238.442500", "105242.392500", "105238.552500", "105242.502500", "105238.662500", "105242.612500", "105238.772500", "105242.722500", "105238.882500", "105242.830000", "105238.990000", "105242.940000", "105239.100000", "105243.050000", "105239.210000", "105243.160000", "105239.320000", "105243.270000", "105239.430000", "105243.380000", "105239.540000", "105243.490000", "105239.650000", "105243.600000", "105239.760000", "105243.707500", "105239.870000", "105243.817500", "105239.977500", "105243.927500", "105240.087500", "105244.037500", "105240.197500", "105244.147500", "105240.307500", "105244.257500", "105240.417500", "105244.367500", "105240.527500", "105244.477500", "105240.637500", "105244.587500", "105240.747500", "105244.695000", "105240.855000", "105248.665000", "105244.825000", "105248.775000", "105244.935000", "105248.885000", "105245.045000", "105248.995000", "105245.155000", "105249.105000", "105245.265000", "105249.215000", "105245.375000", "105249.325000", "105245.485000", "105249.435000", "105245.595000", "105249.542500", "105245.705000", "105249.652500", "105245.812500", "105249.762500", "105245.922500", "105249.872500", "105246.032500", "105249.982500", "105246.142500", "105250.092500", "105246.252500", "105250.202500", "105246.362500", "105250.312500", "105246.472500", "105250.422500", "105246.582500", "105250.530000", "105246.690000", "105250.640000", "105246.800000", "105250.750000", "105246.910000", "105250.860000", "105247.020000", "105250.970000", "105247.130000", "105251.080000", "105247.240000", "105251.190000", "105247.350000", "105251.300000", "105247.460000", "105251.407500", "105247.570000", "105251.517500", "105247.677500", "105251.627500", "105247.787500", "105251.737500", "105247.897500", "105251.847500", "105248.007500", "105251.957500", "105248.117500", "105252.067500", "105248.227500", "105252.177500", "105248.337500", "105252.287500", "105248.447500", "105252.395000", "105248.555000", "105256.365000", "105252.525000", "105256.475000", "105252.635000", "105256.585000", "105252.745000", "105256.695000", "105252.855000", "105256.805000", "105252.965000", "105256.915000", "105253.075000", "105257.025000", "105253.185000", "105257.135000", "105253.295000", "105257.242500", "105253.405000", "105257.352500", "105253.512500", "105257.462500", "105253.622500", "105257.572500", "105253.732500", "105257.682500", "105253.842500", "105257.792500", "105253.952500", "105257.902500", "105254.062500", "105258.012500", "105254.172500", "105258.122500", "105254.282500", "105258.230000", "105254.390000", "105258.340000", "105254.500000", "105258.450000", "105254.610000", "105258.560000", "105254.720000", "105258.670000", "105254.830000", "105258.780000", "105254.940000", "105258.890000", "105255.050000", "105259.000000", "105255.160000", "105259.107500", "105255.270000", "105259.217500", "105255.377500", "105259.327500", "105255.487500", "105259.437500", "105255.597500", "105259.547500", "105255.707500", "105259.657500", "105255.817500", "105259.767500", "105255.927500", "105259.877500", "105256.037500", "105259.987500", "105256.147500", "105300.095000", "105256.255000", "105304.065000", "105300.225000", "105304.175000", "105300.335000", "105304.285000", "105300.445000", "105304.395000", "105300.555000", "105304.505000", "105300.665000", "105304.615000", "105300.775000", "105304.725000", "105300.885000", "105304.835000", "105300.995000", "105304.942500", "105301.105000", "105305.052500", "105301.212500", "105305.162500", "105301.322500", "105305.272500", "105301.432500", "105305.382500", "105301.542500", "105305.492500", "105301.652500", "105305.602500", "105301.762500", "105305.712500", "105301.872500", "105305.822500", "105301.982500", "105305.930000", "105302.090000", "105306.040000", "105302.200000", "105306.150000", "105302.310000", "105306.260000", "105302.420000", "105306.370000", "105302.530000", "105306.480000", "105302.640000", "105306.590000", "105302.750000", "105306.700000", "105302.860000", "105306.807500", "105302.970000", "105306.917500", "105303.077500", "105307.027500", "105303.187500", "105307.137500", "105303.297500", "105307.247500", "105303.407500", "105307.357500", "105303.517500", "105307.467500", "105303.627500", "105307.577500", "105303.737500", "105307.687500", "105303.847500", "105307.795000", "105303.955000", "105311.765000", "105307.925000", "105311.875000", "105308.035000", "105311.985000", "105308.145000", "105312.095000", "105308.255000", "105312.205000", "105308.365000", "105312.315000", "105308.475000", "105312.425000", "105308.585000", "105312.535000", "105308.695000", "105312.642500", "105308.805000", "105312.752500", "105308.912500", "105312.862500", "105309.022500", "105312.972500", "105309.132500", "105313.082500", "105309.242500", "105313.192500", "105309.352500", "105313.302500", "105309.462500", "105313.412500", "105309.572500", "105313.522500", "105309.682500", "105313.630000", "105309.790000", "105313.740000", "105309.900000", "105313.850000", "105310.010000", "105313.960000", "105310.120000", "105314.070000", "105310.230000", "105314.180000", "105310.340000", "105314.290000", "105310.450000", "105314.400000", "105310.560000", "105314.507500", "105310.670000", "105314.617500", "105310.777500", "105314.727500", "105310.887500", "105314.837500", "105310.997500", "105314.947500", "105311.107500", "105315.057500", "105311.217500", "105315.167500", "105311.327500", "105315.277500", "105311.437500", "105315.387500", "105311.547500", "105315.495000", "105311.655000", "105319.465000", "105315.625000", "105319.575000", "105315.735000", "105319.685000", "105315.845000", "105319.795000", "105315.955000", "105319.905000", "105316.065000", "105320.015000", "105316.175000", "105320.125000", "105316.285000", "105320.235000", "105316.395000", "105320.342500", "105316.505000", "105320.452500", "105316.612500", "105320.562500", "105316.722500", "105320.672500", "105316.832500", "105320.782500", "105316.942500", "105320.892500", "105317.052500", "105321.002500", "105317.162500", "105321.112500", "105317.272500", "105321.222500", "105317.382500", "105321.330000", "105317.490000", "105321.440000", "105317.600000", "105321.550000", "105317.710000", "105321.660000", "105317.820000", "105321.770000", "105317.930000", "105321.880000", "105318.040000", "105321.990000", "105318.150000", "105322.100000", "105318.260000", "105322.207500", "105318.370000", "105322.317500", "105318.477500", "105322.427500", "105318.587500", "105322.537500", "105318.697500", "105322.647500", "105318.807500", "105322.757500", "105318.917500", "105322.867500", "105319.027500", "105322.977500", "105319.137500", "105323.087500", "105319.247500", "105323.195000", "105319.355000", "105327.165000", "105323.325000", "105327.275000", "105323.435000", "105327.385000", "105323.545000", "105327.495000", "105323.655000", "105327.605000", "105323.765000", "105327.715000", "105323.875000", "105327.825000", "105323.985000", "105327.935000", "105324.095000", "105328.042500", "105324.205000", "105328.152500", "105324.312500", "105328.262500", "105324.422500", "105328.372500", "105324.532500", "105328.482500", "105324.642500", "105328.592500", "105324.752500", "105328.702500", "105324.862500", "105328.812500", "105324.972500", "105328.922500", "105325.082500", "105329.030000", "105325.190000", "105329.140000", "105325.300000", "105329.250000", "105325.410000", "105329.360000", "105325.520000", "105329.470000", "105325.630000", "105329.580000", "105325.740000", "105329.690000", "105325.850000", "105329.800000", "105325.960000", "105329.907500", "105326.070000", "105330.017500", "105326.177500", "105330.127500", "105326.287500", "105330.237500", "105326.397500", "105330.347500", "105326.507500", "105330.457500", "105326.617500", "105330.567500", "105326.727500", "105330.677500", "105326.837500", "105330.787500", "105326.947500", "105330.895000", "105327.055000", "105334.865000", "105331.025000", "105334.975000", "105331.135000", "105335.085000", "105331.245000", "105335.195000", "105331.355000", "105335.305000", "105331.465000", "105335.415000", "105331.575000", "105335.525000", "105331.685000", "105335.635000", "105331.795000", "105335.742500", "105331.905000", "105335.852500", "105332.012500", "105335.962500", "105332.122500", "105336.072500", "105332.232500", "105336.182500", "105332.342500", "105336.292500", "105332.452500", "105336.402500", "105332.562500", "105336.512500", "105332.672500", "105336.622500", "105332.782500", "105336.730000", "105332.890000", "105336.840000", "105333.000000", "105336.950000", "105333.110000", "105337.060000", "105333.220000", "105337.170000", "105333.330000", "105337.280000", "105333.440000", "105337.390000", "105333.550000", "105337.500000", "105333.660000", "105337.607500", "105333.770000", "105337.717500", "105333.877500", "105337.827500", "105333.987500", "105337.937500", "105334.097500", "105338.047500", "105334.207500", "105338.157500", "105334.317500", "105338.267500", "105334.427500", "105338.377500", "105334.537500", "105338.487500", "105334.647500", "105338.595000", "105334.755000", "105342.565000", "105338.725000", "105342.675000", "105338.835000", "105342.785000", "105338.945000", "105342.895000", "105339.055000", "105343.005000", "105339.165000", "105343.115000", "105339.275000", "105343.225000", "105339.385000", "105343.335000", "105339.495000", "105343.442500", "105339.605000", "105343.552500", "105339.712500", "105343.662500", "105339.822500", "105343.772500", "105339.932500", "105343.882500", "105340.042500", "105343.992500", "105340.152500", "105344.102500", "105340.262500", "105344.212500", "105340.372500", "105344.322500", "105340.482500", "105344.430000", "105340.590000", "105344.540000", "105340.700000", "105344.650000", "105340.810000", "105344.760000", "105340.920000", "105344.870000", "105341.030000", "105344.980000", "105341.140000", "105345.090000", "105341.250000", "105345.200000", "105341.360000", "105345.307500", "105341.470000", "105345.417500", "105341.577500", "105345.527500", "105341.687500", "105345.637500", "105341.797500", "105345.747500", "105341.907500", "105345.857500", "105342.017500", "105345.967500", "105342.127500", "105346.077500", "105342.237500", "105346.187500", "105342.347500", "105346.295000", "105342.455000", "105350.265000", "105346.425000", "105350.375000", "105346.535000", "105350.485000", "105346.645000", "105350.595000", "105346.755000", "105350.705000", "105346.865000", "105350.815000", "105346.975000", "105350.925000", "105347.085000", "105351.035000", "105347.195000", "105351.142500", "105347.305000", "105351.252500", "105347.412500", "105351.362500", "105347.522500", "105351.472500", "105347.632500", "105351.582500", "105347.742500", "105351.692500", "105347.852500", "105351.802500", "105347.962500", "105351.912500", "105348.072500", "105352.022500", "105348.182500", "105352.130000", "105348.290000", "105352.240000", "105348.400000", "105352.350000", "105348.510000", "105352.460000", "105348.620000", "105352.570000", "105348.730000", "105352.680000", "105348.840000", "105352.790000", "105348.950000", "105352.900000", "105349.060000", "105353.007500", "105349.170000", "105353.117500", "105349.277500", "105353.227500", "105349.387500", "105353.337500", "105349.497500", "105353.447500", "105349.607500", "105353.557500", "105349.717500", "105353.667500", "105349.827500", "105353.777500", "105349.937500", "105353.887500", "105350.047500", "105353.995000", "105350.155000", "105357.965000", "105354.125000", "105358.075000", "105354.235000", "105358.185000", "105354.345000", "105358.295000", "105354.455000", "105358.405000", "105354.565000", "105358.515000", "105354.675000", "105358.625000", "105354.785000", "105358.735000", "105354.895000", "105358.842500", "105355.005000", "105358.952500", "105355.112500", "105359.062500", "105355.222500", "105359.172500", "105355.332500", "105359.282500", "105355.442500", "105359.392500", "105355.552500", "105359.502500", "105355.662500", "105359.612500", "105355.772500", "105359.722500", "105355.882500", "105359.830000", "105355.990000", "105359.940000", "105356.100000", "105400.050000", "105356.210000", "105400.160000", "105356.320000", "105400.270000", "105356.430000", "105400.380000", "105356.540000", "105400.490000", "105356.650000", "105400.600000", "105356.760000", "105400.707500", "105356.870000", "105400.817500", "105356.977500", "105400.927500", "105357.087500", "105401.037500", "105357.197500", "105401.147500", "105357.307500", "105401.257500", "105357.417500", "105401.367500", "105357.527500", "105401.477500", "105357.637500", "105401.587500", "105357.747500", "105401.695000", "105357.855000", "105405.665000", "105401.825000", "105405.775000", "105401.935000", "105405.885000", "105402.045000", "105405.995000", "105402.155000", "105406.105000", "105402.265000", "105406.215000", "105402.375000", "105406.325000", "105402.485000", "105406.435000", "105402.595000", "105406.542500", "105402.705000", "105406.652500", "105402.812500", "105406.762500", "105402.922500", "105406.872500", "105403.032500", "105406.982500", "105403.142500", "105407.092500", "105403.252500", "105407.202500", "105403.362500", "105407.312500", "105403.472500", "105407.422500", "105403.582500", "105407.530000", "105403.690000", "105407.640000", "105403.800000", "105407.750000", "105403.910000", "105407.860000", "105404.020000", "105407.970000", "105404.130000", "105408.080000", "105404.240000", "105408.190000", "105404.350000", "105408.300000", "105404.460000", "105408.407500", "105404.570000", "105408.517500", "105404.677500", "105408.627500", "105404.787500", "105408.737500", "105404.897500", "105408.847500", "105405.007500", "105408.957500", "105405.117500", "105409.067500", "105405.227500", "105409.177500", "105405.337500", "105409.287500", "105405.447500", "105409.395000", "105405.555000", "105413.365000", "105409.525000", "105413.475000", "105409.635000", "105413.585000", "105409.745000", "105413.695000", "105409.855000", "105413.805000", "105409.965000", "105413.915000", "105410.075000", "105414.025000", "105410.185000", "105414.135000", "105410.295000", "105414.242500", "105410.405000", "105414.352500", "105410.512500", "105414.462500", "105410.622500", "105414.572500", "105410.732500", "105414.682500", "105410.842500", "105414.792500", "105410.952500", "105414.902500", "105411.062500", "105415.012500", "105411.172500", "105415.122500", "105411.282500", "105415.230000", "105411.390000", "105415.340000", "105411.500000", "105415.450000", "105411.610000", "105415.560000", "105411.720000", "105415.670000", "105411.830000", "105415.780000", "105411.940000", "105415.890000", "105412.050000", "105416.000000", "105412.160000", "105416.107500", "105412.270000", "105416.217500", "105412.377500", "105416.327500", "105412.487500", "105416.437500", "105412.597500", "105416.547500", "105412.707500", "105416.657500", "105412.817500", "105416.767500", "105412.927500", "105416.877500", "105413.037500", "105416.987500", "105413.147500", "105417.095000", "105413.255000", "105421.065000", "105417.225000", "105421.175000", "105417.335000", "105421.285000", "105417.445000", "105421.395000", "105417.555000", "105421.505000", "105417.665000", "105421.615000", "105417.775000", "105421.725000", "105417.885000", "105421.835000", "105417.995000", "105421.942500", "105418.105000", "105422.052500", "105418.212500", "105422.162500", "105418.322500", "105422.272500", "105418.432500", "105422.382500", "105418.542500", "105422.492500", "105418.652500", "105422.602500", "105418.762500", "105422.712500", "105418.872500", "105422.822500", "105418.982500", "105422.930000", "105419.090000", "105423.040000", "105419.200000", "105423.150000", "105419.310000", "105423.260000", "105419.420000", "105423.370000", "105419.530000", "105423.480000", "105419.640000", "105423.590000", "105419.750000", "105423.700000", "105419.860000", "105423.807500", "105419.970000", "105423.917500", "105420.077500", "105424.027500", "105420.187500", "105424.137500", "105420.297500", "105424.247500", "105420.407500", "105424.357500", "105420.517500", "105424.467500", "105420.627500", "105424.577500", "105420.737500", "105424.687500", "105420.847500", "105424.795000", "105420.955000", "105428.765000", "105424.925000", "105428.875000", "105425.035000", "105428.985000", "105425.145000", "105429.095000", "105425.255000", "105429.205000", "105425.365000", "105429.315000", "105425.475000", "105429.425000", "105425.585000", "105429.535000", "105425.695000", "105429.642500", "105425.805000", "105429.752500", "105425.912500", "105429.862500", "105426.022500", "105429.972500", "105426.132500", "105430.082500", "105426.242500", "105430.192500", "105426.352500", "105430.302500", "105426.462500", "105430.412500", "105426.572500", "105430.522500", "105426.682500", "105430.630000", "105426.790000", "105430.740000", "105426.900000", "105430.850000", "105427.010000", "105430.960000", "105427.120000", "105431.070000", "105427.230000", "105431.180000", "105427.340000", "105431.290000", "105427.450000", "105431.400000", "105427.560000", "105431.507500", "105427.670000", "105431.617500", "105427.777500", "105431.727500", "105427.887500", "105431.837500", "105427.997500", "105431.947500", "105428.107500", "105432.057500", "105428.217500", "105432.167500", "105428.327500", "105432.277500", "105428.437500", "105432.387500", "105428.547500", "105432.495000", "105428.655000", "105436.465000", "105432.625000", "105436.575000", "105432.735000", "105436.685000", "105432.845000", "105436.795000", "105432.955000", "105436.905000", "105433.065000", "105437.015000", "105433.175000", "105437.125000", "105433.285000", "105437.235000", "105433.395000", "105437.342500", "105433.505000", "105437.452500", "105433.612500", "105437.562500", "105433.722500", "105437.672500", "105433.832500", "105437.782500", "105433.942500", "105437.892500", "105434.052500", "105438.002500", "105434.162500", "105438.112500", "105434.272500", "105438.222500", "105434.382500", "105438.330000", "105434.490000", "105438.440000", "105434.600000", "105438.550000", "105434.710000", "105438.660000", "105434.820000", "105438.770000", "105434.930000", "105438.880000", "105435.040000", "105438.990000", "105435.150000", "105439.100000", "105435.260000", "105439.207500", "105435.370000", "105439.317500", "105435.477500", "105439.427500", "105435.587500", "105439.537500", "105435.697500", "105439.647500", "105435.807500", "105439.757500", "105435.917500", "105439.867500", "105436.027500", "105439.977500", "105436.137500", "105440.087500", "105436.247500", "105440.195000", "105436.355000", "105444.165000", "105440.325000", "105444.275000", "105440.435000", "105444.385000", "105440.545000", "105444.495000", "105440.655000", "105444.605000", "105440.765000", "105444.715000", "105440.875000", "105444.825000", "105440.985000", "105444.935000", "105441.095000", "105445.042500", "105441.205000", "105445.152500", "105441.312500", "105445.262500", "105441.422500", "105445.372500", "105441.532500", "105445.482500", "105441.642500", "105445.592500", "105441.752500", "105445.702500", "105441.862500", "105445.812500", "105441.972500", "105445.922500", "105442.082500", "105446.030000", "105442.190000", "105446.140000", "105442.300000", "105446.250000", "105442.410000", "105446.360000", "105442.520000", "105446.470000", "105442.630000", "105446.580000", "105442.740000", "105446.690000", "105442.850000", "105446.800000", "105442.960000", "105446.907500", "105443.070000", "105447.017500", "105443.177500", "105447.127500", "105443.287500", "105447.237500", "105443.397500", "105447.347500", "105443.507500", "105447.457500", "105443.617500", "105447.567500", "105443.727500", "105447.677500", "105443.837500", "105447.787500", "105443.947500", "105447.895000", "105444.055000", "105451.865000", "105448.025000", "105451.975000", "105448.135000", "105452.085000", "105448.245000", "105452.195000", "105448.355000", "105452.305000", "105448.465000", "105452.415000", "105448.575000", "105452.525000", "105448.685000", "105452.635000", "105448.795000", "105452.742500", "105448.905000", "105452.852500", "105449.012500", "105452.962500", "105449.122500", "105453.072500", "105449.232500", "105453.182500", "105449.342500", "105453.292500", "105449.452500", "105453.402500", "105449.562500", "105453.512500", "105449.672500", "105453.622500", "105449.782500", "105453.730000", "105449.890000", "105453.840000", "105450.000000", "105453.950000", "105450.110000", "105454.060000", "105450.220000", "105454.170000", "105450.330000", "105454.280000", "105450.440000", "105454.390000", "105450.550000", "105454.500000", "105450.660000", "105454.607500", "105450.770000", "105454.717500", "105450.877500", "105454.827500", "105450.987500", "105454.937500", "105451.097500", "105455.047500", "105451.207500", "105455.157500", "105451.317500", "105455.267500", "105451.427500", "105455.377500", "105451.537500", "105455.487500", "105451.647500", "105455.595000", "105451.755000", "105459.565000", "105455.725000", "105459.675000", "105455.835000", "105459.785000", "105455.945000", "105459.895000", "105456.055000", "105500.005000", "105456.165000", "105500.115000", "105456.275000", "105500.225000", "105456.385000", "105500.335000", "105456.495000", "105500.442500", "105456.605000", "105500.552500", "105456.712500", "105500.662500", "105456.822500", "105500.772500", "105456.932500", "105500.882500", "105457.042500", "105500.992500", "105457.152500", "105501.102500", "105457.262500", "105501.212500", "105457.372500", "105501.322500", "105457.482500", "105501.430000", "105457.590000", "105501.540000", "105457.700000", "105501.650000", "105457.810000", "105501.760000", "105457.920000", "105501.870000", "105458.030000", "105501.980000", "105458.140000", "105502.090000", "105458.250000", "105502.200000", "105458.360000", "105502.307500", "105458.470000", "105502.417500", "105458.577500", "105502.527500", "105458.687500", "105502.637500", "105458.797500", "105502.747500", "105458.907500", "105502.857500", "105459.017500", "105502.967500", "105459.127500", "105503.077500", "105459.237500", "105503.187500", "105459.347500", "105503.295000", "105459.455000", "105507.265000", "105503.425000", "105507.375000", "105503.535000", "105507.485000", "105503.645000", "105507.595000", "105503.755000", "105507.705000", "105503.865000", "105507.815000", "105503.975000", "105507.925000", "105504.085000", "105508.035000", "105504.195000", "105508.142500", "105504.305000", "105508.252500", "105504.412500", "105508.362500", "105504.522500", "105508.472500", "105504.632500", "105508.582500", "105504.742500", "105508.692500", "105504.852500", "105508.802500", "105504.962500", "105508.912500", "105505.072500", "105509.022500", "105505.182500", "105509.13