{
  "AcquisitionMatrixPE": 80,
  "AcquisitionNumber": 1,
  "AcquisitionTime": "11:14:37.787500",
  "BandwidthPerPixelPhaseEncode": 48.077,
  "BaseResolution": 80,
  "BodyPartExamined": "BRAIN",
  "CoilCombinationMethod": "Sum of Squares",
  "ConsistencyInfo": "N4_VE11C_LATEST_20160120",
  "ConversionSoftware": "dcm2niix",
  "ConversionSoftwareVersion": "v1.0.20220720",
  "DerivedVendorReportedEchoSpacing": 0.000519999,
  "DeviceSerialNumber": "66112",
  "DwellTime": 2.7e-06,
  "EchoTime": 0.035,
  "EchoTrainLength": 39,
  "EffectiveEchoSpacing": 0.00026,
  "FlipAngle": 90,
  "HeudiconvVersion": "0.13.1",
  "ImageOrientationPatientDICOM": [0.999967, 0.0057072, 0.00580097, -0.00715572, 0.956144, 0.292809],
  "ImageOrientationText": "Tra>Cor(17.0)>Sag(0.2)",
  "ImageType": [
    "ORIGINAL",
    "PRIMARY",
    "M",
    "ND",
    "NORM",
    "MOSAIC"
],
  "ImagingFrequency": 123.252,
  "InPlanePhaseEncodingDirectionDICOM": "COL",
  "InstitutionAddress": "Maynard 3,Hanover,NH,US,03755",
  "InstitutionName": "Dartmouth College - PBS",
  "InstitutionalDepartmentName": "Department",
  "MRAcquisitionType": "2D",
  "MagneticFieldStrength": 3,
  "Manufacturer": "Siemens",
  "ManufacturersModelName": "Prisma",
  "MatrixCoilMode": "GRAPPA",
  "Modality": "MR",
  "NonlinearGradientCorrection": false,
  "ParallelReductionFactorInPlane": 2,
  "PartialFourier": 1,
  "PatientPosition": "HFS",
  "PercentPhaseFOV": 100,
  "PercentSampling": 100,
  "PhaseEncodingDirection": "j-",
  "PhaseEncodingSteps": 79,
  "PhaseResolution": 1,
  "PixelBandwidth": 2315,
  "ProcedureStepDescription": "dbic^QA",
  "ProtocolName": "func-bold_task-rest_acq-p2",
  "PulseSequenceDetails": "%SiemensSeq%\\ep2d_bold",
  "ReceiveCoilActiveElements": "HEA;HEP",
  "ReceiveCoilName": "Head_32",
  "ReconMatrixPE": 80,
  "RefLinesPE": 24,
  "RepetitionTime": 2,
  "SAR": 0.055769,
  "ScanOptions": "FS",
  "ScanningSequence": "EP",
  "SequenceName": "*epfid2d1_80",
  "SequenceVariant": "SK",
  "SeriesDescription": "func-bold_task-rest_acq-p2",
  "SeriesNumber": 5,
  "ShimSetting": [4145, -7680, -7519, 386, -43, -280, -48, 71],
  "SliceThickness": 3.5,
  "SliceTiming": [0.99, 0, 1.055, 0.065, 1.1225, 0.1325, 1.1875, 0.1975, 1.255, 0.265, 1.32, 0.33, 1.385, 0.395, 1.4525, 0.4625, 1.5175, 0.5275, 1.585, 0.595, 1.65, 0.66, 1.715, 0.725, 1.7825, 0.7925, 1.8475, 0.8575, 1.915, 0.925],
  "SoftwareVersions": "syngo MR E11",
  "SpacingBetweenSlices": 3.99,
  "StationName": "AWP66112",
  "TaskName": "rest",
  "TotalReadoutTime": 0.02054,
  "TxRefAmp": 231.932,
  "dcmmeta_affine": [
    [-2.9999005794525146, -0.02146715484559536, 0.015463008545339108, 122.90260314941406],
    [-0.01712159998714924, 2.8684325218200684, 1.1684350967407227, -131.26158142089844],
    [0.017402900382876396, -0.8784271478652954, 3.815051794052124, -44.93387985229492],
    [0.0, 0.0, 0.0, 1.0]
],
  "dcmmeta_reorient_transform": [
    [0.0, -1.0, 0.0, 79.0],
    [1.0, 0.0, 0.0, 0.0],
    [0.0, 0.0, 1.0, 0.0],
    [0.0, 0.0, 0.0, 1.0]
],
  "dcmmeta_shape": [80, 80, 30, 200],
  "dcmmeta_slice_dim": 2,
  "dcmmeta_version": 0.6,
  "global": {
    "const": {
      "AccessionNumber": "qa",
      "AcquisitionMatrix": [80, 0, 0, 80],
      "AngioFlag": "N",
      "BitsAllocated": 16,
      "BitsStored": 12,
      "BodyPartExamined": "BRAIN",
      "Columns": 480,
      "EchoNumbers": 1,
      "EchoTime": 35.0,
      "EchoTrainLength": 39,
      "FlipAngle": 90.0,
      "HighBit": 11,
      "ImageOrientationPatient": [0.99996688777759, 0.00570719988143, 0.00580096698114, -0.0071557184371, 0.95614415880888, 0.29280905598922],
      "ImagePositionPatient": [-716.8933964593, -672.45539303669, -293.49563835262],
      "ImageType": [
        "ORIGINAL",
        "PRIMARY",
        "M",
        "ND",
        "NORM",
        "MOSAIC"
],
      "ImagedNucleus": "1H",
      "ImagingFrequency": 123.252438,
      "InPlanePhaseEncodingDirection": "COL",
      "MRAcquisitionType": "2D",
      "MagneticFieldStrength": 3.0,
      "Manufacturer": "SIEMENS",
      "ManufacturerModelName": "Prisma",
      "Modality": "MR",
      "NumberOfAverages": 1.0,
      "NumberOfPhaseEncodingSteps": 79,
      "PercentPhaseFieldOfView": 100.0,
      "PercentSampling": 100.0,
      "PerformedProcedureStepStartTime": "111112.968000",
      "PhotometricInterpretation": "MONOCHROME2",
      "PixelBandwidth": 2315.0,
      "PixelRepresentation": 0,
      "PixelSpacing": [3.0, 3.0],
      "ProtocolName": "func-bold_task-rest_acq-p2",
      "RepetitionTime": 2000.0,
      "Rows": 480,
      "SAR": 0.05576896194066,
      "SamplesPerPixel": 1,
      "ScanOptions": "FS",
      "ScanningSequence": "EP",
      "SequenceName": "*epfid2d1_80",
      "SequenceVariant": "SK",
      "SeriesDescription": "func-bold_task-rest_acq-p2",
      "SeriesNumber": 5,
      "SeriesTime": "111533.443000",
      "SliceLocation": -80.926133600616,
      "SliceThickness": 3.5,
      "SmallestImagePixelValue": 0,
      "SoftwareVersions": "syngo MR E11",
      "SpacingBetweenSlices": 3.9899999408548,
      "SpecificCharacterSet": "ISO_IR 100",
      "StudyID": "18",
      "StudyTime": "111112.866000",
      "TransmitCoilName": "Body",
      "VariableFlipAngleFlag": "N",
      "WindowCenterWidthExplanation": "Algo1",
      "dBdt": 0.0},
    "slices": {}
  },
  "time": {
    "samples": {
      "AcquisitionNumber": [1, 2, 3, 4, 5, 6, 7, 8, 9, 10, 11, 12, 13, 14, 15, 16, 17, 18, 19, 20, 21, 22, 23, 24, 25, 26, 27, 28, 29, 30, 31, 32, 33, 34, 35, 36, 37, 38, 39, 40, 41, 42, 43, 44, 45, 46, 47, 48, 49, 50, 51, 52, 53, 54, 55, 56, 57, 58, 59, 60, 61, 62, 63, 64, 65, 66, 67, 68, 69, 70, 71, 72, 73, 74, 75, 76, 77, 78, 79, 80, 81, 82, 83, 84, 85, 86, 87, 88, 89, 90, 91, 92, 93, 94, 95, 96, 97, 98, 99, 100, 101, 102, 103, 104, 105, 106, 107, 108, 109, 110, 111, 112, 113, 114, 115, 116, 117, 118, 119, 120, 121, 122, 123, 124, 125, 126, 127, 128, 129, 130, 131, 132, 133, 134, 135, 136, 137, 138, 139, 140, 141, 142, 143, 144, 145, 146, 147, 148, 149, 150, 151, 152, 153, 154, 155, 156, 157, 158, 159, 160, 161, 162, 163, 164, 165, 166, 167, 168, 169, 170, 171, 172, 173, 174, 175, 176, 177, 178, 179, 180, 181, 182, 183, 184, 185, 186, 187, 188, 189, 190, 191, 192, 193, 194, 195, 196, 197, 198, 199, 200],
      "AcquisitionTime": ["111437.787500", "111439.787500", "111441.787500", "111443.787500", "111445.787500", "111447.787500", "111449.787500", "111451.787500", "111453.787500", "111455.787500", "111457.787500", "111459.787500", "111501.787500", "111503.787500", "111505.787500", "111507.787500", "111509.787500", "111511.787500", "111513.787500", "111515.787500", "111517.787500", "111519.787500", "111521.787500", "111523.787500", "111525.787500", "111527.787500", "111529.787500", "111531.787500", "111533.787500", "111535.787500", "111537.787500", "111539.787500", "111541.787500", "111543.787500", "111545.787500", "111547.787500", "111549.787500", "111551.787500", "111553.787500", "111555.787500", "111557.787500", "111559.787500", "111601.787500", "111603.787500", "111605.787500", "111607.787500", "111609.787500", "111611.787500", "111613.787500", "111615.787500", "111617.787500", "111619.787500", "111621.787500", "111623.787500", "111625.787500", "111627.787500", "111629.787500", "111631.787500", "111633.787500", "111635.787500", "111637.787500", "111639.787500", "111641.787500", "111643.787500", "111645.787500", "111647.787500", "111649.787500", "111651.787500", "111653.787500", "111655.787500", "111657.787500", "111659.787500", "111701.787500", "111703.787500", "111705.787500", "111707.787500", "111709.787500", "111711.787500", "111713.787500", "111715.787500", "111717.787500", "111719.787500", "111721.787500", "111723.787500", "111725.787500", "111727.787500", "111729.787500", "111731.787500", "111733.787500", "111735.787500", "111737.787500", "111739.787500", "111741.787500", "111743.787500", "111745.787500", "111747.787500", "111749.787500", "111751.787500", "111753.787500", "111755.787500", "111757.787500", "111759.787500", "111801.787500", "111803.787500", "111805.787500", "111807.787500", "111809.787500", "111811.787500", "111813.787500", "111815.787500", "111817.787500", "111819.787500", "111821.787500", "111823.787500", "111825.787500", "111827.787500", "111829.787500", "111831.787500", "111833.787500", "111835.787500", "111837.787500", "111839.787500", "111841.787500", "111843.787500", "111845.787500", "111847.787500", "111849.787500", "111851.787500", "111853.787500", "111855.787500", "111857.787500", "111859.787500", "111901.787500", "111903.787500", "111905.787500", "111907.787500", "111909.787500", "111911.787500", "111913.787500", "111915.787500", "111917.787500", "111919.787500", "111921.787500", "111923.787500", "111925.787500", "111927.787500", "111929.787500", "111931.787500", "111933.787500", "111935.787500", "111937.787500", "111939.787500", "111941.787500", "111943.787500", "111945.787500", "111947.787500", "111949.787500", "111951.787500", "111953.787500", "111955.787500", "111957.787500", "111959.787500", "112001.787500", "112003.787500", "112005.787500", "112007.787500", "112009.787500", "112011.787500", "112013.787500", "112015.787500", "112017.787500", "112019.787500", "112021.787500", "112023.787500", "112025.787500", "112027.787500", "112029.787500", "112031.787500", "112033.787500", "112035.787500", "112037.787500", "112039.787500", "112041.787500", "112043.787500", "112045.787500", "112047.787500", "112049.787500", "112051.787500", "112053.787500", "112055.787500", "112057.787500", "112059.787500", "112101.787500", "112103.787500", "112105.787500", "112107.787500", "112109.787500", "112111.787500", "112113.787500", "112115.787500"],
      "ContentTime": ["111533.447000", "111533.450000", "111533.453000", "111533.456000", "111533.458000", "111533.461000", "111533.464000", "111533.466000", "111533.469000", "111533.472000", "111533.474000", "111533.477000", "111533.480000", "111533.482000", "111533.485000", "111533.488000", "111533.490000", "111533.493000", "111533.496000", "111533.498000", "111533.501000", "111533.504000", "111533.506000", "111533.509000", "111533.512000", "111533.515000", "111533.517000", "111533.520000", "111613.442000", "111613.445000", "111613.447000", "111613.450000", "111613.453000", "111613.455000", "111613.458000", "111613.461000", "111613.463000", "111613.466000", "111613.469000", "111613.471000", "111613.474000", "111613.477000", "111613.479000", "111613.482000", "111613.485000", "111613.488000", "111613.491000", "111613.493000", "111653.441000", "111653.444000", "111653.446000", "111653.449000", "111653.452000", "111653.454000", "111653.457000", "111653.459000", "111653.462000", "111653.465000", "111653.467000", "111653.470000", "111653.473000", "111653.476000", "111653.478000", "111653.481000", "111653.483000", "111653.486000", "111653.489000", "111653.492000", "111733.442000", "111733.445000", "111733.447000", "111733.450000", "111733.453000", "111733.455000", "111733.458000", "111733.460000", "111733.463000", "111733.466000", "111733.468000", "111733.471000", "111733.474000", "111733.476000", "111733.479000", "111733.482000", "111733.484000", "111733.488000", "111733.491000", "111733.493000", "111813.442000", "111813.445000", "111813.447000", "111813.450000", "111813.453000", "111813.455000", "111813.458000", "111813.461000", "111813.463000", "111813.466000", "111813.469000", "111813.471000", "111813.474000", "111813.477000", "111813.479000", "111813.482000", "111813.485000", "111813.487000", "111813.490000", "111813.493000", "111853.441000", "111853.444000", "111853.446000", "111853.449000", "111853.463000", "111853.466000", "111853.469000", "111853.471000", "111853.474000", "111853.477000", "111853.479000", "111853.482000", "111853.485000", "111853.488000", "111853.490000", "111853.493000", "111853.496000", "111853.499000", "111853.501000", "111853.504000", "111933.442000", "111933.445000", "111933.447000", "111933.450000", "111933.453000", "111933.455000", "111933.458000", "111933.461000", "111933.463000", "111933.466000", "111933.469000", "111933.471000", "111933.474000", "111933.477000", "111933.479000", "111933.482000", "111933.485000", "111933.487000", "111933.490000", "111933.493000", "112013.442000", "112013.445000", "112013.447000", "112013.450000", "112013.453000", "112013.455000", "112013.458000", "112013.461000", "112013.463000", "112013.466000", "112013.469000", "112013.471000", "112013.474000", "112013.477000", "112013.479000", "112013.482000", "112013.485000", "112013.487000", "112013.490000", "112013.493000", "112053.442000", "112053.445000", "112053.447000", "112053.450000", "112053.453000", "112053.455000", "112053.458000", "112053.461000", "112053.463000", "112053.466000", "112053.469000", "112053.471000", "112053.474000", "112053.477000", "112053.479000", "112053.483000", "112053.486000", "112053.489000", "112053.491000", "112053.494000", "112116.908000", "112116.911000", "112116.913000", "112116.916000", "112116.919000", "112116.922000", "112116.925000", "112116.927000", "112116.930000", "112116.933000", "112116.936000", "112116.938000"],
      "InstanceCreationTime": ["111533.447000", "111533.450000", "111533.453000", "111533.456000", "111533.458000", "111533.461000", "111533.464000", "111533.466000", "111533.469000", "111533.472000", "111533.474000", "111533.477000", "111533.480000", "111533.482000", "111533.485000", "111533.488000", "111533.490000", "111533.493000", "111533.496000", "111533.498000", "111533.501000", "111533.504000", "111533.506000", "111533.509000", "111533.512000", "111533.515000", "111533.517000", "111533.520000", "111613.442000", "111613.445000", "111613.447000", "111613.450000", "111613.453000", "111613.455000", "111613.458000", "111613.461000", "111613.463000", "111613.466000", "111613.469000", "111613.471000", "111613.474000", "111613.477000", "111613.479000", "111613.482000", "111613.485000", "111613.488000", "111613.491000", "111613.493000", "111653.441000", "111653.444000", "111653.446000", "111653.449000", "111653.452000", "111653.454000", "111653.457000", "111653.459000", "111653.462000", "111653.465000", "111653.467000", "111653.470000", "111653.473000", "111653.476000", "111653.478000", "111653.481000", "111653.483000", "111653.486000", "111653.489000", "111653.492000", "111733.442000", "111733.445000", "111733.447000", "111733.450000", "111733.453000", "111733.455000", "111733.458000", "111733.460000", "111733.463000", "111733.466000", "111733.468000", "111733.471000", "111733.474000", "111733.476000", "111733.479000", "111733.482000", "111733.484000", "111733.488000", "111733.491000", "111733.493000", "111813.442000", "111813.445000", "111813.447000", "111813.450000", "111813.453000", "111813.455000", "111813.458000", "111813.461000", "111813.463000", "111813.466000", "111813.469000", "111813.471000", "111813.474000", "111813.477000", "111813.479000", "111813.482000", "111813.485000", "111813.487000", "111813.490000", "111813.493000", "111853.441000", "111853.444000", "111853.446000", "111853.449000", "111853.463000", "111853.466000", "111853.469000", "111853.471000", "111853.474000", "111853.477000", "111853.479000", "111853.482000", "111853.485000", "111853.488000", "111853.490000", "111853.493000", "111853.496000", "111853.499000", "111853.501000", "111853.504000", "111933.442000", "111933.445000", "111933.447000", "111933.450000", "111933.453000", "111933.455000", "111933.458000", "111933.461000", "111933.463000", "111933.466000", "111933.469000", "111933.471000", "111933.474000", "111933.477000", "111933.479000", "111933.482000", "111933.485000", "111933.487000", "111933.490000", "111933.493000", "112013.442000", "112013.445000", "112013.447000", "112013.450000", "112013.453000", "112013.455000", "112013.458000", "112013.461000", "112013.463000", "112013.466000", "112013.469000", "112013.471000", "112013.474000", "112013.477000", "112013.479000", "112013.482000", "112013.485000", "112013.487000", "112013.490000", "112013.493000", "112053.442000", "112053.445000", "112053.447000", "112053.450000", "112053.453000", "112053.455000", "112053.458000", "112053.461000", "112053.463000", "112053.466000", "112053.469000", "112053.471000", "112053.474000", "112053.477000", "112053.479000", "112053.483000", "112053.486000", "112053.489000", "112053.491000", "112053.494000", "112116.908000", "112116.911000", "112116.913000", "112116.916000", "112116.919000", "112116.922000", "112116.925000", "112116.927000", "112116.930000", "112116.933000", "112116.936000", "112116.938000"],
      "InstanceNumber": [1, 2, 3, 4, 5, 6, 7, 8, 9, 10, 11, 12, 13, 14, 15, 16, 17, 18, 19, 20, 21, 22, 23, 24, 25, 26, 27, 28, 29, 30, 31, 32, 33, 34, 35, 36, 37, 38, 39, 40, 41, 42, 43, 44, 45, 46, 47, 48, 49, 50, 51, 52, 53, 54, 55, 56, 57, 58, 59, 60, 61, 62, 63, 64, 65, 66, 67, 68, 69, 70, 71, 72, 73, 74, 75, 76, 77, 78, 79, 80, 81, 82, 83, 84, 85, 86, 87, 88, 89, 90, 91, 92, 93, 94, 95, 96, 97, 98, 99, 100, 101, 102, 103, 104, 105, 106, 107, 108, 109, 110, 111, 112, 113, 114, 115, 116, 117, 118, 119, 120, 121, 122, 123, 124, 125, 126, 127, 128, 129, 130, 131, 132, 133, 134, 135, 136, 137, 138, 139, 140, 141, 142, 143, 144, 145, 146, 147, 148, 149, 150, 151, 152, 153, 154, 155, 156, 157, 158, 159, 160, 161, 162, 163, 164, 165, 166, 167, 168, 169, 170, 171, 172, 173, 174, 175, 176, 177, 178, 179, 180, 181, 182, 183, 184, 185, 186, 187, 188, 189, 190, 191, 192, 193, 194, 195, 196, 197, 198, 199, 200],
      "LargestImagePixelValue": [2009, 2012, 2012, 2024, 2017, 2016, 2014, 2017, 2014, 2008, 2014, 2015, 2017, 2022, 2009, 2014, 2014, 2015, 2017, 2022, 2015, 2015, 2013, 2015, 2016, 2017, 2016, 2012, 2016, 2014, 2020, 2014, 2012, 2019, 2013, 2015, 2016, 2015, 2014, 2017, 2016, 2014, 2022, 2018, 2015, 2016, 2014, 2012, 2018, 2016, 2014, 2019, 2015, 2016, 2015, 2017, 2017, 2013, 2013, 2017, 2011, 2015, 2019, 2017, 2019, 2014, 2017, 2019, 2018, 2014, 2017, 2012, 2011, 2014, 2015, 2016, 2014, 2022, 2020, 2021, 2015, 2020, 2013, 2017, 2024, 2018, 2013, 2015, 2016, 2014, 2010, 2021, 2017, 2015, 2015, 2013, 2022, 2012, 2011, 2018, 2021, 2016, 2012, 2016, 2011, 2012, 2016, 2016, 2019, 2016, 2019, 2017, 2017, 2015, 2017, 2015, 2017, 2018, 2015, 2023, 2013, 2021, 2014, 2020, 2017, 2022, 2014, 2015, 2014, 2013, 2014, 2013, 2011, 2016, 2012, 2018, 2015, 2014, 2014, 2011, 2007, 2019, 2017, 2014, 2015, 2014, 2013, 2011, 2013, 2016, 2016, 2011, 2013, 2016, 2012, 2014, 2013, 2015, 2017, 2006, 2015, 2012, 2013, 2015, 2013, 2019, 2013, 2017, 2012, 2019, 2008, 2010, 2011, 2019, 2021, 2011, 2011, 2022, 2011, 2012, 2013, 2019, 2015, 2019, 2022, 2018, 2014, 2011, 2014, 2014, 2021, 2019, 2014, 2012, 2015, 2013, 2014, 2016, 2011, 2014],
      "WindowCenter": [970.0, 970.0, 970.0, 971.0, 970.0, 971.0, 970.0, 970.0, 970.0, 970.0, 970.0, 970.0, 970.0, 970.0, 970.0, 970.0, 971.0, 970.0, 970.0, 970.0, 970.0, 970.0, 970.0, 970.0, 971.0, 970.0, 970.0, 970.0, 970.0, 970.0, 970.0, 970.0, 970.0, 970.0, 970.0, 970.0, 971.0, 970.0, 970.0, 970.0, 970.0, 970.0, 970.0, 970.0, 970.0, 970.0, 970.0, 970.0, 970.0, 970.0, 970.0, 970.0, 970.0, 970.0, 971.0, 970.0, 970.0, 971.0, 970.0, 970.0, 970.0, 970.0, 970.0, 970.0, 970.0, 970.0, 970.0, 970.0, 970.0, 970.0, 970.0, 970.0, 970.0, 970.0, 970.0, 970.0, 970.0, 970.0, 970.0, 970.0, 970.0, 970.0, 970.0, 970.0, 970.0, 970.0, 970.0, 970.0, 970.0, 970.0, 970.0, 970.0, 970.0, 970.0, 970.0, 970.0, 970.0, 970.0, 970.0, 970.0, 970.0, 970.0, 970.0, 970.0, 970.0, 970.0, 970.0, 970.0, 970.0, 970.0, 970.0, 970.0, 970.0, 970.0, 970.0, 970.0, 970.0, 970.0, 970.0, 969.0, 969.0, 970.0, 969.0, 970.0, 969.0, 969.0, 969.0, 969.0, 969.0, 970.0, 969.0, 969.0, 969.0, 969.0, 969.0, 969.0, 969.0, 969.0, 969.0, 969.0, 969.0, 969.0, 969.0, 970.0, 969.0, 969.0, 969.0, 969.0, 969.0, 969.0, 969.0, 969.0, 969.0, 969.0, 969.0, 969.0, 969.0, 969.0, 970.0, 969.0, 969.0, 969.0, 969.0, 969.0, 969.0, 969.0, 969.0, 969.0, 969.0, 969.0, 969.0, 969.0, 969.0, 969.0, 969.0, 970.0, 969.0, 969.0, 969.0, 969.0, 969.0, 969.0, 969.0, 969.0, 969.0, 970.0, 969.0, 969.0, 969.0, 969.0, 969.0, 969.0, 969.0, 969.0, 969.0, 969.0, 969.0, 969.0, 969.0, 969.0],
      "WindowWidth": [2120.0, 2120.0, 2120.0, 2120.0, 2120.0, 2120.0, 2120.0, 2120.0, 2120.0, 2120.0, 2120.0, 2120.0, 2120.0, 2120.0, 2120.0, 2120.0, 2121.0, 2120.0, 2120.0, 2120.0, 2120.0, 2120.0, 2120.0, 2121.0, 2121.0, 2120.0, 2120.0, 2120.0, 2120.0, 2120.0, 2120.0, 2120.0, 2120.0, 2120.0, 2120.0, 2120.0, 2121.0, 2120.0, 2120.0, 2120.0, 2120.0, 2120.0, 2120.0, 2120.0, 2120.0, 2120.0, 2120.0, 2120.0, 2120.0, 2120.0, 2120.0, 2120.0, 2119.0, 2119.0, 2120.0, 2119.0, 2119.0, 2120.0, 2119.0, 2119.0, 2119.0, 2119.0, 2119.0, 2119.0, 2119.0, 2120.0, 2119.0, 2119.0, 2119.0, 2119.0, 2119.0, 2119.0, 2119.0, 2119.0, 2119.0, 2119.0, 2119.0, 2119.0, 2119.0, 2119.0, 2119.0, 2119.0, 2119.0, 2119.0, 2119.0, 2119.0, 2119.0, 2119.0, 2119.0, 2119.0, 2119.0, 2119.0, 2119.0, 2119.0, 2119.0, 2119.0, 2119.0, 2119.0, 2119.0, 2119.0, 2119.0, 2119.0, 2119.0, 2119.0, 2119.0, 2119.0, 2119.0, 2119.0, 2118.0, 2119.0, 2119.0, 2119.0, 2119.0, 2119.0, 2119.0, 2119.0, 2119.0, 2119.0, 2119.0, 2118.0, 2118.0, 2119.0, 2119.0, 2119.0, 2118.0, 2118.0, 2118.0, 2118.0, 2118.0, 2119.0, 2118.0, 2118.0, 2118.0, 2118.0, 2118.0, 2118.0, 2118.0, 2118.0, 2118.0, 2118.0, 2118.0, 2118.0, 2118.0, 2119.0, 2118.0, 2118.0, 2118.0, 2118.0, 2118.0, 2118.0, 2118.0, 2118.0, 2118.0, 2118.0, 2118.0, 2118.0, 2118.0, 2118.0, 2118.0, 2118.0, 2118.0, 2118.0, 2118.0, 2118.0, 2118.0, 2118.0, 2118.0, 2118.0, 2118.0, 2118.0, 2118.0, 2118.0, 2118.0, 2118.0, 2118.0, 2118.0, 2118.0, 2118.0, 2118.0, 2118.0, 2118.0, 2118.0, 2118.0, 2118.0, 2118.0, 2118.0, 2117.0, 2118.0, 2118.0, 2118.0, 2118.0, 2118.0, 2118.0, 2118.0, 2118.0, 2118.0, 2118.0, 2118.0, 2118.0, 2118.0]
    },
    "slices": {}
  }
}