{
  "AcquisitionMatrixPE": 80,
  "AcquisitionNumber": 1,
  "AcquisitionTime": "11:21:32.150000",
  "BandwidthPerPixelPhaseEncode": 44.643,
  "BaseResolution": 80,
  "BodyPartExamined": "BRAIN",
  "CoilCombinationMethod": "Sum of Squares",
  "ConsistencyInfo": "N4_VE11C_LATEST_20160120",
  "ConversionSoftware": "dcm2niix",
  "ConversionSoftwareVersion": "v1.0.20220720",
  "DerivedVendorReportedEchoSpacing": 0.000559998,
  "DeviceSerialNumber": "66112",
  "DwellTime": 2.7e-06,
  "EchoTime": 0.035,
  "EchoTrainLength": 39,
  "EffectiveEchoSpacing": 0.000279999,
  "FlipAngle": 90,
  "HeudiconvVersion": "0.13.1",
  "ImageOrientationPatientDICOM": [0.999967, 0.0057072, 0.00580097, -0.00715572, 0.956144, 0.292809],
  "ImageOrientationText": "Tra>Cor(17.0)>Sag(0.2)",
  "ImageType": [
    "ORIGINAL",
    "PRIMARY",
    "M",
    "ND",
    "NORM",
    "MOSAIC"
],
  "ImagingFrequency": 123.252,
  "InPlanePhaseEncodingDirectionDICOM": "COL",
  "InstitutionAddress": "Maynard 3,Hanover,NH,US,03755",
  "InstitutionName": "Dartmouth College - PBS",
  "InstitutionalDepartmentName": "Department",
  "MRAcquisitionType": "2D",
  "MagneticFieldStrength": 3,
  "Manufacturer": "Siemens",
  "ManufacturersModelName": "Prisma",
  "Modality": "MR",
  "MultibandAccelerationFactor": 4,
  "NonlinearGradientCorrection": false,
  "ParallelReductionFactorInPlane": 2,
  "PartialFourier": 1,
  "PatientPosition": "HFS",
  "PercentPhaseFOV": 100,
  "PercentSampling": 100,
  "PhaseEncodingDirection": "j-",
  "PhaseEncodingSteps": 79,
  "PhaseResolution": 1,
  "PixelBandwidth": 2315,
  "ProcedureStepDescription": "dbic^QA",
  "ProtocolName": "func-bold_task-rest_acq-p2-s4-3.5mm",
  "PulseSequenceDetails": "%SiemensSeq%\\ep2d_bold",
  "ReceiveCoilActiveElements": "HEA;HEP",
  "ReceiveCoilName": "Head_32",
  "ReconMatrixPE": 80,
  "RefLinesPE": 24,
  "RepetitionTime": 2,
  "SAR": 0.0209708,
  "ScanOptions": "FS",
  "ScanningSequence": "EP",
  "SequenceName": "*epfid2d1_80",
  "SequenceVariant": "SK",
  "SeriesDescription": "func-bold_task-rest_acq-p2-s4-3.5mm",
  "SeriesNumber": 7,
  "ShimSetting": [4145, -7680, -7519, 382, -45, -286, -46, 71],
  "SliceThickness": 3.5,
  "SliceTiming": [1.485, 0, 0.99, 0.2475, 1.2375, 0.7425, 1.7325, 0.495, 1.485, 0, 0.99, 0.2475, 1.2375, 0.7425, 1.7325, 0.495, 1.485, 0, 0.99, 0.2475, 1.2375, 0.7425, 1.7325, 0.495, 1.485, 0, 0.99, 0.2475, 1.2375, 0.7425, 1.7325, 0.495],
  "SoftwareVersions": "syngo MR E11",
  "SpacingBetweenSlices": 3.99,
  "StationName": "AWP66112",
  "TaskName": "rest",
  "TotalReadoutTime": 0.0221199,
  "TxRefAmp": 231.932,
  "dcmmeta_affine": [
    [-2.9999005794525146, -0.02146715484559536, 0.015463008545339108, 122.88713836669922],
    [-0.01712159998714924, 2.8684325218200684, 1.168434977531433, -132.43002319335938],
    [0.017402900382876396, -0.8784271478652954, 3.815051555633545, -48.74892807006836],
    [0.0, 0.0, 0.0, 1.0]
],
  "dcmmeta_reorient_transform": [
    [0.0, -1.0, 0.0, 79.0],
    [1.0, 0.0, 0.0, 0.0],
    [0.0, 0.0, 1.0, 0.0],
    [0.0, 0.0, 0.0, 1.0]
],
  "dcmmeta_shape": [80, 80, 32, 200],
  "dcmmeta_slice_dim": 2,
  "dcmmeta_version": 0.6,
  "global": {
    "const": {
      "AccessionNumber": "qa",
      "AcquisitionMatrix": [80, 0, 0, 80],
      "AngioFlag": "N",
      "BitsAllocated": 16,
      "BitsStored": 12,
      "BodyPartExamined": "BRAIN",
      "Columns": 480,
      "EchoNumbers": 1,
      "EchoTime": 35.0,
      "EchoTrainLength": 39,
      "FlipAngle": 90.0,
      "HighBit": 11,
      "ImageOrientationPatient": [0.99996688777759, 0.00570719988143, 0.00580096698114, -0.0071557184371, 0.95614415880888, 0.29280905598922],
      "ImagePositionPatient": [-716.87793334552, -671.28695698627, -297.3106865704],
      "ImageType": [
        "ORIGINAL",
        "PRIMARY",
        "M",
        "ND",
        "NORM",
        "MOSAIC"
],
      "ImagedNucleus": "1H",
      "ImagingFrequency": 123.252438,
      "InPlanePhaseEncodingDirection": "COL",
      "MRAcquisitionType": "2D",
      "MagneticFieldStrength": 3.0,
      "Manufacturer": "SIEMENS",
      "ManufacturerModelName": "Prisma",
      "Modality": "MR",
      "NumberOfAverages": 1.0,
      "NumberOfPhaseEncodingSteps": 79,
      "PercentPhaseFieldOfView": 100.0,
      "PercentSampling": 100.0,
      "PerformedProcedureStepStartTime": "111112.968000",
      "PhotometricInterpretation": "MONOCHROME2",
      "PixelBandwidth": 2315.0,
      "PixelRepresentation": 0,
      "PixelSpacing": [3.0, 3.0],
      "ProtocolName": "func-bold_task-rest_acq-p2-s4-3.5mm",
      "RepetitionTime": 2000.0,
      "Rows": 480,
      "SAR": 0.02097075492364,
      "SamplesPerPixel": 1,
      "ScanOptions": "FS",
      "ScanningSequence": "EP",
      "SequenceName": "*epfid2d1_80",
      "SequenceVariant": "SK",
      "SeriesDescription": "func-bold_task-rest_acq-p2-s4-3.5mm",
      "SeriesNumber": 7,
      "SeriesTime": "112213.512000",
      "SliceLocation": -84.916130444691,
      "SliceThickness": 3.5,
      "SmallestImagePixelValue": 0,
      "SoftwareVersions": "syngo MR E11",
      "SpacingBetweenSlices": 3.9899998497129,
      "SpecificCharacterSet": "ISO_IR 100",
      "StudyID": "18",
      "StudyTime": "111112.866000",
      "TransmitCoilName": "Body",
      "VariableFlipAngleFlag": "N",
      "WindowCenterWidthExplanation": "Algo1",
      "dBdt": 0.0},
    "slices": {}
  },
  "time": {
    "samples": {
      "AcquisitionNumber": [1, 2, 3, 4, 5, 6, 7, 8, 9, 10, 11, 12, 13, 14, 15, 16, 17, 18, 19, 20, 21, 22, 23, 24, 25, 26, 27, 28, 29, 30, 31, 32, 33, 34, 35, 36, 37, 38, 39, 40, 41, 42, 43, 44, 45, 46, 47, 48, 49, 50, 51, 52, 53, 54, 55, 56, 57, 58, 59, 60, 61, 62, 63, 64, 65, 66, 67, 68, 69, 70, 71, 72, 73, 74, 75, 76, 77, 78, 79, 80, 81, 82, 83, 84, 85, 86, 87, 88, 89, 90, 91, 92, 93, 94, 95, 96, 97, 98, 99, 100, 101, 102, 103, 104, 105, 106, 107, 108, 109, 110, 111, 112, 113, 114, 115, 116, 117, 118, 119, 120, 121, 122, 123, 124, 125, 126, 127, 128, 129, 130, 131, 132, 133, 134, 135, 136, 137, 138, 139, 140, 141, 142, 143, 144, 145, 146, 147, 148, 149, 150, 151, 152, 153, 154, 155, 156, 157, 158, 159, 160, 161, 162, 163, 164, 165, 166, 167, 168, 169, 170, 171, 172, 173, 174, 175, 176, 177, 178, 179, 180, 181, 182, 183, 184, 185, 186, 187, 188, 189, 190, 191, 192, 193, 194, 195, 196, 197, 198, 199, 200],
      "AcquisitionTime": ["112132.150000", "112134.150000", "112136.150000", "112138.150000", "112140.150000", "112142.150000", "112144.150000", "112146.150000", "112148.150000", "112150.150000", "112152.150000", "112154.150000", "112156.150000", "112158.150000", "112200.150000", "112202.150000", "112204.150000", "112206.150000", "112208.150000", "112210.150000", "112212.150000", "112214.150000", "112216.150000", "112218.150000", "112220.150000", "112222.150000", "112224.150000", "112226.150000", "112228.150000", "112230.150000", "112232.150000", "112234.150000", "112236.150000", "112238.150000", "112240.150000", "112242.150000", "112244.150000", "112246.150000", "112248.150000", "112250.150000", "112252.150000", "112254.150000", "112256.150000", "112258.150000", "112300.150000", "112302.150000", "112304.150000", "112306.150000", "112308.150000", "112310.150000", "112312.150000", "112314.150000", "112316.150000", "112318.150000", "112320.150000", "112322.150000", "112324.150000", "112326.150000", "112328.150000", "112330.150000", "112332.150000", "112334.150000", "112336.150000", "112338.150000", "112340.150000", "112342.150000", "112344.150000", "112346.150000", "112348.150000", "112350.150000", "112352.150000", "112354.150000", "112356.150000", "112358.150000", "112400.150000", "112402.150000", "112404.150000", "112406.150000", "112408.150000", "112410.150000", "112412.150000", "112414.150000", "112416.150000", "112418.150000", "112420.150000", "112422.150000", "112424.150000", "112426.150000", "112428.150000", "112430.150000", "112432.150000", "112434.150000", "112436.150000", "112438.150000", "112440.150000", "112442.150000", "112444.150000", "112446.150000", "112448.150000", "112450.150000", "112452.150000", "112454.150000", "112456.150000", "112458.150000", "112500.150000", "112502.150000", "112504.150000", "112506.150000", "112508.150000", "112510.150000", "112512.150000", "112514.150000", "112516.150000", "112518.150000", "112520.150000", "112522.150000", "112524.150000", "112526.150000", "112528.150000", "112530.150000", "112532.150000", "112534.150000", "112536.150000", "112538.150000", "112540.150000", "112542.150000", "112544.150000", "112546.150000", "112548.150000", "112550.150000", "112552.150000", "112554.150000", "112556.150000", "112558.150000", "112600.150000", "112602.150000", "112604.150000", "112606.150000", "112608.150000", "112610.150000", "112612.150000", "112614.150000", "112616.150000", "112618.150000", "112620.150000", "112622.150000", "112624.150000", "112626.150000", "112628.150000", "112630.150000", "112632.150000", "112634.150000", "112636.150000", "112638.150000", "112640.150000", "112642.150000", "112644.150000", "112646.150000", "112648.150000", "112650.150000", "112652.150000", "112654.150000", "112656.150000", "112658.150000", "112700.150000", "112702.150000", "112704.150000", "112706.150000", "112708.150000", "112710.150000", "112712.150000", "112714.150000", "112716.150000", "112718.150000", "112720.150000", "112722.150000", "112724.150000", "112726.150000", "112728.150000", "112730.150000", "112732.150000", "112734.150000", "112736.150000", "112738.150000", "112740.150000", "112742.150000", "112744.150000", "112746.150000", "112748.150000", "112750.150000", "112752.150000", "112754.150000", "112756.150000", "112758.150000", "112800.150000", "112802.150000", "112804.150000", "112806.150000", "112808.150000", "112810.150000"],
      "ContentTime": ["112213.515000", "112213.519000", "112213.522000", "112213.524000", "112213.527000", "112213.530000", "112213.532000", "112213.535000", "112213.538000", "112213.540000", "112213.543000", "112213.546000", "112213.548000", "112213.551000", "112213.554000", "112213.556000", "112213.559000", "112213.562000", "112213.564000", "112213.567000", "112213.570000", "112253.511000", "112253.514000", "112253.516000", "112253.519000", "112253.522000", "112253.525000", "112253.527000", "112253.530000", "112253.533000", "112253.536000", "112253.538000", "112253.541000", "112253.544000", "112253.547000", "112253.549000", "112253.552000", "112253.555000", "112253.558000", "112253.560000", "112253.563000", "112333.510000", "112333.513000", "112333.515000", "112333.518000", "112333.521000", "112333.523000", "112333.526000", "112333.529000", "112333.531000", "112333.534000", "112333.537000", "112333.539000", "112333.542000", "112333.545000", "112333.547000", "112333.550000", "112333.553000", "112333.555000", "112333.558000", "112333.561000", "112353.511000", "112353.514000", "112353.516000", "112353.519000", "112353.522000", "112353.525000", "112353.528000", "112353.530000", "112353.533000", "112353.536000", "112433.511000", "112433.514000", "112433.516000", "112433.519000", "112433.522000", "112433.524000", "112433.527000", "112433.530000", "112433.532000", "112433.535000", "112433.538000", "112433.540000", "112433.543000", "112433.546000", "112433.555000", "112433.558000", "112433.560000", "112433.563000", "112433.566000", "112433.569000", "112513.511000", "112513.514000", "112513.516000", "112513.519000", "112513.522000", "112513.524000", "112513.527000", "112513.530000", "112513.532000", "112513.535000", "112513.538000", "112513.540000", "112513.543000", "112513.546000", "112513.548000", "112513.551000", "112513.554000", "112513.556000", "112513.559000", "112513.562000", "112553.510000", "112553.513000", "112553.516000", "112553.518000", "112553.521000", "112553.524000", "112553.526000", "112553.529000", "112553.532000", "112553.534000", "112553.537000", "112553.540000", "112553.543000", "112553.545000", "112553.548000", "112553.551000", "112553.553000", "112553.556000", "112553.559000", "112553.562000", "112633.511000", "112633.514000", "112633.516000", "112633.519000", "112633.522000", "112633.524000", "112633.527000", "112633.530000", "112633.532000", "112633.535000", "112633.538000", "112633.540000", "112633.543000", "112633.546000", "112633.548000", "112633.551000", "112633.554000", "112633.556000", "112633.559000", "112633.562000", "112713.511000", "112713.514000", "112713.516000", "112713.519000", "112713.521000", "112713.524000", "112713.527000", "112713.530000", "112713.532000", "112713.535000", "112713.538000", "112713.540000", "112713.543000", "112713.546000", "112713.548000", "112713.551000", "112713.554000", "112713.556000", "112713.559000", "112713.574000", "112753.510000", "112753.513000", "112753.515000", "112753.518000", "112753.521000", "112753.523000", "112753.526000", "112753.528000", "112753.531000", "112753.534000", "112753.536000", "112753.539000", "112753.542000", "112753.544000", "112753.547000", "112753.550000", "112753.552000", "112753.555000", "112753.558000", "112753.561000", "112810.840000", "112810.843000", "112810.846000", "112810.849000", "112810.852000", "112810.854000", "112810.857000", "112810.860000", "112810.862000"],
      "InstanceCreationTime": ["112213.515000", "112213.519000", "112213.522000", "112213.524000", "112213.527000", "112213.530000", "112213.532000", "112213.535000", "112213.538000", "112213.540000", "112213.543000", "112213.546000", "112213.548000", "112213.551000", "112213.554000", "112213.556000", "112213.559000", "112213.562000", "112213.564000", "112213.567000", "112213.570000", "112253.511000", "112253.514000", "112253.516000", "112253.519000", "112253.522000", "112253.525000", "112253.527000", "112253.530000", "112253.533000", "112253.536000", "112253.538000", "112253.541000", "112253.544000", "112253.547000", "112253.549000", "112253.552000", "112253.555000", "112253.558000", "112253.560000", "112253.563000", "112333.510000", "112333.513000", "112333.515000", "112333.518000", "112333.521000", "112333.523000", "112333.526000", "112333.529000", "112333.531000", "112333.534000", "112333.537000", "112333.539000", "112333.542000", "112333.545000", "112333.547000", "112333.550000", "112333.553000", "112333.555000", "112333.558000", "112333.561000", "112353.511000", "112353.514000", "112353.516000", "112353.519000", "112353.522000", "112353.525000", "112353.528000", "112353.530000", "112353.533000", "112353.536000", "112433.511000", "112433.514000", "112433.516000", "112433.519000", "112433.522000", "112433.524000", "112433.527000", "112433.530000", "112433.532000", "112433.535000", "112433.538000", "112433.540000", "112433.543000", "112433.546000", "112433.555000", "112433.558000", "112433.560000", "112433.563000", "112433.566000", "112433.569000", "112513.511000", "112513.514000", "112513.516000", "112513.519000", "112513.522000", "112513.524000", "112513.527000", "112513.530000", "112513.532000", "112513.535000", "112513.538000", "112513.540000", "112513.543000", "112513.546000", "112513.548000", "112513.551000", "112513.554000", "112513.556000", "112513.559000", "112513.562000", "112553.510000", "112553.513000", "112553.516000", "112553.518000", "112553.521000", "112553.524000", "112553.526000", "112553.529000", "112553.532000", "112553.534000", "112553.537000", "112553.540000", "112553.543000", "112553.545000", "112553.548000", "112553.551000", "112553.553000", "112553.556000", "112553.559000", "112553.562000", "112633.511000", "112633.514000", "112633.516000", "112633.519000", "112633.522000", "112633.524000", "112633.527000", "112633.530000", "112633.532000", "112633.535000", "112633.538000", "112633.540000", "112633.543000", "112633.546000", "112633.548000", "112633.551000", "112633.554000", "112633.556000", "112633.559000", "112633.562000", "112713.511000", "112713.514000", "112713.516000", "112713.519000", "112713.521000", "112713.524000", "112713.527000", "112713.530000", "112713.532000", "112713.535000", "112713.538000", "112713.540000", "112713.543000", "112713.546000", "112713.548000", "112713.551000", "112713.554000", "112713.556000", "112713.559000", "112713.574000", "112753.510000", "112753.513000", "112753.515000", "112753.518000", "112753.521000", "112753.523000", "112753.526000", "112753.528000", "112753.531000", "112753.534000", "112753.536000", "112753.539000", "112753.542000", "112753.544000", "112753.547000", "112753.550000", "112753.552000", "112753.555000", "112753.558000", "112753.561000", "112810.840000", "112810.843000", "112810.846000", "112810.849000", "112810.852000", "112810.854000", "112810.857000", "112810.860000", "112810.862000"],
      "InstanceNumber": [1, 2, 3, 4, 5, 6, 7, 8, 9, 10, 11, 12, 13, 14, 15, 16, 17, 18, 19, 20, 21, 22, 23, 24, 25, 26, 27, 28, 29, 30, 31, 32, 33, 34, 35, 36, 37, 38, 39, 40, 41, 42, 43, 44, 45, 46, 47, 48, 49, 50, 51, 52, 53, 54, 55, 56, 57, 58, 59, 60, 61, 62, 63, 64, 65, 66, 67, 68, 69, 70, 71, 72, 73, 74, 75, 76, 77, 78, 79, 80, 81, 82, 83, 84, 85, 86, 87, 88, 89, 90, 91, 92, 93, 94, 95, 96, 97, 98, 99, 100, 101, 102, 103, 104, 105, 106, 107, 108, 109, 110, 111, 112, 113, 114, 115, 116, 117, 118, 119, 120, 121, 122, 123, 124, 125, 126, 127, 128, 129, 130, 131, 132, 133, 134, 135, 136, 137, 138, 139, 140, 141, 142, 143, 144, 145, 146, 147, 148, 149, 150, 151, 152, 153, 154, 155, 156, 157, 158, 159, 160, 161, 162, 163, 164, 165, 166, 167, 168, 169, 170, 171, 172, 173, 174, 175, 176, 177, 178, 179, 180, 181, 182, 183, 184, 185, 186, 187, 188, 189, 190, 191, 192, 193, 194, 195, 196, 197, 198, 199, 200],
      "LargestImagePixelValue": [2001, 2001, 2005, 2006, 2001, 2004, 2006, 2009, 2000, 2006, 2001, 2004, 2002, 2005, 2004, 2002, 2005, 2002, 2006, 2005, 2003, 2006, 1998, 2003, 1999, 2001, 2005, 2000, 2003, 2004, 2007, 2000, 2002, 2014, 2006, 2003, 2005, 2003, 1999, 2005, 1998, 2002, 2003, 2003, 1999, 2001, 2005, 2005, 2000, 2002, 2007, 2005, 2000, 2005, 2002, 2007, 2000, 2000, 2003, 2008, 2002, 2003, 2004, 2003, 2003, 2006, 2008, 2004, 2003, 2008, 2006, 2004, 2003, 2002, 2002, 2005, 2006, 2005, 2009, 2004, 2005, 2009, 2001, 2001, 2008, 2002, 2004, 2007, 2003, 2009, 2007, 2002, 2003, 2007, 2002, 2001, 2005, 2004, 2007, 2002, 2006, 2000, 2006, 2005, 2003, 2007, 2006, 2004, 2005, 2003, 2002, 2007, 2003, 2004, 2003, 2003, 2008, 2007, 2006, 2004, 2007, 2005, 2003, 2003, 2009, 2006, 2010, 2003, 2004, 2008, 2004, 2005, 2007, 2007, 2003, 2002, 2002, 2008, 2007, 2005, 2004, 2004, 2005, 2003, 2006, 2005, 2005, 2003, 2012, 2010, 2006, 2007, 2005, 2004, 2002, 2006, 2004, 2005, 2008, 2002, 2004, 2004, 2005, 2007, 2007, 2006, 2001, 2001, 2002, 2006, 2005, 2003, 2006, 2005, 2004, 2008, 2007, 2004, 2007, 2005, 2008, 2010, 2003, 2008, 2009, 2006, 2005, 2005, 2000, 2002, 2001, 2006, 2008, 2008, 2004, 2007, 2013, 2005, 2005, 2004],
      "WindowCenter": [907.0, 907.0, 907.0, 907.0, 907.0, 907.0, 907.0, 907.0, 907.0, 907.0, 907.0, 907.0, 907.0, 907.0, 907.0, 907.0, 907.0, 907.0, 907.0, 907.0, 907.0, 907.0, 907.0, 907.0, 907.0, 907.0, 907.0, 907.0, 907.0, 907.0, 907.0, 907.0, 907.0, 907.0, 907.0, 907.0, 907.0, 907.0, 907.0, 907.0, 907.0, 907.0, 907.0, 907.0, 907.0, 907.0, 907.0, 907.0, 907.0, 907.0, 907.0, 907.0, 907.0, 907.0, 907.0, 907.0, 907.0, 907.0, 907.0, 907.0, 907.0, 907.0, 907.0, 907.0, 907.0, 907.0, 907.0, 907.0, 908.0, 907.0, 907.0, 907.0, 907.0, 907.0, 907.0, 907.0, 907.0, 907.0, 907.0, 907.0, 907.0, 907.0, 907.0, 907.0, 907.0, 907.0, 907.0, 907.0, 907.0, 907.0, 907.0, 907.0, 907.0, 907.0, 907.0, 907.0, 907.0, 907.0, 907.0, 907.0, 907.0, 907.0, 907.0, 907.0, 907.0, 907.0, 907.0, 907.0, 907.0, 907.0, 907.0, 907.0, 907.0, 907.0, 907.0, 907.0, 907.0, 907.0, 907.0, 907.0, 907.0, 907.0, 907.0, 907.0, 907.0, 907.0, 907.0, 907.0, 907.0, 907.0, 907.0, 907.0, 907.0, 907.0, 907.0, 907.0, 907.0, 907.0, 907.0, 907.0, 907.0, 907.0, 907.0, 907.0, 907.0, 907.0, 907.0, 907.0, 907.0, 907.0, 907.0, 907.0, 907.0, 907.0, 907.0, 907.0, 907.0, 907.0, 907.0, 907.0, 907.0, 907.0, 907.0, 907.0, 907.0, 907.0, 907.0, 907.0, 907.0, 907.0, 908.0, 907.0, 907.0, 907.0, 907.0, 907.0, 907.0, 907.0, 907.0, 907.0, 907.0, 907.0, 907.0, 907.0, 907.0, 907.0, 907.0, 907.0, 907.0, 907.0, 907.0, 907.0, 907.0, 907.0, 907.0, 907.0, 907.0, 907.0, 907.0, 907.0],
      "WindowWidth": [2053.0, 2053.0, 2053.0, 2053.0, 2053.0, 2053.0, 2053.0, 2053.0, 2053.0, 2053.0, 2053.0, 2053.0, 2053.0, 2053.0, 2053.0, 2053.0, 2053.0, 2053.0, 2053.0, 2054.0, 2053.0, 2053.0, 2053.0, 2053.0, 2053.0, 2053.0, 2053.0, 2053.0, 2053.0, 2053.0, 2053.0, 2053.0, 2053.0, 2054.0, 2053.0, 2053.0, 2053.0, 2053.0, 2053.0, 2053.0, 2053.0, 2053.0, 2054.0, 2053.0, 2053.0, 2053.0, 2053.0, 2053.0, 2053.0, 2053.0, 2053.0, 2053.0, 2053.0, 2053.0, 2053.0, 2053.0, 2053.0, 2053.0, 2053.0, 2053.0, 2053.0, 2053.0, 2053.0, 2053.0, 2053.0, 2053.0, 2053.0, 2053.0, 2054.0, 2053.0, 2053.0, 2053.0, 2053.0, 2053.0, 2053.0, 2053.0, 2053.0, 2053.0, 2053.0, 2053.0, 2053.0, 2053.0, 2053.0, 2053.0, 2053.0, 2053.0, 2053.0, 2053.0, 2053.0, 2053.0, 2053.0, 2053.0, 2053.0, 2053.0, 2053.0, 2053.0, 2053.0, 2053.0, 2053.0, 2053.0, 2053.0, 2053.0, 2053.0, 2053.0, 2053.0, 2053.0, 2053.0, 2053.0, 2053.0, 2053.0, 2053.0, 2053.0, 2053.0, 2053.0, 2053.0, 2053.0, 2053.0, 2053.0, 2053.0, 2053.0, 2053.0, 2053.0, 2053.0, 2053.0, 2053.0, 2053.0, 2053.0, 2053.0, 2053.0, 2053.0, 2053.0, 2053.0, 2053.0, 2053.0, 2053.0, 2053.0, 2053.0, 2053.0, 2053.0, 2053.0, 2053.0, 2053.0, 2053.0, 2053.0, 2053.0, 2053.0, 2053.0, 2053.0, 2053.0, 2053.0, 2053.0, 2053.0, 2053.0, 2053.0, 2053.0, 2053.0, 2053.0, 2053.0, 2053.0, 2053.0, 2053.0, 2053.0, 2053.0, 2053.0, 2053.0, 2053.0, 2053.0, 2053.0, 2053.0, 2053.0, 2054.0, 2053.0, 2053.0, 2053.0, 2053.0, 2053.0, 2053.0, 2053.0, 2053.0, 2053.0, 2053.0, 2053.0, 2053.0, 2053.0, 2053.0, 2053.0, 2053.0, 2053.0, 2053.0, 2053.0, 2053.0, 2053.0, 2054.0, 2053.0, 2053.0, 2053.0, 2053.0, 2053.0, 2053.0, 2053.0]
    },
    "slices": {}
  }
}