{
  "AcquisitionMatrixPE": 80,
  "AcquisitionNumber": 1,
  "AcquisitionTime": "08:43:41.765000",
  "BandwidthPerPixelPhaseEncode": 48.077,
  "BaseResolution": 80,
  "BodyPartExamined": "BRAIN",
  "CoilCombinationMethod": "Sum of Squares",
  "ConsistencyInfo": "N4_VE11E_LATEST_20181129",
  "ConversionSoftware": "dcm2niix",
  "ConversionSoftwareVersion": "v1.0.20220720",
  "DerivedVendorReportedEchoSpacing": 0.000519999,
  "DeviceSerialNumber": "66112",
  "DwellTime": 2.7e-06,
  "EchoTime": 0.035,
  "EchoTrainLength": 39,
  "EffectiveEchoSpacing": 0.00026,
  "FlipAngle": 90,
  "HeudiconvVersion": "0.13.1",
  "ImageOrientationPatientDICOM": [0.999961, 0.00801393, 0.00359922, -0.00872654, 0.953322, 0.301831],
  "ImageOrientationText": "Tra>Cor(17.6)>Sag(0.1)",
  "ImageType": [
    "ORIGINAL",
    "PRIMARY",
    "M",
    "ND",
    "NORM",
    "MOSAIC"
],
  "ImagingFrequency": 123.259,
  "InPlanePhaseEncodingDirectionDICOM": "COL",
  "InstitutionAddress": "Maynard 3,Hanover,NH,US,03755",
  "InstitutionName": "Dartmouth College - PBS",
  "InstitutionalDepartmentName": "Department",
  "MRAcquisitionType": "2D",
  "MagneticFieldStrength": 3,
  "Manufacturer": "Siemens",
  "ManufacturersModelName": "Prisma",
  "MatrixCoilMode": "GRAPPA",
  "Modality": "MR",
  "NonlinearGradientCorrection": false,
  "ParallelReductionFactorInPlane": 2,
  "PartialFourier": 1,
  "PatientPosition": "HFS",
  "PercentPhaseFOV": 100,
  "PercentSampling": 100,
  "PhaseEncodingDirection": "j-",
  "PhaseEncodingSteps": 79,
  "PhaseResolution": 1,
  "PixelBandwidth": 2315,
  "ProcedureStepDescription": "dbic^QA",
  "ProtocolName": "func-bold_task-rest_acq-p2",
  "PulseSequenceDetails": "%SiemensSeq%\\ep2d_bold",
  "ReceiveCoilActiveElements": "HC1-7;NC1,2",
  "ReceiveCoilName": "HeadNeck_64",
  "ReconMatrixPE": 80,
  "RefLinesPE": 24,
  "RepetitionTime": 2,
  "SAR": 0.0361172,
  "ScanOptions": "FS",
  "ScanningSequence": "EP",
  "SequenceName": "*epfid2d1_80",
  "SequenceVariant": "SK",
  "SeriesDescription": "func-bold_task-rest_acq-p2",
  "SeriesNumber": 5,
  "ShimSetting": [4215, -7748, -7486, -140, -171, -152, -54, 96],
  "SliceThickness": 3.5,
  "SliceTiming": [0.99, 0, 1.0575, 0.0675, 1.1225, 0.1325, 1.1875, 0.2, 1.255, 0.265, 1.32, 0.33, 1.3875, 0.3975, 1.4525, 0.4625, 1.5175, 0.53, 1.585, 0.595, 1.65, 0.66, 1.7175, 0.7275, 1.7825, 0.7925, 1.8475, 0.8575, 1.915, 0.925],
  "SoftwareVersions": "syngo MR E11",
  "SpacingBetweenSlices": 3.99,
  "StationName": "AWP66112",
  "TaskName": "rest",
  "TotalReadoutTime": 0.02054,
  "TxRefAmp": 215.364,
  "dcmmeta_affine": [
    [-2.9998841285705566, -0.02617962844669819, 0.004039349500089884, 123.00112915039062],
    [-0.024041781201958656, 2.859964609146118, 1.2043838500976562, -126.0009536743164],
    [0.010797673836350441, -0.9054924845695496, 3.8038854598999023, -27.879329681396484],
    [0.0, 0.0, 0.0, 1.0]
],
  "dcmmeta_reorient_transform": [
    [0.0, -1.0, 0.0, 79.0],
    [1.0, 0.0, 0.0, 0.0],
    [0.0, 0.0, 1.0, 0.0],
    [0.0, 0.0, 0.0, 1.0]
],
  "dcmmeta_shape": [80, 80, 30, 200],
  "dcmmeta_slice_dim": 2,
  "dcmmeta_version": 0.6,
  "global": {
    "const": {
      "AccessionNumber": "qa64",
      "AcquisitionMatrix": [80, 0, 0, 80],
      "AngioFlag": "N",
      "BitsAllocated": 16,
      "BitsStored": 12,
      "BodyPartExamined": "BRAIN",
      "Columns": 480,
      "EchoNumbers": 1,
      "EchoTime": 35.0,
      "EchoTrainLength": 39,
      "FlipAngle": 90.0,
      "HighBit": 11,
      "ImageOrientationPatient": [0.99996141053413, 0.00801392685777, 0.00359922476465, -0.008726543013, 0.95332155877646, 0.30183083510313],
      "ImagePositionPatient": [-715.67385929677, -676.73754414822, -282.67127411676],
      "ImageType": [
        "ORIGINAL",
        "PRIMARY",
        "M",
        "ND",
        "NORM",
        "MOSAIC"
],
      "ImagedNucleus": "1H",
      "ImagingFrequency": 123.259198,
      "InPlanePhaseEncodingDirection": "COL",
      "MRAcquisitionType": "2D",
      "MagneticFieldStrength": 3.0,
      "Manufacturer": "SIEMENS",
      "ManufacturerModelName": "Prisma",
      "Modality": "MR",
      "NumberOfAverages": 1.0,
      "NumberOfPhaseEncodingSteps": 79,
      "PercentPhaseFieldOfView": 100.0,
      "PercentSampling": 100.0,
      "PerformedProcedureStepStartTime": "083830.775000",
      "PhotometricInterpretation": "MONOCHROME2",
      "PixelBandwidth": 2315.0,
      "PixelRepresentation": 0,
      "PixelSpacing": [3.0, 3.0],
      "ProtocolName": "func-bold_task-rest_acq-p2",
      "RepetitionTime": 2000.0,
      "Rows": 480,
      "SAR": 0.03611719658341,
      "SamplesPerPixel": 1,
      "ScanOptions": "FS",
      "ScanningSequence": "EP",
      "SequenceName": "*epfid2d1_80",
      "SequenceVariant": "SK",
      "SeriesDescription": "func-bold_task-rest_acq-p2",
      "SeriesNumber": 5,
      "SeriesTime": "084434.649000",
      "SliceLocation": -64.487832145203,
      "SliceThickness": 3.5,
      "SmallestImagePixelValue": 0,
      "SoftwareVersions": "syngo MR E11",
      "SpacingBetweenSlices": 3.9900000970964,
      "SpecificCharacterSet": "ISO_IR 100",
      "StudyID": "27",
      "StudyTime": "083830.597000",
      "TransmitCoilName": "Body",
      "VariableFlipAngleFlag": "N",
      "WindowCenterWidthExplanation": "Algo1"
    },
    "slices": {}
  },
  "time": {
    "samples": {
      "AcquisitionNumber": [1, 2, 3, 4, 5, 6, 7, 8, 9, 10, 11, 12, 13, 14, 15, 16, 17, 18, 19, 20, 21, 22, 23, 24, 25, 26, 27, 28, 29, 30, 31, 32, 33, 34, 35, 36, 37, 38, 39, 40, 41, 42, 43, 44, 45, 46, 47, 48, 49, 50, 51, 52, 53, 54, 55, 56, 57, 58, 59, 60, 61, 62, 63, 64, 65, 66, 67, 68, 69, 70, 71, 72, 73, 74, 75, 76, 77, 78, 79, 80, 81, 82, 83, 84, 85, 86, 87, 88, 89, 90, 91, 92, 93, 94, 95, 96, 97, 98, 99, 100, 101, 102, 103, 104, 105, 106, 107, 108, 109, 110, 111, 112, 113, 114, 115, 116, 117, 118, 119, 120, 121, 122, 123, 124, 125, 126, 127, 128, 129, 130, 131, 132, 133, 134, 135, 136, 137, 138, 139, 140, 141, 142, 143, 144, 145, 146, 147, 148, 149, 150, 151, 152, 153, 154, 155, 156, 157, 158, 159, 160, 161, 162, 163, 164, 165, 166, 167, 168, 169, 170, 171, 172, 173, 174, 175, 176, 177, 178, 179, 180, 181, 182, 183, 184, 185, 186, 187, 188, 189, 190, 191, 192, 193, 194, 195, 196, 197, 198, 199, 200],
      "AcquisitionTime": ["084341.765000", "084343.765000", "084345.765000", "084347.765000", "084349.765000", "084351.765000", "084353.765000", "084355.765000", "084357.765000", "084359.765000", "084401.765000", "084403.765000", "084405.765000", "084407.765000", "084409.765000", "084411.765000", "084413.765000", "084415.765000", "084417.765000", "084419.765000", "084421.765000", "084423.765000", "084425.765000", "084427.765000", "084429.765000", "084431.765000", "084433.765000", "084435.765000", "084437.765000", "084439.765000", "084441.765000", "084443.765000", "084445.765000", "084447.765000", "084449.765000", "084451.765000", "084453.765000", "084455.765000", "084457.765000", "084459.765000", "084501.765000", "084503.765000", "084505.765000", "084507.765000", "084509.765000", "084511.765000", "084513.765000", "084515.765000", "084517.765000", "084519.765000", "084521.765000", "084523.765000", "084525.765000", "084527.765000", "084529.765000", "084531.765000", "084533.765000", "084535.765000", "084537.765000", "084539.765000", "084541.765000", "084543.765000", "084545.765000", "084547.765000", "084549.765000", "084551.765000", "084553.765000", "084555.765000", "084557.765000", "084559.765000", "084601.765000", "084603.765000", "084605.765000", "084607.765000", "084609.765000", "084611.765000", "084613.765000", "084615.765000", "084617.765000", "084619.765000", "084621.765000", "084623.765000", "084625.765000", "084627.765000", "084629.765000", "084631.765000", "084633.765000", "084635.765000", "084637.765000", "084639.765000", "084641.765000", "084643.765000", "084645.765000", "084647.765000", "084649.765000", "084651.765000", "084653.765000", "084655.765000", "084657.765000", "084659.765000", "084701.765000", "084703.765000", "084705.765000", "084707.765000", "084709.765000", "084711.765000", "084713.765000", "084715.765000", "084717.765000", "084719.765000", "084721.765000", "084723.765000", "084725.765000", "084727.765000", "084729.765000", "084731.765000", "084733.765000", "084735.765000", "084737.765000", "084739.765000", "084741.765000", "084743.765000", "084745.765000", "084747.765000", "084749.765000", "084751.765000", "084753.765000", "084755.765000", "084757.765000", "084759.765000", "084801.765000", "084803.765000", "084805.765000", "084807.765000", "084809.765000", "084811.765000", "084813.765000", "084815.765000", "084817.765000", "084819.765000", "084821.765000", "084823.765000", "084825.765000", "084827.765000", "084829.765000", "084831.765000", "084833.765000", "084835.765000", "084837.765000", "084839.765000", "084841.765000", "084843.765000", "084845.765000", "084847.765000", "084849.765000", "084851.765000", "084853.765000", "084855.765000", "084857.765000", "084859.765000", "084901.765000", "084903.765000", "084905.765000", "084907.765000", "084909.765000", "084911.765000", "084913.765000", "084915.765000", "084917.765000", "084919.765000", "084921.765000", "084923.765000", "084925.765000", "084927.765000", "084929.765000", "084931.765000", "084933.765000", "084935.765000", "084937.765000", "084939.765000", "084941.765000", "084943.765000", "084945.765000", "084947.765000", "084949.765000", "084951.765000", "084953.765000", "084955.765000", "084957.765000", "084959.765000", "085001.765000", "085003.765000", "085005.765000", "085007.765000", "085009.765000", "085011.765000", "085013.765000", "085015.765000", "085017.765000", "085019.765000"],
      "ContentTime": ["084434.653000", "084434.656000", "084434.666000", "084434.669000", "084434.671000", "084434.673000", "084434.676000", "084434.678000", "084434.680000", "084434.686000", "084434.688000", "084434.690000", "084434.693000", "084434.706000", "084434.708000", "084434.711000", "084434.713000", "084434.715000", "084434.718000", "084434.720000", "084434.722000", "084434.725000", "084434.727000", "084434.729000", "084434.732000", "084434.734000", "084514.646000", "084514.649000", "084514.651000", "084514.654000", "084514.656000", "084514.658000", "084514.661000", "084514.663000", "084514.665000", "084514.668000", "084514.670000", "084514.672000", "084514.675000", "084514.677000", "084514.679000", "084514.682000", "084514.684000", "084514.686000", "084514.689000", "084514.691000", "084554.646000", "084554.649000", "084554.651000", "084554.654000", "084554.656000", "084554.658000", "084554.660000", "084554.663000", "084554.666000", "084554.668000", "084554.670000", "084554.673000", "084554.675000", "084554.677000", "084554.680000", "084554.682000", "084554.684000", "084554.687000", "084554.689000", "084554.692000", "084634.647000", "084634.650000", "084634.652000", "084634.655000", "084634.657000", "084634.659000", "084634.662000", "084634.664000", "084634.667000", "084634.669000", "084634.671000", "084634.674000", "084634.676000", "084634.678000", "084634.681000", "084634.683000", "084634.686000", "084634.688000", "084634.690000", "084634.693000", "084714.647000", "084714.650000", "084714.652000", "084714.655000", "084714.657000", "084714.659000", "084714.662000", "084714.664000", "084714.667000", "084714.669000", "084714.671000", "084714.674000", "084714.676000", "084714.678000", "084714.681000", "084714.683000", "084714.686000", "084714.688000", "084714.690000", "084714.693000", "084734.646000", "084734.649000", "084734.651000", "084734.654000", "084734.656000", "084734.659000", "084734.661000", "084734.664000", "084734.666000", "084734.668000", "084814.646000", "084814.649000", "084814.651000", "084814.653000", "084814.656000", "084814.658000", "084814.660000", "084814.663000", "084814.665000", "084814.668000", "084814.670000", "084814.672000", "084814.675000", "084814.677000", "084814.679000", "084814.682000", "084814.684000", "084814.686000", "084814.689000", "084814.691000", "084854.647000", "084854.650000", "084854.652000", "084854.654000", "084854.657000", "084854.665000", "084854.667000", "084854.669000", "084854.672000", "084854.674000", "084854.677000", "084854.679000", "084854.681000", "084854.684000", "084854.686000", "084854.688000", "084854.691000", "084854.693000", "084854.695000", "084854.698000", "084934.647000", "084934.650000", "084934.652000", "084934.655000", "084934.657000", "084934.659000", "084934.662000", "084934.664000", "084934.666000", "084934.669000", "084934.671000", "084934.673000", "084934.676000", "084934.678000", "084934.680000", "084934.683000", "084934.685000", "084934.688000", "084934.690000", "084934.692000", "085014.646000", "085014.649000", "085014.651000", "085014.653000", "085014.656000", "085014.658000", "085014.660000", "085014.663000", "085014.665000", "085014.668000", "085014.670000", "085014.672000", "085014.675000", "085014.677000", "085014.679000", "085014.691000", "085014.693000", "085014.696000", "085014.698000", "085014.700000", "085021.334000", "085021.337000", "085021.340000", "085021.342000"],
      "InstanceCreationTime": ["084434.653000", "084434.656000", "084434.666000", "084434.669000", "084434.671000", "084434.673000", "084434.676000", "084434.678000", "084434.680000", "084434.686000", "084434.688000", "084434.690000", "084434.693000", "084434.706000", "084434.708000", "084434.711000", "084434.713000", "084434.715000", "084434.718000", "084434.720000", "084434.722000", "084434.725000", "084434.727000", "084434.729000", "084434.732000", "084434.734000", "084514.646000", "084514.649000", "084514.651000", "084514.654000", "084514.656000", "084514.658000", "084514.661000", "084514.663000", "084514.665000", "084514.668000", "084514.670000", "084514.672000", "084514.675000", "084514.677000", "084514.679000", "084514.682000", "084514.684000", "084514.686000", "084514.689000", "084514.691000", "084554.646000", "084554.649000", "084554.651000", "084554.654000", "084554.656000", "084554.658000", "084554.660000", "084554.663000", "084554.666000", "084554.668000", "084554.670000", "084554.673000", "084554.675000", "084554.677000", "084554.680000", "084554.682000", "084554.684000", "084554.687000", "084554.689000", "084554.692000", "084634.647000", "084634.650000", "084634.652000", "084634.655000", "084634.657000", "084634.659000", "084634.662000", "084634.664000", "084634.667000", "084634.669000", "084634.671000", "084634.674000", "084634.676000", "084634.678000", "084634.681000", "084634.683000", "084634.686000", "084634.688000", "084634.690000", "084634.693000", "084714.647000", "084714.650000", "084714.652000", "084714.655000", "084714.657000", "084714.659000", "084714.662000", "084714.664000", "084714.667000", "084714.669000", "084714.671000", "084714.674000", "084714.676000", "084714.678000", "084714.681000", "084714.683000", "084714.686000", "084714.688000", "084714.690000", "084714.693000", "084734.646000", "084734.649000", "084734.651000", "084734.654000", "084734.656000", "084734.659000", "084734.661000", "084734.664000", "084734.666000", "084734.668000", "084814.646000", "084814.649000", "084814.651000", "084814.653000", "084814.656000", "084814.658000", "084814.660000", "084814.663000", "084814.665000", "084814.668000", "084814.670000", "084814.672000", "084814.675000", "084814.677000", "084814.679000", "084814.682000", "084814.684000", "084814.686000", "084814.689000", "084814.691000", "084854.647000", "084854.650000", "084854.652000", "084854.654000", "084854.657000", "084854.665000", "084854.667000", "084854.669000", "084854.672000", "084854.674000", "084854.677000", "084854.679000", "084854.681000", "084854.684000", "084854.686000", "084854.688000", "084854.691000", "084854.693000", "084854.695000", "084854.698000", "084934.647000", "084934.650000", "084934.652000", "084934.655000", "084934.657000", "084934.659000", "084934.662000", "084934.664000", "084934.666000", "084934.669000", "084934.671000", "084934.673000", "084934.676000", "084934.678000", "084934.680000", "084934.683000", "084934.685000", "084934.688000", "084934.690000", "084934.692000", "085014.646000", "085014.649000", "085014.651000", "085014.653000", "085014.656000", "085014.658000", "085014.660000", "085014.663000", "085014.665000", "085014.668000", "085014.670000", "085014.672000", "085014.675000", "085014.677000", "085014.679000", "085014.691000", "085014.693000", "085014.696000", "085014.698000", "085014.700000", "085021.334000", "085021.337000", "085021.340000", "085021.342000"],
      "InstanceNumber": [1, 2, 3, 4, 5, 6, 7, 8, 9, 10, 11, 12, 13, 14, 15, 16, 17, 18, 19, 20, 21, 22, 23, 24, 25, 26, 27, 28, 29, 30, 31, 32, 33, 34, 35, 36, 37, 38, 39, 40, 41, 42, 43, 44, 45, 46, 47, 48, 49, 50, 51, 52, 53, 54, 55, 56, 57, 58, 59, 60, 61, 62, 63, 64, 65, 66, 67, 68, 69, 70, 71, 72, 73, 74, 75, 76, 77, 78, 79, 80, 81, 82, 83, 84, 85, 86, 87, 88, 89, 90, 91, 92, 93, 94, 95, 96, 97, 98, 99, 100, 101, 102, 103, 104, 105, 106, 107, 108, 109, 110, 111, 112, 113, 114, 115, 116, 117, 118, 119, 120, 121, 122, 123, 124, 125, 126, 127, 128, 129, 130, 131, 132, 133, 134, 135, 136, 137, 138, 139, 140, 141, 142, 143, 144, 145, 146, 147, 148, 149, 150, 151, 152, 153, 154, 155, 156, 157, 158, 159, 160, 161, 162, 163, 164, 165, 166, 167, 168, 169, 170, 171, 172, 173, 174, 175, 176, 177, 178, 179, 180, 181, 182, 183, 184, 185, 186, 187, 188, 189, 190, 191, 192, 193, 194, 195, 196, 197, 198, 199, 200],
      "LargestImagePixelValue": [3896, 3903, 3896, 3900, 3901, 3905, 3895, 3897, 3894, 3902, 3897, 3896, 3900, 3904, 3897, 3904, 3898, 3898, 3899, 3899, 3890, 3897, 3901, 3908, 3894, 3909, 3905, 3900, 3892, 3909, 3900, 3902, 3902, 3906, 3899, 3895, 3907, 3903, 3904, 3900, 3909, 3905, 3903, 3910, 3911, 3905, 3902, 3896, 3905, 3906, 3902, 3903, 3897, 3903, 3909, 3908, 3915, 3907, 3904, 3902, 3916, 3909, 3904, 3908, 3906, 3915, 3906, 3907, 3905, 3908, 3912, 3900, 3905, 3909, 3914, 3911, 3914, 3911, 3902, 3905, 3912, 3909, 3913, 3914, 3916, 3908, 3911, 3902, 3910, 3906, 3908, 3912, 3912, 3918, 3910, 3907, 3909, 3913, 3915, 3919, 3904, 3917, 3912, 3907, 3910, 3924, 3913, 3909, 3917, 3905, 3908, 3909, 3911, 3909, 3907, 3919, 3910, 3902, 3908, 3909, 3906, 3909, 3916, 3910, 3912, 3913, 3906, 3914, 3914, 3911, 3920, 3911, 3917, 3909, 3915, 3913, 3907, 3906, 3913, 3915, 3920, 3907, 3920, 3915, 3922, 3916, 3924, 3925, 3914, 3912, 3909, 3914, 3923, 3916, 3923, 3919, 3911, 3911, 3925, 3927, 3915, 3912, 3918, 3909, 3918, 3923, 3915, 3915, 3921, 3914, 3923, 3917, 3925, 3923, 3918, 3916, 3921, 3922, 3924, 3918, 3915, 3914, 3920, 3918, 3919, 3909, 3910, 3914, 3930, 3924, 3916, 3913, 3922, 3923, 3934, 3918, 3916, 3919, 3921, 3914],
      "WindowCenter": [1489.0, 1488.0, 1488.0, 1488.0, 1488.0, 1488.0, 1488.0, 1488.0, 1488.0, 1488.0, 1487.0, 1487.0, 1487.0, 1487.0, 1487.0, 1487.0, 1487.0, 1487.0, 1486.0, 1487.0, 1487.0, 1486.0, 1488.0, 1487.0, 1487.0, 1486.0, 1486.0, 1487.0, 1487.0, 1487.0, 1487.0, 1486.0, 1487.0, 1487.0, 1487.0, 1487.0, 1487.0, 1486.0, 1486.0, 1486.0, 1487.0, 1487.0, 1486.0, 1486.0, 1487.0, 1487.0, 1487.0, 1486.0, 1486.0, 1486.0, 1486.0, 1486.0, 1486.0, 1486.0, 1487.0, 1486.0, 1486.0, 1486.0, 1486.0, 1486.0, 1486.0, 1486.0, 1486.0, 1486.0, 1486.0, 1486.0, 1485.0, 1485.0, 1486.0, 1485.0, 1485.0, 1486.0, 1486.0, 1485.0, 1485.0, 1486.0, 1485.0, 1484.0, 1485.0, 1485.0, 1485.0, 1485.0, 1485.0, 1485.0, 1484.0, 1485.0, 1485.0, 1484.0, 1484.0, 1484.0, 1484.0, 1485.0, 1484.0, 1484.0, 1485.0, 1485.0, 1484.0, 1484.0, 1484.0, 1484.0, 1484.0, 1484.0, 1484.0, 1484.0, 1483.0, 1484.0, 1484.0, 1483.0, 1483.0, 1483.0, 1484.0, 1484.0, 1484.0, 1484.0, 1484.0, 1484.0, 1483.0, 1483.0, 1484.0, 1483.0, 1484.0, 1483.0, 1483.0, 1483.0, 1483.0, 1483.0, 1483.0, 1483.0, 1484.0, 1483.0, 1483.0, 1483.0, 1483.0, 1483.0, 1483.0, 1482.0, 1482.0, 1483.0, 1483.0, 1483.0, 1482.0, 1483.0, 1482.0, 1483.0, 1483.0, 1482.0, 1483.0, 1483.0, 1482.0, 1482.0, 1483.0, 1482.0, 1482.0, 1482.0, 1482.0, 1482.0, 1482.0, 1482.0, 1481.0, 1481.0, 1481.0, 1481.0, 1482.0, 1482.0, 1482.0, 1482.0, 1481.0, 1482.0, 1482.0, 1481.0, 1481.0, 1482.0, 1481.0, 1482.0, 1482.0, 1482.0, 1482.0, 1481.0, 1481.0, 1481.0, 1481.0, 1481.0, 1481.0, 1481.0, 1481.0, 1481.0, 1481.0, 1481.0, 1482.0, 1481.0, 1481.0, 1481.0, 1481.0, 1481.0, 1481.0, 1482.0, 1481.0, 1481.0, 1481.0, 1481.0],
      "WindowWidth": [3366.0, 3364.0, 3364.0, 3364.0, 3364.0, 3364.0, 3363.0, 3364.0, 3364.0, 3364.0, 3364.0, 3364.0, 3364.0, 3364.0, 3364.0, 3364.0, 3364.0, 3364.0, 3364.0, 3364.0, 3364.0, 3364.0, 3363.0, 3364.0, 3364.0, 3364.0, 3365.0, 3364.0, 3364.0, 3364.0, 3364.0, 3364.0, 3364.0, 3364.0, 3364.0, 3364.0, 3364.0, 3365.0, 3364.0, 3364.0, 3364.0, 3364.0, 3364.0, 3364.0, 3364.0, 3364.0, 3364.0, 3364.0, 3364.0, 3364.0, 3364.0, 3364.0, 3365.0, 3364.0, 3364.0, 3364.0, 3364.0, 3364.0, 3364.0, 3364.0, 3364.0, 3364.0, 3364.0, 3364.0, 3364.0, 3364.0, 3365.0, 3364.0, 3364.0, 3364.0, 3364.0, 3364.0, 3364.0, 3364.0, 3364.0, 3364.0, 3364.0, 3364.0, 3364.0, 3364.0, 3364.0, 3364.0, 3364.0, 3364.0, 3364.0, 3363.0, 3363.0, 3364.0, 3364.0, 3364.0, 3364.0, 3363.0, 3364.0, 3364.0, 3363.0, 3363.0, 3363.0, 3363.0, 3363.0, 3363.0, 3363.0, 3363.0, 3363.0, 3363.0, 3363.0, 3363.0, 3363.0, 3364.0, 3363.0, 3363.0, 3363.0, 3363.0, 3363.0, 3363.0, 3363.0, 3363.0, 3363.0, 3363.0, 3362.0, 3363.0, 3362.0, 3363.0, 3363.0, 3363.0, 3363.0, 3363.0, 3363.0, 3363.0, 3363.0, 3362.0, 3363.0, 3363.0, 3362.0, 3363.0, 3363.0, 3363.0, 3363.0, 3362.0, 3362.0, 3362.0, 3363.0, 3362.0, 3363.0, 3363.0, 3363.0, 3363.0, 3362.0, 3362.0, 3363.0, 3363.0, 3362.0, 3363.0, 3363.0, 3362.0, 3363.0, 3362.0, 3362.0, 3362.0, 3363.0, 3363.0, 3363.0, 3363.0, 3362.0, 3362.0, 3362.0, 3362.0, 3363.0, 3362.0, 3362.0, 3363.0, 3363.0, 3362.0, 3363.0, 3362.0, 3362.0, 3362.0, 3362.0, 3363.0, 3363.0, 3362.0, 3363.0, 3362.0, 3362.0, 3362.0, 3362.0, 3362.0, 3362.0, 3362.0, 3362.0, 3362.0, 3362.0, 3362.0, 3362.0, 3362.0, 3362.0, 3362.0, 3362.0, 3362.0, 3362.0, 3362.0]
    },
    "slices": {}
  }
}