{
  "AcquisitionMatrixPE": 80,
  "AcquisitionNumber": 1,
  "AcquisitionTime": "08:50:32.450000",
  "BandwidthPerPixelPhaseEncode": 25,
  "BaseResolution": 80,
  "BodyPartExamined": "BRAIN",
  "CoilCombinationMethod": "Sum of Squares",
  "ConsistencyInfo": "N4_VE11E_LATEST_20181129",
  "ConversionSoftware": "dcm2niix",
  "ConversionSoftwareVersion": "v1.0.20220720",
  "DerivedVendorReportedEchoSpacing": 0.0005,
  "DeviceSerialNumber": "66112",
  "DwellTime": 2.7e-06,
  "EchoTime": 0.03,
  "EchoTrainLength": 80,
  "EffectiveEchoSpacing": 0.0005,
  "FlipAngle": 77,
  "HeudiconvVersion": "0.13.1",
  "ImageOrientationPatientDICOM": [0.999961, 0.00801393, 0.00359922, -0.00872654, 0.953322, 0.301831],
  "ImageOrientationText": "Tra>Cor(17.6)>Sag(0.1)",
  "ImageType": [
    "ORIGINAL",
    "PRIMARY",
    "M",
    "ND",
    "NORM",
    "MOSAIC"
],
  "ImagingFrequency": 123.259,
  "InPlanePhaseEncodingDirectionDICOM": "COL",
  "InstitutionAddress": "Maynard 3,Hanover,NH,US,03755",
  "InstitutionName": "Dartmouth College - PBS",
  "InstitutionalDepartmentName": "Department",
  "MRAcquisitionType": "2D",
  "MagneticFieldStrength": 3,
  "Manufacturer": "Siemens",
  "ManufacturersModelName": "Prisma",
  "MatrixCoilMode": "SENSE",
  "Modality": "MR",
  "NonlinearGradientCorrection": false,
  "PartialFourier": 1,
  "PatientPosition": "HFS",
  "PercentPhaseFOV": 100,
  "PercentSampling": 100,
  "PhaseEncodingDirection": "j-",
  "PhaseEncodingSteps": 80,
  "PhaseResolution": 1,
  "PixelBandwidth": 2315,
  "ProcedureStepDescription": "dbic^QA",
  "ProtocolName": "func-bold_fa-77",
  "PulseSequenceDetails": "%SiemensSeq%\\ep2d_bold",
  "ReceiveCoilActiveElements": "HC1-7;NC1,2",
  "ReceiveCoilName": "HeadNeck_64",
  "ReconMatrixPE": 80,
  "RepetitionTime": 2,
  "SAR": 0.0283827,
  "ScanOptions": "FS",
  "ScanningSequence": "EP",
  "SequenceName": "*epfid2d1_80",
  "SequenceVariant": "SK",
  "SeriesDescription": "func-bold_fa-77",
  "SeriesNumber": 6,
  "ShimSetting": [4215, -7748, -7486, -138, -170, -153, -54, 95],
  "SliceThickness": 3.5,
  "SliceTiming": [0.99, 0, 1.0575, 0.0675, 1.1225, 0.1325, 1.1875, 0.1975, 1.255, 0.265, 1.32, 0.33, 1.385, 0.3975, 1.4525, 0.4625, 1.5175, 0.5275, 1.585, 0.595, 1.65, 0.66, 1.715, 0.7275, 1.7825, 0.7925, 1.8475, 0.8575, 1.915, 0.925],
  "SoftwareVersions": "syngo MR E11",
  "SpacingBetweenSlices": 3.99,
  "StationName": "AWP66112",
  "TotalReadoutTime": 0.0395,
  "TxRefAmp": 215.364,
  "dcmmeta_affine": [
    [-2.9998841285705566, -0.02617962844669819, 0.004039349500089884, 121.06584930419922],
    [-0.024041781201958656, 2.859964609146118, 1.2043838500976562, -123.7990493774414],
    [0.010797673836350441, -0.9054924845695496, 3.8038852214813232, -27.233585357666016],
    [0.0, 0.0, 0.0, 1.0]
],
  "dcmmeta_reorient_transform": [
    [0.0, -1.0, 0.0, 79.0],
    [1.0, 0.0, 0.0, 0.0],
    [0.0, 0.0, 1.0, 0.0],
    [0.0, 0.0, 0.0, 1.0]
],
  "dcmmeta_shape": [80, 80, 30, 200],
  "dcmmeta_slice_dim": 2,
  "dcmmeta_version": 0.6,
  "global": {
    "const": {
      "AccessionNumber": "qa64",
      "AcquisitionMatrix": [80, 0, 0, 80],
      "AngioFlag": "N",
      "BitsAllocated": 16,
      "BitsStored": 12,
      "BodyPartExamined": "BRAIN",
      "Columns": 480,
      "EchoNumbers": 1,
      "EchoTime": 30.0,
      "EchoTrainLength": 80,
      "FlipAngle": 77.0,
      "HighBit": 11,
      "ImageOrientationPatient": [0.99996141053413, 0.00801392685777, 0.00359922476465, -0.008726543013, 0.95332155877646, 0.30183083510313],
      "ImagePositionPatient": [-713.73857896629, -678.93944939877, -282.02552979303],
      "ImageType": [
        "ORIGINAL",
        "PRIMARY",
        "M",
        "ND",
        "NORM",
        "MOSAIC"
],
      "ImagedNucleus": "1H",
      "ImagingFrequency": 123.259197,
      "InPlanePhaseEncodingDirection": "COL",
      "MRAcquisitionType": "2D",
      "MagneticFieldStrength": 3.0,
      "Manufacturer": "SIEMENS",
      "ManufacturerModelName": "Prisma",
      "Modality": "MR",
      "NumberOfAverages": 1.0,
      "NumberOfPhaseEncodingSteps": 80,
      "PercentPhaseFieldOfView": 100.0,
      "PercentSampling": 100.0,
      "PerformedProcedureStepStartTime": "083830.775000",
      "PhotometricInterpretation": "MONOCHROME2",
      "PixelBandwidth": 2315.0,
      "PixelRepresentation": 0,
      "PixelSpacing": [3.0, 3.0],
      "ProtocolName": "func-bold_fa-77",
      "RepetitionTime": 2000.0,
      "Rows": 480,
      "SAR": 0.02838269491645,
      "SamplesPerPixel": 1,
      "ScanOptions": "FS",
      "ScanningSequence": "EP",
      "SequenceName": "*epfid2d1_80",
      "SequenceVariant": "SK",
      "SeriesDescription": "func-bold_fa-77",
      "SeriesNumber": 6,
      "SeriesTime": "085114.472000",
      "SliceLocation": -63.209521559692,
      "SliceThickness": 3.5,
      "SmallestImagePixelValue": 0,
      "SoftwareVersions": "syngo MR E11",
      "SpacingBetweenSlices": 3.9899999617679,
      "SpecificCharacterSet": "ISO_IR 100",
      "StudyID": "27",
      "StudyTime": "083830.597000",
      "TransmitCoilName": "Body",
      "VariableFlipAngleFlag": "N",
      "WindowCenterWidthExplanation": "Algo1"
    },
    "slices": {}
  },
  "time": {
    "samples": {
      "AcquisitionNumber": [1, 2, 3, 4, 5, 6, 7, 8, 9, 10, 11, 12, 13, 14, 15, 16, 17, 18, 19, 20, 21, 22, 23, 24, 25, 26, 27, 28, 29, 30, 31, 32, 33, 34, 35, 36, 37, 38, 39, 40, 41, 42, 43, 44, 45, 46, 47, 48, 49, 50, 51, 52, 53, 54, 55, 56, 57, 58, 59, 60, 61, 62, 63, 64, 65, 66, 67, 68, 69, 70, 71, 72, 73, 74, 75, 76, 77, 78, 79, 80, 81, 82, 83, 84, 85, 86, 87, 88, 89, 90, 91, 92, 93, 94, 95, 96, 97, 98, 99, 100, 101, 102, 103, 104, 105, 106, 107, 108, 109, 110, 111, 112, 113, 114, 115, 116, 117, 118, 119, 120, 121, 122, 123, 124, 125, 126, 127, 128, 129, 130, 131, 132, 133, 134, 135, 136, 137, 138, 139, 140, 141, 142, 143, 144, 145, 146, 147, 148, 149, 150, 151, 152, 153, 154, 155, 156, 157, 158, 159, 160, 161, 162, 163, 164, 165, 166, 167, 168, 169, 170, 171, 172, 173, 174, 175, 176, 177, 178, 179, 180, 181, 182, 183, 184, 185, 186, 187, 188, 189, 190, 191, 192, 193, 194, 195, 196, 197, 198, 199, 200],
      "AcquisitionTime": ["085032.450000", "085034.450000", "085036.450000", "085038.450000", "085040.450000", "085042.450000", "085044.450000", "085046.450000", "085048.450000", "085050.450000", "085052.450000", "085054.450000", "085056.450000", "085058.450000", "085100.450000", "085102.450000", "085104.450000", "085106.450000", "085108.450000", "085110.450000", "085112.450000", "085114.450000", "085116.450000", "085118.450000", "085120.450000", "085122.450000", "085124.450000", "085126.450000", "085128.450000", "085130.450000", "085132.450000", "085134.450000", "085136.450000", "085138.450000", "085140.450000", "085142.450000", "085144.450000", "085146.450000", "085148.450000", "085150.450000", "085152.450000", "085154.450000", "085156.450000", "085158.450000", "085200.450000", "085202.450000", "085204.450000", "085206.450000", "085208.450000", "085210.450000", "085212.450000", "085214.450000", "085216.450000", "085218.450000", "085220.450000", "085222.450000", "085224.450000", "085226.450000", "085228.450000", "085230.450000", "085232.450000", "085234.450000", "085236.450000", "085238.450000", "085240.450000", "085242.450000", "085244.450000", "085246.450000", "085248.450000", "085250.450000", "085252.450000", "085254.450000", "085256.450000", "085258.450000", "085300.450000", "085302.450000", "085304.450000", "085306.450000", "085308.450000", "085310.450000", "085312.450000", "085314.450000", "085316.450000", "085318.450000", "085320.450000", "085322.450000", "085324.450000", "085326.450000", "085328.450000", "085330.450000", "085332.450000", "085334.450000", "085336.450000", "085338.450000", "085340.450000", "085342.450000", "085344.450000", "085346.450000", "085348.450000", "085350.450000", "085352.450000", "085354.450000", "085356.450000", "085358.450000", "085400.450000", "085402.450000", "085404.450000", "085406.450000", "085408.450000", "085410.450000", "085412.450000", "085414.450000", "085416.450000", "085418.450000", "085420.450000", "085422.450000", "085424.450000", "085426.450000", "085428.450000", "085430.450000", "085432.450000", "085434.450000", "085436.450000", "085438.450000", "085440.450000", "085442.450000", "085444.450000", "085446.450000", "085448.450000", "085450.450000", "085452.450000", "085454.450000", "085456.450000", "085458.450000", "085500.450000", "085502.450000", "085504.450000", "085506.450000", "085508.450000", "085510.450000", "085512.450000", "085514.450000", "085516.450000", "085518.450000", "085520.450000", "085522.450000", "085524.450000", "085526.450000", "085528.450000", "085530.450000", "085532.450000", "085534.450000", "085536.450000", "085538.450000", "085540.450000", "085542.450000", "085544.450000", "085546.450000", "085548.450000", "085550.450000", "085552.450000", "085554.450000", "085556.450000", "085558.450000", "085600.450000", "085602.450000", "085604.450000", "085606.450000", "085608.450000", "085610.450000", "085612.450000", "085614.450000", "085616.450000", "085618.450000", "085620.450000", "085622.450000", "085624.450000", "085626.450000", "085628.450000", "085630.450000", "085632.450000", "085634.450000", "085636.450000", "085638.450000", "085640.450000", "085642.450000", "085644.450000", "085646.450000", "085648.450000", "085650.450000", "085652.450000", "085654.450000", "085656.450000", "085658.450000", "085700.450000", "085702.450000", "085704.450000", "085706.450000", "085708.450000", "085710.450000"],
      "ContentTime": ["085114.475000", "085114.478000", "085114.481000", "085114.483000", "085114.493000", "085114.495000", "085114.497000", "085114.500000", "085114.502000", "085114.505000", "085114.507000", "085114.509000", "085114.512000", "085114.514000", "085114.516000", "085114.519000", "085114.521000", "085114.523000", "085114.526000", "085114.528000", "085114.531000", "085154.470000", "085154.473000", "085154.475000", "085154.478000", "085154.480000", "085154.482000", "085154.485000", "085154.487000", "085154.489000", "085154.492000", "085154.494000", "085154.496000", "085154.499000", "085154.501000", "085154.503000", "085154.506000", "085154.508000", "085154.511000", "085154.513000", "085154.515000", "085234.469000", "085234.472000", "085234.474000", "085234.477000", "085234.479000", "085234.482000", "085234.484000", "085234.486000", "085234.489000", "085234.491000", "085234.493000", "085234.496000", "085234.498000", "085234.500000", "085234.503000", "085234.505000", "085234.508000", "085234.510000", "085234.512000", "085234.515000", "085314.470000", "085314.473000", "085314.475000", "085314.477000", "085314.480000", "085314.482000", "085314.485000", "085314.487000", "085314.489000", "085314.492000", "085314.494000", "085314.496000", "085314.499000", "085314.501000", "085314.504000", "085314.506000", "085314.508000", "085314.511000", "085314.513000", "085314.515000", "085354.470000", "085354.473000", "085354.475000", "085354.477000", "085354.480000", "085354.482000", "085354.485000", "085354.487000", "085354.489000", "085354.492000", "085354.494000", "085354.496000", "085354.499000", "085354.501000", "085354.504000", "085354.506000", "085354.508000", "085354.511000", "085354.513000", "085354.515000", "085434.469000", "085434.477000", "085434.479000", "085434.482000", "085434.484000", "085434.486000", "085434.489000", "085434.491000", "085434.494000", "085434.496000", "085434.498000", "085434.501000", "085434.503000", "085434.505000", "085434.508000", "085434.510000", "085434.513000", "085434.515000", "085434.517000", "085434.520000", "085514.469000", "085514.472000", "085514.474000", "085514.476000", "085514.484000", "085514.487000", "085514.489000", "085514.492000", "085514.494000", "085514.496000", "085514.499000", "085514.501000", "085514.503000", "085514.506000", "085514.508000", "085514.510000", "085514.513000", "085514.515000", "085514.518000", "085514.520000", "085554.470000", "085554.473000", "085554.475000", "085554.478000", "085554.480000", "085554.482000", "085554.485000", "085554.487000", "085554.490000", "085554.492000", "085554.494000", "085554.497000", "085554.499000", "085554.501000", "085554.504000", "085554.506000", "085554.508000", "085554.511000", "085554.513000", "085554.516000", "085634.469000", "085634.472000", "085634.474000", "085634.477000", "085634.479000", "085634.481000", "085634.484000", "085634.486000", "085634.489000", "085634.491000", "085634.493000", "085634.496000", "085634.498000", "085634.500000", "085634.503000", "085634.505000", "085634.508000", "085634.510000", "085634.512000", "085634.515000", "085712.256000", "085712.259000", "085712.261000", "085712.264000", "085712.266000", "085712.269000", "085712.271000", "085712.274000", "085712.276000", "085712.278000", "085712.281000", "085712.283000", "085712.288000", "085712.291000", "085712.295000", "085712.297000", "085712.299000", "085712.307000", "085712.310000"],
      "InstanceCreationTime": ["085114.475000", "085114.478000", "085114.481000", "085114.483000", "085114.493000", "085114.495000", "085114.497000", "085114.500000", "085114.502000", "085114.505000", "085114.507000", "085114.509000", "085114.512000", "085114.514000", "085114.516000", "085114.519000", "085114.521000", "085114.523000", "085114.526000", "085114.528000", "085114.531000", "085154.470000", "085154.473000", "085154.475000", "085154.478000", "085154.480000", "085154.482000", "085154.485000", "085154.487000", "085154.489000", "085154.492000", "085154.494000", "085154.496000", "085154.499000", "085154.501000", "085154.503000", "085154.506000", "085154.508000", "085154.511000", "085154.513000", "085154.515000", "085234.469000", "085234.472000", "085234.474000", "085234.477000", "085234.479000", "085234.482000", "085234.484000", "085234.486000", "085234.489000", "085234.491000", "085234.493000", "085234.496000", "085234.498000", "085234.500000", "085234.503000", "085234.505000", "085234.508000", "085234.510000", "085234.512000", "085234.515000", "085314.470000", "085314.473000", "085314.475000", "085314.477000", "085314.480000", "085314.482000", "085314.485000", "085314.487000", "085314.489000", "085314.492000", "085314.494000", "085314.496000", "085314.499000", "085314.501000", "085314.504000", "085314.506000", "085314.508000", "085314.511000", "085314.513000", "085314.515000", "085354.470000", "085354.473000", "085354.475000", "085354.477000", "085354.480000", "085354.482000", "085354.485000", "085354.487000", "085354.489000", "085354.492000", "085354.494000", "085354.496000", "085354.499000", "085354.501000", "085354.504000", "085354.506000", "085354.508000", "085354.511000", "085354.513000", "085354.515000", "085434.469000", "085434.477000", "085434.479000", "085434.482000", "085434.484000", "085434.486000", "085434.489000", "085434.491000", "085434.494000", "085434.496000", "085434.498000", "085434.501000", "085434.503000", "085434.505000", "085434.508000", "085434.510000", "085434.513000", "085434.515000", "085434.517000", "085434.520000", "085514.469000", "085514.472000", "085514.474000", "085514.476000", "085514.484000", "085514.487000", "085514.489000", "085514.492000", "085514.494000", "085514.496000", "085514.499000", "085514.501000", "085514.503000", "085514.506000", "085514.508000", "085514.510000", "085514.513000", "085514.515000", "085514.518000", "085514.520000", "085554.470000", "085554.473000", "085554.475000", "085554.478000", "085554.480000", "085554.482000", "085554.485000", "085554.487000", "085554.490000", "085554.492000", "085554.494000", "085554.497000", "085554.499000", "085554.501000", "085554.504000", "085554.506000", "085554.508000", "085554.511000", "085554.513000", "085554.516000", "085634.469000", "085634.472000", "085634.474000", "085634.477000", "085634.479000", "085634.481000", "085634.484000", "085634.486000", "085634.489000", "085634.491000", "085634.493000", "085634.496000", "085634.498000", "085634.500000", "085634.503000", "085634.505000", "085634.508000", "085634.510000", "085634.512000", "085634.515000", "085712.256000", "085712.259000", "085712.261000", "085712.264000", "085712.266000", "085712.269000", "085712.271000", "085712.274000", "085712.276000", "085712.278000", "085712.281000", "085712.283000", "085712.288000", "085712.291000", "085712.295000", "085712.297000", "085712.299000", "085712.307000", "085712.310000"],
      "InstanceNumber": [1, 2, 3, 4, 5, 6, 7, 8, 9, 10, 11, 12, 13, 14, 15, 16, 17, 18, 19, 20, 21, 22, 23, 24, 25, 26, 27, 28, 29, 30, 31, 32, 33, 34, 35, 36, 37, 38, 39, 40, 41, 42, 43, 44, 45, 46, 47, 48, 49, 50, 51, 52, 53, 54, 55, 56, 57, 58, 59, 60, 61, 62, 63, 64, 65, 66, 67, 68, 69, 70, 71, 72, 73, 74, 75, 76, 77, 78, 79, 80, 81, 82, 83, 84, 85, 86, 87, 88, 89, 90, 91, 92, 93, 94, 95, 96, 97, 98, 99, 100, 101, 102, 103, 104, 105, 106, 107, 108, 109, 110, 111, 112, 113, 114, 115, 116, 117, 118, 119, 120, 121, 122, 123, 124, 125, 126, 127, 128, 129, 130, 131, 132, 133, 134, 135, 136, 137, 138, 139, 140, 141, 142, 143, 144, 145, 146, 147, 148, 149, 150, 151, 152, 153, 154, 155, 156, 157, 158, 159, 160, 161, 162, 163, 164, 165, 166, 167, 168, 169, 170, 171, 172, 173, 174, 175, 176, 177, 178, 179, 180, 181, 182, 183, 184, 185, 186, 187, 188, 189, 190, 191, 192, 193, 194, 195, 196, 197, 198, 199, 200],
      "LargestImagePixelValue": [3954, 3951, 3958, 3955, 3954, 3955, 3950, 3951, 3953, 3955, 3953, 3954, 3952, 3955, 3950, 3954, 3951, 3952, 3950, 3953, 3951, 3952, 3954, 3948, 3956, 3954, 3954, 3948, 3953, 3951, 3952, 3951, 3957, 3948, 3952, 3951, 3949, 3952, 3946, 3952, 3948, 3954, 3949, 3946, 3953, 3952, 3948, 3953, 3950, 3950, 3947, 3950, 3949, 3952, 3952, 3949, 3953, 3953, 3949, 3952, 3948, 3947, 3944, 3944, 3952, 3947, 3946, 3942, 3945, 3948, 3947, 3946, 3945, 3945, 3947, 3943, 3948, 3945, 3948, 3946, 3945, 3947, 3947, 3947, 3945, 3948, 3949, 3949, 3950, 3945, 3946, 3946, 3954, 3949, 3946, 3942, 3948, 3945, 3946, 3946, 3945, 3949, 3944, 3950, 3945, 3947, 3945, 3944, 3943, 3945, 3945, 3945, 3947, 3947, 3946, 3943, 3946, 3943, 3946, 3939, 3945, 3946, 3947, 3940, 3946, 3944, 3948, 3946, 3944, 3948, 3942, 3946, 3945, 3941, 3948, 3943, 3943, 3943, 3942, 3935, 3937, 3935, 3942, 3935, 3936, 3941, 3939, 3934, 3936, 3937, 3936, 3936, 3936, 3938, 3937, 3937, 3936, 3938, 3938, 3936, 3939, 3937, 3939, 3936, 3934, 3935, 3935, 3939, 3934, 3935, 3936, 3934, 3935, 3937, 3931, 3941, 3937, 3933, 3938, 3935, 3937, 3935, 3937, 3937, 3934, 3936, 3936, 3935, 3934, 3934, 3934, 3936, 3938, 3931, 3934, 3930, 3933, 3934, 3930, 3934],
      "WindowCenter": [1401.0, 1401.0, 1402.0, 1402.0, 1401.0, 1401.0, 1402.0, 1401.0, 1401.0, 1401.0, 1402.0, 1401.0, 1401.0, 1401.0, 1401.0, 1401.0, 1401.0, 1401.0, 1401.0, 1401.0, 1400.0, 1400.0, 1401.0, 1401.0, 1401.0, 1400.0, 1400.0, 1400.0, 1401.0, 1400.0, 1401.0, 1401.0, 1400.0, 1400.0, 1400.0, 1400.0, 1400.0, 1400.0, 1400.0, 1400.0, 1400.0, 1400.0, 1399.0, 1400.0, 1400.0, 1399.0, 1399.0, 1399.0, 1399.0, 1400.0, 1400.0, 1399.0, 1400.0, 1399.0, 1400.0, 1400.0, 1400.0, 1400.0, 1400.0, 1400.0, 1400.0, 1399.0, 1399.0, 1400.0, 1399.0, 1399.0, 1399.0, 1399.0, 1399.0, 1399.0, 1399.0, 1399.0, 1399.0, 1399.0, 1399.0, 1399.0, 1399.0, 1399.0, 1399.0, 1399.0, 1399.0, 1399.0, 1398.0, 1398.0, 1398.0, 1398.0, 1398.0, 1399.0, 1399.0, 1399.0, 1399.0, 1399.0, 1399.0, 1399.0, 1399.0, 1399.0, 1398.0, 1398.0, 1398.0, 1398.0, 1398.0, 1398.0, 1398.0, 1398.0, 1398.0, 1398.0, 1398.0, 1398.0, 1398.0, 1399.0, 1398.0, 1398.0, 1398.0, 1398.0, 1398.0, 1398.0, 1398.0, 1398.0, 1397.0, 1398.0, 1397.0, 1398.0, 1397.0, 1398.0, 1397.0, 1397.0, 1398.0, 1398.0, 1397.0, 1398.0, 1397.0, 1398.0, 1397.0, 1397.0, 1397.0, 1397.0, 1398.0, 1396.0, 1396.0, 1396.0, 1396.0, 1397.0, 1396.0, 1396.0, 1396.0, 1396.0, 1396.0, 1396.0, 1396.0, 1396.0, 1396.0, 1395.0, 1396.0, 1396.0, 1396.0, 1396.0, 1395.0, 1396.0, 1396.0, 1396.0, 1396.0, 1396.0, 1396.0, 1396.0, 1396.0, 1395.0, 1395.0, 1395.0, 1396.0, 1395.0, 1395.0, 1395.0, 1395.0, 1395.0, 1395.0, 1395.0, 1395.0, 1396.0, 1395.0, 1395.0, 1396.0, 1396.0, 1395.0, 1395.0, 1395.0, 1394.0, 1395.0, 1395.0, 1395.0, 1394.0, 1395.0, 1395.0, 1395.0, 1395.0, 1395.0, 1394.0, 1395.0, 1395.0, 1395.0, 1395.0],
      "WindowWidth": [3321.0, 3321.0, 3321.0, 3321.0, 3321.0, 3321.0, 3321.0, 3321.0, 3321.0, 3321.0, 3321.0, 3321.0, 3321.0, 3321.0, 3321.0, 3320.0, 3321.0, 3321.0, 3321.0, 3321.0, 3320.0, 3320.0, 3320.0, 3320.0, 3320.0, 3320.0, 3320.0, 3320.0, 3320.0, 3320.0, 3320.0, 3320.0, 3320.0, 3320.0, 3320.0, 3320.0, 3320.0, 3320.0, 3320.0, 3320.0, 3319.0, 3320.0, 3319.0, 3320.0, 3320.0, 3319.0, 3319.0, 3319.0, 3319.0, 3319.0, 3319.0, 3319.0, 3319.0, 3319.0, 3319.0, 3319.0, 3319.0, 3319.0, 3319.0, 3319.0, 3319.0, 3319.0, 3319.0, 3319.0, 3319.0, 3319.0, 3319.0, 3319.0, 3319.0, 3319.0, 3319.0, 3319.0, 3319.0, 3319.0, 3319.0, 3319.0, 3319.0, 3319.0, 3319.0, 3318.0, 3319.0, 3319.0, 3319.0, 3318.0, 3319.0, 3319.0, 3319.0, 3318.0, 3318.0, 3318.0, 3318.0, 3318.0, 3318.0, 3318.0, 3318.0, 3318.0, 3318.0, 3318.0, 3318.0, 3318.0, 3318.0, 3318.0, 3318.0, 3318.0, 3318.0, 3318.0, 3318.0, 3318.0, 3318.0, 3317.0, 3318.0, 3318.0, 3318.0, 3318.0, 3318.0, 3318.0, 3318.0, 3317.0, 3318.0, 3317.0, 3318.0, 3317.0, 3318.0, 3317.0, 3318.0, 3317.0, 3317.0, 3317.0, 3318.0, 3317.0, 3317.0, 3317.0, 3317.0, 3317.0, 3317.0, 3317.0, 3316.0, 3316.0, 3316.0, 3316.0, 3316.0, 3315.0, 3316.0, 3316.0, 3316.0, 3315.0, 3316.0, 3315.0, 3315.0, 3316.0, 3315.0, 3316.0, 3315.0, 3315.0, 3315.0, 3315.0, 3316.0, 3315.0, 3315.0, 3315.0, 3315.0, 3315.0, 3315.0, 3315.0, 3315.0, 3315.0, 3315.0, 3315.0, 3315.0, 3315.0, 3315.0, 3315.0, 3315.0, 3315.0, 3315.0, 3315.0, 3315.0, 3315.0, 3315.0, 3315.0, 3314.0, 3315.0, 3315.0, 3315.0, 3315.0, 3315.0, 3314.0, 3314.0, 3314.0, 3315.0, 3314.0, 3315.0, 3314.0, 3314.0, 3314.0, 3315.0, 3314.0, 3314.0, 3314.0, 3314.0]
    },
    "slices": {}
  }
}