{
  "AcquisitionMatrixPE": 80,
  "AcquisitionNumber": 1,
  "AcquisitionTime": "08:58:7.102500",
  "BandwidthPerPixelPhaseEncode": 46.296,
  "BaseResolution": 80,
  "BodyPartExamined": "BRAIN",
  "CoilCombinationMethod": "Sum of Squares",
  "ConsistencyInfo": "N4_VE11E_LATEST_20181129",
  "ConversionSoftware": "dcm2niix",
  "ConversionSoftwareVersion": "v1.0.20220720",
  "DerivedVendorReportedEchoSpacing": 0.000540003,
  "DeviceSerialNumber": "66112",
  "DwellTime": 2.7e-06,
  "EchoTime": 0.035,
  "EchoTrainLength": 39,
  "EffectiveEchoSpacing": 0.000270002,
  "FlipAngle": 90,
  "HeudiconvVersion": "0.13.1",
  "ImageOrientationPatientDICOM": [0.986749, 0.162025, 0.00862116, -0.156815, 0.938687, 0.307043],
  "ImageOrientationText": "Tra>Cor(17.7)>Sag(-2.4)",
  "ImageType": [
    "ORIGINAL",
    "PRIMARY",
    "M",
    "ND",
    "NORM",
    "MOSAIC"
],
  "ImagingFrequency": 123.259,
  "InPlanePhaseEncodingDirectionDICOM": "COL",
  "InstitutionAddress": "Maynard 3,Hanover,NH,US,03755",
  "InstitutionName": "Dartmouth College - PBS",
  "InstitutionalDepartmentName": "Department",
  "MRAcquisitionType": "2D",
  "MagneticFieldStrength": 3,
  "Manufacturer": "Siemens",
  "ManufacturersModelName": "Prisma",
  "Modality": "MR",
  "MultibandAccelerationFactor": 4,
  "NonlinearGradientCorrection": false,
  "ParallelReductionFactorInPlane": 2,
  "PartialFourier": 1,
  "PatientPosition": "HFS",
  "PercentPhaseFOV": 100,
  "PercentSampling": 100,
  "PhaseEncodingDirection": "j-",
  "PhaseEncodingSteps": 79,
  "PhaseResolution": 1,
  "PixelBandwidth": 2315,
  "ProcedureStepDescription": "dbic^QA",
  "ProtocolName": "func-bold_task-rest_acq-p2-s4-3.5mm",
  "PulseSequenceDetails": "%SiemensSeq%\\ep2d_bold",
  "ReceiveCoilActiveElements": "HEA;HEP",
  "ReceiveCoilName": "Head_32",
  "ReconMatrixPE": 80,
  "RefLinesPE": 24,
  "RepetitionTime": 2,
  "SAR": 0.0206895,
  "ScanOptions": "FS",
  "ScanningSequence": "EP",
  "SequenceName": "*epfid2d1_80",
  "SequenceVariant": "SK",
  "SeriesDescription": "func-bold_task-rest_acq-p2-s4-3.5mm",
  "SeriesNumber": 6,
  "ShimSetting": [4219, -7744, -7498, -26, -138, -49, 3, 68],
  "SliceThickness": 3.5,
  "SliceTiming": [1.485, 0, 0.99, 0.2475, 1.2375, 0.7425, 1.7325, 0.495, 1.485, 0, 0.99, 0.2475, 1.2375, 0.7425, 1.7325, 0.495, 1.485, 0, 0.99, 0.2475, 1.2375, 0.7425, 1.7325, 0.495, 1.485, 0, 0.99, 0.2475, 1.2375, 0.7425, 1.7325, 0.495],
  "SoftwareVersions": "syngo MR E11",
  "SpacingBetweenSlices": 3.99,
  "StationName": "AWP66112",
  "TaskName": "rest",
  "TotalReadoutTime": 0.0213301,
  "TxRefAmp": 222.449,
  "dcmmeta_affine": [
    [-2.960247278213501, -0.47044607996940613, -0.16620692610740662, 141.7279510498047],
    [-0.4860735535621643, 2.8160617351531982, 1.2142606973648071, -108.20694732666016],
    [0.025863468647003174, -0.9211280345916748, 3.797110080718994, -24.114192962646484],
    [0.0, 0.0, 0.0, 1.0]
],
  "dcmmeta_reorient_transform": [
    [0.0, -1.0, 0.0, 79.0],
    [1.0, 0.0, 0.0, 0.0],
    [0.0, 0.0, 1.0, 0.0],
    [0.0, 0.0, 0.0, 1.0]
],
  "dcmmeta_shape": [80, 80, 32, 200],
  "dcmmeta_slice_dim": 2,
  "dcmmeta_version": 0.6,
  "global": {
    "const": {
      "AccessionNumber": "qa",
      "AcquisitionMatrix": [80, 0, 0, 80],
      "AngioFlag": "N",
      "BitsAllocated": 16,
      "BitsStored": 12,
      "BodyPartExamined": "BRAIN",
      "Columns": 480,
      "EchoNumbers": 1,
      "EchoTime": 35.0,
      "EchoTrainLength": 39,
      "FlipAngle": 90.0,
      "HighBit": 11,
      "ImageOrientationPatient": [0.9867490726261, 0.16202451461968, 0.00862115617485, -0.1568153566788, 0.93868724302582, 0.30704267405411],
      "ImagePositionPatient": [-602.52294284429, -774.68898108398, -286.28160461544],
      "ImageType": [
        "ORIGINAL",
        "PRIMARY",
        "M",
        "ND",
        "NORM",
        "MOSAIC"
],
      "ImagedNucleus": "1H",
      "ImagingFrequency": 123.259128,
      "InPlanePhaseEncodingDirection": "COL",
      "MRAcquisitionType": "2D",
      "MagneticFieldStrength": 3.0,
      "Manufacturer": "SIEMENS",
      "ManufacturerModelName": "Prisma",
      "Modality": "MR",
      "NumberOfAverages": 1.0,
      "NumberOfPhaseEncodingSteps": 79,
      "PercentPhaseFieldOfView": 100.0,
      "PercentSampling": 100.0,
      "PerformedProcedureStepStartTime": "083748.468000",
      "PhotometricInterpretation": "MONOCHROME2",
      "PixelBandwidth": 2315.0,
      "PixelRepresentation": 0,
      "PixelSpacing": [3.0, 3.0],
      "ProtocolName": "func-bold_task-rest_acq-p2-s4-3.5mm",
      "RepetitionTime": 2000.0,
      "Rows": 480,
      "SAR": 0.02068951570706,
      "SamplesPerPixel": 1,
      "ScanOptions": "FS",
      "ScanningSequence": "EP",
      "SequenceName": "*epfid2d1_80",
      "SequenceVariant": "SK",
      "SeriesDescription": "func-bold_task-rest_acq-p2-s4-3.5mm",
      "SeriesNumber": 6,
      "SeriesTime": "085903.749000",
      "SliceLocation": -61.78242302801,
      "SliceThickness": 3.5,
      "SmallestImagePixelValue": 0,
      "SoftwareVersions": "syngo MR E11",
      "SpacingBetweenSlices": 3.9899999403027,
      "SpecificCharacterSet": "ISO_IR 100",
      "StudyID": "21",
      "StudyTime": "083748.374000",
      "TransmitCoilName": "Body",
      "VariableFlipAngleFlag": "N",
      "WindowCenterWidthExplanation": "Algo1"
    },
    "slices": {}
  },
  "time": {
    "samples": {
      "AcquisitionNumber": [1, 2, 3, 4, 5, 6, 7, 8, 9, 10, 11, 12, 13, 14, 15, 16, 17, 18, 19, 20, 21, 22, 23, 24, 25, 26, 27, 28, 29, 30, 31, 32, 33, 34, 35, 36, 37, 38, 39, 40, 41, 42, 43, 44, 45, 46, 47, 48, 49, 50, 51, 52, 53, 54, 55, 56, 57, 58, 59, 60, 61, 62, 63, 64, 65, 66, 67, 68, 69, 70, 71, 72, 73, 74, 75, 76, 77, 78, 79, 80, 81, 82, 83, 84, 85, 86, 87, 88, 89, 90, 91, 92, 93, 94, 95, 96, 97, 98, 99, 100, 101, 102, 103, 104, 105, 106, 107, 108, 109, 110, 111, 112, 113, 114, 115, 116, 117, 118, 119, 120, 121, 122, 123, 124, 125, 126, 127, 128, 129, 130, 131, 132, 133, 134, 135, 136, 137, 138, 139, 140, 141, 142, 143, 144, 145, 146, 147, 148, 149, 150, 151, 152, 153, 154, 155, 156, 157, 158, 159, 160, 161, 162, 163, 164, 165, 166, 167, 168, 169, 170, 171, 172, 173, 174, 175, 176, 177, 178, 179, 180, 181, 182, 183, 184, 185, 186, 187, 188, 189, 190, 191, 192, 193, 194, 195, 196, 197, 198, 199, 200],
      "AcquisitionTime": ["085807.102500", "085809.102500", "085811.102500", "085813.102500", "085815.102500", "085817.102500", "085819.102500", "085821.102500", "085823.102500", "085825.102500", "085827.102500", "085829.102500", "085831.102500", "085833.102500", "085835.102500", "085837.102500", "085839.102500", "085841.102500", "085843.102500", "085845.102500", "085847.102500", "085849.102500", "085851.102500", "085853.102500", "085855.102500", "085857.102500", "085859.102500", "085901.102500", "085903.102500", "085905.102500", "085907.102500", "085909.102500", "085911.102500", "085913.102500", "085915.102500", "085917.102500", "085919.102500", "085921.102500", "085923.102500", "085925.102500", "085927.102500", "085929.102500", "085931.102500", "085933.102500", "085935.102500", "085937.102500", "085939.102500", "085941.102500", "085943.102500", "085945.102500", "085947.102500", "085949.102500", "085951.102500", "085953.102500", "085955.102500", "085957.102500", "085959.102500", "090001.102500", "090003.102500", "090005.102500", "090007.102500", "090009.102500", "090011.102500", "090013.102500", "090015.102500", "090017.102500", "090019.102500", "090021.102500", "090023.102500", "090025.102500", "090027.102500", "090029.102500", "090031.102500", "090033.102500", "090035.102500", "090037.102500", "090039.102500", "090041.102500", "090043.102500", "090045.102500", "090047.102500", "090049.102500", "090051.102500", "090053.102500", "090055.102500", "090057.102500", "090059.102500", "090101.102500", "090103.102500", "090105.102500", "090107.102500", "090109.102500", "090111.102500", "090113.102500", "090115.102500", "090117.102500", "090119.102500", "090121.102500", "090123.102500", "090125.102500", "090127.102500", "090129.102500", "090131.102500", "090133.102500", "090135.102500", "090137.102500", "090139.102500", "090141.102500", "090143.102500", "090145.102500", "090147.102500", "090149.102500", "090151.102500", "090153.102500", "090155.102500", "090157.102500", "090159.102500", "090201.102500", "090203.102500", "090205.102500", "090207.102500", "090209.102500", "090211.102500", "090213.102500", "090215.102500", "090217.102500", "090219.102500", "090221.102500", "090223.102500", "090225.102500", "090227.102500", "090229.102500", "090231.102500", "090233.102500", "090235.102500", "090237.102500", "090239.102500", "090241.102500", "090243.102500", "090245.102500", "090247.102500", "090249.102500", "090251.102500", "090253.102500", "090255.102500", "090257.102500", "090259.102500", "090301.102500", "090303.102500", "090305.102500", "090307.102500", "090309.102500", "090311.102500", "090313.102500", "090315.102500", "090317.102500", "090319.102500", "090321.102500", "090323.102500", "090325.102500", "090327.102500", "090329.102500", "090331.102500", "090333.102500", "090335.102500", "090337.102500", "090339.102500", "090341.102500", "090343.102500", "090345.102500", "090347.102500", "090349.102500", "090351.102500", "090353.102500", "090355.102500", "090357.102500", "090359.102500", "090401.102500", "090403.102500", "090405.102500", "090407.102500", "090409.102500", "090411.102500", "090413.102500", "090415.102500", "090417.102500", "090419.102500", "090421.102500", "090423.102500", "090425.102500", "090427.102500", "090429.102500", "090431.102500", "090433.102500", "090435.102500", "090437.102500", "090439.102500", "090441.102500", "090443.102500", "090445.102500"],
      "ContentTime": ["085903.752000", "085903.755000", "085903.762000", "085903.765000", "085903.767000", "085903.769000", "085903.772000", "085903.774000", "085903.776000", "085903.785000", "085903.787000", "085903.790000", "085903.792000", "085903.794000", "085903.797000", "085903.799000", "085903.801000", "085903.804000", "085903.806000", "085903.808000", "085903.818000", "085903.820000", "085903.822000", "085903.824000", "085903.827000", "085903.829000", "085903.831000", "085903.834000", "085943.747000", "085943.750000", "085943.752000", "085943.754000", "085943.757000", "085943.759000", "085943.761000", "085943.764000", "085943.766000", "085943.768000", "085943.771000", "085943.773000", "085943.775000", "085943.778000", "085943.780000", "085943.782000", "085943.785000", "085943.787000", "085943.789000", "085943.792000", "090023.747000", "090023.750000", "090023.752000", "090023.754000", "090023.757000", "090023.759000", "090023.761000", "090023.764000", "090023.766000", "090023.768000", "090023.770000", "090023.773000", "090023.775000", "090023.777000", "090023.780000", "090023.782000", "090023.784000", "090023.787000", "090023.789000", "090023.791000", "090103.747000", "090103.750000", "090103.752000", "090103.754000", "090103.757000", "090103.759000", "090103.761000", "090103.764000", "090103.766000", "090103.768000", "090103.771000", "090103.773000", "090103.775000", "090103.777000", "090103.780000", "090103.782000", "090103.784000", "090103.787000", "090103.789000", "090103.791000", "090143.747000", "090143.750000", "090143.752000", "090143.754000", "090143.757000", "090143.759000", "090143.761000", "090143.764000", "090143.766000", "090143.768000", "090143.771000", "090143.773000", "090143.775000", "090143.778000", "090143.780000", "090143.782000", "090143.785000", "090143.787000", "090143.789000", "090143.791000", "090223.747000", "090223.750000", "090223.752000", "090223.755000", "090223.757000", "090223.759000", "090223.762000", "090223.764000", "090223.766000", "090223.769000", "090223.771000", "090223.773000", "090223.775000", "090223.778000", "090223.780000", "090223.782000", "090223.785000", "090223.787000", "090223.789000", "090223.792000", "090303.747000", "090303.750000", "090303.752000", "090303.754000", "090303.757000", "090303.759000", "090303.761000", "090303.764000", "090303.766000", "090303.768000", "090303.771000", "090303.773000", "090303.775000", "090303.777000", "090303.780000", "090303.782000", "090303.785000", "090303.787000", "090303.789000", "090303.791000", "090343.747000", "090343.750000", "090343.752000", "090343.754000", "090343.757000", "090343.759000", "090343.761000", "090343.764000", "090343.766000", "090343.768000", "090343.771000", "090343.773000", "090343.775000", "090343.778000", "090343.780000", "090343.783000", "090343.785000", "090343.787000", "090343.790000", "090343.792000", "090423.747000", "090423.750000", "090423.774000", "090423.777000", "090423.779000", "090423.781000", "090423.783000", "090423.786000", "090423.788000", "090423.790000", "090423.793000", "090423.795000", "090423.797000", "090423.800000", "090423.802000", "090423.804000", "090423.807000", "090423.809000", "090423.811000", "090423.814000", "090446.650000", "090446.652000", "090446.655000", "090446.657000", "090446.660000", "090446.662000", "090446.665000", "090446.667000", "090446.670000", "090446.672000", "090446.674000", "090446.677000"],
      "InstanceCreationTime": ["085903.752000", "085903.755000", "085903.762000", "085903.765000", "085903.767000", "085903.769000", "085903.772000", "085903.774000", "085903.776000", "085903.785000", "085903.787000", "085903.790000", "085903.792000", "085903.794000", "085903.797000", "085903.799000", "085903.801000", "085903.804000", "085903.806000", "085903.808000", "085903.818000", "085903.820000", "085903.822000", "085903.824000", "085903.827000", "085903.829000", "085903.831000", "085903.834000", "085943.747000", "085943.750000", "085943.752000", "085943.754000", "085943.757000", "085943.759000", "085943.761000", "085943.764000", "085943.766000", "085943.768000", "085943.771000", "085943.773000", "085943.775000", "085943.778000", "085943.780000", "085943.782000", "085943.785000", "085943.787000", "085943.789000", "085943.792000", "090023.747000", "090023.750000", "090023.752000", "090023.754000", "090023.757000", "090023.759000", "090023.761000", "090023.764000", "090023.766000", "090023.768000", "090023.770000", "090023.773000", "090023.775000", "090023.777000", "090023.780000", "090023.782000", "090023.784000", "090023.787000", "090023.789000", "090023.791000", "090103.747000", "090103.750000", "090103.752000", "090103.754000", "090103.757000", "090103.759000", "090103.761000", "090103.764000", "090103.766000", "090103.768000", "090103.771000", "090103.773000", "090103.775000", "090103.777000", "090103.780000", "090103.782000", "090103.784000", "090103.787000", "090103.789000", "090103.791000", "090143.747000", "090143.750000", "090143.752000", "090143.754000", "090143.757000", "090143.759000", "090143.761000", "090143.764000", "090143.766000", "090143.768000", "090143.771000", "090143.773000", "090143.775000", "090143.778000", "090143.780000", "090143.782000", "090143.785000", "090143.787000", "090143.789000", "090143.791000", "090223.747000", "090223.750000", "090223.752000", "090223.755000", "090223.757000", "090223.759000", "090223.762000", "090223.764000", "090223.766000", "090223.769000", "090223.771000", "090223.773000", "090223.775000", "090223.778000", "090223.780000", "090223.782000", "090223.785000", "090223.787000", "090223.789000", "090223.792000", "090303.747000", "090303.750000", "090303.752000", "090303.754000", "090303.757000", "090303.759000", "090303.761000", "090303.764000", "090303.766000", "090303.768000", "090303.771000", "090303.773000", "090303.775000", "090303.777000", "090303.780000", "090303.782000", "090303.785000", "090303.787000", "090303.789000", "090303.791000", "090343.747000", "090343.750000", "090343.752000", "090343.754000", "090343.757000", "090343.759000", "090343.761000", "090343.764000", "090343.766000", "090343.768000", "090343.771000", "090343.773000", "090343.775000", "090343.778000", "090343.780000", "090343.783000", "090343.785000", "090343.787000", "090343.790000", "090343.792000", "090423.747000", "090423.750000", "090423.774000", "090423.777000", "090423.779000", "090423.781000", "090423.783000", "090423.786000", "090423.788000", "090423.790000", "090423.793000", "090423.795000", "090423.797000", "090423.800000", "090423.802000", "090423.804000", "090423.807000", "090423.809000", "090423.811000", "090423.814000", "090446.650000", "090446.652000", "090446.655000", "090446.657000", "090446.660000", "090446.662000", "090446.665000", "090446.667000", "090446.670000", "090446.672000", "090446.674000", "090446.677000"],
      "InstanceNumber": [1, 2, 3, 4, 5, 6, 7, 8, 9, 10, 11, 12, 13, 14, 15, 16, 17, 18, 19, 20, 21, 22, 23, 24, 25, 26, 27, 28, 29, 30, 31, 32, 33, 34, 35, 36, 37, 38, 39, 40, 41, 42, 43, 44, 45, 46, 47, 48, 49, 50, 51, 52, 53, 54, 55, 56, 57, 58, 59, 60, 61, 62, 63, 64, 65, 66, 67, 68, 69, 70, 71, 72, 73, 74, 75, 76, 77, 78, 79, 80, 81, 82, 83, 84, 85, 86, 87, 88, 89, 90, 91, 92, 93, 94, 95, 96, 97, 98, 99, 100, 101, 102, 103, 104, 105, 106, 107, 108, 109, 110, 111, 112, 113, 114, 115, 116, 117, 118, 119, 120, 121, 122, 123, 124, 125, 126, 127, 128, 129, 130, 131, 132, 133, 134, 135, 136, 137, 138, 139, 140, 141, 142, 143, 144, 145, 146, 147, 148, 149, 150, 151, 152, 153, 154, 155, 156, 157, 158, 159, 160, 161, 162, 163, 164, 165, 166, 167, 168, 169, 170, 171, 172, 173, 174, 175, 176, 177, 178, 179, 180, 181, 182, 183, 184, 185, 186, 187, 188, 189, 190, 191, 192, 193, 194, 195, 196, 197, 198, 199, 200],
      "LargestImagePixelValue": [2182, 2180, 2181, 2178, 2182, 2183, 2185, 2183, 2184, 2182, 2179, 2181, 2179, 2177, 2183, 2180, 2183, 2183, 2181, 2184, 2182, 2181, 2181, 2179, 2182, 2181, 2181, 2180, 2186, 2179, 2183, 2188, 2184, 2188, 2185, 2182, 2183, 2176, 2182, 2178, 2180, 2180, 2181, 2179, 2180, 2177, 2182, 2183, 2182, 2178, 2177, 2180, 2178, 2181, 2184, 2186, 2181, 2181, 2182, 2177, 2177, 2177, 2181, 2175, 2179, 2181, 2183, 2184, 2180, 2178, 2179, 2180, 2183, 2179, 2179, 2179, 2177, 2177, 2182, 2180, 2182, 2184, 2180, 2180, 2177, 2181, 2185, 2180, 2182, 2182, 2182, 2181, 2181, 2184, 2182, 2183, 2179, 2175, 2177, 2173, 2177, 2181, 2178, 2181, 2178, 2178, 2179, 2182, 2175, 2174, 2175, 2174, 2178, 2170, 2176, 2171, 2172, 2173, 2170, 2170, 2172, 2173, 2175, 2175, 2177, 2175, 2175, 2181, 2179, 2184, 2180, 2180, 2175, 2178, 2172, 2176, 2180, 2180, 2183, 2179, 2182, 2182, 2180, 2178, 2177, 2179, 2174, 2171, 2171, 2176, 2179, 2177, 2176, 2180, 2181, 2174, 2176, 2175, 2175, 2178, 2176, 2178, 2176, 2178, 2183, 2181, 2177, 2180, 2178, 2176, 2181, 2180, 2181, 2185, 2183, 2179, 2179, 2179, 2181, 2177, 2175, 2175, 2176, 2175, 2180, 2181, 2181, 2180, 2180, 2182, 2174, 2175, 2184, 2176, 2180, 2184, 2176, 2175, 2177, 2184],
      "WindowCenter": [958.0, 957.0, 957.0, 957.0, 957.0, 957.0, 958.0, 957.0, 957.0, 957.0, 957.0, 957.0, 957.0, 957.0, 957.0, 957.0, 957.0, 957.0, 957.0, 957.0, 957.0, 957.0, 958.0, 957.0, 957.0, 957.0, 957.0, 957.0, 957.0, 957.0, 957.0, 957.0, 957.0, 958.0, 958.0, 957.0, 958.0, 957.0, 957.0, 957.0, 958.0, 957.0, 958.0, 958.0, 957.0, 957.0, 958.0, 958.0, 957.0, 958.0, 957.0, 958.0, 957.0, 957.0, 957.0, 957.0, 957.0, 958.0, 958.0, 957.0, 958.0, 957.0, 958.0, 957.0, 957.0, 957.0, 957.0, 958.0, 957.0, 958.0, 957.0, 958.0, 957.0, 957.0, 958.0, 957.0, 957.0, 957.0, 957.0, 957.0, 957.0, 958.0, 957.0, 957.0, 957.0, 957.0, 958.0, 957.0, 957.0, 957.0, 957.0, 957.0, 958.0, 958.0, 958.0, 957.0, 958.0, 957.0, 957.0, 957.0, 957.0, 957.0, 957.0, 957.0, 957.0, 957.0, 958.0, 957.0, 957.0, 957.0, 957.0, 957.0, 957.0, 957.0, 957.0, 958.0, 958.0, 958.0, 957.0, 957.0, 957.0, 957.0, 957.0, 957.0, 958.0, 957.0, 957.0, 957.0, 957.0, 957.0, 958.0, 957.0, 958.0, 957.0, 957.0, 957.0, 957.0, 957.0, 957.0, 957.0, 958.0, 957.0, 957.0, 958.0, 957.0, 957.0, 957.0, 958.0, 957.0, 957.0, 957.0, 957.0, 958.0, 958.0, 957.0, 957.0, 957.0, 957.0, 957.0, 957.0, 957.0, 957.0, 957.0, 957.0, 957.0, 957.0, 957.0, 958.0, 957.0, 956.0, 957.0, 957.0, 957.0, 957.0, 957.0, 958.0, 957.0, 957.0, 957.0, 957.0, 957.0, 957.0, 957.0, 957.0, 957.0, 958.0, 958.0, 957.0, 957.0, 957.0, 957.0, 957.0, 957.0, 957.0, 957.0, 957.0, 957.0, 957.0, 957.0, 957.0],
      "WindowWidth": [2246.0, 2246.0, 2246.0, 2246.0, 2246.0, 2246.0, 2245.0, 2246.0, 2246.0, 2246.0, 2247.0, 2247.0, 2246.0, 2247.0, 2246.0, 2246.0, 2246.0, 2246.0, 2246.0, 2246.0, 2246.0, 2246.0, 2246.0, 2247.0, 2246.0, 2246.0, 2246.0, 2246.0, 2245.0, 2245.0, 2245.0, 2246.0, 2246.0, 2246.0, 2246.0, 2245.0, 2247.0, 2246.0, 2246.0, 2246.0, 2245.0, 2245.0, 2245.0, 2246.0, 2245.0, 2246.0, 2246.0, 2246.0, 2247.0, 2246.0, 2246.0, 2247.0, 2246.0, 2246.0, 2246.0, 2246.0, 2246.0, 2246.0, 2246.0, 2247.0, 2246.0, 2245.0, 2247.0, 2246.0, 2246.0, 2246.0, 2245.0, 2245.0, 2246.0, 2246.0, 2247.0, 2246.0, 2246.0, 2247.0, 2246.0, 2246.0, 2246.0, 2246.0, 2246.0, 2246.0, 2245.0, 2246.0, 2246.0, 2246.0, 2247.0, 2246.0, 2246.0, 2246.0, 2246.0, 2246.0, 2246.0, 2245.0, 2247.0, 2246.0, 2248.0, 2247.0, 2247.0, 2246.0, 2246.0, 2246.0, 2246.0, 2246.0, 2246.0, 2246.0, 2246.0, 2246.0, 2246.0, 2247.0, 2247.0, 2246.0, 2247.0, 2246.0, 2246.0, 2246.0, 2246.0, 2247.0, 2246.0, 2247.0, 2247.0, 2247.0, 2247.0, 2246.0, 2246.0, 2246.0, 2247.0, 2246.0, 2246.0, 2246.0, 2246.0, 2246.0, 2247.0, 2247.0, 2247.0, 2247.0, 2246.0, 2246.0, 2245.0, 2246.0, 2246.0, 2246.0, 2247.0, 2247.0, 2247.0, 2248.0, 2247.0, 2247.0, 2246.0, 2247.0, 2246.0, 2246.0, 2246.0, 2246.0, 2247.0, 2247.0, 2246.0, 2247.0, 2247.0, 2246.0, 2246.0, 2246.0, 2246.0, 2246.0, 2246.0, 2246.0, 2246.0, 2246.0, 2247.0, 2247.0, 2247.0, 2246.0, 2246.0, 2246.0, 2245.0, 2246.0, 2245.0, 2247.0, 2246.0, 2246.0, 2246.0, 2247.0, 2247.0, 2246.0, 2246.0, 2246.0, 2246.0, 2247.0, 2247.0, 2246.0, 2246.0, 2246.0, 2247.0, 2246.0, 2246.0, 2246.0, 2246.0, 2246.0, 2245.0, 2245.0, 2246.0, 2246.0]
    },
    "slices": {}
  }
}