{
  "AcquisitionMatrixPE": 80,
  "AcquisitionNumber": 1,
  "AcquisitionTime": "08:06:47.792500",
  "BandwidthPerPixelPhaseEncode": 48.077,
  "BaseResolution": 80,
  "BodyPartExamined": "BRAIN",
  "CoilCombinationMethod": "Sum of Squares",
  "ConsistencyInfo": "N4_VE11E_LATEST_20181129",
  "ConversionSoftware": "dcm2niix",
  "ConversionSoftwareVersion": "v1.0.20220720",
  "DerivedVendorReportedEchoSpacing": 0.000519999,
  "DeviceSerialNumber": "66112",
  "DwellTime": 2.7e-06,
  "EchoTime": 0.035,
  "EchoTrainLength": 39,
  "EffectiveEchoSpacing": 0.00026,
  "FlipAngle": 90,
  "HeudiconvVersion": "0.13.1",
  "ImageOrientationPatientDICOM": [0.999936, 0.010819, 0.00341244, -0.0113444, 0.952709, 0.303672],
  "ImageOrientationText": "Tra>Cor(17.7)>Sag(-0.0)",
  "ImageType": [
    "ORIGINAL",
    "PRIMARY",
    "M",
    "ND",
    "NORM",
    "MOSAIC"
],
  "ImagingFrequency": 123.259,
  "InPlanePhaseEncodingDirectionDICOM": "COL",
  "InstitutionAddress": "Maynard 3,Hanover,NH,US,03755",
  "InstitutionName": "Dartmouth College - PBS",
  "InstitutionalDepartmentName": "Department",
  "MRAcquisitionType": "2D",
  "MagneticFieldStrength": 3,
  "Manufacturer": "Siemens",
  "ManufacturersModelName": "Prisma",
  "MatrixCoilMode": "GRAPPA",
  "Modality": "MR",
  "NonlinearGradientCorrection": false,
  "ParallelReductionFactorInPlane": 2,
  "PartialFourier": 1,
  "PatientPosition": "HFS",
  "PercentPhaseFOV": 100,
  "PercentSampling": 100,
  "PhaseEncodingDirection": "j-",
  "PhaseEncodingSteps": 79,
  "PhaseResolution": 1,
  "PixelBandwidth": 2315,
  "ProcedureStepDescription": "dbic^QA",
  "ProtocolName": "func-bold_task-rest_acq-p2",
  "PulseSequenceDetails": "%SiemensSeq%\\ep2d_bold",
  "ReceiveCoilActiveElements": "HC1-7;NC1,2",
  "ReceiveCoilName": "HeadNeck_64",
  "ReconMatrixPE": 80,
  "RefLinesPE": 24,
  "RepetitionTime": 2,
  "SAR": 0.0408849,
  "ScanOptions": "FS",
  "ScanningSequence": "EP",
  "SequenceName": "*epfid2d1_80",
  "SequenceVariant": "SK",
  "SeriesDescription": "func-bold_task-rest_acq-p2",
  "SeriesNumber": 5,
  "ShimSetting": [4215, -7775, -7472, -71, -155, -255, -16, 105],
  "SliceThickness": 3.5,
  "SliceTiming": [0.99, 0, 1.055, 0.065, 1.1225, 0.1325, 1.1875, 0.1975, 1.2525, 0.2625, 1.32, 0.33, 1.385, 0.395, 1.4525, 0.4625, 1.5175, 0.5275, 1.5825, 0.5925, 1.65, 0.66, 1.715, 0.725, 1.7825, 0.7925, 1.8475, 0.8575, 1.9125, 0.9225],
  "SoftwareVersions": "syngo MR E11",
  "SpacingBetweenSlices": 3.99,
  "StationName": "AWP66112",
  "TaskName": "rest",
  "TotalReadoutTime": 0.02054,
  "TxRefAmp": 212.982,
  "dcmmeta_affine": [
    [-2.9998068809509277, -0.03403317555785179, -0.00013716572721023113, 123.7675552368164],
    [-0.032457128167152405, 2.8581275939941406, 1.2117265462875366, -125.46878814697266],
    [0.010237309150397778, -0.9110150337219238, 3.8015549182891846, -3.5548107624053955],
    [0.0, 0.0, 0.0, 1.0]
],
  "dcmmeta_reorient_transform": [
    [0.0, -1.0, 0.0, 79.0],
    [1.0, 0.0, 0.0, 0.0],
    [0.0, 0.0, 1.0, 0.0],
    [0.0, 0.0, 0.0, 1.0]
],
  "dcmmeta_shape": [80, 80, 30, 200],
  "dcmmeta_slice_dim": 2,
  "dcmmeta_version": 0.6,
  "global": {
    "const": {
      "AccessionNumber": "qa64",
      "AcquisitionMatrix": [80, 0, 0, 80],
      "AngioFlag": "N",
      "BitsAllocated": 16,
      "BitsStored": 12,
      "BodyPartExamined": "BRAIN",
      "Columns": 480,
      "EchoNumbers": 1,
      "EchoTime": 35.0,
      "EchoTrainLength": 39,
      "FlipAngle": 90.0,
      "HighBit": 11,
      "ImageOrientationPatient": [0.99993564972521, 0.01081904280884, 0.00341243627521, -0.0113443918668, 0.95270920056922, 0.30367167125685],
      "ImagePositionPatient": [-714.23368725404, -678.44023872036, -259.77546129271],
      "ImageType": [
        "ORIGINAL",
        "PRIMARY",
        "M",
        "ND",
        "NORM",
        "MOSAIC"
],
      "ImagedNucleus": "1H",
      "ImagingFrequency": 123.259368,
      "InPlanePhaseEncodingDirection": "COL",
      "MRAcquisitionType": "2D",
      "MagneticFieldStrength": 3.0,
      "Manufacturer": "SIEMENS",
      "ManufacturerModelName": "Prisma",
      "Modality": "MR",
      "NumberOfAverages": 1.0,
      "NumberOfPhaseEncodingSteps": 79,
      "PercentPhaseFieldOfView": 100.0,
      "PercentSampling": 100.0,
      "PerformedProcedureStepStartTime": "080350.653000",
      "PhotometricInterpretation": "MONOCHROME2",
      "PixelBandwidth": 2315.0,
      "PixelRepresentation": 0,
      "PixelSpacing": [3.0, 3.0],
      "ProtocolName": "func-bold_task-rest_acq-p2",
      "RepetitionTime": 2000.0,
      "Rows": 480,
      "SAR": 0.04088486782573,
      "SamplesPerPixel": 1,
      "ScanOptions": "FS",
      "ScanningSequence": "EP",
      "SequenceName": "*epfid2d1_80",
      "SequenceVariant": "SK",
      "SeriesDescription": "func-bold_task-rest_acq-p2",
      "SeriesNumber": 5,
      "SeriesTime": "080744.788000",
      "SliceLocation": -41.49489582999,
      "SliceThickness": 3.5,
      "SmallestImagePixelValue": 0,
      "SoftwareVersions": "syngo MR E11",
      "SpacingBetweenSlices": 3.9900001662523,
      "SpecificCharacterSet": "ISO_IR 100",
      "StudyID": "22",
      "StudyTime": "080350.560000",
      "TransmitCoilName": "Body",
      "VariableFlipAngleFlag": "N",
      "WindowCenterWidthExplanation": "Algo1"
    },
    "slices": {}
  },
  "time": {
    "samples": {
      "AcquisitionNumber": [1, 2, 3, 4, 5, 6, 7, 8, 9, 10, 11, 12, 13, 14, 15, 16, 17, 18, 19, 20, 21, 22, 23, 24, 25, 26, 27, 28, 29, 30, 31, 32, 33, 34, 35, 36, 37, 38, 39, 40, 41, 42, 43, 44, 45, 46, 47, 48, 49, 50, 51, 52, 53, 54, 55, 56, 57, 58, 59, 60, 61, 62, 63, 64, 65, 66, 67, 68, 69, 70, 71, 72, 73, 74, 75, 76, 77, 78, 79, 80, 81, 82, 83, 84, 85, 86, 87, 88, 89, 90, 91, 92, 93, 94, 95, 96, 97, 98, 99, 100, 101, 102, 103, 104, 105, 106, 107, 108, 109, 110, 111, 112, 113, 114, 115, 116, 117, 118, 119, 120, 121, 122, 123, 124, 125, 126, 127, 128, 129, 130, 131, 132, 133, 134, 135, 136, 137, 138, 139, 140, 141, 142, 143, 144, 145, 146, 147, 148, 149, 150, 151, 152, 153, 154, 155, 156, 157, 158, 159, 160, 161, 162, 163, 164, 165, 166, 167, 168, 169, 170, 171, 172, 173, 174, 175, 176, 177, 178, 179, 180, 181, 182, 183, 184, 185, 186, 187, 188, 189, 190, 191, 192, 193, 194, 195, 196, 197, 198, 199, 200],
      "AcquisitionTime": ["080647.792500", "080649.792500", "080651.792500", "080653.792500", "080655.792500", "080657.792500", "080659.792500", "080701.792500", "080703.792500", "080705.792500", "080707.792500", "080709.792500", "080711.792500", "080713.792500", "080715.792500", "080717.792500", "080719.792500", "080721.792500", "080723.792500", "080725.792500", "080727.792500", "080729.792500", "080731.792500", "080733.792500", "080735.792500", "080737.792500", "080739.792500", "080741.792500", "080743.792500", "080745.792500", "080747.792500", "080749.792500", "080751.792500", "080753.792500", "080755.792500", "080757.792500", "080759.792500", "080801.792500", "080803.792500", "080805.792500", "080807.792500", "080809.792500", "080811.792500", "080813.792500", "080815.792500", "080817.792500", "080819.792500", "080821.792500", "080823.792500", "080825.792500", "080827.792500", "080829.792500", "080831.792500", "080833.792500", "080835.792500", "080837.792500", "080839.792500", "080841.792500", "080843.792500", "080845.792500", "080847.792500", "080849.792500", "080851.792500", "080853.792500", "080855.792500", "080857.792500", "080859.792500", "080901.792500", "080903.792500", "080905.792500", "080907.792500", "080909.792500", "080911.792500", "080913.792500", "080915.792500", "080917.792500", "080919.792500", "080921.792500", "080923.792500", "080925.792500", "080927.792500", "080929.792500", "080931.792500", "080933.792500", "080935.792500", "080937.792500", "080939.792500", "080941.792500", "080943.792500", "080945.792500", "080947.792500", "080949.792500", "080951.792500", "080953.792500", "080955.792500", "080957.792500", "080959.792500", "081001.792500", "081003.792500", "081005.792500", "081007.792500", "081009.792500", "081011.792500", "081013.792500", "081015.792500", "081017.792500", "081019.792500", "081021.792500", "081023.792500", "081025.792500", "081027.792500", "081029.792500", "081031.792500", "081033.792500", "081035.792500", "081037.792500", "081039.792500", "081041.792500", "081043.792500", "081045.792500", "081047.792500", "081049.792500", "081051.792500", "081053.792500", "081055.792500", "081057.792500", "081059.792500", "081101.792500", "081103.792500", "081105.792500", "081107.792500", "081109.792500", "081111.792500", "081113.792500", "081115.792500", "081117.792500", "081119.792500", "081121.792500", "081123.792500", "081125.792500", "081127.792500", "081129.792500", "081131.792500", "081133.792500", "081135.792500", "081137.792500", "081139.792500", "081141.792500", "081143.792500", "081145.792500", "081147.792500", "081149.792500", "081151.792500", "081153.792500", "081155.792500", "081157.792500", "081159.792500", "081201.792500", "081203.792500", "081205.792500", "081207.792500", "081209.792500", "081211.792500", "081213.792500", "081215.792500", "081217.792500", "081219.792500", "081221.792500", "081223.792500", "081225.792500", "081227.792500", "081229.792500", "081231.792500", "081233.792500", "081235.792500", "081237.792500", "081239.792500", "081241.792500", "081243.792500", "081245.792500", "081247.792500", "081249.792500", "081251.792500", "081253.792500", "081255.792500", "081257.792500", "081259.792500", "081301.792500", "081303.792500", "081305.792500", "081307.792500", "081309.792500", "081311.792500", "081313.792500", "081315.792500", "081317.792500", "081319.792500", "081321.792500", "081323.792500", "081325.792500"],
      "ContentTime": ["080744.791000", "080744.794000", "080744.796000", "080744.799000", "080744.801000", "080744.804000", "080744.806000", "080744.813000", "080744.816000", "080744.818000", "080744.820000", "080744.822000", "080744.825000", "080744.827000", "080744.830000", "080744.832000", "080744.834000", "080744.837000", "080744.839000", "080744.842000", "080744.845000", "080744.847000", "080744.850000", "080744.852000", "080744.854000", "080744.864000", "080744.866000", "080744.868000", "080804.786000", "080804.789000", "080804.791000", "080804.794000", "080804.799000", "080804.802000", "080804.804000", "080804.806000", "080804.809000", "080804.811000", "080844.786000", "080844.789000", "080844.791000", "080844.793000", "080844.796000", "080844.798000", "080844.813000", "080844.815000", "080844.818000", "080844.820000", "080844.823000", "080844.825000", "080844.827000", "080844.829000", "080844.832000", "080844.834000", "080844.836000", "080844.839000", "080844.843000", "080844.845000", "080924.786000", "080924.789000", "080924.791000", "080924.793000", "080924.796000", "080924.798000", "080924.801000", "080924.803000", "080924.805000", "080924.808000", "080924.810000", "080924.812000", "080924.815000", "080924.817000", "080924.819000", "080924.822000", "080924.824000", "080924.826000", "080924.828000", "080924.831000", "081004.786000", "081004.789000", "081004.791000", "081004.794000", "081004.796000", "081004.798000", "081004.801000", "081004.803000", "081004.805000", "081004.808000", "081004.810000", "081004.812000", "081004.815000", "081004.817000", "081004.819000", "081004.822000", "081004.824000", "081004.826000", "081004.828000", "081004.831000", "081044.786000", "081044.789000", "081044.791000", "081044.793000", "081044.796000", "081044.798000", "081044.800000", "081044.803000", "081044.805000", "081044.807000", "081044.810000", "081044.812000", "081044.814000", "081044.817000", "081044.819000", "081044.821000", "081044.823000", "081044.826000", "081044.828000", "081044.831000", "081124.786000", "081124.789000", "081124.791000", "081124.794000", "081124.796000", "081124.798000", "081124.801000", "081124.803000", "081124.805000", "081124.817000", "081124.819000", "081124.822000", "081124.824000", "081124.826000", "081124.829000", "081124.831000", "081124.834000", "081124.840000", "081124.843000", "081124.845000", "081204.786000", "081204.789000", "081204.791000", "081204.793000", "081204.796000", "081204.798000", "081204.812000", "081204.814000", "081204.816000", "081204.819000", "081204.821000", "081204.824000", "081204.826000", "081204.828000", "081204.831000", "081204.833000", "081204.835000", "081204.837000", "081204.841000", "081204.844000", "081244.786000", "081244.789000", "081244.792000", "081244.794000", "081244.796000", "081244.799000", "081244.821000", "081244.824000", "081244.826000", "081244.828000", "081244.831000", "081244.833000", "081244.835000", "081244.838000", "081244.841000", "081244.843000", "081244.846000", "081244.848000", "081244.850000", "081244.853000", "081324.786000", "081324.789000", "081324.791000", "081324.793000", "081324.796000", "081324.798000", "081324.957000", "081324.959000", "081324.962000", "081324.964000", "081324.966000", "081324.969000", "081324.971000", "081324.973000", "081324.976000", "081324.978000", "081324.981000", "081324.983000", "081324.985000", "081324.988000", "081326.875000", "081326.878000"],
      "InstanceCreationTime": ["080744.791000", "080744.794000", "080744.796000", "080744.799000", "080744.801000", "080744.804000", "080744.806000", "080744.813000", "080744.816000", "080744.818000", "080744.820000", "080744.822000", "080744.825000", "080744.827000", "080744.830000", "080744.832000", "080744.834000", "080744.837000", "080744.839000", "080744.842000", "080744.845000", "080744.847000", "080744.850000", "080744.852000", "080744.854000", "080744.864000", "080744.866000", "080744.868000", "080804.786000", "080804.789000", "080804.791000", "080804.794000", "080804.799000", "080804.802000", "080804.804000", "080804.806000", "080804.809000", "080804.811000", "080844.786000", "080844.789000", "080844.791000", "080844.793000", "080844.796000", "080844.798000", "080844.813000", "080844.815000", "080844.818000", "080844.820000", "080844.823000", "080844.825000", "080844.827000", "080844.829000", "080844.832000", "080844.834000", "080844.836000", "080844.839000", "080844.843000", "080844.845000", "080924.786000", "080924.789000", "080924.791000", "080924.793000", "080924.796000", "080924.798000", "080924.801000", "080924.803000", "080924.805000", "080924.808000", "080924.810000", "080924.812000", "080924.815000", "080924.817000", "080924.819000", "080924.822000", "080924.824000", "080924.826000", "080924.828000", "080924.831000", "081004.786000", "081004.789000", "081004.791000", "081004.794000", "081004.796000", "081004.798000", "081004.801000", "081004.803000", "081004.805000", "081004.808000", "081004.810000", "081004.812000", "081004.815000", "081004.817000", "081004.819000", "081004.822000", "081004.824000", "081004.826000", "081004.828000", "081004.831000", "081044.786000", "081044.789000", "081044.791000", "081044.793000", "081044.796000", "081044.798000", "081044.800000", "081044.803000", "081044.805000", "081044.807000", "081044.810000", "081044.812000", "081044.814000", "081044.817000", "081044.819000", "081044.821000", "081044.823000", "081044.826000", "081044.828000", "081044.831000", "081124.786000", "081124.789000", "081124.791000", "081124.794000", "081124.796000", "081124.798000", "081124.801000", "081124.803000", "081124.805000", "081124.817000", "081124.819000", "081124.822000", "081124.824000", "081124.826000", "081124.829000", "081124.831000", "081124.834000", "081124.840000", "081124.843000", "081124.845000", "081204.786000", "081204.789000", "081204.791000", "081204.793000", "081204.796000", "081204.798000", "081204.812000", "081204.814000", "081204.816000", "081204.819000", "081204.821000", "081204.824000", "081204.826000", "081204.828000", "081204.831000", "081204.833000", "081204.835000", "081204.837000", "081204.841000", "081204.844000", "081244.786000", "081244.789000", "081244.792000", "081244.794000", "081244.796000", "081244.799000", "081244.821000", "081244.824000", "081244.826000", "081244.828000", "081244.831000", "081244.833000", "081244.835000", "081244.838000", "081244.841000", "081244.843000", "081244.846000", "081244.848000", "081244.850000", "081244.853000", "081324.786000", "081324.789000", "081324.791000", "081324.793000", "081324.796000", "081324.798000", "081324.957000", "081324.959000", "081324.962000", "081324.964000", "081324.966000", "081324.969000", "081324.971000", "081324.973000", "081324.976000", "081324.978000", "081324.981000", "081324.983000", "081324.985000", "081324.988000", "081326.875000", "081326.878000"],
      "InstanceNumber": [1, 2, 3, 4, 5, 6, 7, 8, 9, 10, 11, 12, 13, 14, 15, 16, 17, 18, 19, 20, 21, 22, 23, 24, 25, 26, 27, 28, 29, 30, 31, 32, 33, 34, 35, 36, 37, 38, 39, 40, 41, 42, 43, 44, 45, 46, 47, 48, 49, 50, 51, 52, 53, 54, 55, 56, 57, 58, 59, 60, 61, 62, 63, 64, 65, 66, 67, 68, 69, 70, 71, 72, 73, 74, 75, 76, 77, 78, 79, 80, 81, 82, 83, 84, 85, 86, 87, 88, 89, 90, 91, 92, 93, 94, 95, 96, 97, 98, 99, 100, 101, 102, 103, 104, 105, 106, 107, 108, 109, 110, 111, 112, 113, 114, 115, 116, 117, 118, 119, 120, 121, 122, 123, 124, 125, 126, 127, 128, 129, 130, 131, 132, 133, 134, 135, 136, 137, 138, 139, 140, 141, 142, 143, 144, 145, 146, 147, 148, 149, 150, 151, 152, 153, 154, 155, 156, 157, 158, 159, 160, 161, 162, 163, 164, 165, 166, 167, 168, 169, 170, 171, 172, 173, 174, 175, 176, 177, 178, 179, 180, 181, 182, 183, 184, 185, 186, 187, 188, 189, 190, 191, 192, 193, 194, 195, 196, 197, 198, 199, 200],
      "LargestImagePixelValue": [4023, 4016, 4017, 4014, 4023, 4017, 4016, 4013, 4017, 4017, 4013, 4015, 4022, 4017, 4013, 4022, 4026, 4010, 4020, 4022, 4014, 4020, 4020, 4020, 4014, 4018, 4018, 4015, 4020, 4030, 4020, 4026, 4013, 4026, 4029, 4027, 4033, 4027, 4029, 4036, 4036, 4032, 4038, 4038, 4028, 4038, 4034, 4039, 4040, 4034, 4050, 4046, 4045, 4042, 4042, 4043, 4048, 4045, 4044, 4042, 4047, 4047, 4034, 4052, 4051, 4050, 4050, 4042, 4046, 4058, 4060, 4048, 4058, 4051, 4063, 4052, 4054, 4059, 4059, 4057, 4064, 4061, 4071, 4066, 4071, 4070, 4067, 4071, 4061, 4070, 4074, 4075, 4066, 4071, 4071, 4079, 4075, 4074, 4083, 4081, 4065, 4079, 4075, 4071, 4086, 4080, 4082, 4080, 4080, 4084, 4086, 4088, 4088, 4078, 4084, 4083, 4093, 4086, 4093, 4092, 4082, 4093, 4095, 4091, 4095, 4095, 4095, 4092, 4092, 4095, 4095, 4095, 4095, 4095, 4095, 4095, 4095, 4095, 4095, 4095, 4095, 4095, 4095, 4095, 4095, 4095, 4095, 4095, 4095, 4095, 4095, 4095, 4095, 4095, 4095, 4095, 4095, 4095, 4095, 4095, 4095, 4095, 4095, 4095, 4095, 4095, 4095, 4095, 4095, 4095, 4095, 4095, 4095, 4095, 4095, 4095, 4095, 4095, 4095, 4095, 4095, 4095, 4095, 4095, 4095, 4095, 4095, 4095, 4095, 4095, 4095, 4095, 4095, 4095, 4095, 4095, 4095, 4095, 4095, 4095],
      "WindowCenter": [1486.0, 1486.0, 1485.0, 1485.0, 1485.0, 1485.0, 1485.0, 1485.0, 1485.0, 1485.0, 1484.0, 1484.0, 1484.0, 1483.0, 1483.0, 1483.0, 1483.0, 1483.0, 1484.0, 1484.0, 1483.0, 1482.0, 1482.0, 1482.0, 1482.0, 1481.0, 1482.0, 1481.0, 1481.0, 1482.0, 1481.0, 1481.0, 1481.0, 1482.0, 1481.0, 1481.0, 1481.0, 1481.0, 1481.0, 1481.0, 1481.0, 1481.0, 1480.0, 1481.0, 1480.0, 1480.0, 1480.0, 1481.0, 1480.0, 1481.0, 1479.0, 1480.0, 1480.0, 1480.0, 1480.0, 1480.0, 1480.0, 1480.0, 1480.0, 1480.0, 1479.0, 1479.0, 1480.0, 1479.0, 1479.0, 1479.0, 1478.0, 1480.0, 1479.0, 1479.0, 1479.0, 1479.0, 1479.0, 1478.0, 1478.0, 1479.0, 1479.0, 1478.0, 1479.0, 1479.0, 1478.0, 1478.0, 1479.0, 1477.0, 1479.0, 1478.0, 1478.0, 1478.0, 1478.0, 1478.0, 1477.0, 1477.0, 1478.0, 1477.0, 1478.0, 1477.0, 1477.0, 1478.0, 1478.0, 1478.0, 1477.0, 1477.0, 1477.0, 1477.0, 1477.0, 1476.0, 1476.0, 1477.0, 1476.0, 1477.0, 1476.0, 1477.0, 1476.0, 1476.0, 1476.0, 1476.0, 1475.0, 1476.0, 1476.0, 1476.0, 1476.0, 1475.0, 1476.0, 1476.0, 1475.0, 1476.0, 1475.0, 1475.0, 1475.0, 1476.0, 1475.0, 1475.0, 1475.0, 1476.0, 1475.0, 1476.0, 1475.0, 1475.0, 1475.0, 1475.0, 1475.0, 1475.0, 1474.0, 1475.0, 1475.0, 1475.0, 1475.0, 1475.0, 1474.0, 1475.0, 1476.0, 1474.0, 1475.0, 1475.0, 1474.0, 1475.0, 1475.0, 1474.0, 1475.0, 1474.0, 1474.0, 1475.0, 1475.0, 1474.0, 1474.0, 1474.0, 1474.0, 1474.0, 1475.0, 1474.0, 1474.0, 1474.0, 1475.0, 1473.0, 1475.0, 1474.0, 1475.0, 1473.0, 1474.0, 1474.0, 1474.0, 1474.0, 1474.0, 1474.0, 1475.0, 1473.0, 1473.0, 1473.0, 1474.0, 1474.0, 1474.0, 1474.0, 1474.0, 1474.0, 1474.0, 1474.0, 1474.0, 1473.0, 1474.0, 1474.0],
      "WindowWidth": [3379.0, 3379.0, 3378.0, 3378.0, 3378.0, 3378.0, 3378.0, 3378.0, 3378.0, 3378.0, 3378.0, 3378.0, 3378.0, 3377.0, 3377.0, 3377.0, 3377.0, 3377.0, 3377.0, 3377.0, 3377.0, 3377.0, 3376.0, 3376.0, 3376.0, 3377.0, 3376.0, 3376.0, 3376.0, 3376.0, 3376.0, 3376.0, 3376.0, 3376.0, 3375.0, 3376.0, 3375.0, 3375.0, 3375.0, 3375.0, 3375.0, 3375.0, 3375.0, 3375.0, 3375.0, 3375.0, 3375.0, 3375.0, 3375.0, 3375.0, 3375.0, 3375.0, 3375.0, 3375.0, 3375.0, 3375.0, 3375.0, 3375.0, 3375.0, 3375.0, 3374.0, 3374.0, 3374.0, 3374.0, 3374.0, 3374.0, 3375.0, 3374.0, 3374.0, 3375.0, 3374.0, 3374.0, 3374.0, 3374.0, 3374.0, 3374.0, 3374.0, 3374.0, 3374.0, 3374.0, 3374.0, 3374.0, 3374.0, 3374.0, 3374.0, 3374.0, 3374.0, 3374.0, 3374.0, 3374.0, 3374.0, 3374.0, 3373.0, 3374.0, 3373.0, 3374.0, 3373.0, 3373.0, 3373.0, 3373.0, 3373.0, 3373.0, 3373.0, 3373.0, 3373.0, 3373.0, 3373.0, 3373.0, 3373.0, 3373.0, 3373.0, 3373.0, 3373.0, 3373.0, 3373.0, 3373.0, 3373.0, 3373.0, 3373.0, 3373.0, 3373.0, 3373.0, 3373.0, 3372.0, 3372.0, 3373.0, 3372.0, 3373.0, 3372.0, 3372.0, 3373.0, 3372.0, 3372.0, 3372.0, 3372.0, 3372.0, 3373.0, 3372.0, 3372.0, 3372.0, 3372.0, 3372.0, 3372.0, 3372.0, 3372.0, 3372.0, 3372.0, 3372.0, 3372.0, 3372.0, 3372.0, 3372.0, 3372.0, 3372.0, 3372.0, 3371.0, 3372.0, 3372.0, 3372.0, 3372.0, 3372.0, 3372.0, 3372.0, 3372.0, 3372.0, 3371.0, 3372.0, 3371.0, 3372.0, 3371.0, 3371.0, 3372.0, 3372.0, 3372.0, 3372.0, 3372.0, 3372.0, 3372.0, 3372.0, 3371.0, 3372.0, 3372.0, 3372.0, 3372.0, 3371.0, 3372.0, 3372.0, 3372.0, 3372.0, 3372.0, 3372.0, 3372.0, 3372.0, 3372.0, 3372.0, 3372.0, 3372.0, 3372.0, 3372.0, 3372.0]
    },
    "slices": {}
  }
}