{
  "AcquisitionMatrixPE": 80,
  "AcquisitionNumber": 1,
  "AcquisitionTime": "08:20:24.512500",
  "BandwidthPerPixelPhaseEncode": 25,
  "BaseResolution": 80,
  "BodyPartExamined": "BRAIN",
  "CoilCombinationMethod": "Sum of Squares",
  "ConsistencyInfo": "N4_VE11E_LATEST_20181129",
  "ConversionSoftware": "dcm2niix",
  "ConversionSoftwareVersion": "v1.0.20220720",
  "DerivedVendorReportedEchoSpacing": 0.0005,
  "DeviceSerialNumber": "66112",
  "DwellTime": 2.7e-06,
  "EchoTime": 0.03,
  "EchoTrainLength": 80,
  "EffectiveEchoSpacing": 0.0005,
  "FlipAngle": 10,
  "HeudiconvVersion": "0.13.1",
  "ImageOrientationPatientDICOM": [0.999936, 0.010819, 0.00341244, -0.0113444, 0.952709, 0.303672],
  "ImageOrientationText": "Tra>Cor(17.7)>Sag(-0.0)",
  "ImageType": [
    "ORIGINAL",
    "PRIMARY",
    "M",
    "ND",
    "NORM",
    "MOSAIC"
],
  "ImagingFrequency": 123.259,
  "InPlanePhaseEncodingDirectionDICOM": "COL",
  "InstitutionAddress": "Maynard 3,Hanover,NH,US,03755",
  "InstitutionName": "Dartmouth College - PBS",
  "InstitutionalDepartmentName": "Department",
  "MRAcquisitionType": "2D",
  "MagneticFieldStrength": 3,
  "Manufacturer": "Siemens",
  "ManufacturersModelName": "Prisma",
  "MatrixCoilMode": "SENSE",
  "Modality": "MR",
  "NonlinearGradientCorrection": false,
  "PartialFourier": 1,
  "PatientPosition": "HFS",
  "PercentPhaseFOV": 100,
  "PercentSampling": 100,
  "PhaseEncodingDirection": "j-",
  "PhaseEncodingSteps": 80,
  "PhaseResolution": 1,
  "PixelBandwidth": 2315,
  "ProcedureStepDescription": "dbic^QA",
  "ProtocolName": "func-bold_fa-10",
  "PulseSequenceDetails": "%SiemensSeq%\\ep2d_bold",
  "ReceiveCoilActiveElements": "HC1-7;NC1,2",
  "ReceiveCoilName": "HeadNeck_64",
  "ReconMatrixPE": 80,
  "RepetitionTime": 2,
  "SAR": 0.00861867,
  "ScanOptions": "FS",
  "ScanningSequence": "EP",
  "SequenceName": "*epfid2d1_80",
  "SequenceVariant": "SK",
  "SeriesDescription": "func-bold_fa-10",
  "SeriesNumber": 7,
  "ShimSetting": [4215, -7775, -7471, -68, -153, -253, -13, 105],
  "SliceThickness": 3.5,
  "SliceTiming": [0.99, 0, 1.055, 0.065, 1.12, 0.1325, 1.1875, 0.1975, 1.2525, 0.2625, 1.32, 0.33, 1.385, 0.395, 1.45, 0.4625, 1.5175, 0.5275, 1.5825, 0.5925, 1.65, 0.66, 1.715, 0.725, 1.78, 0.7925, 1.8475, 0.8575, 1.9125, 0.9225],
  "SoftwareVersions": "syngo MR E11",
  "SpacingBetweenSlices": 3.99,
  "StationName": "AWP66112",
  "TotalReadoutTime": 0.0395,
  "TxRefAmp": 212.982,
  "dcmmeta_affine": [
    [-2.9998068809509277, -0.03403317555785179, -0.00013716572721023113, 121.82595825195312],
    [-0.032457128167152405, 2.8581275939941406, 1.211726427078247, -123.27091217041016],
    [0.010237309150397778, -0.9110150337219238, 3.8015546798706055, -2.9136593341827393],
    [0.0, 0.0, 0.0, 1.0]
],
  "dcmmeta_reorient_transform": [
    [0.0, -1.0, 0.0, 79.0],
    [1.0, 0.0, 0.0, 0.0],
    [0.0, 0.0, 1.0, 0.0],
    [0.0, 0.0, 0.0, 1.0]
],
  "dcmmeta_shape": [80, 80, 30, 200],
  "dcmmeta_slice_dim": 2,
  "dcmmeta_version": 0.6,
  "global": {
    "const": {
      "AccessionNumber": "qa64",
      "AcquisitionMatrix": [80, 0, 0, 80],
      "AngioFlag": "N",
      "BitsAllocated": 16,
      "BitsStored": 12,
      "BodyPartExamined": "BRAIN",
      "Columns": 480,
      "EchoNumbers": 1,
      "EchoTime": 30.0,
      "EchoTrainLength": 80,
      "FlipAngle": 10.0,
      "HighBit": 11,
      "ImageOrientationPatient": [0.99993564972521, 0.01081904280884, 0.00341243627521, -0.0113443918668, 0.95270920056922, 0.30367167125685],
      "ImagePositionPatient": [-712.29209158047, -680.6381118359, -259.13430986449],
      "ImageType": [
        "ORIGINAL",
        "PRIMARY",
        "M",
        "ND",
        "NORM",
        "MOSAIC"
],
      "ImagedNucleus": "1H",
      "ImagingFrequency": 123.259375,
      "InPlanePhaseEncodingDirection": "COL",
      "MRAcquisitionType": "2D",
      "MagneticFieldStrength": 3.0,
      "Manufacturer": "SIEMENS",
      "ManufacturerModelName": "Prisma",
      "Modality": "MR",
      "NumberOfAverages": 1.0,
      "NumberOfPhaseEncodingSteps": 80,
      "PercentPhaseFieldOfView": 100.0,
      "PercentSampling": 100.0,
      "PerformedProcedureStepStartTime": "080350.653000",
      "PhotometricInterpretation": "MONOCHROME2",
      "PixelBandwidth": 2315.0,
      "PixelRepresentation": 0,
      "PixelSpacing": [3.0, 3.0],
      "ProtocolName": "func-bold_fa-10",
      "RepetitionTime": 2000.0,
      "Rows": 480,
      "SAR": 0.00861867413774,
      "SamplesPerPixel": 1,
      "ScanOptions": "FS",
      "ScanningSequence": "EP",
      "SequenceName": "*epfid2d1_80",
      "SequenceVariant": "SK",
      "SeriesDescription": "func-bold_fa-10",
      "SeriesNumber": 7,
      "SeriesTime": "082104.702000",
      "SliceLocation": -40.216484896637,
      "SliceThickness": 3.5,
      "SmallestImagePixelValue": 0,
      "SoftwareVersions": "syngo MR E11",
      "SpacingBetweenSlices": 3.9899999056079,
      "SpecificCharacterSet": "ISO_IR 100",
      "StudyID": "22",
      "StudyTime": "080350.560000",
      "TransmitCoilName": "Body",
      "VariableFlipAngleFlag": "N",
      "WindowCenterWidthExplanation": "Algo1"
    },
    "slices": {}
  },
  "time": {
    "samples": {
      "AcquisitionNumber": [1, 2, 3, 4, 5, 6, 7, 8, 9, 10, 11, 12, 13, 14, 15, 16, 17, 18, 19, 20, 21, 22, 23, 24, 25, 26, 27, 28, 29, 30, 31, 32, 33, 34, 35, 36, 37, 38, 39, 40, 41, 42, 43, 44, 45, 46, 47, 48, 49, 50, 51, 52, 53, 54, 55, 56, 57, 58, 59, 60, 61, 62, 63, 64, 65, 66, 67, 68, 69, 70, 71, 72, 73, 74, 75, 76, 77, 78, 79, 80, 81, 82, 83, 84, 85, 86, 87, 88, 89, 90, 91, 92, 93, 94, 95, 96, 97, 98, 99, 100, 101, 102, 103, 104, 105, 106, 107, 108, 109, 110, 111, 112, 113, 114, 115, 116, 117, 118, 119, 120, 121, 122, 123, 124, 125, 126, 127, 128, 129, 130, 131, 132, 133, 134, 135, 136, 137, 138, 139, 140, 141, 142, 143, 144, 145, 146, 147, 148, 149, 150, 151, 152, 153, 154, 155, 156, 157, 158, 159, 160, 161, 162, 163, 164, 165, 166, 167, 168, 169, 170, 171, 172, 173, 174, 175, 176, 177, 178, 179, 180, 181, 182, 183, 184, 185, 186, 187, 188, 189, 190, 191, 192, 193, 194, 195, 196, 197, 198, 199, 200],
      "AcquisitionTime": ["082024.512500", "082026.512500", "082028.512500", "082030.512500", "082032.512500", "082034.512500", "082036.512500", "082038.512500", "082040.512500", "082042.512500", "082044.512500", "082046.512500", "082048.512500", "082050.512500", "082052.512500", "082054.512500", "082056.512500", "082058.512500", "082100.512500", "082102.512500", "082104.512500", "082106.512500", "082108.512500", "082110.512500", "082112.512500", "082114.512500", "082116.512500", "082118.512500", "082120.512500", "082122.512500", "082124.512500", "082126.512500", "082128.512500", "082130.512500", "082132.512500", "082134.512500", "082136.512500", "082138.512500", "082140.512500", "082142.512500", "082144.512500", "082146.512500", "082148.512500", "082150.512500", "082152.512500", "082154.512500", "082156.512500", "082158.512500", "082200.512500", "082202.512500", "082204.512500", "082206.512500", "082208.512500", "082210.512500", "082212.512500", "082214.512500", "082216.512500", "082218.512500", "082220.512500", "082222.512500", "082224.512500", "082226.512500", "082228.512500", "082230.512500", "082232.512500", "082234.512500", "082236.512500", "082238.512500", "082240.512500", "082242.512500", "082244.512500", "082246.512500", "082248.512500", "082250.512500", "082252.512500", "082254.512500", "082256.512500", "082258.512500", "082300.512500", "082302.512500", "082304.512500", "082306.512500", "082308.512500", "082310.512500", "082312.512500", "082314.512500", "082316.512500", "082318.512500", "082320.512500", "082322.512500", "082324.512500", "082326.512500", "082328.512500", "082330.512500", "082332.512500", "082334.512500", "082336.512500", "082338.512500", "082340.512500", "082342.512500", "082344.512500", "082346.512500", "082348.512500", "082350.512500", "082352.512500", "082354.512500", "082356.512500", "082358.512500", "082400.512500", "082402.512500", "082404.512500", "082406.512500", "082408.512500", "082410.512500", "082412.512500", "082414.512500", "082416.512500", "082418.512500", "082420.512500", "082422.512500", "082424.512500", "082426.512500", "082428.512500", "082430.512500", "082432.512500", "082434.512500", "082436.512500", "082438.512500", "082440.512500", "082442.512500", "082444.512500", "082446.512500", "082448.512500", "082450.512500", "082452.512500", "082454.512500", "082456.512500", "082458.512500", "082500.512500", "082502.512500", "082504.512500", "082506.512500", "082508.512500", "082510.512500", "082512.512500", "082514.512500", "082516.512500", "082518.512500", "082520.512500", "082522.512500", "082524.512500", "082526.512500", "082528.512500", "082530.512500", "082532.512500", "082534.512500", "082536.512500", "082538.512500", "082540.512500", "082542.512500", "082544.512500", "082546.512500", "082548.512500", "082550.512500", "082552.512500", "082554.512500", "082556.512500", "082558.512500", "082600.512500", "082602.512500", "082604.512500", "082606.512500", "082608.512500", "082610.512500", "082612.512500", "082614.512500", "082616.512500", "082618.512500", "082620.512500", "082622.512500", "082624.512500", "082626.512500", "082628.512500", "082630.512500", "082632.512500", "082634.512500", "082636.512500", "082638.512500", "082640.512500", "082642.512500", "082644.512500", "082646.512500", "082648.512500", "082650.512500", "082652.512500", "082654.512500", "082656.512500", "082658.512500", "082700.512500", "082702.512500"],
      "ContentTime": ["082104.705000", "082104.708000", "082104.711000", "082104.720000", "082104.722000", "082104.727000", "082104.729000", "082104.731000", "082104.734000", "082104.736000", "082104.738000", "082104.740000", "082104.743000", "082104.745000", "082104.747000", "082104.749000", "082104.752000", "082104.754000", "082104.756000", "082104.758000", "082144.701000", "082144.704000", "082144.712000", "082144.715000", "082144.717000", "082144.719000", "082144.721000", "082144.724000", "082144.726000", "082144.728000", "082144.730000", "082144.733000", "082144.735000", "082144.737000", "082144.739000", "082144.742000", "082144.744000", "082144.746000", "082144.749000", "082144.751000", "082224.701000", "082224.704000", "082224.706000", "082224.708000", "082224.711000", "082224.713000", "082224.715000", "082224.717000", "082224.720000", "082224.722000", "082224.724000", "082224.727000", "082224.735000", "082224.737000", "082224.739000", "082224.741000", "082224.744000", "082224.746000", "082224.748000", "082224.751000", "082304.701000", "082304.704000", "082304.706000", "082304.708000", "082304.711000", "082304.713000", "082304.715000", "082304.718000", "082304.720000", "082304.722000", "082304.724000", "082304.727000", "082304.729000", "082304.731000", "082304.734000", "082304.736000", "082304.738000", "082304.740000", "082304.743000", "082304.745000", "082344.701000", "082344.703000", "082344.706000", "082344.708000", "082344.710000", "082344.713000", "082344.715000", "082344.717000", "082344.719000", "082344.722000", "082344.724000", "082344.726000", "082344.728000", "082344.731000", "082344.733000", "082344.735000", "082344.738000", "082344.740000", "082344.742000", "082344.744000", "082424.701000", "082424.704000", "082424.706000", "082424.708000", "082424.710000", "082424.713000", "082424.715000", "082424.717000", "082424.720000", "082424.722000", "082424.724000", "082424.726000", "082424.729000", "082424.731000", "082424.733000", "082424.735000", "082424.738000", "082424.740000", "082424.742000", "082424.751000", "082504.701000", "082504.704000", "082504.706000", "082504.708000", "082504.711000", "082504.713000", "082504.715000", "082504.717000", "082504.720000", "082504.722000", "082504.734000", "082504.736000", "082504.738000", "082504.740000", "082504.743000", "082504.745000", "082504.747000", "082504.749000", "082504.752000", "082504.754000", "082544.701000", "082544.704000", "082544.706000", "082544.708000", "082544.711000", "082544.713000", "082544.715000", "082544.717000", "082544.720000", "082544.722000", "082544.724000", "082544.726000", "082544.729000", "082544.731000", "082544.733000", "082544.744000", "082544.747000", "082544.749000", "082544.751000", "082544.753000", "082624.701000", "082624.704000", "082624.706000", "082624.708000", "082624.711000", "082624.713000", "082624.715000", "082624.717000", "082624.720000", "082624.722000", "082624.724000", "082624.727000", "082624.729000", "082624.731000", "082624.734000", "082624.736000", "082624.738000", "082624.741000", "082624.743000", "082624.745000", "082704.535000", "082704.538000", "082704.541000", "082704.543000", "082704.545000", "082704.548000", "082704.550000", "082704.552000", "082704.554000", "082704.557000", "082704.559000", "082704.561000", "082704.564000", "082704.566000", "082704.568000", "082704.571000", "082704.573000", "082704.575000", "082704.578000", "082704.580000"],
      "InstanceCreationTime": ["082104.705000", "082104.708000", "082104.711000", "082104.720000", "082104.722000", "082104.727000", "082104.729000", "082104.731000", "082104.734000", "082104.736000", "082104.738000", "082104.740000", "082104.743000", "082104.745000", "082104.747000", "082104.749000", "082104.752000", "082104.754000", "082104.756000", "082104.758000", "082144.701000", "082144.704000", "082144.712000", "082144.715000", "082144.717000", "082144.719000", "082144.721000", "082144.724000", "082144.726000", "082144.728000", "082144.730000", "082144.733000", "082144.735000", "082144.737000", "082144.739000", "082144.742000", "082144.744000", "082144.746000", "082144.749000", "082144.751000", "082224.701000", "082224.704000", "082224.706000", "082224.708000", "082224.711000", "082224.713000", "082224.715000", "082224.717000", "082224.720000", "082224.722000", "082224.724000", "082224.727000", "082224.735000", "082224.737000", "082224.739000", "082224.741000", "082224.744000", "082224.746000", "082224.748000", "082224.751000", "082304.701000", "082304.704000", "082304.706000", "082304.708000", "082304.711000", "082304.713000", "082304.715000", "082304.718000", "082304.720000", "082304.722000", "082304.724000", "082304.727000", "082304.729000", "082304.731000", "082304.734000", "082304.736000", "082304.738000", "082304.740000", "082304.743000", "082304.745000", "082344.701000", "082344.703000", "082344.706000", "082344.708000", "082344.710000", "082344.713000", "082344.715000", "082344.717000", "082344.719000", "082344.722000", "082344.724000", "082344.726000", "082344.728000", "082344.731000", "082344.733000", "082344.735000", "082344.738000", "082344.740000", "082344.742000", "082344.744000", "082424.701000", "082424.704000", "082424.706000", "082424.708000", "082424.710000", "082424.713000", "082424.715000", "082424.717000", "082424.720000", "082424.722000", "082424.724000", "082424.726000", "082424.729000", "082424.731000", "082424.733000", "082424.735000", "082424.738000", "082424.740000", "082424.742000", "082424.751000", "082504.701000", "082504.704000", "082504.706000", "082504.708000", "082504.711000", "082504.713000", "082504.715000", "082504.717000", "082504.720000", "082504.722000", "082504.734000", "082504.736000", "082504.738000", "082504.740000", "082504.743000", "082504.745000", "082504.747000", "082504.749000", "082504.752000", "082504.754000", "082544.701000", "082544.704000", "082544.706000", "082544.708000", "082544.711000", "082544.713000", "082544.715000", "082544.717000", "082544.720000", "082544.722000", "082544.724000", "082544.726000", "082544.729000", "082544.731000", "082544.733000", "082544.744000", "082544.747000", "082544.749000", "082544.751000", "082544.753000", "082624.701000", "082624.704000", "082624.706000", "082624.708000", "082624.711000", "082624.713000", "082624.715000", "082624.717000", "082624.720000", "082624.722000", "082624.724000", "082624.727000", "082624.729000", "082624.731000", "082624.734000", "082624.736000", "082624.738000", "082624.741000", "082624.743000", "082624.745000", "082704.535000", "082704.538000", "082704.541000", "082704.543000", "082704.545000", "082704.548000", "082704.550000", "082704.552000", "082704.554000", "082704.557000", "082704.559000", "082704.561000", "082704.564000", "082704.566000", "082704.568000", "082704.571000", "082704.573000", "082704.575000", "082704.578000", "082704.580000"],
      "InstanceNumber": [1, 2, 3, 4, 5, 6, 7, 8, 9, 10, 11, 12, 13, 14, 15, 16, 17, 18, 19, 20, 21, 22, 23, 24, 25, 26, 27, 28, 29, 30, 31, 32, 33, 34, 35, 36, 37, 38, 39, 40, 41, 42, 43, 44, 45, 46, 47, 48, 49, 50, 51, 52, 53, 54, 55, 56, 57, 58, 59, 60, 61, 62, 63, 64, 65, 66, 67, 68, 69, 70, 71, 72, 73, 74, 75, 76, 77, 78, 79, 80, 81, 82, 83, 84, 85, 86, 87, 88, 89, 90, 91, 92, 93, 94, 95, 96, 97, 98, 99, 100, 101, 102, 103, 104, 105, 106, 107, 108, 109, 110, 111, 112, 113, 114, 115, 116, 117, 118, 119, 120, 121, 122, 123, 124, 125, 126, 127, 128, 129, 130, 131, 132, 133, 134, 135, 136, 137, 138, 139, 140, 141, 142, 143, 144, 145, 146, 147, 148, 149, 150, 151, 152, 153, 154, 155, 156, 157, 158, 159, 160, 161, 162, 163, 164, 165, 166, 167, 168, 169, 170, 171, 172, 173, 174, 175, 176, 177, 178, 179, 180, 181, 182, 183, 184, 185, 186, 187, 188, 189, 190, 191, 192, 193, 194, 195, 196, 197, 198, 199, 200],
      "LargestImagePixelValue": [689, 689, 688, 687, 690, 687, 682, 688, 686, 685, 688, 690, 691, 688, 686, 692, 688, 691, 688, 691, 687, 686, 689, 687, 688, 690, 688, 694, 688, 690, 688, 689, 692, 690, 689, 693, 689, 691, 691, 688, 695, 694, 692, 695, 691, 692, 693, 689, 688, 687, 689, 688, 694, 695, 694, 697, 693, 693, 695, 690, 697, 695, 692, 695, 688, 693, 692, 691, 694, 695, 697, 694, 693, 696, 693, 694, 692, 690, 692, 691, 694, 692, 694, 692, 698, 696, 698, 697, 698, 696, 693, 693, 695, 695, 695, 692, 692, 693, 696, 700, 698, 696, 695, 694, 697, 695, 691, 696, 691, 695, 694, 694, 696, 697, 694, 702, 698, 698, 694, 697, 695, 696, 694, 693, 695, 696, 695, 703, 697, 698, 695, 699, 699, 699, 695, 700, 696, 698, 697, 696, 696, 694, 698, 699, 700, 699, 702, 694, 698, 696, 696, 693, 695, 697, 697, 695, 701, 702, 697, 699, 700, 700, 700, 696, 701, 697, 695, 696, 699, 698, 700, 701, 701, 698, 704, 699, 699, 701, 699, 698, 698, 697, 696, 699, 699, 703, 699, 698, 701, 702, 703, 704, 702, 702, 705, 702, 700, 701, 702, 702],
      "WindowCenter": [463.0, 463.0, 463.0, 463.0, 464.0, 463.0, 463.0, 463.0, 463.0, 463.0, 463.0, 464.0, 464.0, 463.0, 463.0, 464.0, 463.0, 464.0, 463.0, 464.0, 463.0, 463.0, 463.0, 463.0, 463.0, 464.0, 463.0, 464.0, 463.0, 464.0, 463.0, 463.0, 464.0, 464.0, 463.0, 464.0, 463.0, 464.0, 464.0, 463.0, 464.0, 464.0, 464.0, 464.0, 464.0, 464.0, 464.0, 463.0, 463.0, 463.0, 463.0, 463.0, 464.0, 464.0, 464.0, 464.0, 464.0, 464.0, 464.0, 464.0, 463.0, 464.0, 464.0, 463.0, 463.0, 464.0, 464.0, 463.0, 464.0, 464.0, 464.0, 464.0, 464.0, 464.0, 464.0, 463.0, 464.0, 463.0, 463.0, 463.0, 464.0, 464.0, 464.0, 464.0, 464.0, 464.0, 464.0, 464.0, 464.0, 463.0, 463.0, 463.0, 463.0, 463.0, 464.0, 464.0, 463.0, 464.0, 464.0, 464.0, 463.0, 463.0, 464.0, 463.0, 464.0, 463.0, 463.0, 463.0, 463.0, 463.0, 463.0, 464.0, 464.0, 464.0, 464.0, 464.0, 463.0, 464.0, 463.0, 463.0, 463.0, 463.0, 463.0, 463.0, 463.0, 463.0, 463.0, 463.0, 464.0, 464.0, 464.0, 463.0, 464.0, 463.0, 463.0, 463.0, 463.0, 463.0, 463.0, 463.0, 463.0, 463.0, 463.0, 464.0, 464.0, 463.0, 463.0, 464.0, 463.0, 463.0, 463.0, 463.0, 463.0, 463.0, 464.0, 463.0, 463.0, 463.0, 464.0, 464.0, 463.0, 463.0, 463.0, 463.0, 463.0, 463.0, 463.0, 463.0, 463.0, 463.0, 463.0, 463.0, 463.0, 463.0, 464.0, 463.0, 464.0, 463.0, 463.0, 463.0, 463.0, 463.0, 463.0, 463.0, 463.0, 464.0, 463.0, 463.0, 463.0, 463.0, 463.0, 463.0, 463.0, 463.0, 463.0, 463.0, 463.0, 463.0, 463.0, 463.0],
      "WindowWidth": [961.0, 961.0, 960.0, 960.0, 962.0, 960.0, 960.0, 961.0, 961.0, 961.0, 961.0, 963.0, 962.0, 961.0, 961.0, 962.0, 960.0, 962.0, 960.0, 962.0, 960.0, 960.0, 960.0, 960.0, 961.0, 962.0, 961.0, 962.0, 961.0, 962.0, 960.0, 960.0, 962.0, 961.0, 960.0, 962.0, 960.0, 962.0, 962.0, 960.0, 962.0, 962.0, 962.0, 962.0, 962.0, 962.0, 961.0, 960.0, 960.0, 960.0, 960.0, 960.0, 962.0, 962.0, 962.0, 962.0, 962.0, 962.0, 962.0, 962.0, 961.0, 961.0, 961.0, 961.0, 960.0, 961.0, 961.0, 961.0, 962.0, 962.0, 962.0, 962.0, 962.0, 962.0, 961.0, 961.0, 961.0, 961.0, 960.0, 961.0, 961.0, 961.0, 962.0, 962.0, 962.0, 962.0, 962.0, 962.0, 961.0, 961.0, 961.0, 961.0, 960.0, 961.0, 961.0, 961.0, 961.0, 962.0, 962.0, 961.0, 961.0, 961.0, 961.0, 961.0, 961.0, 960.0, 960.0, 960.0, 960.0, 960.0, 961.0, 961.0, 961.0, 961.0, 962.0, 961.0, 961.0, 961.0, 961.0, 960.0, 960.0, 960.0, 960.0, 960.0, 960.0, 961.0, 961.0, 961.0, 961.0, 961.0, 961.0, 961.0, 961.0, 960.0, 960.0, 960.0, 960.0, 960.0, 960.0, 960.0, 961.0, 961.0, 961.0, 961.0, 961.0, 961.0, 961.0, 961.0, 960.0, 960.0, 960.0, 960.0, 960.0, 960.0, 961.0, 960.0, 961.0, 961.0, 961.0, 961.0, 961.0, 960.0, 960.0, 960.0, 960.0, 960.0, 960.0, 960.0, 960.0, 960.0, 960.0, 961.0, 961.0, 961.0, 961.0, 960.0, 961.0, 960.0, 960.0, 960.0, 960.0, 960.0, 960.0, 960.0, 960.0, 961.0, 960.0, 960.0, 960.0, 960.0, 960.0, 960.0, 960.0, 960.0, 960.0, 960.0, 960.0, 960.0, 960.0, 960.0]
    },
    "slices": {}
  }
}