{
  "AcquisitionMatrixPE": 80,
  "AcquisitionNumber": 1,
  "AcquisitionTime": "09:35:28.465000",
  "BandwidthPerPixelPhaseEncode": 25,
  "BaseResolution": 80,
  "BodyPartExamined": "BRAIN",
  "CoilCombinationMethod": "Sum of Squares",
  "ConsistencyInfo": "N4_VE11E_LATEST_20181129",
  "ConversionSoftware": "dcm2niix",
  "ConversionSoftwareVersion": "v1.0.20220720",
  "DerivedVendorReportedEchoSpacing": 0.0005,
  "DeviceSerialNumber": "66112",
  "DwellTime": 2.7e-06,
  "EchoTime": 0.03,
  "EchoTrainLength": 80,
  "EffectiveEchoSpacing": 0.0005,
  "FlipAngle": 10,
  "HeudiconvVersion": "0.13.1",
  "ImageOrientationPatientDICOM": [0.999954, 0.00773204, 0.00563159, -0.00907554, 0.952895, 0.303165],
  "ImageOrientationText": "Tra>Cor(17.7)>Sag(0.2)",
  "ImageType": [
    "ORIGINAL",
    "PRIMARY",
    "M",
    "ND",
    "NORM",
    "MOSAIC"
],
  "ImagingFrequency": 123.259,
  "InPlanePhaseEncodingDirectionDICOM": "COL",
  "InstitutionAddress": "Maynard 3,Hanover,NH,US,03755",
  "InstitutionName": "Dartmouth College - PBS",
  "InstitutionalDepartmentName": "Department",
  "MRAcquisitionType": "2D",
  "MagneticFieldStrength": 3,
  "Manufacturer": "Siemens",
  "ManufacturersModelName": "Prisma",
  "MatrixCoilMode": "SENSE",
  "Modality": "MR",
  "NonlinearGradientCorrection": false,
  "PartialFourier": 1,
  "PatientPosition": "HFS",
  "PercentPhaseFOV": 100,
  "PercentSampling": 100,
  "PhaseEncodingDirection": "j-",
  "PhaseEncodingSteps": 80,
  "PhaseResolution": 1,
  "PixelBandwidth": 2315,
  "ProcedureStepDescription": "dbic^QA",
  "ProtocolName": "func-bold_fa-10",
  "PulseSequenceDetails": "%SiemensSeq%\\ep2d_bold",
  "ReceiveCoilActiveElements": "HEA;HEP",
  "ReceiveCoilName": "Head_32",
  "ReconMatrixPE": 80,
  "RepetitionTime": 2,
  "SAR": 0.0170741,
  "ScanOptions": "FS",
  "ScanningSequence": "EP",
  "SequenceName": "*epfid2d1_80",
  "SequenceVariant": "SK",
  "SeriesDescription": "func-bold_fa-10",
  "SeriesNumber": 8,
  "ShimSetting": [4218, -7739, -7492, -40, -137, -47, -15, 78],
  "SliceThickness": 3.5,
  "SliceTiming": [0.99, 0, 1.055, 0.065, 1.1225, 0.1325, 1.1875, 0.1975, 1.2525, 0.2625, 1.32, 0.33, 1.385, 0.395, 1.4525, 0.4625, 1.5175, 0.5275, 1.5825, 0.5925, 1.65, 0.66, 1.715, 0.725, 1.7825, 0.7925, 1.8475, 0.8575, 1.9125, 0.9225],
  "SoftwareVersions": "syngo MR E11",
  "SpacingBetweenSlices": 3.99,
  "StationName": "AWP66112",
  "TotalReadoutTime": 0.0395,
  "TxRefAmp": 225,
  "dcmmeta_affine": [
    [-2.9998626708984375, -0.02722661942243576, 0.012058691121637821, 121.6184310913086],
    [-0.02319612167775631, 2.8586843013763428, 1.2097781896591187, -123.32866668701172],
    [0.01689477637410164, -0.9094959497451782, 3.8021562099456787, -20.261991500854492],
    [0.0, 0.0, 0.0, 1.0]
],
  "dcmmeta_reorient_transform": [
    [0.0, -1.0, 0.0, 79.0],
    [1.0, 0.0, 0.0, 0.0],
    [0.0, 0.0, 1.0, 0.0],
    [0.0, 0.0, 0.0, 1.0]
],
  "dcmmeta_shape": [80, 80, 30, 200],
  "dcmmeta_slice_dim": 2,
  "dcmmeta_version": 0.6,
  "global": {
    "const": {
      "AccessionNumber": "qa",
      "AcquisitionMatrix": [80, 0, 0, 80],
      "AngioFlag": "N",
      "BitsAllocated": 16,
      "BitsStored": 12,
      "BodyPartExamined": "BRAIN",
      "Columns": 480,
      "EchoNumbers": 1,
      "EchoTime": 30.0,
      "EchoTrainLength": 80,
      "FlipAngle": 10.0,
      "HighBit": 11,
      "ImageOrientationPatient": [0.99995424931094, 0.00773204066136, 0.00563159233393, -0.0090755396991, 0.95289476327205, 0.30316530920913],
      "ImagePositionPatient": [-713.99475720471, -678.88347179806, -277.39031055387],
      "ImageType": [
        "ORIGINAL",
        "PRIMARY",
        "M",
        "ND",
        "NORM",
        "MOSAIC"
],
      "ImagedNucleus": "1H",
      "ImagingFrequency": 123.259151,
      "InPlanePhaseEncodingDirection": "COL",
      "MRAcquisitionType": "2D",
      "MagneticFieldStrength": 3.0,
      "Manufacturer": "SIEMENS",
      "ManufacturerModelName": "Prisma",
      "Modality": "MR",
      "NumberOfAverages": 1.0,
      "NumberOfPhaseEncodingSteps": 80,
      "PercentPhaseFieldOfView": 100.0,
      "PercentSampling": 100.0,
      "PerformedProcedureStepStartTime": "090759.783000",
      "PhotometricInterpretation": "MONOCHROME2",
      "PixelBandwidth": 2315.0,
      "PixelRepresentation": 0,
      "PixelSpacing": [3.0, 3.0],
      "ProtocolName": "func-bold_fa-10",
      "RepetitionTime": 2000.0,
      "Rows": 480,
      "SAR": 0.01707411867667,
      "SamplesPerPixel": 1,
      "ScanOptions": "FS",
      "ScanningSequence": "EP",
      "SequenceName": "*epfid2d1_80",
      "SequenceVariant": "SK",
      "SeriesDescription": "func-bold_fa-10",
      "SeriesNumber": 8,
      "SeriesTime": "093625.672000",
      "SliceLocation": -56.334092202091,
      "SliceThickness": 3.5,
      "SmallestImagePixelValue": 0,
      "SoftwareVersions": "syngo MR E11",
      "SpacingBetweenSlices": 3.9899999609169,
      "SpecificCharacterSet": "ISO_IR 100",
      "StudyID": "45",
      "StudyTime": "090759.669000",
      "TransmitCoilName": "Body",
      "VariableFlipAngleFlag": "N",
      "WindowCenterWidthExplanation": "Algo1"
    },
    "slices": {}
  },
  "time": {
    "samples": {
      "AcquisitionNumber": [1, 2, 3, 4, 5, 6, 7, 8, 9, 10, 11, 12, 13, 14, 15, 16, 17, 18, 19, 20, 21, 22, 23, 24, 25, 26, 27, 28, 29, 30, 31, 32, 33, 34, 35, 36, 37, 38, 39, 40, 41, 42, 43, 44, 45, 46, 47, 48, 49, 50, 51, 52, 53, 54, 55, 56, 57, 58, 59, 60, 61, 62, 63, 64, 65, 66, 67, 68, 69, 70, 71, 72, 73, 74, 75, 76, 77, 78, 79, 80, 81, 82, 83, 84, 85, 86, 87, 88, 89, 90, 91, 92, 93, 94, 95, 96, 97, 98, 99, 100, 101, 102, 103, 104, 105, 106, 107, 108, 109, 110, 111, 112, 113, 114, 115, 116, 117, 118, 119, 120, 121, 122, 123, 124, 125, 126, 127, 128, 129, 130, 131, 132, 133, 134, 135, 136, 137, 138, 139, 140, 141, 142, 143, 144, 145, 146, 147, 148, 149, 150, 151, 152, 153, 154, 155, 156, 157, 158, 159, 160, 161, 162, 163, 164, 165, 166, 167, 168, 169, 170, 171, 172, 173, 174, 175, 176, 177, 178, 179, 180, 181, 182, 183, 184, 185, 186, 187, 188, 189, 190, 191, 192, 193, 194, 195, 196, 197, 198, 199, 200],
      "AcquisitionTime": ["093528.465000", "093530.465000", "093532.465000", "093534.465000", "093536.465000", "093538.465000", "093540.465000", "093542.465000", "093544.465000", "093546.465000", "093548.465000", "093550.465000", "093552.465000", "093554.465000", "093556.465000", "093558.465000", "093600.465000", "093602.465000", "093604.465000", "093606.465000", "093608.465000", "093610.465000", "093612.465000", "093614.465000", "093616.465000", "093618.465000", "093620.465000", "093622.465000", "093624.465000", "093626.465000", "093628.465000", "093630.465000", "093632.465000", "093634.465000", "093636.465000", "093638.465000", "093640.465000", "093642.465000", "093644.465000", "093646.465000", "093648.465000", "093650.465000", "093652.465000", "093654.465000", "093656.465000", "093658.465000", "093700.465000", "093702.465000", "093704.465000", "093706.465000", "093708.465000", "093710.465000", "093712.465000", "093714.465000", "093716.465000", "093718.465000", "093720.465000", "093722.465000", "093724.465000", "093726.465000", "093728.465000", "093730.465000", "093732.465000", "093734.465000", "093736.465000", "093738.465000", "093740.465000", "093742.465000", "093744.465000", "093746.465000", "093748.465000", "093750.465000", "093752.465000", "093754.465000", "093756.465000", "093758.465000", "093800.465000", "093802.465000", "093804.465000", "093806.465000", "093808.465000", "093810.465000", "093812.465000", "093814.465000", "093816.465000", "093818.465000", "093820.465000", "093822.465000", "093824.465000", "093826.465000", "093828.465000", "093830.465000", "093832.465000", "093834.465000", "093836.465000", "093838.465000", "093840.465000", "093842.465000", "093844.465000", "093846.465000", "093848.465000", "093850.465000", "093852.465000", "093854.465000", "093856.465000", "093858.465000", "093900.465000", "093902.465000", "093904.465000", "093906.465000", "093908.465000", "093910.465000", "093912.465000", "093914.465000", "093916.465000", "093918.465000", "093920.465000", "093922.465000", "093924.465000", "093926.465000", "093928.465000", "093930.465000", "093932.465000", "093934.465000", "093936.465000", "093938.465000", "093940.465000", "093942.465000", "093944.465000", "093946.465000", "093948.465000", "093950.465000", "093952.465000", "093954.465000", "093956.465000", "093958.465000", "094000.465000", "094002.465000", "094004.465000", "094006.465000", "094008.465000", "094010.465000", "094012.465000", "094014.465000", "094016.465000", "094018.465000", "094020.465000", "094022.465000", "094024.465000", "094026.465000", "094028.465000", "094030.465000", "094032.465000", "094034.465000", "094036.465000", "094038.465000", "094040.465000", "094042.465000", "094044.465000", "094046.465000", "094048.465000", "094050.465000", "094052.465000", "094054.465000", "094056.465000", "094058.465000", "094100.465000", "094102.465000", "094104.465000", "094106.465000", "094108.465000", "094110.465000", "094112.465000", "094114.465000", "094116.465000", "094118.465000", "094120.465000", "094122.465000", "094124.465000", "094126.465000", "094128.465000", "094130.465000", "094132.465000", "094134.465000", "094136.465000", "094138.465000", "094140.465000", "094142.465000", "094144.465000", "094146.465000", "094148.465000", "094150.465000", "094152.465000", "094154.465000", "094156.465000", "094158.465000", "094200.465000", "094202.465000", "094204.465000", "094206.465000"],
      "ContentTime": ["093625.675000", "093625.678000", "093625.680000", "093625.682000", "093625.685000", "093625.687000", "093625.689000", "093625.691000", "093625.694000", "093625.696000", "093625.698000", "093625.701000", "093625.703000", "093625.705000", "093625.707000", "093625.710000", "093625.712000", "093625.721000", "093625.723000", "093625.725000", "093625.728000", "093625.730000", "093625.732000", "093625.734000", "093625.737000", "093625.739000", "093625.741000", "093625.744000", "093705.669000", "093705.672000", "093705.674000", "093705.676000", "093705.679000", "093705.681000", "093705.683000", "093705.685000", "093705.688000", "093705.694000", "093705.696000", "093705.698000", "093705.701000", "093705.703000", "093705.705000", "093705.707000", "093705.710000", "093705.712000", "093705.714000", "093705.716000", "093745.669000", "093745.672000", "093745.674000", "093745.676000", "093745.679000", "093745.681000", "093745.683000", "093745.685000", "093745.688000", "093745.690000", "093745.692000", "093745.694000", "093745.697000", "093745.699000", "093745.707000", "093745.709000", "093745.711000", "093745.713000", "093745.716000", "093745.718000", "093825.670000", "093825.673000", "093825.675000", "093825.677000", "093825.679000", "093825.682000", "093825.684000", "093825.686000", "093825.689000", "093825.691000", "093825.693000", "093825.695000", "093825.698000", "093825.700000", "093825.702000", "093825.704000", "093825.707000", "093825.709000", "093825.711000", "093825.713000", "093845.670000", "093845.673000", "093845.675000", "093845.677000", "093845.680000", "093845.682000", "093845.684000", "093845.686000", "093845.689000", "093845.691000", "093925.669000", "093925.672000", "093925.674000", "093925.676000", "093925.679000", "093925.681000", "093925.683000", "093925.685000", "093925.688000", "093925.690000", "093925.692000", "093925.694000", "093925.705000", "093925.708000", "093925.710000", "093925.712000", "093925.715000", "093925.717000", "093925.719000", "093925.721000", "094005.669000", "094005.672000", "094005.674000", "094005.676000", "094005.678000", "094005.681000", "094005.683000", "094005.685000", "094005.687000", "094005.690000", "094005.692000", "094005.694000", "094005.697000", "094005.699000", "094005.701000", "094005.703000", "094005.714000", "094005.716000", "094005.719000", "094005.721000", "094045.670000", "094045.673000", "094045.675000", "094045.677000", "094045.680000", "094045.682000", "094045.684000", "094045.686000", "094045.689000", "094045.691000", "094045.700000", "094045.702000", "094045.705000", "094045.707000", "094045.709000", "094045.712000", "094045.714000", "094045.716000", "094045.719000", "094045.721000", "094125.670000", "094125.673000", "094125.675000", "094125.677000", "094125.680000", "094125.682000", "094125.684000", "094125.696000", "094125.698000", "094125.701000", "094125.703000", "094125.706000", "094125.708000", "094125.710000", "094125.713000", "094125.715000", "094125.717000", "094125.719000", "094125.722000", "094125.724000", "094205.669000", "094205.672000", "094205.674000", "094205.676000", "094205.679000", "094205.681000", "094205.683000", "094205.686000", "094205.688000", "094205.690000", "094205.693000", "094205.695000", "094205.697000", "094205.700000", "094205.702000", "094205.704000", "094205.706000", "094205.709000", "094205.711000", "094205.714000", "094207.963000", "094207.966000"],
      "InstanceCreationTime": ["093625.675000", "093625.678000", "093625.680000", "093625.682000", "093625.685000", "093625.687000", "093625.689000", "093625.691000", "093625.694000", "093625.696000", "093625.698000", "093625.701000", "093625.703000", "093625.705000", "093625.707000", "093625.710000", "093625.712000", "093625.721000", "093625.723000", "093625.725000", "093625.728000", "093625.730000", "093625.732000", "093625.734000", "093625.737000", "093625.739000", "093625.741000", "093625.744000", "093705.669000", "093705.672000", "093705.674000", "093705.676000", "093705.679000", "093705.681000", "093705.683000", "093705.685000", "093705.688000", "093705.694000", "093705.696000", "093705.698000", "093705.701000", "093705.703000", "093705.705000", "093705.707000", "093705.710000", "093705.712000", "093705.714000", "093705.716000", "093745.669000", "093745.672000", "093745.674000", "093745.676000", "093745.679000", "093745.681000", "093745.683000", "093745.685000", "093745.688000", "093745.690000", "093745.692000", "093745.694000", "093745.697000", "093745.699000", "093745.707000", "093745.709000", "093745.711000", "093745.713000", "093745.716000", "093745.718000", "093825.670000", "093825.673000", "093825.675000", "093825.677000", "093825.679000", "093825.682000", "093825.684000", "093825.686000", "093825.689000", "093825.691000", "093825.693000", "093825.695000", "093825.698000", "093825.700000", "093825.702000", "093825.704000", "093825.707000", "093825.709000", "093825.711000", "093825.713000", "093845.670000", "093845.673000", "093845.675000", "093845.677000", "093845.680000", "093845.682000", "093845.684000", "093845.686000", "093845.689000", "093845.691000", "093925.669000", "093925.672000", "093925.674000", "093925.676000", "093925.679000", "093925.681000", "093925.683000", "093925.685000", "093925.688000", "093925.690000", "093925.692000", "093925.694000", "093925.705000", "093925.708000", "093925.710000", "093925.712000", "093925.715000", "093925.717000", "093925.719000", "093925.721000", "094005.669000", "094005.672000", "094005.674000", "094005.676000", "094005.678000", "094005.681000", "094005.683000", "094005.685000", "094005.687000", "094005.690000", "094005.692000", "094005.694000", "094005.697000", "094005.699000", "094005.701000", "094005.703000", "094005.714000", "094005.716000", "094005.719000", "094005.721000", "094045.670000", "094045.673000", "094045.675000", "094045.677000", "094045.680000", "094045.682000", "094045.684000", "094045.686000", "094045.689000", "094045.691000", "094045.700000", "094045.702000", "094045.705000", "094045.707000", "094045.709000", "094045.712000", "094045.714000", "094045.716000", "094045.719000", "094045.721000", "094125.670000", "094125.673000", "094125.675000", "094125.677000", "094125.680000", "094125.682000", "094125.684000", "094125.696000", "094125.698000", "094125.701000", "094125.703000", "094125.706000", "094125.708000", "094125.710000", "094125.713000", "094125.715000", "094125.717000", "094125.719000", "094125.722000", "094125.724000", "094205.669000", "094205.672000", "094205.674000", "094205.676000", "094205.679000", "094205.681000", "094205.683000", "094205.686000", "094205.688000", "094205.690000", "094205.693000", "094205.695000", "094205.697000", "094205.700000", "094205.702000", "094205.704000", "094205.706000", "094205.709000", "094205.711000", "094205.714000", "094207.963000", "094207.966000"],
      "InstanceNumber": [1, 2, 3, 4, 5, 6, 7, 8, 9, 10, 11, 12, 13, 14, 15, 16, 17, 18, 19, 20, 21, 22, 23, 24, 25, 26, 27, 28, 29, 30, 31, 32, 33, 34, 35, 36, 37, 38, 39, 40, 41, 42, 43, 44, 45, 46, 47, 48, 49, 50, 51, 52, 53, 54, 55, 56, 57, 58, 59, 60, 61, 62, 63, 64, 65, 66, 67, 68, 69, 70, 71, 72, 73, 74, 75, 76, 77, 78, 79, 80, 81, 82, 83, 84, 85, 86, 87, 88, 89, 90, 91, 92, 93, 94, 95, 96, 97, 98, 99, 100, 101, 102, 103, 104, 105, 106, 107, 108, 109, 110, 111, 112, 113, 114, 115, 116, 117, 118, 119, 120, 121, 122, 123, 124, 125, 126, 127, 128, 129, 130, 131, 132, 133, 134, 135, 136, 137, 138, 139, 140, 141, 142, 143, 144, 145, 146, 147, 148, 149, 150, 151, 152, 153, 154, 155, 156, 157, 158, 159, 160, 161, 162, 163, 164, 165, 166, 167, 168, 169, 170, 171, 172, 173, 174, 175, 176, 177, 178, 179, 180, 181, 182, 183, 184, 185, 186, 187, 188, 189, 190, 191, 192, 193, 194, 195, 196, 197, 198, 199, 200],
      "LargestImagePixelValue": [350, 349, 349, 348, 347, 350, 348, 349, 350, 348, 349, 348, 349, 348, 349, 351, 349, 348, 351, 350, 349, 349, 348, 348, 351, 348, 350, 349, 349, 348, 350, 348, 349, 348, 349, 349, 350, 348, 350, 347, 349, 348, 349, 347, 350, 352, 350, 348, 349, 348, 349, 346, 349, 348, 348, 348, 349, 348, 349, 348, 349, 349, 348, 348, 349, 349, 350, 348, 347, 349, 350, 349, 350, 349, 349, 348, 349, 348, 348, 347, 348, 350, 349, 348, 349, 348, 349, 348, 348, 350, 349, 351, 348, 349, 349, 349, 349, 348, 347, 349, 346, 349, 347, 350, 347, 348, 348, 350, 347, 349, 348, 348, 348, 349, 348, 348, 346, 349, 347, 348, 347, 349, 347, 349, 347, 351, 348, 349, 349, 349, 347, 348, 349, 349, 347, 351, 347, 349, 347, 348, 347, 349, 349, 348, 348, 349, 348, 347, 349, 348, 347, 348, 348, 347, 347, 348, 348, 349, 349, 350, 351, 351, 348, 347, 349, 348, 348, 349, 348, 349, 349, 347, 348, 347, 348, 348, 349, 346, 349, 348, 350, 347, 348, 348, 348, 348, 349, 347, 350, 346, 349, 347, 348, 349, 348, 346, 348, 347, 349, 347],
      "WindowCenter": [290.0, 288.0, 289.0, 288.0, 288.0, 289.0, 289.0, 288.0, 289.0, 288.0, 289.0, 288.0, 289.0, 288.0, 288.0, 289.0, 288.0, 288.0, 289.0, 289.0, 288.0, 288.0, 288.0, 288.0, 289.0, 288.0, 289.0, 288.0, 288.0, 288.0, 289.0, 288.0, 288.0, 288.0, 288.0, 288.0, 289.0, 288.0, 289.0, 288.0, 288.0, 288.0, 288.0, 288.0, 289.0, 289.0, 289.0, 288.0, 288.0, 288.0, 288.0, 288.0, 288.0, 288.0, 288.0, 288.0, 288.0, 288.0, 288.0, 288.0, 288.0, 288.0, 288.0, 288.0, 288.0, 288.0, 289.0, 288.0, 288.0, 288.0, 289.0, 288.0, 289.0, 288.0, 288.0, 288.0, 288.0, 288.0, 288.0, 288.0, 288.0, 289.0, 288.0, 288.0, 288.0, 288.0, 288.0, 288.0, 288.0, 289.0, 288.0, 289.0, 288.0, 288.0, 288.0, 288.0, 288.0, 288.0, 288.0, 288.0, 288.0, 288.0, 288.0, 289.0, 288.0, 288.0, 288.0, 288.0, 288.0, 288.0, 288.0, 288.0, 288.0, 288.0, 288.0, 288.0, 288.0, 288.0, 288.0, 288.0, 288.0, 288.0, 288.0, 288.0, 288.0, 289.0, 288.0, 288.0, 288.0, 288.0, 288.0, 288.0, 288.0, 288.0, 288.0, 289.0, 288.0, 288.0, 288.0, 288.0, 288.0, 288.0, 288.0, 288.0, 288.0, 288.0, 288.0, 288.0, 288.0, 288.0, 288.0, 288.0, 288.0, 288.0, 288.0, 288.0, 288.0, 288.0, 288.0, 289.0, 289.0, 289.0, 288.0, 288.0, 288.0, 288.0, 288.0, 288.0, 288.0, 288.0, 288.0, 288.0, 288.0, 288.0, 288.0, 288.0, 288.0, 288.0, 288.0, 287.0, 289.0, 288.0, 288.0, 288.0, 288.0, 287.0, 288.0, 288.0, 289.0, 288.0, 288.0, 288.0, 287.0, 288.0, 288.0, 288.0, 288.0, 288.0, 288.0, 288.0],
      "WindowWidth": [631.0, 629.0, 630.0, 628.0, 629.0, 629.0, 630.0, 629.0, 630.0, 628.0, 630.0, 628.0, 630.0, 628.0, 629.0, 629.0, 629.0, 629.0, 630.0, 630.0, 629.0, 629.0, 629.0, 628.0, 630.0, 628.0, 629.0, 628.0, 629.0, 629.0, 630.0, 629.0, 629.0, 628.0, 628.0, 629.0, 629.0, 629.0, 630.0, 628.0, 628.0, 628.0, 628.0, 629.0, 629.0, 629.0, 629.0, 628.0, 628.0, 628.0, 628.0, 628.0, 628.0, 628.0, 628.0, 628.0, 628.0, 629.0, 628.0, 628.0, 628.0, 629.0, 628.0, 628.0, 628.0, 628.0, 629.0, 628.0, 628.0, 628.0, 629.0, 628.0, 629.0, 628.0, 628.0, 629.0, 628.0, 629.0, 628.0, 629.0, 628.0, 629.0, 628.0, 629.0, 628.0, 628.0, 628.0, 628.0, 628.0, 629.0, 628.0, 629.0, 628.0, 628.0, 628.0, 628.0, 628.0, 628.0, 628.0, 628.0, 628.0, 628.0, 628.0, 629.0, 628.0, 628.0, 628.0, 629.0, 628.0, 628.0, 628.0, 628.0, 628.0, 628.0, 628.0, 628.0, 628.0, 628.0, 628.0, 628.0, 628.0, 628.0, 628.0, 628.0, 628.0, 629.0, 628.0, 628.0, 628.0, 628.0, 628.0, 628.0, 628.0, 628.0, 628.0, 629.0, 628.0, 628.0, 628.0, 628.0, 628.0, 628.0, 628.0, 628.0, 628.0, 628.0, 628.0, 628.0, 628.0, 628.0, 628.0, 628.0, 628.0, 628.0, 628.0, 628.0, 628.0, 628.0, 628.0, 629.0, 629.0, 629.0, 628.0, 628.0, 628.0, 628.0, 628.0, 628.0, 628.0, 628.0, 628.0, 628.0, 628.0, 628.0, 628.0, 628.0, 627.0, 628.0, 628.0, 627.0, 629.0, 628.0, 628.0, 628.0, 628.0, 627.0, 628.0, 628.0, 629.0, 628.0, 628.0, 628.0, 627.0, 628.0, 628.0, 628.0, 628.0, 628.0, 627.0, 628.0]
    },
    "slices": {}
  }
}