{
  "AcquisitionMatrixPE": 80,
  "AcquisitionNumber": 1,
  "AcquisitionTime": "09:14:57.977500",
  "BandwidthPerPixelPhaseEncode": 48.077,
  "BaseResolution": 80,
  "BodyPartExamined": "BRAIN",
  "CoilCombinationMethod": "Sum of Squares",
  "ConsistencyInfo": "N4_VE11E_LATEST_20181129",
  "ConversionSoftware": "dcm2niix",
  "ConversionSoftwareVersion": "v1.0.20220720",
  "DerivedVendorReportedEchoSpacing": 0.000519999,
  "DeviceSerialNumber": "66112",
  "DwellTime": 2.7e-06,
  "EchoTime": 0.035,
  "EchoTrainLength": 39,
  "EffectiveEchoSpacing": 0.00026,
  "FlipAngle": 90,
  "HeudiconvVersion": "0.13.1",
  "ImageOrientationPatientDICOM": [0.999954, 0.00773204, 0.00563159, -0.00907554, 0.952895, 0.303165],
  "ImageOrientationText": "Tra>Cor(17.7)>Sag(0.2)",
  "ImageType": [
    "ORIGINAL",
    "PRIMARY",
    "M",
    "ND",
    "NORM",
    "MOSAIC"
],
  "ImagingFrequency": 123.259,
  "InPlanePhaseEncodingDirectionDICOM": "COL",
  "InstitutionAddress": "Maynard 3,Hanover,NH,US,03755",
  "InstitutionName": "Dartmouth College - PBS",
  "InstitutionalDepartmentName": "Department",
  "MRAcquisitionType": "2D",
  "MagneticFieldStrength": 3,
  "Manufacturer": "Siemens",
  "ManufacturersModelName": "Prisma",
  "MatrixCoilMode": "GRAPPA",
  "Modality": "MR",
  "NonlinearGradientCorrection": false,
  "ParallelReductionFactorInPlane": 2,
  "PartialFourier": 1,
  "PatientPosition": "HFS",
  "PercentPhaseFOV": 100,
  "PercentSampling": 100,
  "PhaseEncodingDirection": "j-",
  "PhaseEncodingSteps": 79,
  "PhaseResolution": 1,
  "PixelBandwidth": 2315,
  "ProcedureStepDescription": "dbic^QA",
  "ProtocolName": "func-bold_task-rest_acq-p2",
  "PulseSequenceDetails": "%SiemensSeq%\\ep2d_bold",
  "ReceiveCoilActiveElements": "HEA;HEP",
  "ReceiveCoilName": "Head_32",
  "ReconMatrixPE": 80,
  "RefLinesPE": 24,
  "RepetitionTime": 2,
  "SAR": 0.0809954,
  "ScanOptions": "FS",
  "ScanningSequence": "EP",
  "SequenceName": "*epfid2d1_80",
  "SequenceVariant": "SK",
  "SeriesDescription": "func-bold_task-rest_acq-p2",
  "SeriesNumber": 5,
  "ShimSetting": [4218, -7739, -7492, -41, -137, -50, -17, 77],
  "SliceThickness": 3.5,
  "SliceTiming": [0.99, 0, 1.055, 0.065, 1.12, 0.13, 1.1875, 0.1975, 1.2525, 0.2625, 1.32, 0.33, 1.385, 0.395, 1.45, 0.46, 1.5175, 0.5275, 1.5825, 0.5925, 1.6475, 0.66, 1.715, 0.725, 1.78, 0.79, 1.8475, 0.8575, 1.9125, 0.9225],
  "SoftwareVersions": "syngo MR E11",
  "SpacingBetweenSlices": 3.99,
  "StationName": "AWP66112",
  "TaskName": "rest",
  "TotalReadoutTime": 0.02054,
  "TxRefAmp": 225,
  "dcmmeta_affine": [
    [-2.9998626708984375, -0.02722661942243576, 0.012058691121637821, 121.6356430053711],
    [-0.02319612167775631, 2.8586843013763428, 1.2097781896591187, -127.54164123535156],
    [0.01689477637410164, -0.9094959497451782, 3.8021562099456787, -22.956411361694336],
    [0.0, 0.0, 0.0, 1.0]
],
  "dcmmeta_reorient_transform": [
    [0.0, -1.0, 0.0, 79.0],
    [1.0, 0.0, 0.0, 0.0],
    [0.0, 0.0, 1.0, 0.0],
    [0.0, 0.0, 0.0, 1.0]
],
  "dcmmeta_shape": [80, 80, 30, 200],
  "dcmmeta_slice_dim": 2,
  "dcmmeta_version": 0.6,
  "global": {
    "const": {
      "AccessionNumber": "qa",
      "AcquisitionMatrix": [80, 0, 0, 80],
      "AngioFlag": "N",
      "BitsAllocated": 16,
      "BitsStored": 12,
      "BodyPartExamined": "BRAIN",
      "Columns": 480,
      "EchoNumbers": 1,
      "EchoTime": 35.0,
      "EchoTrainLength": 39,
      "FlipAngle": 90.0,
      "HighBit": 11,
      "ImageOrientationPatient": [0.99995424931094, 0.00773204066136, 0.00563159233393, -0.0090755396991, 0.95289476327205, 0.30316530920913],
      "ImagePositionPatient": [-714.01196452921, -674.6704982034, -280.08473041471],
      "ImageType": [
        "ORIGINAL",
        "PRIMARY",
        "M",
        "ND",
        "NORM",
        "MOSAIC"
],
      "ImagedNucleus": "1H",
      "ImagingFrequency": 123.259152,
      "InPlanePhaseEncodingDirection": "COL",
      "MRAcquisitionType": "2D",
      "MagneticFieldStrength": 3.0,
      "Manufacturer": "SIEMENS",
      "ManufacturerModelName": "Prisma",
      "Modality": "MR",
      "NumberOfAverages": 1.0,
      "NumberOfPhaseEncodingSteps": 79,
      "PercentPhaseFieldOfView": 100.0,
      "PercentSampling": 100.0,
      "PerformedProcedureStepStartTime": "090759.783000",
      "PhotometricInterpretation": "MONOCHROME2",
      "PixelBandwidth": 2315.0,
      "PixelRepresentation": 0,
      "PixelSpacing": [3.0, 3.0],
      "ProtocolName": "func-bold_task-rest_acq-p2",
      "RepetitionTime": 2000.0,
      "Rows": 480,
      "SAR": 0.0809954083335,
      "SamplesPerPixel": 1,
      "ScanOptions": "FS",
      "ScanningSequence": "EP",
      "SequenceName": "*epfid2d1_80",
      "SequenceVariant": "SK",
      "SeriesDescription": "func-bold_task-rest_acq-p2",
      "SeriesNumber": 5,
      "SeriesTime": "091545.672000",
      "SliceLocation": -60.178994714735,
      "SliceThickness": 3.5,
      "SmallestImagePixelValue": 0,
      "SoftwareVersions": "syngo MR E11",
      "SpacingBetweenSlices": 3.9899999708878,
      "SpecificCharacterSet": "ISO_IR 100",
      "StudyID": "45",
      "StudyTime": "090759.669000",
      "TransmitCoilName": "Body",
      "VariableFlipAngleFlag": "N",
      "WindowCenterWidthExplanation": "Algo1"
    },
    "slices": {}
  },
  "time": {
    "samples": {
      "AcquisitionNumber": [1, 2, 3, 4, 5, 6, 7, 8, 9, 10, 11, 12, 13, 14, 15, 16, 17, 18, 19, 20, 21, 22, 23, 24, 25, 26, 27, 28, 29, 30, 31, 32, 33, 34, 35, 36, 37, 38, 39, 40, 41, 42, 43, 44, 45, 46, 47, 48, 49, 50, 51, 52, 53, 54, 55, 56, 57, 58, 59, 60, 61, 62, 63, 64, 65, 66, 67, 68, 69, 70, 71, 72, 73, 74, 75, 76, 77, 78, 79, 80, 81, 82, 83, 84, 85, 86, 87, 88, 89, 90, 91, 92, 93, 94, 95, 96, 97, 98, 99, 100, 101, 102, 103, 104, 105, 106, 107, 108, 109, 110, 111, 112, 113, 114, 115, 116, 117, 118, 119, 120, 121, 122, 123, 124, 125, 126, 127, 128, 129, 130, 131, 132, 133, 134, 135, 136, 137, 138, 139, 140, 141, 142, 143, 144, 145, 146, 147, 148, 149, 150, 151, 152, 153, 154, 155, 156, 157, 158, 159, 160, 161, 162, 163, 164, 165, 166, 167, 168, 169, 170, 171, 172, 173, 174, 175, 176, 177, 178, 179, 180, 181, 182, 183, 184, 185, 186, 187, 188, 189, 190, 191, 192, 193, 194, 195, 196, 197, 198, 199, 200],
      "AcquisitionTime": ["091457.977500", "091459.977500", "091501.977500", "091503.977500", "091505.977500", "091507.977500", "091509.977500", "091511.977500", "091513.977500", "091515.977500", "091517.977500", "091519.977500", "091521.977500", "091523.977500", "091525.977500", "091527.977500", "091529.977500", "091531.977500", "091533.977500", "091535.977500", "091537.977500", "091539.977500", "091541.977500", "091543.977500", "091545.977500", "091547.977500", "091549.977500", "091551.977500", "091553.977500", "091555.977500", "091557.977500", "091559.977500", "091601.977500", "091603.977500", "091605.977500", "091607.977500", "091609.977500", "091611.977500", "091613.977500", "091615.977500", "091617.977500", "091619.977500", "091621.977500", "091623.977500", "091625.977500", "091627.977500", "091629.977500", "091631.977500", "091633.977500", "091635.977500", "091637.977500", "091639.977500", "091641.977500", "091643.977500", "091645.977500", "091647.977500", "091649.977500", "091651.977500", "091653.977500", "091655.977500", "091657.977500", "091659.977500", "091701.977500", "091703.977500", "091705.977500", "091707.977500", "091709.977500", "091711.977500", "091713.977500", "091715.977500", "091717.977500", "091719.977500", "091721.977500", "091723.977500", "091725.977500", "091727.977500", "091729.977500", "091731.977500", "091733.977500", "091735.977500", "091737.977500", "091739.977500", "091741.977500", "091743.977500", "091745.977500", "091747.977500", "091749.977500", "091751.977500", "091753.977500", "091755.977500", "091757.977500", "091759.977500", "091801.977500", "091803.977500", "091805.977500", "091807.977500", "091809.977500", "091811.977500", "091813.977500", "091815.977500", "091817.977500", "091819.977500", "091821.977500", "091823.977500", "091825.977500", "091827.977500", "091829.977500", "091831.977500", "091833.977500", "091835.977500", "091837.977500", "091839.977500", "091841.977500", "091843.977500", "091845.977500", "091847.977500", "091849.977500", "091851.977500", "091853.977500", "091855.977500", "091857.977500", "091859.977500", "091901.977500", "091903.977500", "091905.977500", "091907.977500", "091909.977500", "091911.977500", "091913.977500", "091915.977500", "091917.977500", "091919.977500", "091921.977500", "091923.977500", "091925.977500", "091927.977500", "091929.977500", "091931.977500", "091933.977500", "091935.977500", "091937.977500", "091939.977500", "091941.977500", "091943.977500", "091945.977500", "091947.977500", "091949.977500", "091951.977500", "091953.977500", "091955.977500", "091957.977500", "091959.977500", "092001.977500", "092003.977500", "092005.977500", "092007.977500", "092009.977500", "092011.977500", "092013.977500", "092015.977500", "092017.977500", "092019.977500", "092021.977500", "092023.977500", "092025.977500", "092027.977500", "092029.977500", "092031.977500", "092033.977500", "092035.977500", "092037.977500", "092039.977500", "092041.977500", "092043.977500", "092045.977500", "092047.977500", "092049.977500", "092051.977500", "092053.977500", "092055.977500", "092057.977500", "092059.977500", "092101.977500", "092103.977500", "092105.977500", "092107.977500", "092109.977500", "092111.977500", "092113.977500", "092115.977500", "092117.977500", "092119.977500", "092121.977500", "092123.977500", "092125.977500", "092127.977500", "092129.977500", "092131.977500", "092133.977500", "092135.977500"],
      "ContentTime": ["091545.676000", "091545.679000", "091545.682000", "091545.684000", "091545.686000", "091545.689000", "091545.691000", "091545.693000", "091545.695000", "091545.698000", "091545.700000", "091545.702000", "091545.705000", "091545.707000", "091545.709000", "091545.711000", "091545.714000", "091545.716000", "091545.729000", "091545.731000", "091545.734000", "091545.736000", "091545.738000", "091625.669000", "091625.672000", "091625.674000", "091625.677000", "091625.679000", "091625.681000", "091625.683000", "091625.686000", "091625.688000", "091625.690000", "091625.693000", "091625.695000", "091625.697000", "091625.699000", "091625.702000", "091625.704000", "091625.706000", "091625.709000", "091625.711000", "091625.713000", "091705.669000", "091705.672000", "091705.674000", "091705.676000", "091705.699000", "091705.702000", "091705.704000", "091705.706000", "091705.709000", "091705.711000", "091705.713000", "091705.716000", "091705.718000", "091705.721000", "091705.724000", "091705.726000", "091705.729000", "091705.731000", "091705.734000", "091705.736000", "091745.670000", "091745.673000", "091745.675000", "091745.678000", "091745.680000", "091745.682000", "091745.685000", "091745.687000", "091745.689000", "091745.691000", "091745.694000", "091745.696000", "091745.698000", "091745.701000", "091745.703000", "091745.705000", "091745.708000", "091745.710000", "091745.712000", "091745.715000", "091825.670000", "091825.673000", "091825.675000", "091825.677000", "091825.680000", "091825.682000", "091825.684000", "091825.687000", "091825.689000", "091825.691000", "091825.694000", "091825.696000", "091825.698000", "091825.701000", "091825.703000", "091825.705000", "091825.708000", "091825.710000", "091825.712000", "091825.715000", "091845.669000", "091845.672000", "091845.674000", "091845.689000", "091845.691000", "091845.693000", "091845.696000", "091845.698000", "091845.700000", "091845.703000", "091925.669000", "091925.672000", "091925.674000", "091925.676000", "091925.679000", "091925.681000", "091925.683000", "091925.686000", "091925.688000", "091925.690000", "091925.693000", "091925.695000", "091925.697000", "091925.699000", "091925.702000", "091925.704000", "091925.707000", "091925.709000", "091925.723000", "091925.725000", "092005.670000", "092005.673000", "092005.675000", "092005.678000", "092005.680000", "092005.682000", "092005.684000", "092005.687000", "092005.689000", "092005.691000", "092005.694000", "092005.696000", "092005.698000", "092005.701000", "092005.703000", "092005.705000", "092005.707000", "092005.710000", "092005.712000", "092005.714000", "092045.670000", "092045.673000", "092045.675000", "092045.677000", "092045.680000", "092045.682000", "092045.684000", "092045.687000", "092045.689000", "092045.691000", "092045.694000", "092045.696000", "092045.698000", "092045.700000", "092045.703000", "092045.705000", "092045.707000", "092045.710000", "092045.712000", "092045.714000", "092125.669000", "092125.672000", "092125.674000", "092125.677000", "092125.679000", "092125.681000", "092125.684000", "092125.686000", "092125.688000", "092125.691000", "092125.693000", "092125.696000", "092125.698000", "092125.700000", "092125.703000", "092125.705000", "092125.707000", "092125.710000", "092125.712000", "092125.714000", "092137.753000", "092137.756000", "092137.758000", "092137.761000", "092137.763000", "092137.765000", "092137.768000"],
      "InstanceCreationTime": ["091545.676000", "091545.679000", "091545.682000", "091545.684000", "091545.686000", "091545.689000", "091545.691000", "091545.693000", "091545.695000", "091545.698000", "091545.700000", "091545.702000", "091545.705000", "091545.707000", "091545.709000", "091545.711000", "091545.714000", "091545.716000", "091545.729000", "091545.731000", "091545.734000", "091545.736000", "091545.738000", "091625.669000", "091625.672000", "091625.674000", "091625.677000", "091625.679000", "091625.681000", "091625.683000", "091625.686000", "091625.688000", "091625.690000", "091625.693000", "091625.695000", "091625.697000", "091625.699000", "091625.702000", "091625.704000", "091625.706000", "091625.709000", "091625.711000", "091625.713000", "091705.669000", "091705.672000", "091705.674000", "091705.676000", "091705.699000", "091705.702000", "091705.704000", "091705.706000", "091705.709000", "091705.711000", "091705.713000", "091705.716000", "091705.718000", "091705.721000", "091705.724000", "091705.726000", "091705.729000", "091705.731000", "091705.734000", "091705.736000", "091745.670000", "091745.673000", "091745.675000", "091745.678000", "091745.680000", "091745.682000", "091745.685000", "091745.687000", "091745.689000", "091745.691000", "091745.694000", "091745.696000", "091745.698000", "091745.701000", "091745.703000", "091745.705000", "091745.708000", "091745.710000", "091745.712000", "091745.715000", "091825.670000", "091825.673000", "091825.675000", "091825.677000", "091825.680000", "091825.682000", "091825.684000", "091825.687000", "091825.689000", "091825.691000", "091825.694000", "091825.696000", "091825.698000", "091825.701000", "091825.703000", "091825.705000", "091825.708000", "091825.710000", "091825.712000", "091825.715000", "091845.669000", "091845.672000", "091845.674000", "091845.689000", "091845.691000", "091845.693000", "091845.696000", "091845.698000", "091845.700000", "091845.703000", "091925.669000", "091925.672000", "091925.674000", "091925.676000", "091925.679000", "091925.681000", "091925.683000", "091925.686000", "091925.688000", "091925.690000", "091925.693000", "091925.695000", "091925.697000", "091925.699000", "091925.702000", "091925.704000", "091925.707000", "091925.709000", "091925.723000", "091925.725000", "092005.670000", "092005.673000", "092005.675000", "092005.678000", "092005.680000", "092005.682000", "092005.684000", "092005.687000", "092005.689000", "092005.691000", "092005.694000", "092005.696000", "092005.698000", "092005.701000", "092005.703000", "092005.705000", "092005.707000", "092005.710000", "092005.712000", "092005.714000", "092045.670000", "092045.673000", "092045.675000", "092045.677000", "092045.680000", "092045.682000", "092045.684000", "092045.687000", "092045.689000", "092045.691000", "092045.694000", "092045.696000", "092045.698000", "092045.700000", "092045.703000", "092045.705000", "092045.707000", "092045.710000", "092045.712000", "092045.714000", "092125.669000", "092125.672000", "092125.674000", "092125.677000", "092125.679000", "092125.681000", "092125.684000", "092125.686000", "092125.688000", "092125.691000", "092125.693000", "092125.696000", "092125.698000", "092125.700000", "092125.703000", "092125.705000", "092125.707000", "092125.710000", "092125.712000", "092125.714000", "092137.753000", "092137.756000", "092137.758000", "092137.761000", "092137.763000", "092137.765000", "092137.768000"],
      "InstanceNumber": [1, 2, 3, 4, 5, 6, 7, 8, 9, 10, 11, 12, 13, 14, 15, 16, 17, 18, 19, 20, 21, 22, 23, 24, 25, 26, 27, 28, 29, 30, 31, 32, 33, 34, 35, 36, 37, 38, 39, 40, 41, 42, 43, 44, 45, 46, 47, 48, 49, 50, 51, 52, 53, 54, 55, 56, 57, 58, 59, 60, 61, 62, 63, 64, 65, 66, 67, 68, 69, 70, 71, 72, 73, 74, 75, 76, 77, 78, 79, 80, 81, 82, 83, 84, 85, 86, 87, 88, 89, 90, 91, 92, 93, 94, 95, 96, 97, 98, 99, 100, 101, 102, 103, 104, 105, 106, 107, 108, 109, 110, 111, 112, 113, 114, 115, 116, 117, 118, 119, 120, 121, 122, 123, 124, 125, 126, 127, 128, 129, 130, 131, 132, 133, 134, 135, 136, 137, 138, 139, 140, 141, 142, 143, 144, 145, 146, 147, 148, 149, 150, 151, 152, 153, 154, 155, 156, 157, 158, 159, 160, 161, 162, 163, 164, 165, 166, 167, 168, 169, 170, 171, 172, 173, 174, 175, 176, 177, 178, 179, 180, 181, 182, 183, 184, 185, 186, 187, 188, 189, 190, 191, 192, 193, 194, 195, 196, 197, 198, 199, 200],
      "LargestImagePixelValue": [2081, 2090, 2080, 2083, 2085, 2083, 2084, 2084, 2082, 2084, 2082, 2081, 2081, 2082, 2083, 2085, 2086, 2080, 2083, 2083, 2085, 2081, 2082, 2080, 2084, 2081, 2084, 2078, 2078, 2084, 2078, 2085, 2084, 2086, 2081, 2087, 2083, 2080, 2075, 2079, 2083, 2084, 2081, 2085, 2083, 2082, 2085, 2083, 2085, 2085, 2083, 2083, 2078, 2084, 2082, 2086, 2081, 2081, 2082, 2079, 2082, 2081, 2082, 2085, 2079, 2080, 2080, 2082, 2085, 2081, 2082, 2084, 2077, 2083, 2082, 2082, 2080, 2082, 2082, 2086, 2081, 2077, 2079, 2084, 2082, 2081, 2079, 2082, 2080, 2083, 2079, 2080, 2076, 2077, 2084, 2085, 2079, 2082, 2079, 2081, 2079, 2078, 2076, 2082, 2082, 2080, 2078, 2082, 2081, 2081, 2081, 2082, 2081, 2078, 2082, 2080, 2082, 2084, 2083, 2077, 2082, 2082, 2086, 2079, 2080, 2083, 2080, 2081, 2080, 2083, 2082, 2084, 2082, 2081, 2079, 2078, 2075, 2085, 2078, 2077, 2083, 2076, 2079, 2080, 2079, 2078, 2078, 2077, 2083, 2076, 2078, 2083, 2080, 2081, 2073, 2079, 2081, 2084, 2083, 2084, 2079, 2078, 2078, 2077, 2081, 2077, 2080, 2079, 2079, 2081, 2080, 2078, 2083, 2083, 2076, 2081, 2080, 2078, 2080, 2079, 2078, 2079, 2082, 2078, 2081, 2077, 2082, 2083, 2078, 2082, 2081, 2080, 2081, 2077, 2079, 2081, 2077, 2081, 2078, 2078],
      "WindowCenter": [1008.0, 1008.0, 1007.0, 1007.0, 1007.0, 1007.0, 1007.0, 1007.0, 1007.0, 1008.0, 1007.0, 1007.0, 1007.0, 1008.0, 1007.0, 1007.0, 1008.0, 1007.0, 1007.0, 1007.0, 1007.0, 1007.0, 1008.0, 1008.0, 1008.0, 1008.0, 1007.0, 1007.0, 1007.0, 1007.0, 1008.0, 1007.0, 1007.0, 1007.0, 1007.0, 1007.0, 1008.0, 1007.0, 1008.0, 1007.0, 1007.0, 1007.0, 1007.0, 1007.0, 1007.0, 1007.0, 1008.0, 1007.0, 1007.0, 1007.0, 1007.0, 1007.0, 1008.0, 1008.0, 1007.0, 1008.0, 1007.0, 1007.0, 1007.0, 1007.0, 1007.0, 1008.0, 1008.0, 1007.0, 1007.0, 1007.0, 1007.0, 1007.0, 1007.0, 1008.0, 1007.0, 1007.0, 1007.0, 1007.0, 1007.0, 1007.0, 1007.0, 1007.0, 1008.0, 1007.0, 1007.0, 1008.0, 1007.0, 1007.0, 1008.0, 1007.0, 1007.0, 1008.0, 1007.0, 1008.0, 1007.0, 1008.0, 1007.0, 1007.0, 1007.0, 1007.0, 1008.0, 1007.0, 1007.0, 1007.0, 1007.0, 1008.0, 1007.0, 1007.0, 1007.0, 1007.0, 1007.0, 1007.0, 1007.0, 1007.0, 1008.0, 1007.0, 1007.0, 1007.0, 1007.0, 1007.0, 1007.0, 1007.0, 1007.0, 1007.0, 1008.0, 1007.0, 1007.0, 1007.0, 1007.0, 1007.0, 1007.0, 1007.0, 1007.0, 1007.0, 1007.0, 1008.0, 1007.0, 1007.0, 1007.0, 1007.0, 1007.0, 1007.0, 1008.0, 1007.0, 1008.0, 1008.0, 1007.0, 1007.0, 1007.0, 1007.0, 1007.0, 1007.0, 1007.0, 1008.0, 1007.0, 1007.0, 1007.0, 1007.0, 1007.0, 1008.0, 1007.0, 1007.0, 1007.0, 1007.0, 1007.0, 1007.0, 1007.0, 1007.0, 1007.0, 1007.0, 1007.0, 1007.0, 1007.0, 1006.0, 1007.0, 1007.0, 1007.0, 1007.0, 1007.0, 1007.0, 1007.0, 1007.0, 1007.0, 1008.0, 1007.0, 1007.0, 1007.0, 1007.0, 1007.0, 1007.0, 1008.0, 1006.0, 1007.0, 1007.0, 1007.0, 1007.0, 1007.0, 1007.0, 1007.0, 1006.0, 1007.0, 1006.0, 1007.0, 1006.0],
      "WindowWidth": [2230.0, 2230.0, 2229.0, 2229.0, 2229.0, 2229.0, 2229.0, 2229.0, 2229.0, 2229.0, 2229.0, 2229.0, 2229.0, 2229.0, 2229.0, 2229.0, 2229.0, 2229.0, 2229.0, 2229.0, 2229.0, 2229.0, 2229.0, 2229.0, 2230.0, 2229.0, 2229.0, 2229.0, 2229.0, 2229.0, 2229.0, 2229.0, 2229.0, 2229.0, 2229.0, 2229.0, 2230.0, 2229.0, 2229.0, 2229.0, 2228.0, 2229.0, 2228.0, 2228.0, 2229.0, 2228.0, 2229.0, 2228.0, 2229.0, 2228.0, 2228.0, 2228.0, 2229.0, 2229.0, 2228.0, 2229.0, 2228.0, 2228.0, 2228.0, 2228.0, 2228.0, 2229.0, 2229.0, 2228.0, 2228.0, 2228.0, 2228.0, 2228.0, 2228.0, 2229.0, 2228.0, 2228.0, 2228.0, 2228.0, 2228.0, 2228.0, 2228.0, 2228.0, 2229.0, 2228.0, 2228.0, 2229.0, 2228.0, 2228.0, 2229.0, 2228.0, 2228.0, 2229.0, 2228.0, 2229.0, 2228.0, 2229.0, 2228.0, 2229.0, 2228.0, 2228.0, 2229.0, 2228.0, 2228.0, 2228.0, 2228.0, 2229.0, 2228.0, 2228.0, 2228.0, 2228.0, 2228.0, 2228.0, 2228.0, 2228.0, 2229.0, 2228.0, 2228.0, 2228.0, 2228.0, 2228.0, 2228.0, 2228.0, 2228.0, 2228.0, 2229.0, 2228.0, 2228.0, 2228.0, 2228.0, 2227.0, 2228.0, 2228.0, 2228.0, 2228.0, 2228.0, 2229.0, 2228.0, 2228.0, 2228.0, 2228.0, 2228.0, 2228.0, 2229.0, 2228.0, 2229.0, 2229.0, 2228.0, 2228.0, 2228.0, 2228.0, 2228.0, 2228.0, 2228.0, 2229.0, 2227.0, 2227.0, 2228.0, 2228.0, 2228.0, 2229.0, 2228.0, 2228.0, 2228.0, 2228.0, 2227.0, 2227.0, 2228.0, 2228.0, 2228.0, 2227.0, 2227.0, 2228.0, 2229.0, 2228.0, 2228.0, 2228.0, 2227.0, 2227.0, 2228.0, 2227.0, 2227.0, 2227.0, 2228.0, 2228.0, 2227.0, 2227.0, 2227.0, 2228.0, 2228.0, 2227.0, 2228.0, 2228.0, 2227.0, 2228.0, 2227.0, 2227.0, 2228.0, 2227.0, 2227.0, 2228.0, 2227.0, 2228.0, 2227.0, 2228.0]
    },
    "slices": {}
  }
}