{
  "AcquisitionMatrixPE": 80,
  "AcquisitionNumber": 1,
  "AcquisitionTime": "08:31:56.737500",
  "BandwidthPerPixelPhaseEncode": 48.077,
  "BaseResolution": 80,
  "BodyPartExamined": "BRAIN",
  "CoilCombinationMethod": "Sum of Squares",
  "ConsistencyInfo": "N4_VE11E_LATEST_20181129",
  "ConversionSoftware": "dcm2niix",
  "ConversionSoftwareVersion": "v1.0.20220720",
  "DerivedVendorReportedEchoSpacing": 0.000519999,
  "DeviceSerialNumber": "66112",
  "DwellTime": 2.7e-06,
  "EchoTime": 0.035,
  "EchoTrainLength": 39,
  "EffectiveEchoSpacing": 0.00026,
  "FlipAngle": 90,
  "HeudiconvVersion": "0.13.1",
  "ImageOrientationPatientDICOM": [0.999925, 0.0119111, 0.0028668, -0.012217, 0.951973, 0.305938],
  "ImageOrientationText": "Tra>Cor(17.8)>Sag(-0.1)",
  "ImageType": [
    "ORIGINAL",
    "PRIMARY",
    "M",
    "ND",
    "NORM",
    "MOSAIC"
],
  "ImagingFrequency": 123.252,
  "InPlanePhaseEncodingDirectionDICOM": "COL",
  "InstitutionAddress": "Maynard 3,Hanover,NH,US,03755",
  "InstitutionName": "Dartmouth College - PBS",
  "InstitutionalDepartmentName": "Department",
  "MRAcquisitionType": "2D",
  "MagneticFieldStrength": 3,
  "Manufacturer": "Siemens",
  "ManufacturersModelName": "Prisma",
  "MatrixCoilMode": "GRAPPA",
  "Modality": "MR",
  "NonlinearGradientCorrection": false,
  "ParallelReductionFactorInPlane": 2,
  "PartialFourier": 1,
  "PatientPosition": "HFS",
  "PercentPhaseFOV": 100,
  "PercentSampling": 100,
  "PhaseEncodingDirection": "j-",
  "PhaseEncodingSteps": 79,
  "PhaseResolution": 1,
  "PixelBandwidth": 2315,
  "ProcedureStepDescription": "dbic^QA",
  "ProtocolName": "func-bold_task-rest_acq-p2",
  "PulseSequenceDetails": "%SiemensSeq%\\ep2d_bold",
  "ReceiveCoilActiveElements": "HC1-7;NC1,2",
  "ReceiveCoilName": "HeadNeck_64",
  "ReconMatrixPE": 80,
  "RefLinesPE": 24,
  "RepetitionTime": 2,
  "SAR": 0.0359679,
  "ScanOptions": "FS",
  "ScanningSequence": "EP",
  "SequenceName": "*epfid2d1_80",
  "SequenceVariant": "SK",
  "SeriesDescription": "func-bold_task-rest_acq-p2",
  "SeriesNumber": 5,
  "ShimSetting": [4140, -7695, -7506, 256, -73, -357, -9, 96],
  "SliceThickness": 3.5,
  "SliceTiming": [0.99, 0, 1.055, 0.065, 1.1225, 0.1325, 1.1875, 0.1975, 1.2525, 0.2625, 1.32, 0.33, 1.385, 0.395, 1.4525, 0.4625, 1.5175, 0.5275, 1.5825, 0.5925, 1.65, 0.66, 1.715, 0.725, 1.7825, 0.7925, 1.8475, 0.8575, 1.9125, 0.9225],
  "SoftwareVersions": "syngo MR E11",
  "SpacingBetweenSlices": 3.99,
  "StationName": "AWP66112",
  "TaskName": "rest",
  "TotalReadoutTime": 0.02054,
  "TxRefAmp": 215.078,
  "dcmmeta_affine": [
    [-2.999774932861328, -0.03665098175406456, -0.00365056237205863, 125.06290435791016],
    [-0.03573319688439369, 2.855919361114502, 1.220739722251892, -116.71772766113281],
    [0.008600400760769844, -0.9178131818771362, 3.798668384552002, -32.77848815917969],
    [0.0, 0.0, 0.0, 1.0]
],
  "dcmmeta_reorient_transform": [
    [0.0, -1.0, 0.0, 79.0],
    [1.0, 0.0, 0.0, 0.0],
    [0.0, 0.0, 1.0, 0.0],
    [0.0, 0.0, 0.0, 1.0]
],
  "dcmmeta_shape": [80, 80, 30, 200],
  "dcmmeta_slice_dim": 2,
  "dcmmeta_version": 0.6,
  "global": {
    "const": {
      "AccessionNumber": "qa64",
      "AcquisitionMatrix": [80, 0, 0, 80],
      "AngioFlag": "N",
      "BitsAllocated": 16,
      "BitsStored": 12,
      "BodyPartExamined": "BRAIN",
      "Columns": 480,
      "EchoNumbers": 1,
      "EchoTime": 35.0,
      "EchoTrainLength": 39,
      "FlipAngle": 90.0,
      "HighBit": 11,
      "ImageOrientationPatient": [0.99992495116335, 0.01191106618826, 0.00286680017328, -0.0122169942277, 0.95197313352842, 0.30593773564587],
      "ImagePositionPatient": [-714.79224846772, -687.23042706826, -290.56845280151],
      "ImageType": [
        "ORIGINAL",
        "PRIMARY",
        "M",
        "ND",
        "NORM",
        "MOSAIC"
],
      "ImagedNucleus": "1H",
      "ImagingFrequency": 123.252372,
      "InPlanePhaseEncodingDirection": "COL",
      "MRAcquisitionType": "2D",
      "MagneticFieldStrength": 3.0,
      "Manufacturer": "SIEMENS",
      "ManufacturerModelName": "Prisma",
      "Modality": "MR",
      "NumberOfAverages": 1.0,
      "NumberOfPhaseEncodingSteps": 79,
      "PercentPhaseFieldOfView": 100.0,
      "PercentSampling": 100.0,
      "PerformedProcedureStepStartTime": "082815.038000",
      "PhotometricInterpretation": "MONOCHROME2",
      "PixelBandwidth": 2315.0,
      "PixelRepresentation": 0,
      "PixelSpacing": [3.0, 3.0],
      "ProtocolName": "func-bold_task-rest_acq-p2",
      "RepetitionTime": 2000.0,
      "Rows": 480,
      "SAR": 0.03596787552633,
      "SamplesPerPixel": 1,
      "ScanOptions": "FS",
      "ScanningSequence": "EP",
      "SequenceName": "*epfid2d1_80",
      "SequenceVariant": "SK",
      "SeriesDescription": "func-bold_task-rest_acq-p2",
      "SeriesNumber": 5,
      "SeriesTime": "083248.445000",
      "SliceLocation": -67.030856066676,
      "SliceThickness": 3.5,
      "SmallestImagePixelValue": 0,
      "SoftwareVersions": "syngo MR E11",
      "SpacingBetweenSlices": 3.9900000898167,
      "SpecificCharacterSet": "ISO_IR 100",
      "StudyID": "6",
      "StudyTime": "082814.975000",
      "TransmitCoilName": "Body",
      "VariableFlipAngleFlag": "N",
      "WindowCenterWidthExplanation": "Algo1"
    },
    "slices": {}
  },
  "time": {
    "samples": {
      "AcquisitionNumber": [1, 2, 3, 4, 5, 6, 7, 8, 9, 10, 11, 12, 13, 14, 15, 16, 17, 18, 19, 20, 21, 22, 23, 24, 25, 26, 27, 28, 29, 30, 31, 32, 33, 34, 35, 36, 37, 38, 39, 40, 41, 42, 43, 44, 45, 46, 47, 48, 49, 50, 51, 52, 53, 54, 55, 56, 57, 58, 59, 60, 61, 62, 63, 64, 65, 66, 67, 68, 69, 70, 71, 72, 73, 74, 75, 76, 77, 78, 79, 80, 81, 82, 83, 84, 85, 86, 87, 88, 89, 90, 91, 92, 93, 94, 95, 96, 97, 98, 99, 100, 101, 102, 103, 104, 105, 106, 107, 108, 109, 110, 111, 112, 113, 114, 115, 116, 117, 118, 119, 120, 121, 122, 123, 124, 125, 126, 127, 128, 129, 130, 131, 132, 133, 134, 135, 136, 137, 138, 139, 140, 141, 142, 143, 144, 145, 146, 147, 148, 149, 150, 151, 152, 153, 154, 155, 156, 157, 158, 159, 160, 161, 162, 163, 164, 165, 166, 167, 168, 169, 170, 171, 172, 173, 174, 175, 176, 177, 178, 179, 180, 181, 182, 183, 184, 185, 186, 187, 188, 189, 190, 191, 192, 193, 194, 195, 196, 197, 198, 199, 200],
      "AcquisitionTime": ["083156.737500", "083158.737500", "083200.737500", "083202.737500", "083204.737500", "083206.737500", "083208.737500", "083210.737500", "083212.737500", "083214.737500", "083216.737500", "083218.737500", "083220.737500", "083222.737500", "083224.737500", "083226.737500", "083228.737500", "083230.737500", "083232.737500", "083234.737500", "083236.737500", "083238.737500", "083240.737500", "083242.737500", "083244.737500", "083246.737500", "083248.737500", "083250.737500", "083252.737500", "083254.737500", "083256.737500", "083258.737500", "083300.737500", "083302.737500", "083304.737500", "083306.737500", "083308.737500", "083310.737500", "083312.737500", "083314.737500", "083316.737500", "083318.737500", "083320.737500", "083322.737500", "083324.737500", "083326.737500", "083328.737500", "083330.737500", "083332.737500", "083334.737500", "083336.737500", "083338.737500", "083340.737500", "083342.737500", "083344.737500", "083346.737500", "083348.737500", "083350.737500", "083352.737500", "083354.737500", "083356.737500", "083358.737500", "083400.737500", "083402.737500", "083404.737500", "083406.737500", "083408.737500", "083410.737500", "083412.737500", "083414.737500", "083416.737500", "083418.737500", "083420.737500", "083422.737500", "083424.737500", "083426.737500", "083428.737500", "083430.737500", "083432.737500", "083434.737500", "083436.737500", "083438.737500", "083440.737500", "083442.737500", "083444.737500", "083446.737500", "083448.737500", "083450.737500", "083452.737500", "083454.737500", "083456.737500", "083458.737500", "083500.737500", "083502.737500", "083504.737500", "083506.737500", "083508.737500", "083510.737500", "083512.737500", "083514.737500", "083516.737500", "083518.737500", "083520.737500", "083522.737500", "083524.737500", "083526.737500", "083528.737500", "083530.737500", "083532.737500", "083534.737500", "083536.737500", "083538.737500", "083540.737500", "083542.737500", "083544.737500", "083546.737500", "083548.737500", "083550.737500", "083552.737500", "083554.737500", "083556.737500", "083558.737500", "083600.737500", "083602.737500", "083604.737500", "083606.737500", "083608.737500", "083610.737500", "083612.737500", "083614.737500", "083616.737500", "083618.737500", "083620.737500", "083622.737500", "083624.737500", "083626.737500", "083628.737500", "083630.737500", "083632.737500", "083634.737500", "083636.737500", "083638.737500", "083640.737500", "083642.737500", "083644.737500", "083646.737500", "083648.737500", "083650.737500", "083652.737500", "083654.737500", "083656.737500", "083658.737500", "083700.737500", "083702.737500", "083704.737500", "083706.737500", "083708.737500", "083710.737500", "083712.737500", "083714.737500", "083716.737500", "083718.737500", "083720.737500", "083722.737500", "083724.737500", "083726.737500", "083728.737500", "083730.737500", "083732.737500", "083734.737500", "083736.737500", "083738.737500", "083740.737500", "083742.737500", "083744.737500", "083746.737500", "083748.737500", "083750.737500", "083752.737500", "083754.737500", "083756.737500", "083758.737500", "083800.737500", "083802.737500", "083804.737500", "083806.737500", "083808.737500", "083810.737500", "083812.737500", "083814.737500", "083816.737500", "083818.737500", "083820.737500", "083822.737500", "083824.737500", "083826.737500", "083828.737500", "083830.737500", "083832.737500", "083834.737500"],
      "ContentTime": ["083248.449000", "083248.452000", "083248.455000", "083248.457000", "083248.460000", "083248.462000", "083248.464000", "083248.467000", "083248.469000", "083248.471000", "083248.474000", "083248.476000", "083248.479000", "083248.487000", "083248.489000", "083248.492000", "083248.494000", "083248.496000", "083248.499000", "083248.501000", "083248.504000", "083248.506000", "083248.508000", "083248.511000", "083248.513000", "083248.515000", "083308.444000", "083308.447000", "083308.449000", "083308.452000", "083308.454000", "083308.456000", "083308.459000", "083308.461000", "083308.464000", "083308.466000", "083348.445000", "083348.447000", "083348.450000", "083348.452000", "083348.455000", "083348.457000", "083348.459000", "083348.462000", "083348.464000", "083348.466000", "083348.469000", "083348.471000", "083348.474000", "083348.476000", "083348.478000", "083348.481000", "083348.483000", "083348.485000", "083348.488000", "083348.490000", "083428.444000", "083428.447000", "083428.449000", "083428.451000", "083428.454000", "083428.456000", "083428.459000", "083428.461000", "083428.463000", "083428.466000", "083428.468000", "083428.470000", "083428.473000", "083428.475000", "083428.478000", "083428.480000", "083428.482000", "083428.485000", "083428.487000", "083428.490000", "083508.444000", "083508.447000", "083508.449000", "083508.452000", "083508.454000", "083508.456000", "083508.459000", "083508.461000", "083508.464000", "083508.466000", "083508.468000", "083508.471000", "083508.473000", "083508.475000", "083508.486000", "083508.489000", "083508.491000", "083508.493000", "083508.496000", "083508.498000", "083548.445000", "083548.448000", "083548.450000", "083548.453000", "083548.455000", "083548.458000", "083548.460000", "083548.462000", "083548.465000", "083548.467000", "083548.470000", "083548.472000", "083548.474000", "083548.477000", "083548.479000", "083548.481000", "083548.484000", "083548.486000", "083548.489000", "083548.491000", "083628.445000", "083628.448000", "083628.450000", "083628.453000", "083628.455000", "083628.458000", "083628.460000", "083628.462000", "083628.465000", "083628.467000", "083628.470000", "083628.472000", "083628.475000", "083628.477000", "083628.479000", "083628.482000", "083628.484000", "083628.486000", "083628.489000", "083628.491000", "083708.444000", "083708.447000", "083708.449000", "083708.451000", "083708.454000", "083708.456000", "083708.459000", "083708.461000", "083708.463000", "083708.466000", "083708.468000", "083708.471000", "083708.473000", "083708.475000", "083708.478000", "083708.480000", "083708.482000", "083708.485000", "083708.487000", "083708.490000", "083748.444000", "083748.447000", "083748.449000", "083748.452000", "083748.454000", "083748.457000", "083748.470000", "083748.472000", "083748.474000", "083748.477000", "083748.479000", "083748.482000", "083748.484000", "083748.486000", "083748.489000", "083748.491000", "083748.494000", "083748.496000", "083748.499000", "083748.501000", "083828.445000", "083828.448000", "083828.450000", "083828.453000", "083828.455000", "083828.457000", "083828.460000", "083828.462000", "083828.464000", "083828.467000", "083828.469000", "083828.472000", "083828.474000", "083828.476000", "083828.479000", "083828.481000", "083828.483000", "083828.486000", "083828.488000", "083828.491000", "083836.415000", "083836.419000", "083836.422000", "083836.425000"],
      "InstanceCreationTime": ["083248.449000", "083248.452000", "083248.455000", "083248.457000", "083248.460000", "083248.462000", "083248.464000", "083248.467000", "083248.469000", "083248.471000", "083248.474000", "083248.476000", "083248.479000", "083248.487000", "083248.489000", "083248.492000", "083248.494000", "083248.496000", "083248.499000", "083248.501000", "083248.504000", "083248.506000", "083248.508000", "083248.511000", "083248.513000", "083248.515000", "083308.444000", "083308.447000", "083308.449000", "083308.452000", "083308.454000", "083308.456000", "083308.459000", "083308.461000", "083308.464000", "083308.466000", "083348.445000", "083348.447000", "083348.450000", "083348.452000", "083348.455000", "083348.457000", "083348.459000", "083348.462000", "083348.464000", "083348.466000", "083348.469000", "083348.471000", "083348.474000", "083348.476000", "083348.478000", "083348.481000", "083348.483000", "083348.485000", "083348.488000", "083348.490000", "083428.444000", "083428.447000", "083428.449000", "083428.451000", "083428.454000", "083428.456000", "083428.459000", "083428.461000", "083428.463000", "083428.466000", "083428.468000", "083428.470000", "083428.473000", "083428.475000", "083428.478000", "083428.480000", "083428.482000", "083428.485000", "083428.487000", "083428.490000", "083508.444000", "083508.447000", "083508.449000", "083508.452000", "083508.454000", "083508.456000", "083508.459000", "083508.461000", "083508.464000", "083508.466000", "083508.468000", "083508.471000", "083508.473000", "083508.475000", "083508.486000", "083508.489000", "083508.491000", "083508.493000", "083508.496000", "083508.498000", "083548.445000", "083548.448000", "083548.450000", "083548.453000", "083548.455000", "083548.458000", "083548.460000", "083548.462000", "083548.465000", "083548.467000", "083548.470000", "083548.472000", "083548.474000", "083548.477000", "083548.479000", "083548.481000", "083548.484000", "083548.486000", "083548.489000", "083548.491000", "083628.445000", "083628.448000", "083628.450000", "083628.453000", "083628.455000", "083628.458000", "083628.460000", "083628.462000", "083628.465000", "083628.467000", "083628.470000", "083628.472000", "083628.475000", "083628.477000", "083628.479000", "083628.482000", "083628.484000", "083628.486000", "083628.489000", "083628.491000", "083708.444000", "083708.447000", "083708.449000", "083708.451000", "083708.454000", "083708.456000", "083708.459000", "083708.461000", "083708.463000", "083708.466000", "083708.468000", "083708.471000", "083708.473000", "083708.475000", "083708.478000", "083708.480000", "083708.482000", "083708.485000", "083708.487000", "083708.490000", "083748.444000", "083748.447000", "083748.449000", "083748.452000", "083748.454000", "083748.457000", "083748.470000", "083748.472000", "083748.474000", "083748.477000", "083748.479000", "083748.482000", "083748.484000", "083748.486000", "083748.489000", "083748.491000", "083748.494000", "083748.496000", "083748.499000", "083748.501000", "083828.445000", "083828.448000", "083828.450000", "083828.453000", "083828.455000", "083828.457000", "083828.460000", "083828.462000", "083828.464000", "083828.467000", "083828.469000", "083828.472000", "083828.474000", "083828.476000", "083828.479000", "083828.481000", "083828.483000", "083828.486000", "083828.488000", "083828.491000", "083836.415000", "083836.419000", "083836.422000", "083836.425000"],
      "InstanceNumber": [1, 2, 3, 4, 5, 6, 7, 8, 9, 10, 11, 12, 13, 14, 15, 16, 17, 18, 19, 20, 21, 22, 23, 24, 25, 26, 27, 28, 29, 30, 31, 32, 33, 34, 35, 36, 37, 38, 39, 40, 41, 42, 43, 44, 45, 46, 47, 48, 49, 50, 51, 52, 53, 54, 55, 56, 57, 58, 59, 60, 61, 62, 63, 64, 65, 66, 67, 68, 69, 70, 71, 72, 73, 74, 75, 76, 77, 78, 79, 80, 81, 82, 83, 84, 85, 86, 87, 88, 89, 90, 91, 92, 93, 94, 95, 96, 97, 98, 99, 100, 101, 102, 103, 104, 105, 106, 107, 108, 109, 110, 111, 112, 113, 114, 115, 116, 117, 118, 119, 120, 121, 122, 123, 124, 125, 126, 127, 128, 129, 130, 131, 132, 133, 134, 135, 136, 137, 138, 139, 140, 141, 142, 143, 144, 145, 146, 147, 148, 149, 150, 151, 152, 153, 154, 155, 156, 157, 158, 159, 160, 161, 162, 163, 164, 165, 166, 167, 168, 169, 170, 171, 172, 173, 174, 175, 176, 177, 178, 179, 180, 181, 182, 183, 184, 185, 186, 187, 188, 189, 190, 191, 192, 193, 194, 195, 196, 197, 198, 199, 200],
      "LargestImagePixelValue": [3946, 3951, 3969, 3935, 3950, 3946, 3943, 3948, 3955, 3955, 3952, 3939, 3943, 3947, 3950, 3946, 3954, 3953, 3935, 3944, 3943, 3955, 3941, 3941, 3952, 3971, 3952, 3942, 3952, 3949, 3954, 3956, 3941, 3949, 3945, 3942, 3947, 3945, 3937, 3935, 3928, 3948, 3952, 3942, 3926, 3941, 3936, 3941, 3948, 3941, 3938, 3953, 3927, 3926, 3937, 3939, 3945, 3928, 3933, 3946, 3946, 3932, 3937, 3952, 3942, 3940, 3940, 3939, 3932, 3948, 3941, 3928, 3939, 3940, 3945, 3942, 3926, 3930, 3950, 3939, 3941, 3946, 3940, 3934, 3937, 3942, 3945, 3941, 3943, 3949, 3935, 3944, 3951, 3946, 3932, 3950, 3954, 3958, 3941, 3936, 3944, 3936, 3932, 3932, 3940, 3953, 3936, 3955, 3953, 3953, 3973, 3956, 3946, 3972, 3926, 3940, 3944, 3926, 3929, 3941, 3963, 3958, 3962, 3952, 3960, 3950, 3956, 3921, 3927, 3953, 3948, 3957, 3951, 3976, 3971, 3987, 3975, 3977, 3969, 3968, 3948, 3910, 3940, 3937, 3925, 3946, 3953, 3959, 3963, 3972, 3987, 3980, 3969, 3970, 3964, 3973, 3938, 3928, 3951, 3921, 3946, 3947, 3955, 3962, 3970, 3978, 3972, 3978, 3972, 3970, 3956, 3974, 3968, 3935, 3968, 3957, 3938, 3955, 3958, 3971, 3965, 3969, 3951, 3961, 3956, 3977, 3960, 3969, 3982, 3982, 3984, 3961, 3974, 3961, 3954, 3939, 3940, 3963, 3969, 3981],
      "WindowCenter": [1440.0, 1439.0, 1440.0, 1440.0, 1440.0, 1440.0, 1440.0, 1439.0, 1439.0, 1440.0, 1439.0, 1439.0, 1440.0, 1440.0, 1440.0, 1439.0, 1439.0, 1440.0, 1439.0, 1439.0, 1440.0, 1439.0, 1440.0, 1439.0, 1440.0, 1439.0, 1440.0, 1439.0, 1440.0, 1439.0, 1439.0, 1439.0, 1439.0, 1439.0, 1440.0, 1439.0, 1440.0, 1439.0, 1439.0, 1439.0, 1439.0, 1439.0, 1439.0, 1439.0, 1439.0, 1439.0, 1439.0, 1439.0, 1439.0, 1439.0, 1439.0, 1439.0, 1439.0, 1439.0, 1439.0, 1438.0, 1438.0, 1439.0, 1438.0, 1438.0, 1439.0, 1439.0, 1439.0, 1439.0, 1438.0, 1439.0, 1439.0, 1438.0, 1438.0, 1438.0, 1438.0, 1438.0, 1438.0, 1438.0, 1438.0, 1438.0, 1438.0, 1438.0, 1438.0, 1438.0, 1439.0, 1438.0, 1438.0, 1438.0, 1438.0, 1438.0, 1437.0, 1438.0, 1438.0, 1438.0, 1438.0, 1438.0, 1438.0, 1438.0, 1438.0, 1437.0, 1437.0, 1437.0, 1438.0, 1437.0, 1438.0, 1437.0, 1437.0, 1437.0, 1438.0, 1438.0, 1437.0, 1436.0, 1436.0, 1437.0, 1436.0, 1436.0, 1436.0, 1436.0, 1437.0, 1437.0, 1436.0, 1437.0, 1437.0, 1436.0, 1437.0, 1436.0, 1436.0, 1436.0, 1436.0, 1436.0, 1437.0, 1436.0, 1436.0, 1436.0, 1437.0, 1437.0, 1437.0, 1436.0, 1436.0, 1436.0, 1435.0, 1436.0, 1436.0, 1436.0, 1436.0, 1436.0, 1436.0, 1435.0, 1436.0, 1435.0, 1436.0, 1436.0, 1436.0, 1435.0, 1435.0, 1436.0, 1436.0, 1436.0, 1435.0, 1435.0, 1435.0, 1435.0, 1436.0, 1436.0, 1435.0, 1435.0, 1436.0, 1435.0, 1435.0, 1436.0, 1435.0, 1435.0, 1435.0, 1435.0, 1435.0, 1435.0, 1435.0, 1435.0, 1435.0, 1435.0, 1434.0, 1435.0, 1434.0, 1435.0, 1435.0, 1435.0, 1435.0, 1434.0, 1434.0, 1434.0, 1435.0, 1434.0, 1434.0, 1434.0, 1435.0, 1434.0, 1435.0, 1435.0, 1434.0, 1434.0, 1433.0, 1434.0, 1434.0, 1434.0],
      "WindowWidth": [3296.0, 3295.0, 3294.0, 3294.0, 3294.0, 3294.0, 3294.0, 3294.0, 3294.0, 3294.0, 3294.0, 3294.0, 3293.0, 3294.0, 3293.0, 3293.0, 3294.0, 3293.0, 3294.0, 3294.0, 3293.0, 3293.0, 3293.0, 3293.0, 3293.0, 3294.0, 3294.0, 3294.0, 3293.0, 3293.0, 3293.0, 3293.0, 3293.0, 3293.0, 3294.0, 3294.0, 3294.0, 3294.0, 3293.0, 3294.0, 3293.0, 3293.0, 3293.0, 3294.0, 3294.0, 3294.0, 3294.0, 3294.0, 3294.0, 3294.0, 3294.0, 3294.0, 3294.0, 3294.0, 3294.0, 3294.0, 3294.0, 3294.0, 3294.0, 3294.0, 3294.0, 3294.0, 3294.0, 3294.0, 3294.0, 3294.0, 3294.0, 3294.0, 3294.0, 3295.0, 3294.0, 3294.0, 3294.0, 3294.0, 3294.0, 3294.0, 3294.0, 3294.0, 3294.0, 3294.0, 3294.0, 3294.0, 3294.0, 3294.0, 3294.0, 3294.0, 3294.0, 3294.0, 3294.0, 3294.0, 3294.0, 3294.0, 3294.0, 3294.0, 3294.0, 3294.0, 3294.0, 3294.0, 3294.0, 3294.0, 3294.0, 3294.0, 3294.0, 3294.0, 3294.0, 3294.0, 3294.0, 3294.0, 3294.0, 3294.0, 3294.0, 3294.0, 3294.0, 3294.0, 3294.0, 3294.0, 3294.0, 3294.0, 3293.0, 3294.0, 3293.0, 3294.0, 3294.0, 3294.0, 3294.0, 3294.0, 3293.0, 3294.0, 3294.0, 3294.0, 3293.0, 3293.0, 3293.0, 3294.0, 3294.0, 3294.0, 3294.0, 3294.0, 3294.0, 3294.0, 3294.0, 3294.0, 3293.0, 3294.0, 3294.0, 3294.0, 3294.0, 3294.0, 3294.0, 3294.0, 3294.0, 3294.0, 3294.0, 3294.0, 3294.0, 3294.0, 3294.0, 3294.0, 3294.0, 3294.0, 3294.0, 3294.0, 3294.0, 3294.0, 3294.0, 3294.0, 3294.0, 3294.0, 3294.0, 3294.0, 3294.0, 3294.0, 3294.0, 3294.0, 3294.0, 3294.0, 3295.0, 3294.0, 3294.0, 3294.0, 3294.0, 3294.0, 3294.0, 3295.0, 3294.0, 3294.0, 3294.0, 3294.0, 3294.0, 3294.0, 3294.0, 3294.0, 3294.0, 3294.0, 3294.0, 3294.0, 3294.0, 3294.0, 3294.0, 3294.0]
    },
    "slices": {}
  }
}