{
  "AcquisitionMatrixPE": 80,
  "AcquisitionNumber": 1,
  "AcquisitionTime": "08:38:44.477500",
  "BandwidthPerPixelPhaseEncode": 25,
  "BaseResolution": 80,
  "BodyPartExamined": "BRAIN",
  "CoilCombinationMethod": "Sum of Squares",
  "ConsistencyInfo": "N4_VE11E_LATEST_20181129",
  "ConversionSoftware": "dcm2niix",
  "ConversionSoftwareVersion": "v1.0.20220720",
  "DerivedVendorReportedEchoSpacing": 0.0005,
  "DeviceSerialNumber": "66112",
  "DwellTime": 2.7e-06,
  "EchoTime": 0.03,
  "EchoTrainLength": 80,
  "EffectiveEchoSpacing": 0.0005,
  "FlipAngle": 77,
  "HeudiconvVersion": "0.13.1",
  "ImageOrientationPatientDICOM": [0.999923, 0.0120773, 0.0029202, -0.0123916, 0.951971, 0.305937],
  "ImageOrientationText": "Tra>Cor(17.8)>Sag(-0.1)",
  "ImageType": [
    "ORIGINAL",
    "PRIMARY",
    "M",
    "ND",
    "NORM",
    "MOSAIC"
],
  "ImagingFrequency": 123.252,
  "InPlanePhaseEncodingDirectionDICOM": "COL",
  "InstitutionAddress": "Maynard 3,Hanover,NH,US,03755",
  "InstitutionName": "Dartmouth College - PBS",
  "InstitutionalDepartmentName": "Department",
  "MRAcquisitionType": "2D",
  "MagneticFieldStrength": 3,
  "Manufacturer": "Siemens",
  "ManufacturersModelName": "Prisma",
  "MatrixCoilMode": "SENSE",
  "Modality": "MR",
  "NonlinearGradientCorrection": false,
  "PartialFourier": 1,
  "PatientPosition": "HFS",
  "PercentPhaseFOV": 100,
  "PercentSampling": 100,
  "PhaseEncodingDirection": "j-",
  "PhaseEncodingSteps": 80,
  "PhaseResolution": 1,
  "PixelBandwidth": 2315,
  "ProcedureStepDescription": "dbic^QA",
  "ProtocolName": "func-bold_fa-77",
  "PulseSequenceDetails": "%SiemensSeq%\\ep2d_bold",
  "ReceiveCoilActiveElements": "HC1-7;NC1,2",
  "ReceiveCoilName": "HeadNeck_64",
  "ReconMatrixPE": 80,
  "RepetitionTime": 2,
  "SAR": 0.0282654,
  "ScanOptions": "FS",
  "ScanningSequence": "EP",
  "SequenceName": "*epfid2d1_80",
  "SequenceVariant": "SK",
  "SeriesDescription": "func-bold_fa-77",
  "SeriesNumber": 7,
  "ShimSetting": [4140, -7695, -7506, 257, -73, -357, -8, 96],
  "SliceThickness": 3.5,
  "SliceTiming": [0.99, 0, 1.055, 0.0675, 1.1225, 0.1325, 1.1875, 0.1975, 1.255, 0.265, 1.32, 0.33, 1.385, 0.3975, 1.4525, 0.4625, 1.5175, 0.5275, 1.585, 0.595, 1.65, 0.66, 1.715, 0.7275, 1.7825, 0.7925, 1.8475, 0.8575, 1.915, 0.925],
  "SoftwareVersions": "syngo MR E11",
  "SpacingBetweenSlices": 3.99,
  "StationName": "AWP66112",
  "TotalReadoutTime": 0.0395,
  "TxRefAmp": 215.078,
  "dcmmeta_affine": [
    [-2.9997684955596924, -0.037174664437770844, -0.0036505816970020533, 123.1384506225586],
    [-0.03623177111148834, 2.8559131622314453, 1.2207398414611816, -114.50092315673828],
    [0.008760613389313221, -0.9178117513656616, 3.798668384552002, -32.15016555786133],
    [0.0, 0.0, 0.0, 1.0]
],
  "dcmmeta_reorient_transform": [
    [0.0, -1.0, 0.0, 79.0],
    [1.0, 0.0, 0.0, 0.0],
    [0.0, 0.0, 1.0, 0.0],
    [0.0, 0.0, 0.0, 1.0]
],
  "dcmmeta_shape": [80, 80, 30, 200],
  "dcmmeta_slice_dim": 2,
  "dcmmeta_version": 0.6,
  "global": {
    "const": {
      "AccessionNumber": "qa64",
      "AcquisitionMatrix": [80, 0, 0, 80],
      "AngioFlag": "N",
      "BitsAllocated": 16,
      "BitsStored": 12,
      "BodyPartExamined": "BRAIN",
      "Columns": 480,
      "EchoNumbers": 1,
      "EchoTime": 30.0,
      "EchoTrainLength": 80,
      "FlipAngle": 77.0,
      "HighBit": 11,
      "ImageOrientationPatient": [0.99992280315671, 0.01207725685052, 0.00292020447823, -0.0123915545923, 0.9519710304749, 0.30593725910936],
      "ImagePositionPatient": [-712.72040343395, -689.54518107413, -289.9717722816],
      "ImageType": [
        "ORIGINAL",
        "PRIMARY",
        "M",
        "ND",
        "NORM",
        "MOSAIC"
],
      "ImagedNucleus": "1H",
      "ImagingFrequency": 123.252369,
      "InPlanePhaseEncodingDirection": "COL",
      "MRAcquisitionType": "2D",
      "MagneticFieldStrength": 3.0,
      "Manufacturer": "SIEMENS",
      "ManufacturerModelName": "Prisma",
      "Modality": "MR",
      "NumberOfAverages": 1.0,
      "NumberOfPhaseEncodingSteps": 80,
      "PercentPhaseFieldOfView": 100.0,
      "PercentSampling": 100.0,
      "PerformedProcedureStepStartTime": "082815.038000",
      "PhotometricInterpretation": "MONOCHROME2",
      "PixelBandwidth": 2315.0,
      "PixelRepresentation": 0,
      "PixelSpacing": [3.0, 3.0],
      "ProtocolName": "func-bold_fa-77",
      "RepetitionTime": 2000.0,
      "Rows": 480,
      "SAR": 0.02826535114768,
      "SamplesPerPixel": 1,
      "ScanOptions": "FS",
      "ScanningSequence": "EP",
      "SequenceName": "*epfid2d1_80",
      "SequenceVariant": "SK",
      "SeriesDescription": "func-bold_fa-77",
      "SeriesNumber": 7,
      "SeriesTime": "083928.538000",
      "SliceLocation": -65.752675100186,
      "SliceThickness": 3.5,
      "SmallestImagePixelValue": 0,
      "SoftwareVersions": "syngo MR E11",
      "SpacingBetweenSlices": 3.9899999696175,
      "SpecificCharacterSet": "ISO_IR 100",
      "StudyID": "6",
      "StudyTime": "082814.975000",
      "TransmitCoilName": "Body",
      "VariableFlipAngleFlag": "N",
      "WindowCenterWidthExplanation": "Algo1"
    },
    "slices": {}
  },
  "time": {
    "samples": {
      "AcquisitionNumber": [1, 2, 3, 4, 5, 6, 7, 8, 9, 10, 11, 12, 13, 14, 15, 16, 17, 18, 19, 20, 21, 22, 23, 24, 25, 26, 27, 28, 29, 30, 31, 32, 33, 34, 35, 36, 37, 38, 39, 40, 41, 42, 43, 44, 45, 46, 47, 48, 49, 50, 51, 52, 53, 54, 55, 56, 57, 58, 59, 60, 61, 62, 63, 64, 65, 66, 67, 68, 69, 70, 71, 72, 73, 74, 75, 76, 77, 78, 79, 80, 81, 82, 83, 84, 85, 86, 87, 88, 89, 90, 91, 92, 93, 94, 95, 96, 97, 98, 99, 100, 101, 102, 103, 104, 105, 106, 107, 108, 109, 110, 111, 112, 113, 114, 115, 116, 117, 118, 119, 120, 121, 122, 123, 124, 125, 126, 127, 128, 129, 130, 131, 132, 133, 134, 135, 136, 137, 138, 139, 140, 141, 142, 143, 144, 145, 146, 147, 148, 149, 150, 151, 152, 153, 154, 155, 156, 157, 158, 159, 160, 161, 162, 163, 164, 165, 166, 167, 168, 169, 170, 171, 172, 173, 174, 175, 176, 177, 178, 179, 180, 181, 182, 183, 184, 185, 186, 187, 188, 189, 190, 191, 192, 193, 194, 195, 196, 197, 198, 199, 200],
      "AcquisitionTime": ["083844.477500", "083846.477500", "083848.477500", "083850.477500", "083852.477500", "083854.477500", "083856.477500", "083858.477500", "083900.477500", "083902.477500", "083904.477500", "083906.477500", "083908.477500", "083910.477500", "083912.477500", "083914.477500", "083916.477500", "083918.477500", "083920.477500", "083922.477500", "083924.477500", "083926.477500", "083928.477500", "083930.477500", "083932.477500", "083934.477500", "083936.477500", "083938.477500", "083940.477500", "083942.477500", "083944.477500", "083946.477500", "083948.477500", "083950.477500", "083952.477500", "083954.477500", "083956.477500", "083958.477500", "084000.477500", "084002.477500", "084004.477500", "084006.477500", "084008.477500", "084010.477500", "084012.477500", "084014.477500", "084016.477500", "084018.477500", "084020.477500", "084022.477500", "084024.477500", "084026.477500", "084028.477500", "084030.477500", "084032.477500", "084034.477500", "084036.477500", "084038.477500", "084040.477500", "084042.477500", "084044.477500", "084046.477500", "084048.477500", "084050.477500", "084052.477500", "084054.477500", "084056.477500", "084058.477500", "084100.477500", "084102.477500", "084104.477500", "084106.477500", "084108.477500", "084110.477500", "084112.477500", "084114.477500", "084116.477500", "084118.477500", "084120.477500", "084122.477500", "084124.477500", "084126.477500", "084128.477500", "084130.477500", "084132.477500", "084134.477500", "084136.477500", "084138.477500", "084140.477500", "084142.477500", "084144.477500", "084146.477500", "084148.477500", "084150.477500", "084152.477500", "084154.477500", "084156.477500", "084158.477500", "084200.477500", "084202.477500", "084204.477500", "084206.477500", "084208.477500", "084210.477500", "084212.477500", "084214.477500", "084216.477500", "084218.477500", "084220.477500", "084222.477500", "084224.477500", "084226.477500", "084228.477500", "084230.477500", "084232.477500", "084234.477500", "084236.477500", "084238.477500", "084240.477500", "084242.477500", "084244.477500", "084246.477500", "084248.477500", "084250.477500", "084252.477500", "084254.477500", "084256.477500", "084258.477500", "084300.477500", "084302.477500", "084304.477500", "084306.477500", "084308.477500", "084310.477500", "084312.477500", "084314.477500", "084316.477500", "084318.477500", "084320.477500", "084322.477500", "084324.477500", "084326.477500", "084328.477500", "084330.477500", "084332.477500", "084334.477500", "084336.477500", "084338.477500", "084340.477500", "084342.477500", "084344.477500", "084346.477500", "084348.477500", "084350.477500", "084352.477500", "084354.477500", "084356.477500", "084358.477500", "084400.477500", "084402.477500", "084404.477500", "084406.477500", "084408.477500", "084410.477500", "084412.477500", "084414.477500", "084416.477500", "084418.477500", "084420.477500", "084422.477500", "084424.477500", "084426.477500", "084428.477500", "084430.477500", "084432.477500", "084434.477500", "084436.477500", "084438.477500", "084440.477500", "084442.477500", "084444.477500", "084446.477500", "084448.477500", "084450.477500", "084452.477500", "084454.477500", "084456.477500", "084458.477500", "084500.477500", "084502.477500", "084504.477500", "084506.477500", "084508.477500", "084510.477500", "084512.477500", "084514.477500", "084516.477500", "084518.477500", "084520.477500", "084522.477500"],
      "ContentTime": ["083928.542000", "083928.545000", "083928.548000", "083928.550000", "083928.552000", "083928.555000", "083928.557000", "083928.559000", "083928.562000", "083928.564000", "083928.567000", "083928.569000", "083928.571000", "083928.574000", "083928.576000", "083928.578000", "083928.581000", "083928.583000", "083928.585000", "083928.588000", "083928.590000", "083928.593000", "084008.537000", "084008.540000", "084008.542000", "084008.544000", "084008.547000", "084008.549000", "084008.551000", "084008.554000", "084008.556000", "084008.559000", "084008.561000", "084008.563000", "084008.566000", "084008.568000", "084008.570000", "084008.573000", "084008.575000", "084008.577000", "084008.580000", "084008.582000", "084048.538000", "084048.541000", "084048.543000", "084048.546000", "084048.548000", "084048.550000", "084048.553000", "084048.555000", "084048.558000", "084048.560000", "084048.562000", "084048.565000", "084048.567000", "084048.570000", "084048.572000", "084048.574000", "084048.577000", "084048.579000", "084048.581000", "084048.584000", "084128.537000", "084128.540000", "084128.542000", "084128.545000", "084128.547000", "084128.549000", "084128.552000", "084128.554000", "084128.556000", "084128.559000", "084128.561000", "084128.563000", "084128.566000", "084128.568000", "084128.570000", "084128.573000", "084128.575000", "084128.577000", "084128.580000", "084128.582000", "084208.537000", "084208.540000", "084208.542000", "084208.545000", "084208.547000", "084208.549000", "084208.552000", "084208.554000", "084208.556000", "084208.559000", "084208.561000", "084208.563000", "084208.566000", "084208.568000", "084208.570000", "084208.573000", "084208.575000", "084208.577000", "084208.580000", "084208.582000", "084248.538000", "084248.541000", "084248.543000", "084248.545000", "084248.548000", "084248.550000", "084248.552000", "084248.555000", "084248.557000", "084248.560000", "084248.562000", "084248.564000", "084248.567000", "084248.569000", "084248.572000", "084248.574000", "084248.576000", "084248.579000", "084248.581000", "084248.583000", "084308.538000", "084308.541000", "084308.543000", "084308.546000", "084308.548000", "084308.550000", "084308.552000", "084308.555000", "084308.557000", "084308.560000", "084348.538000", "084348.540000", "084348.542000", "084348.545000", "084348.547000", "084348.550000", "084348.552000", "084348.554000", "084348.557000", "084348.559000", "084348.561000", "084348.564000", "084348.566000", "084348.569000", "084348.571000", "084348.573000", "084348.576000", "084348.578000", "084348.581000", "084348.583000", "084428.537000", "084428.540000", "084428.542000", "084428.545000", "084428.547000", "084428.549000", "084428.552000", "084428.554000", "084428.556000", "084428.559000", "084428.561000", "084428.564000", "084428.566000", "084428.568000", "084428.571000", "084428.573000", "084428.575000", "084428.578000", "084428.580000", "084428.582000", "084508.538000", "084508.541000", "084508.543000", "084508.546000", "084508.548000", "084508.551000", "084508.553000", "084508.556000", "084508.558000", "084508.560000", "084508.563000", "084508.565000", "084508.568000", "084508.570000", "084508.572000", "084508.575000", "084508.577000", "084508.579000", "084508.582000", "084508.584000", "084524.270000", "084524.272000", "084524.274000", "084524.277000", "084524.280000", "084524.282000", "084524.284000", "084524.287000"],
      "InstanceCreationTime": ["083928.542000", "083928.545000", "083928.548000", "083928.550000", "083928.552000", "083928.555000", "083928.557000", "083928.559000", "083928.562000", "083928.564000", "083928.567000", "083928.569000", "083928.571000", "083928.574000", "083928.576000", "083928.578000", "083928.581000", "083928.583000", "083928.585000", "083928.588000", "083928.590000", "083928.593000", "084008.537000", "084008.540000", "084008.542000", "084008.544000", "084008.547000", "084008.549000", "084008.551000", "084008.554000", "084008.556000", "084008.559000", "084008.561000", "084008.563000", "084008.566000", "084008.568000", "084008.570000", "084008.573000", "084008.575000", "084008.577000", "084008.580000", "084008.582000", "084048.538000", "084048.541000", "084048.543000", "084048.546000", "084048.548000", "084048.550000", "084048.553000", "084048.555000", "084048.558000", "084048.560000", "084048.562000", "084048.565000", "084048.567000", "084048.570000", "084048.572000", "084048.574000", "084048.577000", "084048.579000", "084048.581000", "084048.584000", "084128.537000", "084128.540000", "084128.542000", "084128.545000", "084128.547000", "084128.549000", "084128.552000", "084128.554000", "084128.556000", "084128.559000", "084128.561000", "084128.563000", "084128.566000", "084128.568000", "084128.570000", "084128.573000", "084128.575000", "084128.577000", "084128.580000", "084128.582000", "084208.537000", "084208.540000", "084208.542000", "084208.545000", "084208.547000", "084208.549000", "084208.552000", "084208.554000", "084208.556000", "084208.559000", "084208.561000", "084208.563000", "084208.566000", "084208.568000", "084208.570000", "084208.573000", "084208.575000", "084208.577000", "084208.580000", "084208.582000", "084248.538000", "084248.541000", "084248.543000", "084248.545000", "084248.548000", "084248.550000", "084248.552000", "084248.555000", "084248.557000", "084248.560000", "084248.562000", "084248.564000", "084248.567000", "084248.569000", "084248.572000", "084248.574000", "084248.576000", "084248.579000", "084248.581000", "084248.583000", "084308.538000", "084308.541000", "084308.543000", "084308.546000", "084308.548000", "084308.550000", "084308.552000", "084308.555000", "084308.557000", "084308.560000", "084348.538000", "084348.540000", "084348.542000", "084348.545000", "084348.547000", "084348.550000", "084348.552000", "084348.554000", "084348.557000", "084348.559000", "084348.561000", "084348.564000", "084348.566000", "084348.569000", "084348.571000", "084348.573000", "084348.576000", "084348.578000", "084348.581000", "084348.583000", "084428.537000", "084428.540000", "084428.542000", "084428.545000", "084428.547000", "084428.549000", "084428.552000", "084428.554000", "084428.556000", "084428.559000", "084428.561000", "084428.564000", "084428.566000", "084428.568000", "084428.571000", "084428.573000", "084428.575000", "084428.578000", "084428.580000", "084428.582000", "084508.538000", "084508.541000", "084508.543000", "084508.546000", "084508.548000", "084508.551000", "084508.553000", "084508.556000", "084508.558000", "084508.560000", "084508.563000", "084508.565000", "084508.568000", "084508.570000", "084508.572000", "084508.575000", "084508.577000", "084508.579000", "084508.582000", "084508.584000", "084524.270000", "084524.272000", "084524.274000", "084524.277000", "084524.280000", "084524.282000", "084524.284000", "084524.287000"],
      "InstanceNumber": [1, 2, 3, 4, 5, 6, 7, 8, 9, 10, 11, 12, 13, 14, 15, 16, 17, 18, 19, 20, 21, 22, 23, 24, 25, 26, 27, 28, 29, 30, 31, 32, 33, 34, 35, 36, 37, 38, 39, 40, 41, 42, 43, 44, 45, 46, 47, 48, 49, 50, 51, 52, 53, 54, 55, 56, 57, 58, 59, 60, 61, 62, 63, 64, 65, 66, 67, 68, 69, 70, 71, 72, 73, 74, 75, 76, 77, 78, 79, 80, 81, 82, 83, 84, 85, 86, 87, 88, 89, 90, 91, 92, 93, 94, 95, 96, 97, 98, 99, 100, 101, 102, 103, 104, 105, 106, 107, 108, 109, 110, 111, 112, 113, 114, 115, 116, 117, 118, 119, 120, 121, 122, 123, 124, 125, 126, 127, 128, 129, 130, 131, 132, 133, 134, 135, 136, 137, 138, 139, 140, 141, 142, 143, 144, 145, 146, 147, 148, 149, 150, 151, 152, 153, 154, 155, 156, 157, 158, 159, 160, 161, 162, 163, 164, 165, 166, 167, 168, 169, 170, 171, 172, 173, 174, 175, 176, 177, 178, 179, 180, 181, 182, 183, 184, 185, 186, 187, 188, 189, 190, 191, 192, 193, 194, 195, 196, 197, 198, 199, 200],
      "LargestImagePixelValue": [4027, 4022, 4012, 4000, 3996, 3992, 3998, 4004, 4013, 4005, 3997, 3995, 3996, 4003, 4014, 4011, 4009, 4001, 3993, 3992, 4000, 4007, 4005, 3997, 3992, 3988, 3991, 4001, 4015, 4012, 3997, 3987, 3976, 3978, 3989, 3999, 4010, 3999, 3994, 3982, 3974, 3970, 3977, 3985, 3994, 3990, 3974, 3963, 3960, 3967, 3978, 3987, 3983, 3966, 3951, 3940, 3958, 3975, 3987, 3979, 3962, 3948, 3947, 3961, 3973, 3975, 3969, 3960, 3956, 3960, 3978, 3980, 3970, 3955, 3949, 3961, 3973, 3975, 3975, 3967, 3960, 3952, 3960, 3973, 3980, 3964, 3964, 3968, 3973, 3962, 3963, 3971, 3978, 3970, 3963, 3959, 3969, 3965, 3971, 3981, 3980, 3967, 3965, 3972, 3974, 3982, 3977, 3978, 3976, 3973, 3974, 3979, 3985, 3983, 3985, 3984, 3981, 3986, 3988, 3987, 3988, 3990, 3997, 3993, 3992, 3993, 3992, 3991, 4000, 4000, 3992, 4000, 4006, 3997, 3987, 3992, 3998, 4005, 4004, 4000, 3992, 3993, 3996, 3996, 4003, 4002, 4000, 3991, 3987, 3996, 3993, 3996, 3996, 4000, 3993, 3995, 3998, 3993, 3995, 3995, 3997, 4000, 3997, 3995, 3996, 4000, 3992, 3989, 3996, 3996, 3997, 3996, 3998, 4002, 3999, 3991, 3994, 4001, 4008, 4003, 3993, 3988, 3994, 4001, 4007, 3999, 3989, 3991, 3995, 3997, 3996, 3994, 3988, 3995, 4000, 3996, 3992, 3991, 3994, 3987],
      "WindowCenter": [1369.0, 1369.0, 1369.0, 1369.0, 1369.0, 1369.0, 1369.0, 1369.0, 1369.0, 1369.0, 1369.0, 1369.0, 1369.0, 1369.0, 1369.0, 1368.0, 1368.0, 1368.0, 1368.0, 1368.0, 1368.0, 1368.0, 1368.0, 1368.0, 1368.0, 1368.0, 1368.0, 1368.0, 1368.0, 1368.0, 1368.0, 1368.0, 1368.0, 1368.0, 1368.0, 1368.0, 1368.0, 1368.0, 1368.0, 1368.0, 1369.0, 1368.0, 1367.0, 1368.0, 1368.0, 1368.0, 1368.0, 1368.0, 1368.0, 1368.0, 1368.0, 1368.0, 1368.0, 1368.0, 1368.0, 1368.0, 1368.0, 1368.0, 1368.0, 1368.0, 1367.0, 1367.0, 1367.0, 1368.0, 1367.0, 1367.0, 1367.0, 1367.0, 1367.0, 1367.0, 1367.0, 1367.0, 1367.0, 1368.0, 1367.0, 1367.0, 1367.0, 1367.0, 1367.0, 1367.0, 1367.0, 1367.0, 1367.0, 1367.0, 1367.0, 1367.0, 1367.0, 1367.0, 1367.0, 1367.0, 1367.0, 1367.0, 1367.0, 1367.0, 1367.0, 1367.0, 1367.0, 1367.0, 1367.0, 1366.0, 1367.0, 1367.0, 1367.0, 1367.0, 1367.0, 1367.0, 1367.0, 1366.0, 1367.0, 1367.0, 1367.0, 1367.0, 1367.0, 1367.0, 1366.0, 1367.0, 1367.0, 1367.0, 1367.0, 1367.0, 1367.0, 1367.0, 1367.0, 1367.0, 1367.0, 1367.0, 1367.0, 1366.0, 1366.0, 1366.0, 1367.0, 1367.0, 1367.0, 1367.0, 1366.0, 1366.0, 1366.0, 1366.0, 1366.0, 1366.0, 1366.0, 1367.0, 1367.0, 1366.0, 1366.0, 1366.0, 1366.0, 1366.0, 1367.0, 1366.0, 1367.0, 1367.0, 1367.0, 1366.0, 1367.0, 1367.0, 1366.0, 1366.0, 1366.0, 1366.0, 1366.0, 1367.0, 1367.0, 1367.0, 1366.0, 1366.0, 1367.0, 1367.0, 1366.0, 1366.0, 1366.0, 1367.0, 1366.0, 1366.0, 1366.0, 1367.0, 1366.0, 1366.0, 1366.0, 1366.0, 1366.0, 1366.0, 1366.0, 1366.0, 1366.0, 1366.0, 1366.0, 1365.0, 1366.0, 1365.0, 1366.0, 1366.0, 1365.0, 1366.0, 1365.0, 1366.0, 1365.0, 1366.0, 1365.0, 1366.0],
      "WindowWidth": [3253.0, 3253.0, 3253.0, 3253.0, 3253.0, 3253.0, 3253.0, 3253.0, 3253.0, 3253.0, 3253.0, 3253.0, 3253.0, 3253.0, 3253.0, 3253.0, 3253.0, 3252.0, 3252.0, 3252.0, 3252.0, 3253.0, 3252.0, 3252.0, 3252.0, 3252.0, 3252.0, 3252.0, 3252.0, 3252.0, 3252.0, 3252.0, 3252.0, 3252.0, 3252.0, 3252.0, 3252.0, 3252.0, 3252.0, 3252.0, 3252.0, 3252.0, 3253.0, 3252.0, 3252.0, 3252.0, 3252.0, 3252.0, 3252.0, 3252.0, 3252.0, 3252.0, 3252.0, 3252.0, 3252.0, 3252.0, 3252.0, 3253.0, 3253.0, 3252.0, 3252.0, 3252.0, 3252.0, 3252.0, 3252.0, 3252.0, 3252.0, 3252.0, 3252.0, 3252.0, 3252.0, 3252.0, 3252.0, 3252.0, 3252.0, 3252.0, 3252.0, 3252.0, 3252.0, 3252.0, 3252.0, 3251.0, 3252.0, 3252.0, 3252.0, 3252.0, 3252.0, 3252.0, 3252.0, 3251.0, 3251.0, 3251.0, 3251.0, 3251.0, 3252.0, 3252.0, 3251.0, 3251.0, 3251.0, 3252.0, 3251.0, 3251.0, 3251.0, 3251.0, 3251.0, 3251.0, 3251.0, 3252.0, 3251.0, 3251.0, 3251.0, 3251.0, 3251.0, 3251.0, 3252.0, 3251.0, 3251.0, 3251.0, 3251.0, 3251.0, 3251.0, 3251.0, 3251.0, 3251.0, 3251.0, 3251.0, 3251.0, 3251.0, 3251.0, 3251.0, 3251.0, 3251.0, 3251.0, 3251.0, 3251.0, 3251.0, 3251.0, 3251.0, 3251.0, 3251.0, 3251.0, 3251.0, 3251.0, 3251.0, 3251.0, 3251.0, 3251.0, 3251.0, 3251.0, 3251.0, 3251.0, 3251.0, 3251.0, 3251.0, 3251.0, 3251.0, 3251.0, 3251.0, 3251.0, 3251.0, 3251.0, 3251.0, 3251.0, 3251.0, 3251.0, 3251.0, 3251.0, 3251.0, 3251.0, 3251.0, 3251.0, 3251.0, 3251.0, 3251.0, 3251.0, 3251.0, 3251.0, 3251.0, 3251.0, 3251.0, 3250.0, 3250.0, 3251.0, 3250.0, 3251.0, 3250.0, 3251.0, 3251.0, 3251.0, 3251.0, 3251.0, 3251.0, 3251.0, 3251.0, 3251.0, 3251.0, 3251.0, 3250.0, 3251.0, 3250.0]
    },
    "slices": {}
  }
}