{
  "AcquisitionMatrixPE": 80,
  "AcquisitionNumber": 1,
  "AcquisitionTime": "08:45:31.517500",
  "BandwidthPerPixelPhaseEncode": 25,
  "BaseResolution": 80,
  "BodyPartExamined": "BRAIN",
  "CoilCombinationMethod": "Sum of Squares",
  "ConsistencyInfo": "N4_VE11E_LATEST_20181129",
  "ConversionSoftware": "dcm2niix",
  "ConversionSoftwareVersion": "v1.0.20220720",
  "DerivedVendorReportedEchoSpacing": 0.0005,
  "DeviceSerialNumber": "66112",
  "DwellTime": 2.7e-06,
  "EchoTime": 0.03,
  "EchoTrainLength": 80,
  "EffectiveEchoSpacing": 0.0005,
  "FlipAngle": 10,
  "HeudiconvVersion": "0.13.1",
  "ImageOrientationPatientDICOM": [0.999923, 0.0120773, 0.0029202, -0.0123916, 0.951971, 0.305937],
  "ImageOrientationText": "Tra>Cor(17.8)>Sag(-0.1)",
  "ImageType": [
    "ORIGINAL",
    "PRIMARY",
    "M",
    "ND",
    "NORM",
    "MOSAIC"
],
  "ImagingFrequency": 123.252,
  "InPlanePhaseEncodingDirectionDICOM": "COL",
  "InstitutionAddress": "Maynard 3,Hanover,NH,US,03755",
  "InstitutionName": "Dartmouth College - PBS",
  "InstitutionalDepartmentName": "Department",
  "MRAcquisitionType": "2D",
  "MagneticFieldStrength": 3,
  "Manufacturer": "Siemens",
  "ManufacturersModelName": "Prisma",
  "MatrixCoilMode": "SENSE",
  "Modality": "MR",
  "NonlinearGradientCorrection": false,
  "PartialFourier": 1,
  "PatientPosition": "HFS",
  "PercentPhaseFOV": 100,
  "PercentSampling": 100,
  "PhaseEncodingDirection": "j-",
  "PhaseEncodingSteps": 80,
  "PhaseResolution": 1,
  "PixelBandwidth": 2315,
  "ProcedureStepDescription": "dbic^QA",
  "ProtocolName": "func-bold_fa-10",
  "PulseSequenceDetails": "%SiemensSeq%\\ep2d_bold",
  "ReceiveCoilActiveElements": "HC1-7;NC1,2",
  "ReceiveCoilName": "HeadNeck_64",
  "ReconMatrixPE": 80,
  "RepetitionTime": 2,
  "SAR": 0.00758216,
  "ScanOptions": "FS",
  "ScanningSequence": "EP",
  "SequenceName": "*epfid2d1_80",
  "SequenceVariant": "SK",
  "SeriesDescription": "func-bold_fa-10",
  "SeriesNumber": 9,
  "ShimSetting": [4140, -7695, -7506, 257, -73, -357, -8, 96],
  "SliceThickness": 3.5,
  "SliceTiming": [0.99, 0, 1.055, 0.065, 1.12, 0.1325, 1.1875, 0.1975, 1.2525, 0.2625, 1.32, 0.33, 1.385, 0.395, 1.45, 0.4625, 1.5175, 0.5275, 1.5825, 0.5925, 1.65, 0.66, 1.715, 0.725, 1.78, 0.7925, 1.8475, 0.8575, 1.9125, 0.9225],
  "SoftwareVersions": "syngo MR E11",
  "SpacingBetweenSlices": 3.99,
  "StationName": "AWP66112",
  "TotalReadoutTime": 0.0395,
  "TxRefAmp": 215.078,
  "dcmmeta_affine": [
    [-2.9997684955596924, -0.037174664437770844, -0.0036505816970020533, 123.1384506225586],
    [-0.03623177111148834, 2.8559131622314453, 1.2207398414611816, -114.50092315673828],
    [0.008760613389313221, -0.9178117513656616, 3.798668384552002, -32.15016555786133],
    [0.0, 0.0, 0.0, 1.0]
],
  "dcmmeta_reorient_transform": [
    [0.0, -1.0, 0.0, 79.0],
    [1.0, 0.0, 0.0, 0.0],
    [0.0, 0.0, 1.0, 0.0],
    [0.0, 0.0, 0.0, 1.0]
],
  "dcmmeta_shape": [80, 80, 30, 200],
  "dcmmeta_slice_dim": 2,
  "dcmmeta_version": 0.6,
  "global": {
    "const": {
      "AccessionNumber": "qa64",
      "AcquisitionMatrix": [80, 0, 0, 80],
      "AngioFlag": "N",
      "BitsAllocated": 16,
      "BitsStored": 12,
      "BodyPartExamined": "BRAIN",
      "Columns": 480,
      "EchoNumbers": 1,
      "EchoTime": 30.0,
      "EchoTrainLength": 80,
      "FlipAngle": 10.0,
      "HighBit": 11,
      "ImageOrientationPatient": [0.99992280315671, 0.01207725685052, 0.00292020447823, -0.0123915545923, 0.9519710304749, 0.30593725910936],
      "ImagePositionPatient": [-712.72040343395, -689.54518107413, -289.9717722816],
      "ImageType": [
        "ORIGINAL",
        "PRIMARY",
        "M",
        "ND",
        "NORM",
        "MOSAIC"
],
      "ImagedNucleus": "1H",
      "ImagingFrequency": 123.252369,
      "InPlanePhaseEncodingDirection": "COL",
      "MRAcquisitionType": "2D",
      "MagneticFieldStrength": 3.0,
      "Manufacturer": "SIEMENS",
      "ManufacturerModelName": "Prisma",
      "Modality": "MR",
      "NumberOfAverages": 1.0,
      "NumberOfPhaseEncodingSteps": 80,
      "PercentPhaseFieldOfView": 100.0,
      "PercentSampling": 100.0,
      "PerformedProcedureStepStartTime": "082815.038000",
      "PhotometricInterpretation": "MONOCHROME2",
      "PixelBandwidth": 2315.0,
      "PixelRepresentation": 0,
      "PixelSpacing": [3.0, 3.0],
      "ProtocolName": "func-bold_fa-10",
      "RepetitionTime": 2000.0,
      "Rows": 480,
      "SAR": 0.00758215493193,
      "SamplesPerPixel": 1,
      "ScanOptions": "FS",
      "ScanningSequence": "EP",
      "SequenceName": "*epfid2d1_80",
      "SequenceVariant": "SK",
      "SeriesDescription": "func-bold_fa-10",
      "SeriesNumber": 9,
      "SeriesTime": "084628.362000",
      "SliceLocation": -65.752675100186,
      "SliceThickness": 3.5,
      "SmallestImagePixelValue": 0,
      "SoftwareVersions": "syngo MR E11",
      "SpacingBetweenSlices": 3.9899999696175,
      "SpecificCharacterSet": "ISO_IR 100",
      "StudyID": "6",
      "StudyTime": "082814.975000",
      "TransmitCoilName": "Body",
      "VariableFlipAngleFlag": "N",
      "WindowCenterWidthExplanation": "Algo1"
    },
    "slices": {}
  },
  "time": {
    "samples": {
      "AcquisitionNumber": [1, 2, 3, 4, 5, 6, 7, 8, 9, 10, 11, 12, 13, 14, 15, 16, 17, 18, 19, 20, 21, 22, 23, 24, 25, 26, 27, 28, 29, 30, 31, 32, 33, 34, 35, 36, 37, 38, 39, 40, 41, 42, 43, 44, 45, 46, 47, 48, 49, 50, 51, 52, 53, 54, 55, 56, 57, 58, 59, 60, 61, 62, 63, 64, 65, 66, 67, 68, 69, 70, 71, 72, 73, 74, 75, 76, 77, 78, 79, 80, 81, 82, 83, 84, 85, 86, 87, 88, 89, 90, 91, 92, 93, 94, 95, 96, 97, 98, 99, 100, 101, 102, 103, 104, 105, 106, 107, 108, 109, 110, 111, 112, 113, 114, 115, 116, 117, 118, 119, 120, 121, 122, 123, 124, 125, 126, 127, 128, 129, 130, 131, 132, 133, 134, 135, 136, 137, 138, 139, 140, 141, 142, 143, 144, 145, 146, 147, 148, 149, 150, 151, 152, 153, 154, 155, 156, 157, 158, 159, 160, 161, 162, 163, 164, 165, 166, 167, 168, 169, 170, 171, 172, 173, 174, 175, 176, 177, 178, 179, 180, 181, 182, 183, 184, 185, 186, 187, 188, 189, 190, 191, 192, 193, 194, 195, 196, 197, 198, 199, 200],
      "AcquisitionTime": ["084531.517500", "084533.517500", "084535.517500", "084537.517500", "084539.517500", "084541.517500", "084543.517500", "084545.517500", "084547.517500", "084549.517500", "084551.517500", "084553.517500", "084555.517500", "084557.517500", "084559.517500", "084601.517500", "084603.517500", "084605.517500", "084607.517500", "084609.517500", "084611.517500", "084613.517500", "084615.517500", "084617.517500", "084619.517500", "084621.517500", "084623.517500", "084625.517500", "084627.517500", "084629.517500", "084631.517500", "084633.517500", "084635.517500", "084637.517500", "084639.517500", "084641.517500", "084643.517500", "084645.517500", "084647.517500", "084649.517500", "084651.517500", "084653.517500", "084655.517500", "084657.517500", "084659.517500", "084701.517500", "084703.517500", "084705.517500", "084707.517500", "084709.517500", "084711.517500", "084713.517500", "084715.517500", "084717.517500", "084719.517500", "084721.517500", "084723.517500", "084725.517500", "084727.517500", "084729.517500", "084731.517500", "084733.517500", "084735.517500", "084737.517500", "084739.517500", "084741.517500", "084743.517500", "084745.517500", "084747.517500", "084749.517500", "084751.517500", "084753.517500", "084755.517500", "084757.517500", "084759.517500", "084801.517500", "084803.517500", "084805.517500", "084807.517500", "084809.517500", "084811.517500", "084813.517500", "084815.517500", "084817.517500", "084819.517500", "084821.517500", "084823.517500", "084825.517500", "084827.517500", "084829.517500", "084831.517500", "084833.517500", "084835.517500", "084837.517500", "084839.517500", "084841.517500", "084843.517500", "084845.517500", "084847.517500", "084849.517500", "084851.517500", "084853.517500", "084855.517500", "084857.517500", "084859.517500", "084901.517500", "084903.517500", "084905.517500", "084907.517500", "084909.517500", "084911.517500", "084913.517500", "084915.517500", "084917.517500", "084919.517500", "084921.517500", "084923.517500", "084925.517500", "084927.517500", "084929.517500", "084931.517500", "084933.517500", "084935.517500", "084937.517500", "084939.517500", "084941.517500", "084943.517500", "084945.517500", "084947.517500", "084949.517500", "084951.517500", "084953.517500", "084955.517500", "084957.517500", "084959.517500", "085001.517500", "085003.517500", "085005.517500", "085007.517500", "085009.517500", "085011.517500", "085013.517500", "085015.517500", "085017.517500", "085019.517500", "085021.517500", "085023.517500", "085025.517500", "085027.517500", "085029.517500", "085031.517500", "085033.517500", "085035.517500", "085037.517500", "085039.517500", "085041.517500", "085043.517500", "085045.517500", "085047.517500", "085049.517500", "085051.517500", "085053.517500", "085055.517500", "085057.517500", "085059.517500", "085101.517500", "085103.517500", "085105.517500", "085107.517500", "085109.517500", "085111.517500", "085113.517500", "085115.517500", "085117.517500", "085119.517500", "085121.517500", "085123.517500", "085125.517500", "085127.517500", "085129.517500", "085131.517500", "085133.517500", "085135.517500", "085137.517500", "085139.517500", "085141.517500", "085143.517500", "085145.517500", "085147.517500", "085149.517500", "085151.517500", "085153.517500", "085155.517500", "085157.517500", "085159.517500", "085201.517500", "085203.517500", "085205.517500", "085207.517500", "085209.517500"],
      "ContentTime": ["084628.365000", "084628.368000", "084628.371000", "084628.373000", "084628.375000", "084628.378000", "084628.380000", "084628.382000", "084628.385000", "084628.387000", "084628.389000", "084628.392000", "084628.394000", "084628.396000", "084628.406000", "084628.408000", "084628.411000", "084628.413000", "084628.415000", "084628.418000", "084628.420000", "084628.422000", "084628.425000", "084628.427000", "084628.429000", "084628.431000", "084628.434000", "084628.436000", "084708.361000", "084708.364000", "084708.366000", "084708.368000", "084708.371000", "084708.373000", "084708.375000", "084708.378000", "084708.380000", "084708.383000", "084708.385000", "084708.387000", "084708.390000", "084708.392000", "084708.394000", "084708.396000", "084708.399000", "084708.401000", "084708.403000", "084708.406000", "084748.361000", "084748.364000", "084748.366000", "084748.368000", "084748.371000", "084748.373000", "084748.376000", "084748.378000", "084748.380000", "084748.383000", "084748.385000", "084748.387000", "084748.390000", "084748.392000", "084748.409000", "084748.412000", "084748.414000", "084748.417000", "084748.419000", "084748.421000", "084828.360000", "084828.363000", "084828.365000", "084828.367000", "084828.370000", "084828.372000", "084828.375000", "084828.377000", "084828.379000", "084828.382000", "084828.384000", "084828.386000", "084828.389000", "084828.391000", "084828.393000", "084828.396000", "084828.398000", "084828.400000", "084828.403000", "084828.405000", "084908.360000", "084908.363000", "084908.365000", "084908.368000", "084908.370000", "084908.373000", "084908.375000", "084908.377000", "084908.380000", "084908.382000", "084908.384000", "084908.387000", "084908.389000", "084908.391000", "084908.394000", "084908.396000", "084908.398000", "084908.401000", "084908.403000", "084908.405000", "084948.361000", "084948.364000", "084948.366000", "084948.368000", "084948.371000", "084948.374000", "084948.376000", "084948.378000", "084948.381000", "084948.383000", "084948.385000", "084948.388000", "084948.390000", "084948.392000", "084948.395000", "084948.397000", "084948.399000", "084948.402000", "084948.404000", "084948.406000", "085028.361000", "085028.364000", "085028.366000", "085028.368000", "085028.371000", "085028.373000", "085028.376000", "085028.378000", "085028.380000", "085028.383000", "085028.385000", "085028.387000", "085028.390000", "085028.392000", "085028.394000", "085028.397000", "085028.399000", "085028.401000", "085028.404000", "085028.406000", "085108.360000", "085108.363000", "085108.365000", "085108.367000", "085108.370000", "085108.372000", "085108.374000", "085108.377000", "085108.379000", "085108.382000", "085108.384000", "085108.386000", "085108.389000", "085108.391000", "085108.393000", "085108.396000", "085108.398000", "085108.400000", "085108.403000", "085108.405000", "085148.361000", "085148.364000", "085148.366000", "085148.368000", "085148.371000", "085148.373000", "085148.376000", "085148.378000", "085148.380000", "085148.383000", "085148.385000", "085148.387000", "085148.390000", "085148.392000", "085148.394000", "085148.397000", "085148.399000", "085148.401000", "085148.404000", "085148.406000", "085210.785000", "085210.788000", "085210.790000", "085210.792000", "085210.796000", "085210.798000", "085210.800000", "085210.803000", "085210.805000", "085210.808000", "085210.810000", "085210.813000"],
      "InstanceCreationTime": ["084628.365000", "084628.368000", "084628.371000", "084628.373000", "084628.375000", "084628.378000", "084628.380000", "084628.382000", "084628.385000", "084628.387000", "084628.389000", "084628.392000", "084628.394000", "084628.396000", "084628.406000", "084628.408000", "084628.411000", "084628.413000", "084628.415000", "084628.418000", "084628.420000", "084628.422000", "084628.425000", "084628.427000", "084628.429000", "084628.431000", "084628.434000", "084628.436000", "084708.361000", "084708.364000", "084708.366000", "084708.368000", "084708.371000", "084708.373000", "084708.375000", "084708.378000", "084708.380000", "084708.383000", "084708.385000", "084708.387000", "084708.390000", "084708.392000", "084708.394000", "084708.396000", "084708.399000", "084708.401000", "084708.403000", "084708.406000", "084748.361000", "084748.364000", "084748.366000", "084748.368000", "084748.371000", "084748.373000", "084748.376000", "084748.378000", "084748.380000", "084748.383000", "084748.385000", "084748.387000", "084748.390000", "084748.392000", "084748.409000", "084748.412000", "084748.414000", "084748.417000", "084748.419000", "084748.421000", "084828.360000", "084828.363000", "084828.365000", "084828.367000", "084828.370000", "084828.372000", "084828.375000", "084828.377000", "084828.379000", "084828.382000", "084828.384000", "084828.386000", "084828.389000", "084828.391000", "084828.393000", "084828.396000", "084828.398000", "084828.400000", "084828.403000", "084828.405000", "084908.360000", "084908.363000", "084908.365000", "084908.368000", "084908.370000", "084908.373000", "084908.375000", "084908.377000", "084908.380000", "084908.382000", "084908.384000", "084908.387000", "084908.389000", "084908.391000", "084908.394000", "084908.396000", "084908.398000", "084908.401000", "084908.403000", "084908.405000", "084948.361000", "084948.364000", "084948.366000", "084948.368000", "084948.371000", "084948.374000", "084948.376000", "084948.378000", "084948.381000", "084948.383000", "084948.385000", "084948.388000", "084948.390000", "084948.392000", "084948.395000", "084948.397000", "084948.399000", "084948.402000", "084948.404000", "084948.406000", "085028.361000", "085028.364000", "085028.366000", "085028.368000", "085028.371000", "085028.373000", "085028.376000", "085028.378000", "085028.380000", "085028.383000", "085028.385000", "085028.387000", "085028.390000", "085028.392000", "085028.394000", "085028.397000", "085028.399000", "085028.401000", "085028.404000", "085028.406000", "085108.360000", "085108.363000", "085108.365000", "085108.367000", "085108.370000", "085108.372000", "085108.374000", "085108.377000", "085108.379000", "085108.382000", "085108.384000", "085108.386000", "085108.389000", "085108.391000", "085108.393000", "085108.396000", "085108.398000", "085108.400000", "085108.403000", "085108.405000", "085148.361000", "085148.364000", "085148.366000", "085148.368000", "085148.371000", "085148.373000", "085148.376000", "085148.378000", "085148.380000", "085148.383000", "085148.385000", "085148.387000", "085148.390000", "085148.392000", "085148.394000", "085148.397000", "085148.399000", "085148.401000", "085148.404000", "085148.406000", "085210.785000", "085210.788000", "085210.790000", "085210.792000", "085210.796000", "085210.798000", "085210.800000", "085210.803000", "085210.805000", "085210.808000", "085210.810000", "085210.813000"],
      "InstanceNumber": [1, 2, 3, 4, 5, 6, 7, 8, 9, 10, 11, 12, 13, 14, 15, 16, 17, 18, 19, 20, 21, 22, 23, 24, 25, 26, 27, 28, 29, 30, 31, 32, 33, 34, 35, 36, 37, 38, 39, 40, 41, 42, 43, 44, 45, 46, 47, 48, 49, 50, 51, 52, 53, 54, 55, 56, 57, 58, 59, 60, 61, 62, 63, 64, 65, 66, 67, 68, 69, 70, 71, 72, 73, 74, 75, 76, 77, 78, 79, 80, 81, 82, 83, 84, 85, 86, 87, 88, 89, 90, 91, 92, 93, 94, 95, 96, 97, 98, 99, 100, 101, 102, 103, 104, 105, 106, 107, 108, 109, 110, 111, 112, 113, 114, 115, 116, 117, 118, 119, 120, 121, 122, 123, 124, 125, 126, 127, 128, 129, 130, 131, 132, 133, 134, 135, 136, 137, 138, 139, 140, 141, 142, 143, 144, 145, 146, 147, 148, 149, 150, 151, 152, 153, 154, 155, 156, 157, 158, 159, 160, 161, 162, 163, 164, 165, 166, 167, 168, 169, 170, 171, 172, 173, 174, 175, 176, 177, 178, 179, 180, 181, 182, 183, 184, 185, 186, 187, 188, 189, 190, 191, 192, 193, 194, 195, 196, 197, 198, 199, 200],
      "LargestImagePixelValue": [661, 671, 669, 671, 659, 666, 659, 665, 667, 666, 668, 668, 664, 666, 665, 664, 663, 663, 662, 665, 665, 668, 663, 662, 660, 660, 666, 660, 662, 664, 659, 665, 661, 668, 665, 664, 668, 663, 670, 662, 667, 663, 663, 665, 663, 667, 665, 668, 664, 666, 664, 662, 666, 662, 666, 665, 661, 664, 664, 666, 663, 665, 662, 662, 668, 667, 665, 662, 662, 665, 666, 662, 667, 667, 660, 665, 662, 661, 661, 661, 667, 661, 666, 659, 663, 662, 668, 665, 664, 665, 663, 666, 662, 664, 664, 662, 668, 660, 663, 662, 661, 669, 660, 665, 659, 661, 660, 659, 664, 666, 667, 662, 662, 662, 662, 667, 665, 660, 664, 668, 668, 662, 667, 662, 665, 661, 664, 664, 669, 663, 666, 663, 661, 664, 663, 665, 664, 661, 669, 663, 662, 660, 660, 665, 665, 664, 659, 663, 661, 662, 667, 664, 664, 661, 667, 664, 661, 661, 667, 666, 664, 664, 660, 669, 663, 665, 663, 659, 665, 657, 664, 661, 663, 663, 669, 670, 662, 663, 660, 663, 668, 661, 661, 661, 669, 663, 660, 663, 662, 662, 664, 664, 664, 663, 665, 665, 659, 659, 662, 660],
      "WindowCenter": [450.0, 451.0, 450.0, 450.0, 450.0, 450.0, 450.0, 450.0, 450.0, 450.0, 450.0, 450.0, 450.0, 450.0, 450.0, 450.0, 450.0, 450.0, 450.0, 450.0, 450.0, 450.0, 450.0, 450.0, 450.0, 450.0, 450.0, 450.0, 450.0, 450.0, 450.0, 450.0, 450.0, 450.0, 450.0, 450.0, 450.0, 450.0, 450.0, 450.0, 450.0, 450.0, 450.0, 450.0, 450.0, 450.0, 450.0, 450.0, 450.0, 450.0, 450.0, 450.0, 450.0, 450.0, 450.0, 450.0, 450.0, 450.0, 450.0, 450.0, 450.0, 450.0, 450.0, 450.0, 450.0, 450.0, 450.0, 450.0, 450.0, 450.0, 450.0, 450.0, 450.0, 450.0, 450.0, 450.0, 450.0, 450.0, 450.0, 450.0, 450.0, 450.0, 450.0, 449.0, 450.0, 449.0, 450.0, 450.0, 450.0, 450.0, 449.0, 450.0, 449.0, 450.0, 449.0, 450.0, 450.0, 449.0, 450.0, 449.0, 450.0, 449.0, 450.0, 450.0, 449.0, 450.0, 449.0, 450.0, 449.0, 449.0, 450.0, 449.0, 450.0, 449.0, 450.0, 449.0, 449.0, 449.0, 449.0, 449.0, 449.0, 449.0, 449.0, 449.0, 449.0, 449.0, 449.0, 449.0, 449.0, 449.0, 449.0, 449.0, 449.0, 449.0, 449.0, 449.0, 449.0, 449.0, 449.0, 449.0, 449.0, 449.0, 449.0, 449.0, 449.0, 449.0, 449.0, 449.0, 449.0, 449.0, 449.0, 449.0, 449.0, 449.0, 449.0, 449.0, 449.0, 449.0, 449.0, 449.0, 449.0, 449.0, 449.0, 449.0, 449.0, 449.0, 449.0, 449.0, 449.0, 449.0, 449.0, 449.0, 449.0, 449.0, 449.0, 450.0, 449.0, 449.0, 449.0, 449.0, 449.0, 449.0, 449.0, 449.0, 449.0, 449.0, 449.0, 449.0, 449.0, 449.0, 449.0, 449.0, 449.0, 449.0, 449.0, 449.0, 449.0, 449.0, 449.0, 449.0],
      "WindowWidth": [935.0, 936.0, 934.0, 935.0, 934.0, 935.0, 934.0, 935.0, 934.0, 935.0, 935.0, 934.0, 935.0, 934.0, 935.0, 934.0, 934.0, 934.0, 934.0, 935.0, 934.0, 934.0, 934.0, 934.0, 934.0, 934.0, 934.0, 934.0, 934.0, 934.0, 934.0, 934.0, 934.0, 934.0, 934.0, 934.0, 934.0, 934.0, 935.0, 934.0, 934.0, 934.0, 934.0, 934.0, 934.0, 934.0, 934.0, 934.0, 934.0, 934.0, 934.0, 934.0, 934.0, 934.0, 934.0, 934.0, 934.0, 934.0, 934.0, 934.0, 934.0, 934.0, 934.0, 934.0, 934.0, 934.0, 934.0, 934.0, 934.0, 934.0, 934.0, 934.0, 934.0, 934.0, 934.0, 934.0, 934.0, 934.0, 934.0, 934.0, 934.0, 934.0, 934.0, 934.0, 934.0, 934.0, 934.0, 934.0, 934.0, 934.0, 934.0, 934.0, 934.0, 934.0, 934.0, 934.0, 934.0, 934.0, 934.0, 934.0, 934.0, 933.0, 934.0, 934.0, 934.0, 934.0, 934.0, 934.0, 934.0, 934.0, 934.0, 934.0, 934.0, 934.0, 934.0, 933.0, 934.0, 934.0, 934.0, 934.0, 934.0, 934.0, 934.0, 934.0, 934.0, 934.0, 934.0, 934.0, 934.0, 934.0, 934.0, 934.0, 934.0, 934.0, 934.0, 934.0, 934.0, 934.0, 934.0, 933.0, 934.0, 933.0, 934.0, 933.0, 934.0, 934.0, 934.0, 934.0, 933.0, 934.0, 934.0, 934.0, 933.0, 934.0, 934.0, 933.0, 934.0, 933.0, 934.0, 934.0, 934.0, 934.0, 933.0, 934.0, 933.0, 934.0, 933.0, 934.0, 934.0, 933.0, 934.0, 933.0, 934.0, 933.0, 933.0, 934.0, 933.0, 933.0, 933.0, 934.0, 933.0, 933.0, 933.0, 933.0, 934.0, 933.0, 934.0, 933.0, 933.0, 933.0, 933.0, 933.0, 933.0, 933.0, 933.0, 933.0, 933.0, 933.0, 933.0, 933.0]
    },
    "slices": {}
  }
}