{
  "AcquisitionMatrixPE": 80,
  "AcquisitionNumber": 1,
  "AcquisitionTime": "08:46:59.462500",
  "BandwidthPerPixelPhaseEncode": 25,
  "BaseResolution": 80,
  "BodyPartExamined": "BRAIN",
  "CoilCombinationMethod": "Sum of Squares",
  "ConsistencyInfo": "N4_VE11E_LATEST_20181129",
  "ConversionSoftware": "dcm2niix",
  "ConversionSoftwareVersion": "v1.0.20220720",
  "DerivedVendorReportedEchoSpacing": 0.0005,
  "DeviceSerialNumber": "66112",
  "DwellTime": 2.7e-06,
  "EchoTime": 0.03,
  "EchoTrainLength": 80,
  "EffectiveEchoSpacing": 0.0005,
  "FlipAngle": 10,
  "HeudiconvVersion": "0.13.1",
  "ImageOrientationPatientDICOM": [0.984802, 0.173457, 0.00885359, -0.167981, 0.938283, 0.302336],
  "ImageOrientationText": "Tra>Cor(17.4)>Sag(-2.5)",
  "ImageType": [
    "ORIGINAL",
    "PRIMARY",
    "M",
    "ND",
    "NORM",
    "MOSAIC"
],
  "ImagingFrequency": 123.259,
  "InPlanePhaseEncodingDirectionDICOM": "COL",
  "InstitutionAddress": "Maynard 3,Hanover,NH,US,03755",
  "InstitutionName": "Dartmouth College - PBS",
  "InstitutionalDepartmentName": "Department",
  "MRAcquisitionType": "2D",
  "MagneticFieldStrength": 3,
  "Manufacturer": "Siemens",
  "ManufacturersModelName": "Prisma",
  "MatrixCoilMode": "SENSE",
  "Modality": "MR",
  "NonlinearGradientCorrection": false,
  "PartialFourier": 1,
  "PatientPosition": "HFS",
  "PercentPhaseFOV": 100,
  "PercentSampling": 100,
  "PhaseEncodingDirection": "j-",
  "PhaseEncodingSteps": 80,
  "PhaseResolution": 1,
  "PixelBandwidth": 2315,
  "ProcedureStepDescription": "dbic^QA",
  "ProtocolName": "func-bold_fa-10",
  "PulseSequenceDetails": "%SiemensSeq%\\ep2d_bold",
  "ReceiveCoilActiveElements": "HEA;HEP",
  "ReceiveCoilName": "Head_32",
  "ReconMatrixPE": 80,
  "RepetitionTime": 2,
  "SAR": 0.0150773,
  "ScanOptions": "FS",
  "ScanningSequence": "EP",
  "SequenceName": "*epfid2d1_80",
  "SequenceVariant": "SK",
  "SeriesDescription": "func-bold_fa-10",
  "SeriesNumber": 8,
  "ShimSetting": [4220, -7744, -7498, -12, -132, -106, 1, 72],
  "SliceThickness": 3.5,
  "SliceTiming": [0.99, 0, 1.055, 0.065, 1.1225, 0.1325, 1.1875, 0.1975, 1.255, 0.265, 1.32, 0.33, 1.385, 0.395, 1.4525, 0.4625, 1.5175, 0.5275, 1.5825, 0.595, 1.65, 0.66, 1.715, 0.725, 1.7825, 0.7925, 1.8475, 0.8575, 1.9125, 0.925],
  "SoftwareVersions": "syngo MR E11",
  "SpacingBetweenSlices": 3.99,
  "StationName": "AWP66112",
  "TotalReadoutTime": 0.0395,
  "TxRefAmp": 224.96,
  "dcmmeta_affine": [
    [-2.9544050693511963, -0.5039443373680115, -0.17609894275665283, 142.1455078125],
    [-0.520370602607727, 2.814849376678467, 1.193920373916626, -103.1596908569336],
    [0.026560762897133827, -0.9070077538490295, 3.803109884262085, -23.04767417907715],
    [0.0, 0.0, 0.0, 1.0]
],
  "dcmmeta_reorient_transform": [
    [0.0, -1.0, 0.0, 79.0],
    [1.0, 0.0, 0.0, 0.0],
    [0.0, 0.0, 1.0, 0.0],
    [0.0, 0.0, 0.0, 1.0]
],
  "dcmmeta_shape": [80, 80, 30, 200],
  "dcmmeta_slice_dim": 2,
  "dcmmeta_version": 0.6,
  "global": {
    "const": {
      "AccessionNumber": "qa",
      "AcquisitionMatrix": [80, 0, 0, 80],
      "AngioFlag": "N",
      "BitsAllocated": 16,
      "BitsStored": 12,
      "BodyPartExamined": "BRAIN",
      "Columns": 480,
      "EchoNumbers": 1,
      "EchoTime": 30.0,
      "EchoTrainLength": 80,
      "FlipAngle": 10.0,
      "HighBit": 11,
      "ImageOrientationPatient": [0.98480166843382, 0.17345687601023, 0.00885358767593, -0.1679814547158, 0.938283122422, 0.30233592748727],
      "ImagePositionPatient": [-592.42602409565, -786.25740721624, -281.4149981282],
      "ImageType": [
        "ORIGINAL",
        "PRIMARY",
        "M",
        "ND",
        "NORM",
        "MOSAIC"
],
      "ImagedNucleus": "1H",
      "ImagingFrequency": 123.259162,
      "InPlanePhaseEncodingDirection": "COL",
      "MRAcquisitionType": "2D",
      "MagneticFieldStrength": 3.0,
      "Manufacturer": "SIEMENS",
      "ManufacturerModelName": "Prisma",
      "Modality": "MR",
      "NumberOfAverages": 1.0,
      "NumberOfPhaseEncodingSteps": 80,
      "PercentPhaseFieldOfView": 100.0,
      "PercentSampling": 100.0,
      "PerformedProcedureStepStartTime": "081345.882000",
      "PhotometricInterpretation": "MONOCHROME2",
      "PixelBandwidth": 2315.0,
      "PixelRepresentation": 0,
      "PixelSpacing": [3.0, 3.0],
      "ProtocolName": "func-bold_fa-10",
      "RepetitionTime": 2000.0,
      "Rows": 480,
      "SAR": 0.01507734332188,
      "SamplesPerPixel": 1,
      "ScanOptions": "FS",
      "ScanningSequence": "EP",
      "SequenceName": "*epfid2d1_80",
      "SequenceVariant": "SK",
      "SeriesDescription": "func-bold_fa-10",
      "SeriesNumber": 8,
      "SeriesTime": "084745.859000",
      "SliceLocation": -59.110015956863,
      "SliceThickness": 3.5,
      "SmallestImagePixelValue": 0,
      "SoftwareVersions": "syngo MR E11",
      "SpacingBetweenSlices": 3.9900001171176,
      "SpecificCharacterSet": "ISO_IR 100",
      "StudyID": "41",
      "StudyTime": "081345.772000",
      "TransmitCoilName": "Body",
      "VariableFlipAngleFlag": "N",
      "WindowCenterWidthExplanation": "Algo1"
    },
    "slices": {}
  },
  "time": {
    "samples": {
      "AcquisitionNumber": [1, 2, 3, 4, 5, 6, 7, 8, 9, 10, 11, 12, 13, 14, 15, 16, 17, 18, 19, 20, 21, 22, 23, 24, 25, 26, 27, 28, 29, 30, 31, 32, 33, 34, 35, 36, 37, 38, 39, 40, 41, 42, 43, 44, 45, 46, 47, 48, 49, 50, 51, 52, 53, 54, 55, 56, 57, 58, 59, 60, 61, 62, 63, 64, 65, 66, 67, 68, 69, 70, 71, 72, 73, 74, 75, 76, 77, 78, 79, 80, 81, 82, 83, 84, 85, 86, 87, 88, 89, 90, 91, 92, 93, 94, 95, 96, 97, 98, 99, 100, 101, 102, 103, 104, 105, 106, 107, 108, 109, 110, 111, 112, 113, 114, 115, 116, 117, 118, 119, 120, 121, 122, 123, 124, 125, 126, 127, 128, 129, 130, 131, 132, 133, 134, 135, 136, 137, 138, 139, 140, 141, 142, 143, 144, 145, 146, 147, 148, 149, 150, 151, 152, 153, 154, 155, 156, 157, 158, 159, 160, 161, 162, 163, 164, 165, 166, 167, 168, 169, 170, 171, 172, 173, 174, 175, 176, 177, 178, 179, 180, 181, 182, 183, 184, 185, 186, 187, 188, 189, 190, 191, 192, 193, 194, 195, 196, 197, 198, 199, 200],
      "AcquisitionTime": ["084659.462500", "084701.462500", "084703.462500", "084705.462500", "084707.462500", "084709.462500", "084711.462500", "084713.462500", "084715.462500", "084717.462500", "084719.462500", "084721.462500", "084723.462500", "084725.462500", "084727.462500", "084729.462500", "084731.462500", "084733.462500", "084735.462500", "084737.462500", "084739.462500", "084741.462500", "084743.462500", "084745.462500", "084747.462500", "084749.462500", "084751.462500", "084753.462500", "084755.462500", "084757.462500", "084759.462500", "084801.462500", "084803.462500", "084805.462500", "084807.462500", "084809.462500", "084811.462500", "084813.462500", "084815.462500", "084817.462500", "084819.462500", "084821.462500", "084823.462500", "084825.462500", "084827.462500", "084829.462500", "084831.462500", "084833.462500", "084835.462500", "084837.462500", "084839.462500", "084841.462500", "084843.462500", "084845.462500", "084847.462500", "084849.462500", "084851.462500", "084853.462500", "084855.462500", "084857.462500", "084859.462500", "084901.462500", "084903.462500", "084905.462500", "084907.462500", "084909.462500", "084911.462500", "084913.462500", "084915.462500", "084917.462500", "084919.462500", "084921.462500", "084923.462500", "084925.462500", "084927.462500", "084929.462500", "084931.462500", "084933.462500", "084935.462500", "084937.462500", "084939.462500", "084941.462500", "084943.462500", "084945.462500", "084947.462500", "084949.462500", "084951.462500", "084953.462500", "084955.462500", "084957.462500", "084959.462500", "085001.462500", "085003.462500", "085005.462500", "085007.462500", "085009.462500", "085011.462500", "085013.462500", "085015.462500", "085017.462500", "085019.462500", "085021.462500", "085023.462500", "085025.462500", "085027.462500", "085029.462500", "085031.462500", "085033.462500", "085035.462500", "085037.462500", "085039.462500", "085041.462500", "085043.462500", "085045.462500", "085047.462500", "085049.462500", "085051.462500", "085053.462500", "085055.462500", "085057.462500", "085059.462500", "085101.462500", "085103.462500", "085105.462500", "085107.462500", "085109.462500", "085111.462500", "085113.462500", "085115.462500", "085117.462500", "085119.462500", "085121.462500", "085123.462500", "085125.462500", "085127.462500", "085129.462500", "085131.462500", "085133.462500", "085135.462500", "085137.462500", "085139.462500", "085141.462500", "085143.462500", "085145.462500", "085147.462500", "085149.462500", "085151.462500", "085153.462500", "085155.462500", "085157.462500", "085159.462500", "085201.462500", "085203.462500", "085205.462500", "085207.462500", "085209.462500", "085211.462500", "085213.462500", "085215.462500", "085217.462500", "085219.462500", "085221.462500", "085223.462500", "085225.462500", "085227.462500", "085229.462500", "085231.462500", "085233.462500", "085235.462500", "085237.462500", "085239.462500", "085241.462500", "085243.462500", "085245.462500", "085247.462500", "085249.462500", "085251.462500", "085253.462500", "085255.462500", "085257.462500", "085259.462500", "085301.462500", "085303.462500", "085305.462500", "085307.462500", "085309.462500", "085311.462500", "085313.462500", "085315.462500", "085317.462500", "085319.462500", "085321.462500", "085323.462500", "085325.462500", "085327.462500", "085329.462500", "085331.462500", "085333.462500", "085335.462500", "085337.462500"],
      "ContentTime": ["084745.862000", "084745.865000", "084745.868000", "084745.870000", "084745.872000", "084745.874000", "084745.877000", "084745.879000", "084745.881000", "084745.884000", "084745.886000", "084745.897000", "084745.899000", "084745.901000", "084745.903000", "084745.906000", "084745.908000", "084745.910000", "084745.913000", "084745.915000", "084745.917000", "084745.919000", "084745.922000", "084825.856000", "084825.859000", "084825.861000", "084825.863000", "084825.865000", "084825.868000", "084825.870000", "084825.872000", "084825.874000", "084825.877000", "084825.879000", "084825.881000", "084825.884000", "084825.886000", "084825.888000", "084825.891000", "084825.893000", "084825.895000", "084825.897000", "084825.900000", "084905.856000", "084905.859000", "084905.861000", "084905.863000", "084905.865000", "084905.868000", "084905.870000", "084905.872000", "084905.874000", "084905.877000", "084905.879000", "084905.881000", "084905.883000", "084905.886000", "084905.888000", "084905.890000", "084905.892000", "084905.895000", "084905.897000", "084905.899000", "084945.856000", "084945.859000", "084945.861000", "084945.863000", "084945.865000", "084945.868000", "084945.870000", "084945.872000", "084945.875000", "084945.877000", "084945.879000", "084945.882000", "084945.884000", "084945.886000", "084945.889000", "084945.891000", "084945.893000", "084945.895000", "084945.898000", "084945.900000", "085025.857000", "085025.860000", "085025.862000", "085025.864000", "085025.867000", "085025.869000", "085025.871000", "085025.874000", "085025.876000", "085025.878000", "085025.881000", "085025.883000", "085025.885000", "085025.887000", "085025.890000", "085025.892000", "085025.894000", "085025.897000", "085025.899000", "085025.901000", "085105.856000", "085105.859000", "085105.861000", "085105.863000", "085105.866000", "085105.868000", "085105.870000", "085105.873000", "085105.875000", "085105.877000", "085105.879000", "085105.882000", "085105.884000", "085105.886000", "085105.889000", "085105.891000", "085105.893000", "085105.895000", "085105.898000", "085105.900000", "085145.856000", "085145.859000", "085145.861000", "085145.863000", "085145.866000", "085145.868000", "085145.878000", "085145.880000", "085145.883000", "085145.885000", "085145.887000", "085145.890000", "085145.892000", "085145.894000", "085145.897000", "085145.899000", "085145.901000", "085145.904000", "085145.906000", "085145.908000", "085225.857000", "085225.860000", "085225.862000", "085225.865000", "085225.867000", "085225.869000", "085225.872000", "085225.874000", "085225.876000", "085225.878000", "085225.881000", "085225.883000", "085225.886000", "085225.888000", "085225.890000", "085225.893000", "085225.895000", "085225.897000", "085225.899000", "085225.902000", "085305.856000", "085305.859000", "085305.861000", "085305.864000", "085305.866000", "085305.868000", "085305.871000", "085305.873000", "085305.875000", "085305.877000", "085305.880000", "085305.882000", "085305.884000", "085305.887000", "085305.889000", "085305.891000", "085305.894000", "085305.896000", "085305.898000", "085305.900000", "085339.128000", "085339.130000", "085339.133000", "085339.135000", "085339.137000", "085339.140000", "085339.142000", "085339.144000", "085339.147000", "085339.149000", "085339.151000", "085339.154000", "085339.156000", "085339.158000", "085339.163000", "085339.166000", "085339.168000"],
      "InstanceCreationTime": ["084745.862000", "084745.865000", "084745.868000", "084745.870000", "084745.872000", "084745.874000", "084745.877000", "084745.879000", "084745.881000", "084745.884000", "084745.886000", "084745.897000", "084745.899000", "084745.901000", "084745.903000", "084745.906000", "084745.908000", "084745.910000", "084745.913000", "084745.915000", "084745.917000", "084745.919000", "084745.922000", "084825.856000", "084825.859000", "084825.861000", "084825.863000", "084825.865000", "084825.868000", "084825.870000", "084825.872000", "084825.874000", "084825.877000", "084825.879000", "084825.881000", "084825.884000", "084825.886000", "084825.888000", "084825.891000", "084825.893000", "084825.895000", "084825.897000", "084825.900000", "084905.856000", "084905.859000", "084905.861000", "084905.863000", "084905.865000", "084905.868000", "084905.870000", "084905.872000", "084905.874000", "084905.877000", "084905.879000", "084905.881000", "084905.883000", "084905.886000", "084905.888000", "084905.890000", "084905.892000", "084905.895000", "084905.897000", "084905.899000", "084945.856000", "084945.859000", "084945.861000", "084945.863000", "084945.865000", "084945.868000", "084945.870000", "084945.872000", "084945.875000", "084945.877000", "084945.879000", "084945.882000", "084945.884000", "084945.886000", "084945.889000", "084945.891000", "084945.893000", "084945.895000", "084945.898000", "084945.900000", "085025.857000", "085025.860000", "085025.862000", "085025.864000", "085025.867000", "085025.869000", "085025.871000", "085025.874000", "085025.876000", "085025.878000", "085025.881000", "085025.883000", "085025.885000", "085025.887000", "085025.890000", "085025.892000", "085025.894000", "085025.897000", "085025.899000", "085025.901000", "085105.856000", "085105.859000", "085105.861000", "085105.863000", "085105.866000", "085105.868000", "085105.870000", "085105.873000", "085105.875000", "085105.877000", "085105.879000", "085105.882000", "085105.884000", "085105.886000", "085105.889000", "085105.891000", "085105.893000", "085105.895000", "085105.898000", "085105.900000", "085145.856000", "085145.859000", "085145.861000", "085145.863000", "085145.866000", "085145.868000", "085145.878000", "085145.880000", "085145.883000", "085145.885000", "085145.887000", "085145.890000", "085145.892000", "085145.894000", "085145.897000", "085145.899000", "085145.901000", "085145.904000", "085145.906000", "085145.908000", "085225.857000", "085225.860000", "085225.862000", "085225.865000", "085225.867000", "085225.869000", "085225.872000", "085225.874000", "085225.876000", "085225.878000", "085225.881000", "085225.883000", "085225.886000", "085225.888000", "085225.890000", "085225.893000", "085225.895000", "085225.897000", "085225.899000", "085225.902000", "085305.856000", "085305.859000", "085305.861000", "085305.864000", "085305.866000", "085305.868000", "085305.871000", "085305.873000", "085305.875000", "085305.877000", "085305.880000", "085305.882000", "085305.884000", "085305.887000", "085305.889000", "085305.891000", "085305.894000", "085305.896000", "085305.898000", "085305.900000", "085339.128000", "085339.130000", "085339.133000", "085339.135000", "085339.137000", "085339.140000", "085339.142000", "085339.144000", "085339.147000", "085339.149000", "085339.151000", "085339.154000", "085339.156000", "085339.158000", "085339.163000", "085339.166000", "085339.168000"],
      "InstanceNumber": [1, 2, 3, 4, 5, 6, 7, 8, 9, 10, 11, 12, 13, 14, 15, 16, 17, 18, 19, 20, 21, 22, 23, 24, 25, 26, 27, 28, 29, 30, 31, 32, 33, 34, 35, 36, 37, 38, 39, 40, 41, 42, 43, 44, 45, 46, 47, 48, 49, 50, 51, 52, 53, 54, 55, 56, 57, 58, 59, 60, 61, 62, 63, 64, 65, 66, 67, 68, 69, 70, 71, 72, 73, 74, 75, 76, 77, 78, 79, 80, 81, 82, 83, 84, 85, 86, 87, 88, 89, 90, 91, 92, 93, 94, 95, 96, 97, 98, 99, 100, 101, 102, 103, 104, 105, 106, 107, 108, 109, 110, 111, 112, 113, 114, 115, 116, 117, 118, 119, 120, 121, 122, 123, 124, 125, 126, 127, 128, 129, 130, 131, 132, 133, 134, 135, 136, 137, 138, 139, 140, 141, 142, 143, 144, 145, 146, 147, 148, 149, 150, 151, 152, 153, 154, 155, 156, 157, 158, 159, 160, 161, 162, 163, 164, 165, 166, 167, 168, 169, 170, 171, 172, 173, 174, 175, 176, 177, 178, 179, 180, 181, 182, 183, 184, 185, 186, 187, 188, 189, 190, 191, 192, 193, 194, 195, 196, 197, 198, 199, 200],
      "LargestImagePixelValue": [364, 366, 365, 363, 365, 366, 365, 364, 364, 365, 364, 365, 364, 364, 365, 364, 368, 364, 368, 365, 365, 364, 365, 364, 362, 366, 365, 366, 364, 365, 365, 364, 363, 365, 365, 364, 364, 366, 365, 363, 364, 366, 363, 365, 363, 365, 365, 363, 364, 364, 362, 366, 363, 365, 365, 365, 367, 366, 364, 365, 365, 365, 365, 365, 366, 367, 364, 365, 365, 366, 364, 366, 362, 364, 364, 367, 365, 365, 365, 364, 363, 364, 365, 362, 364, 363, 364, 364, 364, 364, 363, 365, 364, 365, 364, 364, 365, 364, 366, 365, 365, 362, 365, 365, 366, 364, 365, 364, 365, 365, 363, 362, 362, 365, 364, 365, 363, 363, 365, 363, 365, 363, 364, 365, 367, 363, 366, 363, 363, 366, 362, 365, 365, 364, 364, 364, 364, 365, 363, 364, 363, 364, 364, 364, 366, 363, 364, 364, 365, 364, 364, 364, 364, 363, 363, 364, 363, 365, 363, 364, 364, 363, 364, 364, 365, 363, 364, 362, 363, 363, 363, 362, 363, 363, 364, 364, 364, 366, 362, 365, 363, 364, 363, 364, 365, 363, 365, 363, 364, 362, 363, 363, 365, 364, 363, 363, 363, 364, 364, 365],
      "WindowCenter": [295.0, 295.0, 295.0, 295.0, 295.0, 295.0, 295.0, 295.0, 294.0, 295.0, 295.0, 294.0, 296.0, 295.0, 295.0, 295.0, 294.0, 294.0, 295.0, 295.0, 295.0, 295.0, 295.0, 295.0, 295.0, 295.0, 294.0, 295.0, 295.0, 295.0, 294.0, 295.0, 295.0, 294.0, 295.0, 295.0, 295.0, 294.0, 295.0, 294.0, 295.0, 295.0, 295.0, 294.0, 294.0, 295.0, 295.0, 294.0, 294.0, 294.0, 295.0, 294.0, 294.0, 295.0, 294.0, 295.0, 295.0, 294.0, 295.0, 294.0, 295.0, 295.0, 295.0, 295.0, 295.0, 295.0, 295.0, 295.0, 295.0, 295.0, 295.0, 294.0, 294.0, 295.0, 295.0, 294.0, 295.0, 295.0, 294.0, 295.0, 294.0, 295.0, 294.0, 294.0, 295.0, 295.0, 294.0, 295.0, 294.0, 295.0, 294.0, 294.0, 294.0, 295.0, 295.0, 294.0, 295.0, 294.0, 295.0, 294.0, 294.0, 295.0, 295.0, 295.0, 295.0, 295.0, 294.0, 295.0, 294.0, 295.0, 294.0, 294.0, 294.0, 295.0, 294.0, 295.0, 294.0, 294.0, 295.0, 295.0, 294.0, 294.0, 294.0, 295.0, 294.0, 294.0, 294.0, 294.0, 294.0, 294.0, 294.0, 295.0, 294.0, 294.0, 294.0, 295.0, 294.0, 294.0, 294.0, 294.0, 294.0, 294.0, 294.0, 294.0, 294.0, 294.0, 295.0, 294.0, 294.0, 294.0, 294.0, 294.0, 294.0, 294.0, 294.0, 295.0, 294.0, 294.0, 294.0, 294.0, 295.0, 294.0, 294.0, 294.0, 294.0, 294.0, 294.0, 294.0, 294.0, 295.0, 295.0, 294.0, 294.0, 294.0, 294.0, 294.0, 294.0, 295.0, 294.0, 294.0, 294.0, 295.0, 294.0, 295.0, 294.0, 294.0, 294.0, 294.0, 294.0, 294.0, 295.0, 294.0, 293.0, 295.0, 295.0, 294.0, 294.0, 295.0, 294.0, 294.0],
      "WindowWidth": [640.0, 641.0, 640.0, 641.0, 640.0, 641.0, 641.0, 640.0, 640.0, 640.0, 641.0, 640.0, 642.0, 641.0, 641.0, 640.0, 640.0, 640.0, 640.0, 641.0, 640.0, 641.0, 640.0, 640.0, 640.0, 641.0, 640.0, 640.0, 640.0, 640.0, 639.0, 641.0, 640.0, 640.0, 640.0, 640.0, 640.0, 640.0, 640.0, 640.0, 641.0, 640.0, 640.0, 640.0, 640.0, 640.0, 640.0, 640.0, 640.0, 640.0, 640.0, 640.0, 640.0, 640.0, 640.0, 640.0, 640.0, 640.0, 640.0, 640.0, 640.0, 640.0, 640.0, 640.0, 640.0, 640.0, 640.0, 640.0, 640.0, 640.0, 640.0, 640.0, 640.0, 640.0, 640.0, 640.0, 640.0, 640.0, 640.0, 640.0, 640.0, 640.0, 640.0, 640.0, 640.0, 640.0, 640.0, 640.0, 639.0, 640.0, 640.0, 640.0, 639.0, 640.0, 640.0, 640.0, 640.0, 640.0, 640.0, 640.0, 640.0, 640.0, 640.0, 640.0, 640.0, 640.0, 640.0, 640.0, 640.0, 640.0, 640.0, 640.0, 640.0, 640.0, 640.0, 640.0, 639.0, 640.0, 640.0, 640.0, 640.0, 640.0, 640.0, 640.0, 640.0, 640.0, 640.0, 640.0, 640.0, 640.0, 640.0, 640.0, 639.0, 640.0, 640.0, 640.0, 640.0, 640.0, 639.0, 640.0, 640.0, 639.0, 640.0, 639.0, 639.0, 639.0, 640.0, 639.0, 640.0, 640.0, 640.0, 640.0, 640.0, 640.0, 640.0, 640.0, 638.0, 640.0, 640.0, 639.0, 640.0, 640.0, 640.0, 640.0, 640.0, 639.0, 640.0, 639.0, 640.0, 640.0, 640.0, 639.0, 640.0, 639.0, 639.0, 640.0, 639.0, 640.0, 639.0, 640.0, 639.0, 640.0, 639.0, 640.0, 640.0, 640.0, 640.0, 639.0, 640.0, 639.0, 640.0, 639.0, 638.0, 640.0, 640.0, 640.0, 639.0, 640.0, 639.0, 639.0]
    },
    "slices": {}
  }
}