{
  "AcquisitionMatrixPE": 80,
  "AcquisitionNumber": 1,
  "AcquisitionTime": "08:33:24.052500",
  "BandwidthPerPixelPhaseEncode": 46.296,
  "BaseResolution": 80,
  "BodyPartExamined": "BRAIN",
  "CoilCombinationMethod": "Sum of Squares",
  "ConsistencyInfo": "N4_VE11E_LATEST_20181129",
  "ConversionSoftware": "dcm2niix",
  "ConversionSoftwareVersion": "v1.0.20220720",
  "DerivedVendorReportedEchoSpacing": 0.000540003,
  "DeviceSerialNumber": "66112",
  "DwellTime": 2.7e-06,
  "EchoTime": 0.035,
  "EchoTrainLength": 39,
  "EffectiveEchoSpacing": 0.000270002,
  "FlipAngle": 90,
  "HeudiconvVersion": "0.13.1",
  "ImageOrientationPatientDICOM": [0.984802, 0.173457, 0.00885359, -0.167981, 0.938283, 0.302336],
  "ImageOrientationText": "Tra>Cor(17.4)>Sag(-2.5)",
  "ImageType": [
    "ORIGINAL",
    "PRIMARY",
    "M",
    "ND",
    "NORM",
    "MOSAIC"
],
  "ImagingFrequency": 123.259,
  "InPlanePhaseEncodingDirectionDICOM": "COL",
  "InstitutionAddress": "Maynard 3,Hanover,NH,US,03755",
  "InstitutionName": "Dartmouth College - PBS",
  "InstitutionalDepartmentName": "Department",
  "MRAcquisitionType": "2D",
  "MagneticFieldStrength": 3,
  "Manufacturer": "Siemens",
  "ManufacturersModelName": "Prisma",
  "Modality": "MR",
  "MultibandAccelerationFactor": 4,
  "NonlinearGradientCorrection": false,
  "ParallelReductionFactorInPlane": 2,
  "PartialFourier": 1,
  "PatientPosition": "HFS",
  "PercentPhaseFOV": 100,
  "PercentSampling": 100,
  "PhaseEncodingDirection": "j-",
  "PhaseEncodingSteps": 79,
  "PhaseResolution": 1,
  "PixelBandwidth": 2315,
  "ProcedureStepDescription": "dbic^QA",
  "ProtocolName": "func-bold_task-rest_acq-p2-s4-3.5mm",
  "PulseSequenceDetails": "%SiemensSeq%\\ep2d_bold",
  "ReceiveCoilActiveElements": "HEA;HEP",
  "ReceiveCoilName": "Head_32",
  "ReconMatrixPE": 80,
  "RefLinesPE": 24,
  "RepetitionTime": 2,
  "SAR": 0.0268965,
  "ScanOptions": "FS",
  "ScanningSequence": "EP",
  "SequenceName": "*epfid2d1_80",
  "SequenceVariant": "SK",
  "SeriesDescription": "func-bold_task-rest_acq-p2-s4-3.5mm",
  "SeriesNumber": 6,
  "ShimSetting": [4220, -7744, -7498, -10, -130, -106, 3, 72],
  "SliceThickness": 3.5,
  "SliceTiming": [1.485, 0, 0.99, 0.2475, 1.2375, 0.7425, 1.7325, 0.495, 1.485, 0, 0.99, 0.2475, 1.2375, 0.7425, 1.7325, 0.495, 1.485, 0, 0.99, 0.2475, 1.2375, 0.7425, 1.7325, 0.495, 1.485, 0, 0.99, 0.2475, 1.2375, 0.7425, 1.7325, 0.495],
  "SoftwareVersions": "syngo MR E11",
  "SpacingBetweenSlices": 3.99,
  "StationName": "AWP66112",
  "TaskName": "rest",
  "TotalReadoutTime": 0.0213301,
  "TxRefAmp": 224.96,
  "dcmmeta_affine": [
    [-2.9544050693511963, -0.5039443373680115, -0.17609894275665283, 142.67247009277344],
    [-0.520370602607727, 2.814849376678467, 1.193920373916626, -106.34644317626953],
    [0.026560762897133827, -0.9070077538490295, 3.803109645843506, -26.88176918029785],
    [0.0, 0.0, 0.0, 1.0]
],
  "dcmmeta_reorient_transform": [
    [0.0, -1.0, 0.0, 79.0],
    [1.0, 0.0, 0.0, 0.0],
    [0.0, 0.0, 1.0, 0.0],
    [0.0, 0.0, 0.0, 1.0]
],
  "dcmmeta_shape": [80, 80, 32, 200],
  "dcmmeta_slice_dim": 2,
  "dcmmeta_version": 0.6,
  "global": {
    "const": {
      "AccessionNumber": "qa",
      "AcquisitionMatrix": [80, 0, 0, 80],
      "AngioFlag": "N",
      "BitsAllocated": 16,
      "BitsStored": 12,
      "BodyPartExamined": "BRAIN",
      "Columns": 480,
      "EchoNumbers": 1,
      "EchoTime": 35.0,
      "EchoTrainLength": 39,
      "FlipAngle": 90.0,
      "HighBit": 11,
      "ImageOrientationPatient": [0.98480166843382, 0.17345687601023, 0.00885358767593, -0.1679814547158, 0.938283122422, 0.30233592748727],
      "ImagePositionPatient": [-592.95299305164, -783.07065966527, -285.24909312942],
      "ImageType": [
        "ORIGINAL",
        "PRIMARY",
        "M",
        "ND",
        "NORM",
        "MOSAIC"
],
      "ImagedNucleus": "1H",
      "ImagingFrequency": 123.259163,
      "InPlanePhaseEncodingDirection": "COL",
      "MRAcquisitionType": "2D",
      "MagneticFieldStrength": 3.0,
      "Manufacturer": "SIEMENS",
      "ManufacturerModelName": "Prisma",
      "Modality": "MR",
      "NumberOfAverages": 1.0,
      "NumberOfPhaseEncodingSteps": 79,
      "PercentPhaseFieldOfView": 100.0,
      "PercentSampling": 100.0,
      "PerformedProcedureStepStartTime": "081345.882000",
      "PhotometricInterpretation": "MONOCHROME2",
      "PixelBandwidth": 2315.0,
      "PixelRepresentation": 0,
      "PixelSpacing": [3.0, 3.0],
      "ProtocolName": "func-bold_task-rest_acq-p2-s4-3.5mm",
      "RepetitionTime": 2000.0,
      "Rows": 480,
      "SAR": 0.02689653901368,
      "SamplesPerPixel": 1,
      "ScanOptions": "FS",
      "ScanningSequence": "EP",
      "SequenceName": "*epfid2d1_80",
      "SequenceVariant": "SK",
      "SeriesDescription": "func-bold_task-rest_acq-p2-s4-3.5mm",
      "SeriesNumber": 6,
      "SeriesTime": "083405.952000",
      "SliceLocation": -63.741345619415,
      "SliceThickness": 3.5,
      "SmallestImagePixelValue": 0,
      "SoftwareVersions": "syngo MR E11",
      "SpacingBetweenSlices": 3.9900000053292,
      "SpecificCharacterSet": "ISO_IR 100",
      "StudyID": "41",
      "StudyTime": "081345.772000",
      "TransmitCoilName": "Body",
      "VariableFlipAngleFlag": "N",
      "WindowCenterWidthExplanation": "Algo1"
    },
    "slices": {}
  },
  "time": {
    "samples": {
      "AcquisitionNumber": [1, 2, 3, 4, 5, 6, 7, 8, 9, 10, 11, 12, 13, 14, 15, 16, 17, 18, 19, 20, 21, 22, 23, 24, 25, 26, 27, 28, 29, 30, 31, 32, 33, 34, 35, 36, 37, 38, 39, 40, 41, 42, 43, 44, 45, 46, 47, 48, 49, 50, 51, 52, 53, 54, 55, 56, 57, 58, 59, 60, 61, 62, 63, 64, 65, 66, 67, 68, 69, 70, 71, 72, 73, 74, 75, 76, 77, 78, 79, 80, 81, 82, 83, 84, 85, 86, 87, 88, 89, 90, 91, 92, 93, 94, 95, 96, 97, 98, 99, 100, 101, 102, 103, 104, 105, 106, 107, 108, 109, 110, 111, 112, 113, 114, 115, 116, 117, 118, 119, 120, 121, 122, 123, 124, 125, 126, 127, 128, 129, 130, 131, 132, 133, 134, 135, 136, 137, 138, 139, 140, 141, 142, 143, 144, 145, 146, 147, 148, 149, 150, 151, 152, 153, 154, 155, 156, 157, 158, 159, 160, 161, 162, 163, 164, 165, 166, 167, 168, 169, 170, 171, 172, 173, 174, 175, 176, 177, 178, 179, 180, 181, 182, 183, 184, 185, 186, 187, 188, 189, 190, 191, 192, 193, 194, 195, 196, 197, 198, 199, 200],
      "AcquisitionTime": ["083324.052500", "083326.052500", "083328.052500", "083330.052500", "083332.052500", "083334.052500", "083336.052500", "083338.052500", "083340.052500", "083342.052500", "083344.052500", "083346.052500", "083348.052500", "083350.052500", "083352.052500", "083354.052500", "083356.052500", "083358.052500", "083400.052500", "083402.052500", "083404.052500", "083406.052500", "083408.052500", "083410.052500", "083412.052500", "083414.052500", "083416.052500", "083418.052500", "083420.052500", "083422.052500", "083424.052500", "083426.052500", "083428.052500", "083430.052500", "083432.052500", "083434.052500", "083436.052500", "083438.052500", "083440.052500", "083442.052500", "083444.052500", "083446.052500", "083448.052500", "083450.052500", "083452.052500", "083454.052500", "083456.052500", "083458.052500", "083500.052500", "083502.052500", "083504.052500", "083506.052500", "083508.052500", "083510.052500", "083512.052500", "083514.052500", "083516.052500", "083518.052500", "083520.052500", "083522.052500", "083524.052500", "083526.052500", "083528.052500", "083530.052500", "083532.052500", "083534.052500", "083536.052500", "083538.052500", "083540.052500", "083542.052500", "083544.052500", "083546.052500", "083548.052500", "083550.052500", "083552.052500", "083554.052500", "083556.052500", "083558.052500", "083600.052500", "083602.052500", "083604.052500", "083606.052500", "083608.052500", "083610.052500", "083612.052500", "083614.052500", "083616.052500", "083618.052500", "083620.052500", "083622.052500", "083624.052500", "083626.052500", "083628.052500", "083630.052500", "083632.052500", "083634.052500", "083636.052500", "083638.052500", "083640.052500", "083642.052500", "083644.052500", "083646.052500", "083648.052500", "083650.052500", "083652.052500", "083654.052500", "083656.052500", "083658.052500", "083700.052500", "083702.052500", "083704.052500", "083706.052500", "083708.052500", "083710.052500", "083712.052500", "083714.052500", "083716.052500", "083718.052500", "083720.052500", "083722.052500", "083724.052500", "083726.052500", "083728.052500", "083730.052500", "083732.052500", "083734.052500", "083736.052500", "083738.052500", "083740.052500", "083742.052500", "083744.052500", "083746.052500", "083748.052500", "083750.052500", "083752.052500", "083754.052500", "083756.052500", "083758.052500", "083800.052500", "083802.052500", "083804.052500", "083806.052500", "083808.052500", "083810.052500", "083812.052500", "083814.052500", "083816.052500", "083818.052500", "083820.052500", "083822.052500", "083824.052500", "083826.052500", "083828.052500", "083830.052500", "083832.052500", "083834.052500", "083836.052500", "083838.052500", "083840.052500", "083842.052500", "083844.052500", "083846.052500", "083848.052500", "083850.052500", "083852.052500", "083854.052500", "083856.052500", "083858.052500", "083900.052500", "083902.052500", "083904.052500", "083906.052500", "083908.052500", "083910.052500", "083912.052500", "083914.052500", "083916.052500", "083918.052500", "083920.052500", "083922.052500", "083924.052500", "083926.052500", "083928.052500", "083930.052500", "083932.052500", "083934.052500", "083936.052500", "083938.052500", "083940.052500", "083942.052500", "083944.052500", "083946.052500", "083948.052500", "083950.052500", "083952.052500", "083954.052500", "083956.052500", "083958.052500", "084000.052500", "084002.052500"],
      "ContentTime": ["083405.955000", "083405.958000", "083405.961000", "083405.963000", "083405.965000", "083405.968000", "083405.970000", "083405.972000", "083405.974000", "083405.977000", "083405.979000", "083405.981000", "083405.984000", "083405.986000", "083405.988000", "083405.991000", "083405.993000", "083405.995000", "083405.998000", "083406.001000", "083406.004000", "083445.949000", "083445.952000", "083445.954000", "083445.956000", "083445.959000", "083445.961000", "083445.963000", "083445.966000", "083445.968000", "083445.970000", "083445.973000", "083445.975000", "083445.977000", "083445.980000", "083445.982000", "083445.984000", "083445.987000", "083445.989000", "083445.991000", "083445.994000", "083525.949000", "083525.952000", "083525.954000", "083525.957000", "083525.959000", "083525.961000", "083525.964000", "083525.966000", "083525.968000", "083525.970000", "083525.973000", "083525.975000", "083525.977000", "083525.980000", "083525.982000", "083525.984000", "083525.987000", "083525.989000", "083525.991000", "083525.994000", "083605.950000", "083605.953000", "083605.955000", "083605.958000", "083605.960000", "083605.962000", "083605.965000", "083605.967000", "083605.969000", "083605.972000", "083605.974000", "083605.976000", "083605.978000", "083605.981000", "083605.983000", "083605.985000", "083605.988000", "083605.990000", "083605.992000", "083605.995000", "083645.949000", "083645.952000", "083645.954000", "083645.956000", "083645.959000", "083645.961000", "083645.963000", "083645.965000", "083645.968000", "083645.970000", "083645.972000", "083645.975000", "083645.977000", "083645.979000", "083645.982000", "083645.984000", "083645.986000", "083645.989000", "083645.991000", "083645.993000", "083725.949000", "083725.952000", "083725.954000", "083725.956000", "083725.959000", "083725.961000", "083725.963000", "083725.966000", "083725.968000", "083725.970000", "083725.973000", "083725.975000", "083725.977000", "083725.980000", "083725.982000", "083725.984000", "083725.986000", "083725.989000", "083725.991000", "083725.993000", "083745.949000", "083745.952000", "083745.955000", "083745.957000", "083745.959000", "083745.962000", "083745.964000", "083745.967000", "083745.969000", "083745.971000", "083825.950000", "083825.953000", "083825.955000", "083825.958000", "083825.960000", "083825.962000", "083825.965000", "083825.967000", "083825.970000", "083825.972000", "083825.974000", "083825.977000", "083825.979000", "083825.981000", "083825.984000", "083825.986000", "083825.988000", "083825.991000", "083825.993000", "083825.995000", "083905.949000", "083905.952000", "083905.954000", "083905.956000", "083905.959000", "083905.961000", "083905.963000", "083905.966000", "083905.968000", "083905.970000", "083905.972000", "083905.975000", "083905.977000", "083905.979000", "083905.982000", "083905.984000", "083905.986000", "083905.989000", "083905.991000", "083905.993000", "083945.949000", "083945.952000", "083945.954000", "083945.956000", "083945.959000", "083945.961000", "083945.963000", "083945.966000", "083945.968000", "083945.970000", "083945.973000", "083945.975000", "083945.977000", "083945.980000", "083945.982000", "083945.984000", "083945.986000", "083945.989000", "083945.991000", "083945.993000", "084003.296000", "084003.299000", "084003.302000", "084003.305000", "084003.307000", "084003.309000", "084003.312000", "084003.314000", "084003.316000"],
      "InstanceCreationTime": ["083405.955000", "083405.958000", "083405.961000", "083405.963000", "083405.965000", "083405.968000", "083405.970000", "083405.972000", "083405.974000", "083405.977000", "083405.979000", "083405.981000", "083405.984000", "083405.986000", "083405.988000", "083405.991000", "083405.993000", "083405.995000", "083405.998000", "083406.001000", "083406.004000", "083445.949000", "083445.952000", "083445.954000", "083445.956000", "083445.959000", "083445.961000", "083445.963000", "083445.966000", "083445.968000", "083445.970000", "083445.973000", "083445.975000", "083445.977000", "083445.980000", "083445.982000", "083445.984000", "083445.987000", "083445.989000", "083445.991000", "083445.994000", "083525.949000", "083525.952000", "083525.954000", "083525.957000", "083525.959000", "083525.961000", "083525.964000", "083525.966000", "083525.968000", "083525.970000", "083525.973000", "083525.975000", "083525.977000", "083525.980000", "083525.982000", "083525.984000", "083525.987000", "083525.989000", "083525.991000", "083525.994000", "083605.950000", "083605.953000", "083605.955000", "083605.958000", "083605.960000", "083605.962000", "083605.965000", "083605.967000", "083605.969000", "083605.972000", "083605.974000", "083605.976000", "083605.978000", "083605.981000", "083605.983000", "083605.985000", "083605.988000", "083605.990000", "083605.992000", "083605.995000", "083645.949000", "083645.952000", "083645.954000", "083645.956000", "083645.959000", "083645.961000", "083645.963000", "083645.965000", "083645.968000", "083645.970000", "083645.972000", "083645.975000", "083645.977000", "083645.979000", "083645.982000", "083645.984000", "083645.986000", "083645.989000", "083645.991000", "083645.993000", "083725.949000", "083725.952000", "083725.954000", "083725.956000", "083725.959000", "083725.961000", "083725.963000", "083725.966000", "083725.968000", "083725.970000", "083725.973000", "083725.975000", "083725.977000", "083725.980000", "083725.982000", "083725.984000", "083725.986000", "083725.989000", "083725.991000", "083725.993000", "083745.949000", "083745.952000", "083745.955000", "083745.957000", "083745.959000", "083745.962000", "083745.964000", "083745.967000", "083745.969000", "083745.971000", "083825.950000", "083825.953000", "083825.955000", "083825.958000", "083825.960000", "083825.962000", "083825.965000", "083825.967000", "083825.970000", "083825.972000", "083825.974000", "083825.977000", "083825.979000", "083825.981000", "083825.984000", "083825.986000", "083825.988000", "083825.991000", "083825.993000", "083825.995000", "083905.949000", "083905.952000", "083905.954000", "083905.956000", "083905.959000", "083905.961000", "083905.963000", "083905.966000", "083905.968000", "083905.970000", "083905.972000", "083905.975000", "083905.977000", "083905.979000", "083905.982000", "083905.984000", "083905.986000", "083905.989000", "083905.991000", "083905.993000", "083945.949000", "083945.952000", "083945.954000", "083945.956000", "083945.959000", "083945.961000", "083945.963000", "083945.966000", "083945.968000", "083945.970000", "083945.973000", "083945.975000", "083945.977000", "083945.980000", "083945.982000", "083945.984000", "083945.986000", "083945.989000", "083945.991000", "083945.993000", "084003.296000", "084003.299000", "084003.302000", "084003.305000", "084003.307000", "084003.309000", "084003.312000", "084003.314000", "084003.316000"],
      "InstanceNumber": [1, 2, 3, 4, 5, 6, 7, 8, 9, 10, 11, 12, 13, 14, 15, 16, 17, 18, 19, 20, 21, 22, 23, 24, 25, 26, 27, 28, 29, 30, 31, 32, 33, 34, 35, 36, 37, 38, 39, 40, 41, 42, 43, 44, 45, 46, 47, 48, 49, 50, 51, 52, 53, 54, 55, 56, 57, 58, 59, 60, 61, 62, 63, 64, 65, 66, 67, 68, 69, 70, 71, 72, 73, 74, 75, 76, 77, 78, 79, 80, 81, 82, 83, 84, 85, 86, 87, 88, 89, 90, 91, 92, 93, 94, 95, 96, 97, 98, 99, 100, 101, 102, 103, 104, 105, 106, 107, 108, 109, 110, 111, 112, 113, 114, 115, 116, 117, 118, 119, 120, 121, 122, 123, 124, 125, 126, 127, 128, 129, 130, 131, 132, 133, 134, 135, 136, 137, 138, 139, 140, 141, 142, 143, 144, 145, 146, 147, 148, 149, 150, 151, 152, 153, 154, 155, 156, 157, 158, 159, 160, 161, 162, 163, 164, 165, 166, 167, 168, 169, 170, 171, 172, 173, 174, 175, 176, 177, 178, 179, 180, 181, 182, 183, 184, 185, 186, 187, 188, 189, 190, 191, 192, 193, 194, 195, 196, 197, 198, 199, 200],
      "LargestImagePixelValue": [2211, 2209, 2208, 2211, 2211, 2211, 2210, 2211, 2210, 2210, 2209, 2213, 2210, 2214, 2208, 2213, 2213, 2213, 2213, 2216, 2210, 2211, 2213, 2211, 2211, 2213, 2209, 2212, 2215, 2212, 2208, 2211, 2213, 2212, 2211, 2211, 2210, 2215, 2211, 2212, 2211, 2211, 2212, 2211, 2212, 2212, 2212, 2212, 2213, 2214, 2213, 2212, 2212, 2209, 2209, 2215, 2213, 2211, 2212, 2216, 2213, 2211, 2209, 2213, 2214, 2214, 2212, 2209, 2209, 2211, 2214, 2208, 2207, 2210, 2214, 2213, 2215, 2214, 2211, 2213, 2214, 2207, 2211, 2215, 2215, 2209, 2210, 2211, 2211, 2210, 2208, 2214, 2211, 2212, 2214, 2212, 2209, 2214, 2211, 2212, 2208, 2214, 2214, 2212, 2211, 2211, 2211, 2211, 2212, 2212, 2212, 2210, 2211, 2213, 2213, 2210, 2215, 2211, 2208, 2214, 2211, 2211, 2212, 2212, 2208, 2214, 2208, 2213, 2211, 2212, 2212, 2212, 2213, 2209, 2207, 2214, 2211, 2211, 2211, 2213, 2211, 2213, 2212, 2208, 2209, 2209, 2209, 2207, 2212, 2212, 2210, 2215, 2211, 2210, 2213, 2212, 2206, 2218, 2215, 2212, 2210, 2207, 2214, 2213, 2213, 2213, 2211, 2205, 2215, 2212, 2212, 2212, 2212, 2211, 2212, 2211, 2212, 2210, 2207, 2212, 2215, 2210, 2209, 2215, 2211, 2212, 2213, 2213, 2213, 2213, 2213, 2208, 2212, 2209, 2211, 2211, 2211, 2210, 2212, 2208],
      "WindowCenter": [959.0, 959.0, 959.0, 958.0, 959.0, 959.0, 959.0, 959.0, 959.0, 959.0, 959.0, 959.0, 957.0, 959.0, 957.0, 956.0, 958.0, 957.0, 958.0, 958.0, 959.0, 958.0, 959.0, 957.0, 959.0, 958.0, 958.0, 957.0, 959.0, 959.0, 959.0, 959.0, 958.0, 959.0, 958.0, 959.0, 959.0, 958.0, 959.0, 959.0, 959.0, 959.0, 959.0, 960.0, 958.0, 957.0, 959.0, 959.0, 958.0, 959.0, 958.0, 959.0, 958.0, 959.0, 958.0, 957.0, 959.0, 959.0, 958.0, 959.0, 958.0, 959.0, 959.0, 959.0, 959.0, 959.0, 959.0, 959.0, 958.0, 959.0, 959.0, 958.0, 959.0, 957.0, 958.0, 959.0, 957.0, 958.0, 958.0, 959.0, 959.0, 958.0, 959.0, 957.0, 958.0, 958.0, 959.0, 959.0, 959.0, 956.0, 959.0, 957.0, 959.0, 958.0, 959.0, 957.0, 958.0, 959.0, 956.0, 958.0, 959.0, 959.0, 958.0, 959.0, 959.0, 959.0, 959.0, 959.0, 959.0, 959.0, 959.0, 957.0, 959.0, 957.0, 959.0, 958.0, 959.0, 959.0, 957.0, 959.0, 959.0, 959.0, 959.0, 959.0, 958.0, 958.0, 959.0, 959.0, 958.0, 959.0, 957.0, 959.0, 958.0, 958.0, 958.0, 957.0, 959.0, 957.0, 958.0, 958.0, 959.0, 958.0, 959.0, 959.0, 959.0, 959.0, 959.0, 957.0, 960.0, 959.0, 958.0, 959.0, 959.0, 958.0, 956.0, 958.0, 958.0, 958.0, 958.0, 959.0, 957.0, 959.0, 958.0, 959.0, 959.0, 959.0, 957.0, 957.0, 957.0, 959.0, 959.0, 958.0, 959.0, 959.0, 959.0, 958.0, 959.0, 959.0, 959.0, 959.0, 959.0, 959.0, 959.0, 959.0, 957.0, 958.0, 959.0, 958.0, 958.0, 959.0, 958.0, 959.0, 958.0, 958.0, 957.0, 958.0, 958.0, 959.0, 957.0, 958.0],
      "WindowWidth": [2248.0, 2248.0, 2248.0, 2247.0, 2248.0, 2248.0, 2248.0, 2249.0, 2248.0, 2248.0, 2248.0, 2248.0, 2247.0, 2248.0, 2247.0, 2246.0, 2248.0, 2247.0, 2248.0, 2248.0, 2248.0, 2247.0, 2248.0, 2247.0, 2248.0, 2247.0, 2247.0, 2247.0, 2248.0, 2248.0, 2248.0, 2248.0, 2247.0, 2248.0, 2248.0, 2248.0, 2248.0, 2248.0, 2249.0, 2248.0, 2248.0, 2248.0, 2248.0, 2249.0, 2248.0, 2247.0, 2248.0, 2248.0, 2248.0, 2249.0, 2248.0, 2248.0, 2248.0, 2248.0, 2248.0, 2247.0, 2248.0, 2248.0, 2248.0, 2249.0, 2248.0, 2248.0, 2249.0, 2249.0, 2248.0, 2248.0, 2248.0, 2248.0, 2248.0, 2249.0, 2248.0, 2247.0, 2248.0, 2248.0, 2248.0, 2248.0, 2247.0, 2248.0, 2248.0, 2249.0, 2249.0, 2247.0, 2248.0, 2247.0, 2248.0, 2247.0, 2248.0, 2249.0, 2249.0, 2246.0, 2249.0, 2247.0, 2249.0, 2248.0, 2249.0, 2247.0, 2248.0, 2248.0, 2247.0, 2248.0, 2248.0, 2248.0, 2248.0, 2249.0, 2249.0, 2248.0, 2248.0, 2248.0, 2249.0, 2248.0, 2248.0, 2247.0, 2248.0, 2247.0, 2249.0, 2248.0, 2248.0, 2248.0, 2247.0, 2248.0, 2248.0, 2248.0, 2249.0, 2249.0, 2248.0, 2247.0, 2248.0, 2248.0, 2248.0, 2249.0, 2247.0, 2248.0, 2248.0, 2248.0, 2248.0, 2247.0, 2248.0, 2247.0, 2248.0, 2248.0, 2249.0, 2248.0, 2249.0, 2249.0, 2249.0, 2248.0, 2249.0, 2247.0, 2250.0, 2249.0, 2248.0, 2248.0, 2249.0, 2248.0, 2246.0, 2248.0, 2248.0, 2248.0, 2248.0, 2248.0, 2247.0, 2248.0, 2248.0, 2249.0, 2249.0, 2249.0, 2247.0, 2247.0, 2247.0, 2248.0, 2248.0, 2248.0, 2248.0, 2249.0, 2249.0, 2248.0, 2248.0, 2249.0, 2249.0, 2249.0, 2248.0, 2248.0, 2248.0, 2249.0, 2247.0, 2248.0, 2249.0, 2248.0, 2248.0, 2248.0, 2248.0, 2248.0, 2248.0, 2248.0, 2247.0, 2248.0, 2248.0, 2249.0, 2247.0, 2248.0]
    },
    "slices": {}
  }
}