{
  "AcquisitionMatrixPE": 80,
  "AcquisitionNumber": 1,
  "AcquisitionTime": "08:40:13.395000",
  "BandwidthPerPixelPhaseEncode": 25,
  "BaseResolution": 80,
  "BodyPartExamined": "BRAIN",
  "CoilCombinationMethod": "Sum of Squares",
  "ConsistencyInfo": "N4_VE11E_LATEST_20181129",
  "ConversionSoftware": "dcm2niix",
  "ConversionSoftwareVersion": "v1.0.20220720",
  "DerivedVendorReportedEchoSpacing": 0.0005,
  "DeviceSerialNumber": "66112",
  "DwellTime": 2.7e-06,
  "EchoTime": 0.03,
  "EchoTrainLength": 80,
  "EffectiveEchoSpacing": 0.0005,
  "FlipAngle": 77,
  "HeudiconvVersion": "0.13.1",
  "ImageOrientationPatientDICOM": [0.984802, 0.173457, 0.00885359, -0.167981, 0.938283, 0.302336],
  "ImageOrientationText": "Tra>Cor(17.4)>Sag(-2.5)",
  "ImageType": [
    "ORIGINAL",
    "PRIMARY",
    "M",
    "ND",
    "NORM",
    "MOSAIC"
],
  "ImagingFrequency": 123.259,
  "InPlanePhaseEncodingDirectionDICOM": "COL",
  "InstitutionAddress": "Maynard 3,Hanover,NH,US,03755",
  "InstitutionName": "Dartmouth College - PBS",
  "InstitutionalDepartmentName": "Department",
  "MRAcquisitionType": "2D",
  "MagneticFieldStrength": 3,
  "Manufacturer": "Siemens",
  "ManufacturersModelName": "Prisma",
  "MatrixCoilMode": "SENSE",
  "Modality": "MR",
  "NonlinearGradientCorrection": false,
  "PartialFourier": 1,
  "PatientPosition": "HFS",
  "PercentPhaseFOV": 100,
  "PercentSampling": 100,
  "PhaseEncodingDirection": "j-",
  "PhaseEncodingSteps": 80,
  "PhaseResolution": 1,
  "PixelBandwidth": 2315,
  "ProcedureStepDescription": "dbic^QA",
  "ProtocolName": "func-bold_fa-77",
  "PulseSequenceDetails": "%SiemensSeq%\\ep2d_bold",
  "ReceiveCoilActiveElements": "HEA;HEP",
  "ReceiveCoilName": "Head_32",
  "ReconMatrixPE": 80,
  "RepetitionTime": 2,
  "SAR": 0.0562065,
  "ScanOptions": "FS",
  "ScanningSequence": "EP",
  "SequenceName": "*epfid2d1_80",
  "SequenceVariant": "SK",
  "SeriesDescription": "func-bold_fa-77",
  "SeriesNumber": 7,
  "ShimSetting": [4220, -7744, -7498, -12, -132, -106, 1, 72],
  "SliceThickness": 3.5,
  "SliceTiming": [0.99, 0, 1.055, 0.065, 1.1225, 0.1325, 1.1875, 0.1975, 1.255, 0.265, 1.32, 0.33, 1.385, 0.395, 1.4525, 0.4625, 1.5175, 0.5275, 1.585, 0.595, 1.65, 0.66, 1.715, 0.725, 1.7825, 0.7925, 1.8475, 0.8575, 1.915, 0.925],
  "SoftwareVersions": "syngo MR E11",
  "SpacingBetweenSlices": 3.99,
  "StationName": "AWP66112",
  "TotalReadoutTime": 0.0395,
  "TxRefAmp": 224.96,
  "dcmmeta_affine": [
    [-2.9544050693511963, -0.5039443373680115, -0.17609894275665283, 142.1455078125],
    [-0.520370602607727, 2.814849376678467, 1.193920373916626, -103.1596908569336],
    [0.026560762897133827, -0.9070077538490295, 3.803109884262085, -23.04767417907715],
    [0.0, 0.0, 0.0, 1.0]
],
  "dcmmeta_reorient_transform": [
    [0.0, -1.0, 0.0, 79.0],
    [1.0, 0.0, 0.0, 0.0],
    [0.0, 0.0, 1.0, 0.0],
    [0.0, 0.0, 0.0, 1.0]
],
  "dcmmeta_shape": [80, 80, 30, 200],
  "dcmmeta_slice_dim": 2,
  "dcmmeta_version": 0.6,
  "global": {
    "const": {
      "AccessionNumber": "qa",
      "AcquisitionMatrix": [80, 0, 0, 80],
      "AngioFlag": "N",
      "BitsAllocated": 16,
      "BitsStored": 12,
      "BodyPartExamined": "BRAIN",
      "Columns": 480,
      "EchoNumbers": 1,
      "EchoTime": 30.0,
      "EchoTrainLength": 80,
      "FlipAngle": 77.0,
      "HighBit": 11,
      "ImageOrientationPatient": [0.98480166843382, 0.17345687601023, 0.00885358767593, -0.1679814547158, 0.938283122422, 0.30233592748727],
      "ImagePositionPatient": [-592.42602409565, -786.25740721624, -281.4149981282],
      "ImageType": [
        "ORIGINAL",
        "PRIMARY",
        "M",
        "ND",
        "NORM",
        "MOSAIC"
],
      "ImagedNucleus": "1H",
      "ImagingFrequency": 123.259161,
      "InPlanePhaseEncodingDirection": "COL",
      "MRAcquisitionType": "2D",
      "MagneticFieldStrength": 3.0,
      "Manufacturer": "SIEMENS",
      "ManufacturerModelName": "Prisma",
      "Modality": "MR",
      "NumberOfAverages": 1.0,
      "NumberOfPhaseEncodingSteps": 80,
      "PercentPhaseFieldOfView": 100.0,
      "PercentSampling": 100.0,
      "PerformedProcedureStepStartTime": "081345.882000",
      "PhotometricInterpretation": "MONOCHROME2",
      "PixelBandwidth": 2315.0,
      "PixelRepresentation": 0,
      "PixelSpacing": [3.0, 3.0],
      "ProtocolName": "func-bold_fa-77",
      "RepetitionTime": 2000.0,
      "Rows": 480,
      "SAR": 0.05620650134673,
      "SamplesPerPixel": 1,
      "ScanOptions": "FS",
      "ScanningSequence": "EP",
      "SequenceName": "*epfid2d1_80",
      "SequenceVariant": "SK",
      "SeriesDescription": "func-bold_fa-77",
      "SeriesNumber": 7,
      "SeriesTime": "084105.774000",
      "SliceLocation": -59.110015956863,
      "SliceThickness": 3.5,
      "SmallestImagePixelValue": 0,
      "SoftwareVersions": "syngo MR E11",
      "SpacingBetweenSlices": 3.9900001171176,
      "SpecificCharacterSet": "ISO_IR 100",
      "StudyID": "41",
      "StudyTime": "081345.772000",
      "TransmitCoilName": "Body",
      "VariableFlipAngleFlag": "N",
      "WindowCenterWidthExplanation": "Algo1"
    },
    "slices": {}
  },
  "time": {
    "samples": {
      "AcquisitionNumber": [1, 2, 3, 4, 5, 6, 7, 8, 9, 10, 11, 12, 13, 14, 15, 16, 17, 18, 19, 20, 21, 22, 23, 24, 25, 26, 27, 28, 29, 30, 31, 32, 33, 34, 35, 36, 37, 38, 39, 40, 41, 42, 43, 44, 45, 46, 47, 48, 49, 50, 51, 52, 53, 54, 55, 56, 57, 58, 59, 60, 61, 62, 63, 64, 65, 66, 67, 68, 69, 70, 71, 72, 73, 74, 75, 76, 77, 78, 79, 80, 81, 82, 83, 84, 85, 86, 87, 88, 89, 90, 91, 92, 93, 94, 95, 96, 97, 98, 99, 100, 101, 102, 103, 104, 105, 106, 107, 108, 109, 110, 111, 112, 113, 114, 115, 116, 117, 118, 119, 120, 121, 122, 123, 124, 125, 126, 127, 128, 129, 130, 131, 132, 133, 134, 135, 136, 137, 138, 139, 140, 141, 142, 143, 144, 145, 146, 147, 148, 149, 150, 151, 152, 153, 154, 155, 156, 157, 158, 159, 160, 161, 162, 163, 164, 165, 166, 167, 168, 169, 170, 171, 172, 173, 174, 175, 176, 177, 178, 179, 180, 181, 182, 183, 184, 185, 186, 187, 188, 189, 190, 191, 192, 193, 194, 195, 196, 197, 198, 199, 200],
      "AcquisitionTime": ["084013.395000", "084015.395000", "084017.395000", "084019.395000", "084021.395000", "084023.395000", "084025.395000", "084027.395000", "084029.395000", "084031.395000", "084033.395000", "084035.395000", "084037.395000", "084039.395000", "084041.395000", "084043.395000", "084045.395000", "084047.395000", "084049.395000", "084051.395000", "084053.395000", "084055.395000", "084057.395000", "084059.395000", "084101.395000", "084103.395000", "084105.395000", "084107.395000", "084109.395000", "084111.395000", "084113.395000", "084115.395000", "084117.395000", "084119.395000", "084121.395000", "084123.395000", "084125.395000", "084127.395000", "084129.395000", "084131.395000", "084133.395000", "084135.395000", "084137.395000", "084139.395000", "084141.395000", "084143.395000", "084145.395000", "084147.395000", "084149.395000", "084151.395000", "084153.395000", "084155.395000", "084157.395000", "084159.395000", "084201.395000", "084203.395000", "084205.395000", "084207.395000", "084209.395000", "084211.395000", "084213.395000", "084215.395000", "084217.395000", "084219.395000", "084221.395000", "084223.395000", "084225.395000", "084227.395000", "084229.395000", "084231.395000", "084233.395000", "084235.395000", "084237.395000", "084239.395000", "084241.395000", "084243.395000", "084245.395000", "084247.395000", "084249.395000", "084251.395000", "084253.395000", "084255.395000", "084257.395000", "084259.395000", "084301.395000", "084303.395000", "084305.395000", "084307.395000", "084309.395000", "084311.395000", "084313.395000", "084315.395000", "084317.395000", "084319.395000", "084321.395000", "084323.395000", "084325.395000", "084327.395000", "084329.395000", "084331.395000", "084333.395000", "084335.395000", "084337.395000", "084339.395000", "084341.395000", "084343.395000", "084345.395000", "084347.395000", "084349.395000", "084351.395000", "084353.395000", "084355.395000", "084357.395000", "084359.395000", "084401.395000", "084403.395000", "084405.395000", "084407.395000", "084409.395000", "084411.395000", "084413.395000", "084415.395000", "084417.395000", "084419.395000", "084421.395000", "084423.395000", "084425.395000", "084427.395000", "084429.395000", "084431.395000", "084433.395000", "084435.395000", "084437.395000", "084439.395000", "084441.395000", "084443.395000", "084445.395000", "084447.395000", "084449.395000", "084451.395000", "084453.395000", "084455.395000", "084457.395000", "084459.395000", "084501.395000", "084503.395000", "084505.395000", "084507.395000", "084509.395000", "084511.395000", "084513.395000", "084515.395000", "084517.395000", "084519.395000", "084521.395000", "084523.395000", "084525.395000", "084527.395000", "084529.395000", "084531.395000", "084533.395000", "084535.395000", "084537.395000", "084539.395000", "084541.395000", "084543.395000", "084545.395000", "084547.395000", "084549.395000", "084551.395000", "084553.395000", "084555.395000", "084557.395000", "084559.395000", "084601.395000", "084603.395000", "084605.395000", "084607.395000", "084609.395000", "084611.395000", "084613.395000", "084615.395000", "084617.395000", "084619.395000", "084621.395000", "084623.395000", "084625.395000", "084627.395000", "084629.395000", "084631.395000", "084633.395000", "084635.395000", "084637.395000", "084639.395000", "084641.395000", "084643.395000", "084645.395000", "084647.395000", "084649.395000", "084651.395000"],
      "ContentTime": ["084105.777000", "084105.780000", "084105.782000", "084105.785000", "084105.787000", "084105.789000", "084105.792000", "084105.794000", "084105.796000", "084105.799000", "084105.801000", "084105.803000", "084105.805000", "084105.808000", "084105.810000", "084105.812000", "084105.815000", "084105.817000", "084105.819000", "084105.821000", "084105.824000", "084105.826000", "084105.828000", "084105.830000", "084105.833000", "084105.835000", "084145.771000", "084145.774000", "084145.776000", "084145.779000", "084145.781000", "084145.783000", "084145.786000", "084145.788000", "084145.790000", "084145.793000", "084145.795000", "084145.797000", "084145.799000", "084145.802000", "084145.804000", "084145.806000", "084145.809000", "084145.811000", "084145.813000", "084145.816000", "084225.771000", "084225.774000", "084225.776000", "084225.779000", "084225.781000", "084225.783000", "084225.785000", "084225.788000", "084225.790000", "084225.792000", "084225.795000", "084225.797000", "084225.799000", "084225.801000", "084225.804000", "084225.806000", "084225.808000", "084225.811000", "084225.813000", "084225.815000", "084305.773000", "084305.775000", "084305.777000", "084305.780000", "084305.782000", "084305.784000", "084305.787000", "084305.789000", "084305.791000", "084305.793000", "084305.796000", "084305.798000", "084305.800000", "084305.803000", "084305.805000", "084305.807000", "084305.810000", "084305.812000", "084305.814000", "084305.817000", "084345.771000", "084345.774000", "084345.776000", "084345.778000", "084345.780000", "084345.783000", "084345.785000", "084345.787000", "084345.790000", "084345.792000", "084345.794000", "084345.797000", "084345.799000", "084345.801000", "084345.804000", "084345.806000", "084345.808000", "084345.811000", "084345.813000", "084345.815000", "084425.771000", "084425.774000", "084425.776000", "084425.779000", "084425.781000", "084425.783000", "084425.786000", "084425.788000", "084425.790000", "084425.793000", "084425.795000", "084425.797000", "084425.800000", "084425.802000", "084425.804000", "084425.807000", "084425.809000", "084425.811000", "084425.813000", "084425.816000", "084505.771000", "084505.774000", "084505.776000", "084505.779000", "084505.781000", "084505.783000", "084505.786000", "084505.788000", "084505.790000", "084505.793000", "084505.795000", "084505.797000", "084505.800000", "084505.802000", "084505.804000", "084505.806000", "084505.809000", "084505.811000", "084505.813000", "084505.816000", "084545.772000", "084545.775000", "084545.777000", "084545.779000", "084545.782000", "084545.784000", "084545.786000", "084545.789000", "084545.791000", "084545.793000", "084545.795000", "084545.798000", "084545.800000", "084545.802000", "084545.805000", "084545.807000", "084545.809000", "084545.811000", "084545.814000", "084545.816000", "084625.771000", "084625.774000", "084625.776000", "084625.779000", "084625.781000", "084625.783000", "084625.786000", "084625.788000", "084625.790000", "084625.793000", "084625.795000", "084625.797000", "084625.799000", "084625.802000", "084625.804000", "084625.806000", "084625.809000", "084625.811000", "084625.813000", "084625.815000", "084652.707000", "084652.709000", "084652.712000", "084652.714000", "084652.716000", "084652.719000", "084652.721000", "084652.723000", "084652.726000", "084652.728000", "084652.731000", "084652.733000", "084652.735000", "084652.741000"],
      "InstanceCreationTime": ["084105.777000", "084105.780000", "084105.782000", "084105.785000", "084105.787000", "084105.789000", "084105.792000", "084105.794000", "084105.796000", "084105.799000", "084105.801000", "084105.803000", "084105.805000", "084105.808000", "084105.810000", "084105.812000", "084105.815000", "084105.817000", "084105.819000", "084105.821000", "084105.824000", "084105.826000", "084105.828000", "084105.830000", "084105.833000", "084105.835000", "084145.771000", "084145.774000", "084145.776000", "084145.779000", "084145.781000", "084145.783000", "084145.786000", "084145.788000", "084145.790000", "084145.793000", "084145.795000", "084145.797000", "084145.799000", "084145.802000", "084145.804000", "084145.806000", "084145.809000", "084145.811000", "084145.813000", "084145.816000", "084225.771000", "084225.774000", "084225.776000", "084225.779000", "084225.781000", "084225.783000", "084225.785000", "084225.788000", "084225.790000", "084225.792000", "084225.795000", "084225.797000", "084225.799000", "084225.801000", "084225.804000", "084225.806000", "084225.808000", "084225.811000", "084225.813000", "084225.815000", "084305.773000", "084305.775000", "084305.777000", "084305.780000", "084305.782000", "084305.784000", "084305.787000", "084305.789000", "084305.791000", "084305.793000", "084305.796000", "084305.798000", "084305.800000", "084305.803000", "084305.805000", "084305.807000", "084305.810000", "084305.812000", "084305.814000", "084305.817000", "084345.771000", "084345.774000", "084345.776000", "084345.778000", "084345.780000", "084345.783000", "084345.785000", "084345.787000", "084345.790000", "084345.792000", "084345.794000", "084345.797000", "084345.799000", "084345.801000", "084345.804000", "084345.806000", "084345.808000", "084345.811000", "084345.813000", "084345.815000", "084425.771000", "084425.774000", "084425.776000", "084425.779000", "084425.781000", "084425.783000", "084425.786000", "084425.788000", "084425.790000", "084425.793000", "084425.795000", "084425.797000", "084425.800000", "084425.802000", "084425.804000", "084425.807000", "084425.809000", "084425.811000", "084425.813000", "084425.816000", "084505.771000", "084505.774000", "084505.776000", "084505.779000", "084505.781000", "084505.783000", "084505.786000", "084505.788000", "084505.790000", "084505.793000", "084505.795000", "084505.797000", "084505.800000", "084505.802000", "084505.804000", "084505.806000", "084505.809000", "084505.811000", "084505.813000", "084505.816000", "084545.772000", "084545.775000", "084545.777000", "084545.779000", "084545.782000", "084545.784000", "084545.786000", "084545.789000", "084545.791000", "084545.793000", "084545.795000", "084545.798000", "084545.800000", "084545.802000", "084545.805000", "084545.807000", "084545.809000", "084545.811000", "084545.814000", "084545.816000", "084625.771000", "084625.774000", "084625.776000", "084625.779000", "084625.781000", "084625.783000", "084625.786000", "084625.788000", "084625.790000", "084625.793000", "084625.795000", "084625.797000", "084625.799000", "084625.802000", "084625.804000", "084625.806000", "084625.809000", "084625.811000", "084625.813000", "084625.815000", "084652.707000", "084652.709000", "084652.712000", "084652.714000", "084652.716000", "084652.719000", "084652.721000", "084652.723000", "084652.726000", "084652.728000", "084652.731000", "084652.733000", "084652.735000", "084652.741000"],
      "InstanceNumber": [1, 2, 3, 4, 5, 6, 7, 8, 9, 10, 11, 12, 13, 14, 15, 16, 17, 18, 19, 20, 21, 22, 23, 24, 25, 26, 27, 28, 29, 30, 31, 32, 33, 34, 35, 36, 37, 38, 39, 40, 41, 42, 43, 44, 45, 46, 47, 48, 49, 50, 51, 52, 53, 54, 55, 56, 57, 58, 59, 60, 61, 62, 63, 64, 65, 66, 67, 68, 69, 70, 71, 72, 73, 74, 75, 76, 77, 78, 79, 80, 81, 82, 83, 84, 85, 86, 87, 88, 89, 90, 91, 92, 93, 94, 95, 96, 97, 98, 99, 100, 101, 102, 103, 104, 105, 106, 107, 108, 109, 110, 111, 112, 113, 114, 115, 116, 117, 118, 119, 120, 121, 122, 123, 124, 125, 126, 127, 128, 129, 130, 131, 132, 133, 134, 135, 136, 137, 138, 139, 140, 141, 142, 143, 144, 145, 146, 147, 148, 149, 150, 151, 152, 153, 154, 155, 156, 157, 158, 159, 160, 161, 162, 163, 164, 165, 166, 167, 168, 169, 170, 171, 172, 173, 174, 175, 176, 177, 178, 179, 180, 181, 182, 183, 184, 185, 186, 187, 188, 189, 190, 191, 192, 193, 194, 195, 196, 197, 198, 199, 200],
      "LargestImagePixelValue": [2163, 2165, 2162, 2164, 2165, 2164, 2162, 2162, 2162, 2162, 2161, 2161, 2165, 2163, 2164, 2166, 2165, 2164, 2163, 2164, 2164, 2165, 2164, 2164, 2161, 2163, 2161, 2163, 2164, 2164, 2164, 2163, 2163, 2163, 2162, 2164, 2163, 2163, 2165, 2163, 2163, 2161, 2162, 2164, 2162, 2162, 2161, 2162, 2163, 2163, 2163, 2162, 2164, 2161, 2165, 2162, 2162, 2161, 2162, 2165, 2164, 2161, 2163, 2162, 2161, 2162, 2162, 2161, 2164, 2161, 2161, 2162, 2163, 2162, 2165, 2161, 2160, 2162, 2160, 2161, 2163, 2161, 2160, 2163, 2160, 2161, 2162, 2163, 2163, 2161, 2162, 2162, 2162, 2160, 2160, 2160, 2161, 2162, 2162, 2159, 2162, 2159, 2162, 2161, 2160, 2162, 2161, 2161, 2160, 2161, 2162, 2161, 2163, 2164, 2163, 2162, 2161, 2160, 2161, 2161, 2163, 2162, 2161, 2163, 2162, 2161, 2162, 2160, 2160, 2159, 2161, 2160, 2161, 2162, 2161, 2160, 2159, 2161, 2161, 2159, 2161, 2161, 2159, 2160, 2158, 2160, 2162, 2159, 2162, 2158, 2161, 2160, 2160, 2159, 2159, 2157, 2161, 2163, 2159, 2162, 2161, 2163, 2161, 2160, 2162, 2160, 2162, 2162, 2161, 2161, 2159, 2159, 2158, 2161, 2162, 2161, 2160, 2161, 2161, 2161, 2161, 2159, 2158, 2160, 2159, 2161, 2158, 2161, 2162, 2158, 2161, 2160, 2163, 2162, 2160, 2161, 2159, 2161, 2160, 2159],
      "WindowCenter": [1010.0, 1011.0, 1009.0, 1009.0, 1010.0, 1009.0, 1009.0, 1008.0, 1010.0, 1010.0, 1011.0, 1010.0, 1009.0, 1009.0, 1009.0, 1009.0, 1010.0, 1009.0, 1011.0, 1009.0, 1009.0, 1009.0, 1010.0, 1010.0, 1009.0, 1010.0, 1010.0, 1008.0, 1010.0, 1009.0, 1009.0, 1010.0, 1009.0, 1009.0, 1009.0, 1009.0, 1009.0, 1009.0, 1010.0, 1008.0, 1009.0, 1008.0, 1008.0, 1008.0, 1009.0, 1009.0, 1008.0, 1009.0, 1010.0, 1008.0, 1009.0, 1010.0, 1009.0, 1008.0, 1009.0, 1009.0, 1008.0, 1010.0, 1008.0, 1008.0, 1009.0, 1008.0, 1008.0, 1008.0, 1009.0, 1008.0, 1010.0, 1009.0, 1008.0, 1008.0, 1009.0, 1008.0, 1009.0, 1007.0, 1010.0, 1008.0, 1009.0, 1010.0, 1008.0, 1009.0, 1009.0, 1008.0, 1009.0, 1008.0, 1008.0, 1010.0, 1009.0, 1009.0, 1009.0, 1008.0, 1009.0, 1008.0, 1007.0, 1007.0, 1008.0, 1009.0, 1008.0, 1010.0, 1009.0, 1009.0, 1009.0, 1009.0, 1007.0, 1008.0, 1009.0, 1008.0, 1008.0, 1008.0, 1010.0, 1009.0, 1009.0, 1009.0, 1008.0, 1008.0, 1009.0, 1008.0, 1010.0, 1009.0, 1010.0, 1008.0, 1008.0, 1007.0, 1008.0, 1008.0, 1009.0, 1009.0, 1008.0, 1008.0, 1009.0, 1009.0, 1008.0, 1008.0, 1007.0, 1009.0, 1008.0, 1007.0, 1009.0, 1008.0, 1008.0, 1008.0, 1007.0, 1008.0, 1008.0, 1007.0, 1008.0, 1007.0, 1008.0, 1007.0, 1007.0, 1007.0, 1007.0, 1009.0, 1007.0, 1007.0, 1009.0, 1007.0, 1008.0, 1007.0, 1008.0, 1009.0, 1008.0, 1008.0, 1008.0, 1007.0, 1007.0, 1008.0, 1007.0, 1008.0, 1008.0, 1007.0, 1009.0, 1009.0, 1008.0, 1007.0, 1007.0, 1007.0, 1007.0, 1006.0, 1008.0, 1008.0, 1008.0, 1007.0, 1008.0, 1007.0, 1008.0, 1007.0, 1007.0, 1008.0, 1008.0, 1007.0, 1008.0, 1009.0, 1007.0, 1008.0, 1007.0, 1006.0, 1007.0, 1008.0, 1008.0, 1007.0],
      "WindowWidth": [2244.0, 2245.0, 2244.0, 2244.0, 2244.0, 2244.0, 2244.0, 2243.0, 2244.0, 2244.0, 2245.0, 2244.0, 2244.0, 2243.0, 2243.0, 2243.0, 2244.0, 2244.0, 2245.0, 2244.0, 2243.0, 2243.0, 2244.0, 2244.0, 2243.0, 2244.0, 2244.0, 2243.0, 2244.0, 2244.0, 2243.0, 2245.0, 2244.0, 2243.0, 2244.0, 2244.0, 2244.0, 2244.0, 2244.0, 2243.0, 2244.0, 2243.0, 2243.0, 2242.0, 2243.0, 2243.0, 2243.0, 2244.0, 2244.0, 2243.0, 2243.0, 2244.0, 2243.0, 2243.0, 2243.0, 2243.0, 2242.0, 2244.0, 2242.0, 2242.0, 2243.0, 2242.0, 2242.0, 2242.0, 2243.0, 2242.0, 2244.0, 2243.0, 2242.0, 2242.0, 2243.0, 2242.0, 2243.0, 2242.0, 2244.0, 2242.0, 2243.0, 2244.0, 2242.0, 2243.0, 2243.0, 2242.0, 2243.0, 2242.0, 2242.0, 2243.0, 2243.0, 2243.0, 2243.0, 2242.0, 2243.0, 2242.0, 2241.0, 2241.0, 2241.0, 2242.0, 2241.0, 2243.0, 2242.0, 2242.0, 2242.0, 2242.0, 2241.0, 2241.0, 2242.0, 2241.0, 2241.0, 2241.0, 2243.0, 2242.0, 2242.0, 2242.0, 2241.0, 2241.0, 2242.0, 2241.0, 2243.0, 2242.0, 2243.0, 2241.0, 2241.0, 2240.0, 2241.0, 2241.0, 2242.0, 2242.0, 2241.0, 2241.0, 2242.0, 2242.0, 2242.0, 2241.0, 2240.0, 2242.0, 2241.0, 2240.0, 2242.0, 2242.0, 2242.0, 2242.0, 2240.0, 2241.0, 2241.0, 2241.0, 2242.0, 2240.0, 2242.0, 2241.0, 2241.0, 2241.0, 2241.0, 2242.0, 2241.0, 2241.0, 2242.0, 2241.0, 2241.0, 2241.0, 2241.0, 2242.0, 2241.0, 2241.0, 2241.0, 2241.0, 2239.0, 2241.0, 2241.0, 2241.0, 2241.0, 2241.0, 2242.0, 2242.0, 2241.0, 2241.0, 2241.0, 2240.0, 2241.0, 2240.0, 2241.0, 2241.0, 2241.0, 2240.0, 2241.0, 2240.0, 2241.0, 2240.0, 2240.0, 2241.0, 2241.0, 2240.0, 2241.0, 2241.0, 2240.0, 2241.0, 2240.0, 2239.0, 2240.0, 2241.0, 2241.0, 2240.0]
    },
    "slices": {}
  }
}