{
  "AcquisitionMatrixPE": 80,
  "AcquisitionNumber": 1,
  "AcquisitionTime": "08:26:29.875000",
  "BandwidthPerPixelPhaseEncode": 48.077,
  "BaseResolution": 80,
  "BodyPartExamined": "BRAIN",
  "CoilCombinationMethod": "Sum of Squares",
  "ConsistencyInfo": "N4_VE11E_LATEST_20181129",
  "ConversionSoftware": "dcm2niix",
  "ConversionSoftwareVersion": "v1.0.20220720",
  "DerivedVendorReportedEchoSpacing": 0.000519999,
  "DeviceSerialNumber": "66112",
  "DwellTime": 2.7e-06,
  "EchoTime": 0.035,
  "EchoTrainLength": 39,
  "EffectiveEchoSpacing": 0.00026,
  "FlipAngle": 90,
  "HeudiconvVersion": "0.13.1",
  "ImageOrientationPatientDICOM": [0.984802, 0.173457, 0.00885359, -0.167981, 0.938283, 0.302336],
  "ImageOrientationText": "Tra>Cor(17.4)>Sag(-2.5)",
  "ImageType": [
    "ORIGINAL",
    "PRIMARY",
    "M",
    "ND",
    "NORM",
    "MOSAIC"
],
  "ImagingFrequency": 123.259,
  "InPlanePhaseEncodingDirectionDICOM": "COL",
  "InstitutionAddress": "Maynard 3,Hanover,NH,US,03755",
  "InstitutionName": "Dartmouth College - PBS",
  "InstitutionalDepartmentName": "Department",
  "MRAcquisitionType": "2D",
  "MagneticFieldStrength": 3,
  "Manufacturer": "Siemens",
  "ManufacturersModelName": "Prisma",
  "MatrixCoilMode": "GRAPPA",
  "Modality": "MR",
  "NonlinearGradientCorrection": false,
  "ParallelReductionFactorInPlane": 2,
  "PartialFourier": 1,
  "PatientPosition": "HFS",
  "PercentPhaseFOV": 100,
  "PercentSampling": 100,
  "PhaseEncodingDirection": "j-",
  "PhaseEncodingSteps": 79,
  "PhaseResolution": 1,
  "PixelBandwidth": 2315,
  "ProcedureStepDescription": "dbic^QA",
  "ProtocolName": "func-bold_task-rest_acq-p2",
  "PulseSequenceDetails": "%SiemensSeq%\\ep2d_bold",
  "ReceiveCoilActiveElements": "HEA;HEP",
  "ReceiveCoilName": "Head_32",
  "ReconMatrixPE": 80,
  "RefLinesPE": 24,
  "RepetitionTime": 2,
  "SAR": 0.0715232,
  "ScanOptions": "FS",
  "ScanningSequence": "EP",
  "SequenceName": "*epfid2d1_80",
  "SequenceVariant": "SK",
  "SeriesDescription": "func-bold_task-rest_acq-p2",
  "SeriesNumber": 5,
  "ShimSetting": [4220, -7744, -7498, -12, -132, -106, 1, 72],
  "SliceThickness": 3.5,
  "SliceTiming": [0.99, 0, 1.055, 0.065, 1.1225, 0.1325, 1.1875, 0.1975, 1.2525, 0.265, 1.32, 0.33, 1.385, 0.395, 1.4525, 0.4625, 1.5175, 0.5275, 1.5825, 0.595, 1.65, 0.66, 1.715, 0.725, 1.7825, 0.7925, 1.8475, 0.8575, 1.9125, 0.9225],
  "SoftwareVersions": "syngo MR E11",
  "SpacingBetweenSlices": 3.99,
  "StationName": "AWP66112",
  "TaskName": "rest",
  "TotalReadoutTime": 0.02054,
  "TxRefAmp": 224.96,
  "dcmmeta_affine": [
    [-2.9544050693511963, -0.5039443373680115, -0.17609894275665283, 142.49636840820312],
    [-0.520370602607727, 2.814849376678467, 1.193920373916626, -105.15251922607422],
    [0.026560762897133827, -0.9070077538490295, 3.803109884262085, -23.07866096496582],
    [0.0, 0.0, 0.0, 1.0]
],
  "dcmmeta_reorient_transform": [
    [0.0, -1.0, 0.0, 79.0],
    [1.0, 0.0, 0.0, 0.0],
    [0.0, 0.0, 1.0, 0.0],
    [0.0, 0.0, 0.0, 1.0]
],
  "dcmmeta_shape": [80, 80, 30, 200],
  "dcmmeta_slice_dim": 2,
  "dcmmeta_version": 0.6,
  "global": {
    "const": {
      "AccessionNumber": "qa",
      "AcquisitionMatrix": [80, 0, 0, 80],
      "AngioFlag": "N",
      "BitsAllocated": 16,
      "BitsStored": 12,
      "BodyPartExamined": "BRAIN",
      "Columns": 480,
      "EchoNumbers": 1,
      "EchoTime": 35.0,
      "EchoTrainLength": 39,
      "FlipAngle": 90.0,
      "HighBit": 11,
      "ImageOrientationPatient": [0.98480166843382, 0.17345687601023, 0.00885358767593, -0.1679814547158, 0.938283122422, 0.30233592748727],
      "ImagePositionPatient": [-592.77689422809, -784.26457980077, -281.44598491409],
      "ImageType": [
        "ORIGINAL",
        "PRIMARY",
        "M",
        "ND",
        "NORM",
        "MOSAIC"
],
      "ImagedNucleus": "1H",
      "ImagingFrequency": 123.259166,
      "InPlanePhaseEncodingDirection": "COL",
      "MRAcquisitionType": "2D",
      "MagneticFieldStrength": 3.0,
      "Manufacturer": "SIEMENS",
      "ManufacturerModelName": "Prisma",
      "Modality": "MR",
      "NumberOfAverages": 1.0,
      "NumberOfPhaseEncodingSteps": 79,
      "PercentPhaseFieldOfView": 100.0,
      "PercentSampling": 100.0,
      "PerformedProcedureStepStartTime": "081345.882000",
      "PhotometricInterpretation": "MONOCHROME2",
      "PixelBandwidth": 2315.0,
      "PixelRepresentation": 0,
      "PixelSpacing": [3.0, 3.0],
      "ProtocolName": "func-bold_task-rest_acq-p2",
      "RepetitionTime": 2000.0,
      "Rows": 480,
      "SAR": 0.07152320581565,
      "SamplesPerPixel": 1,
      "ScanOptions": "FS",
      "ScanningSequence": "EP",
      "SequenceName": "*epfid2d1_80",
      "SequenceVariant": "SK",
      "SeriesDescription": "func-bold_task-rest_acq-p2",
      "SeriesNumber": 5,
      "SeriesTime": "082725.859000",
      "SliceLocation": -59.751347100226,
      "SliceThickness": 3.5,
      "SmallestImagePixelValue": 0,
      "SoftwareVersions": "syngo MR E11",
      "SpacingBetweenSlices": 3.9900001076403,
      "SpecificCharacterSet": "ISO_IR 100",
      "StudyID": "41",
      "StudyTime": "081345.772000",
      "TransmitCoilName": "Body",
      "VariableFlipAngleFlag": "N",
      "WindowCenterWidthExplanation": "Algo1"
    },
    "slices": {}
  },
  "time": {
    "samples": {
      "AcquisitionNumber": [1, 2, 3, 4, 5, 6, 7, 8, 9, 10, 11, 12, 13, 14, 15, 16, 17, 18, 19, 20, 21, 22, 23, 24, 25, 26, 27, 28, 29, 30, 31, 32, 33, 34, 35, 36, 37, 38, 39, 40, 41, 42, 43, 44, 45, 46, 47, 48, 49, 50, 51, 52, 53, 54, 55, 56, 57, 58, 59, 60, 61, 62, 63, 64, 65, 66, 67, 68, 69, 70, 71, 72, 73, 74, 75, 76, 77, 78, 79, 80, 81, 82, 83, 84, 85, 86, 87, 88, 89, 90, 91, 92, 93, 94, 95, 96, 97, 98, 99, 100, 101, 102, 103, 104, 105, 106, 107, 108, 109, 110, 111, 112, 113, 114, 115, 116, 117, 118, 119, 120, 121, 122, 123, 124, 125, 126, 127, 128, 129, 130, 131, 132, 133, 134, 135, 136, 137, 138, 139, 140, 141, 142, 143, 144, 145, 146, 147, 148, 149, 150, 151, 152, 153, 154, 155, 156, 157, 158, 159, 160, 161, 162, 163, 164, 165, 166, 167, 168, 169, 170, 171, 172, 173, 174, 175, 176, 177, 178, 179, 180, 181, 182, 183, 184, 185, 186, 187, 188, 189, 190, 191, 192, 193, 194, 195, 196, 197, 198, 199, 200],
      "AcquisitionTime": ["082629.875000", "082631.875000", "082633.875000", "082635.875000", "082637.875000", "082639.875000", "082641.875000", "082643.875000", "082645.875000", "082647.875000", "082649.875000", "082651.875000", "082653.875000", "082655.875000", "082657.875000", "082659.875000", "082701.875000", "082703.875000", "082705.875000", "082707.875000", "082709.875000", "082711.875000", "082713.875000", "082715.875000", "082717.875000", "082719.875000", "082721.875000", "082723.875000", "082725.875000", "082727.875000", "082729.875000", "082731.875000", "082733.875000", "082735.875000", "082737.875000", "082739.875000", "082741.875000", "082743.875000", "082745.875000", "082747.875000", "082749.875000", "082751.875000", "082753.875000", "082755.875000", "082757.875000", "082759.875000", "082801.875000", "082803.875000", "082805.875000", "082807.875000", "082809.875000", "082811.875000", "082813.875000", "082815.875000", "082817.875000", "082819.875000", "082821.875000", "082823.875000", "082825.875000", "082827.875000", "082829.875000", "082831.875000", "082833.875000", "082835.875000", "082837.875000", "082839.875000", "082841.875000", "082843.875000", "082845.875000", "082847.875000", "082849.875000", "082851.875000", "082853.875000", "082855.875000", "082857.875000", "082859.875000", "082901.875000", "082903.875000", "082905.875000", "082907.875000", "082909.875000", "082911.875000", "082913.875000", "082915.875000", "082917.875000", "082919.875000", "082921.875000", "082923.875000", "082925.875000", "082927.875000", "082929.875000", "082931.875000", "082933.875000", "082935.875000", "082937.875000", "082939.875000", "082941.875000", "082943.875000", "082945.875000", "082947.875000", "082949.875000", "082951.875000", "082953.875000", "082955.875000", "082957.875000", "082959.875000", "083001.875000", "083003.875000", "083005.875000", "083007.875000", "083009.875000", "083011.875000", "083013.875000", "083015.875000", "083017.875000", "083019.875000", "083021.875000", "083023.875000", "083025.875000", "083027.875000", "083029.875000", "083031.875000", "083033.875000", "083035.875000", "083037.875000", "083039.875000", "083041.875000", "083043.875000", "083045.875000", "083047.875000", "083049.875000", "083051.875000", "083053.875000", "083055.875000", "083057.875000", "083059.875000", "083101.875000", "083103.875000", "083105.875000", "083107.875000", "083109.875000", "083111.875000", "083113.875000", "083115.875000", "083117.875000", "083119.875000", "083121.875000", "083123.875000", "083125.875000", "083127.875000", "083129.875000", "083131.875000", "083133.875000", "083135.875000", "083137.875000", "083139.875000", "083141.875000", "083143.875000", "083145.875000", "083147.875000", "083149.875000", "083151.875000", "083153.875000", "083155.875000", "083157.875000", "083159.875000", "083201.875000", "083203.875000", "083205.875000", "083207.875000", "083209.875000", "083211.875000", "083213.875000", "083215.875000", "083217.875000", "083219.875000", "083221.875000", "083223.875000", "083225.875000", "083227.875000", "083229.875000", "083231.875000", "083233.875000", "083235.875000", "083237.875000", "083239.875000", "083241.875000", "083243.875000", "083245.875000", "083247.875000", "083249.875000", "083251.875000", "083253.875000", "083255.875000", "083257.875000", "083259.875000", "083301.875000", "083303.875000", "083305.875000", "083307.875000"],
      "ContentTime": ["082725.863000", "082725.866000", "082725.868000", "082725.870000", "082725.873000", "082725.875000", "082725.877000", "082725.880000", "082725.882000", "082725.884000", "082725.886000", "082725.889000", "082725.898000", "082725.900000", "082725.911000", "082725.913000", "082725.916000", "082725.918000", "082725.920000", "082725.923000", "082725.934000", "082725.936000", "082725.938000", "082725.940000", "082725.943000", "082725.945000", "082725.948000", "082725.950000", "082745.856000", "082745.859000", "082745.861000", "082745.863000", "082745.869000", "082745.871000", "082745.873000", "082745.876000", "082745.878000", "082745.880000", "082825.856000", "082825.859000", "082825.861000", "082825.863000", "082825.866000", "082825.868000", "082825.870000", "082825.872000", "082825.875000", "082825.877000", "082825.879000", "082825.882000", "082825.884000", "082825.886000", "082825.889000", "082825.891000", "082825.893000", "082825.895000", "082825.898000", "082825.900000", "082905.857000", "082905.860000", "082905.862000", "082905.864000", "082905.867000", "082905.869000", "082905.871000", "082905.874000", "082905.876000", "082905.878000", "082905.880000", "082905.883000", "082905.885000", "082905.887000", "082905.890000", "082905.892000", "082905.894000", "082905.897000", "082905.899000", "082905.901000", "082945.857000", "082945.860000", "082945.862000", "082945.864000", "082945.866000", "082945.869000", "082945.871000", "082945.873000", "082945.876000", "082945.878000", "082945.880000", "082945.882000", "082945.885000", "082945.887000", "082945.889000", "082945.892000", "082945.894000", "082945.896000", "082945.898000", "082945.901000", "083025.856000", "083025.859000", "083025.861000", "083025.863000", "083025.866000", "083025.868000", "083025.870000", "083025.872000", "083025.882000", "083025.884000", "083025.887000", "083025.889000", "083025.891000", "083025.893000", "083025.896000", "083025.898000", "083025.907000", "083025.909000", "083025.911000", "083025.914000", "083105.856000", "083105.859000", "083105.861000", "083105.863000", "083105.865000", "083105.868000", "083105.870000", "083105.872000", "083105.875000", "083105.877000", "083105.879000", "083105.882000", "083105.884000", "083105.886000", "083105.889000", "083105.891000", "083105.893000", "083105.895000", "083105.898000", "083105.900000", "083145.857000", "083145.860000", "083145.862000", "083145.864000", "083145.867000", "083145.869000", "083145.871000", "083145.873000", "083145.876000", "083145.878000", "083145.880000", "083145.883000", "083145.885000", "083145.887000", "083145.889000", "083145.892000", "083145.894000", "083145.896000", "083145.899000", "083145.901000", "083225.856000", "083225.859000", "083225.861000", "083225.864000", "083225.866000", "083225.869000", "083225.871000", "083225.873000", "083225.875000", "083225.878000", "083225.880000", "083225.882000", "083225.885000", "083225.887000", "083225.889000", "083225.891000", "083225.894000", "083225.896000", "083225.898000", "083225.901000", "083305.856000", "083305.859000", "083305.861000", "083305.863000", "083305.866000", "083305.868000", "083305.870000", "083305.873000", "083305.875000", "083305.877000", "083305.880000", "083305.882000", "083305.884000", "083305.887000", "083305.889000", "083305.891000", "083305.893000", "083305.896000", "083305.898000", "083305.900000", "083309.509000", "083309.518000"],
      "InstanceCreationTime": ["082725.863000", "082725.866000", "082725.868000", "082725.870000", "082725.873000", "082725.875000", "082725.877000", "082725.880000", "082725.882000", "082725.884000", "082725.886000", "082725.889000", "082725.898000", "082725.900000", "082725.911000", "082725.913000", "082725.916000", "082725.918000", "082725.920000", "082725.923000", "082725.934000", "082725.936000", "082725.938000", "082725.940000", "082725.943000", "082725.945000", "082725.948000", "082725.950000", "082745.856000", "082745.859000", "082745.861000", "082745.863000", "082745.869000", "082745.871000", "082745.873000", "082745.876000", "082745.878000", "082745.880000", "082825.856000", "082825.859000", "082825.861000", "082825.863000", "082825.866000", "082825.868000", "082825.870000", "082825.872000", "082825.875000", "082825.877000", "082825.879000", "082825.882000", "082825.884000", "082825.886000", "082825.889000", "082825.891000", "082825.893000", "082825.895000", "082825.898000", "082825.900000", "082905.857000", "082905.860000", "082905.862000", "082905.864000", "082905.867000", "082905.869000", "082905.871000", "082905.874000", "082905.876000", "082905.878000", "082905.880000", "082905.883000", "082905.885000", "082905.887000", "082905.890000", "082905.892000", "082905.894000", "082905.897000", "082905.899000", "082905.901000", "082945.857000", "082945.860000", "082945.862000", "082945.864000", "082945.866000", "082945.869000", "082945.871000", "082945.873000", "082945.876000", "082945.878000", "082945.880000", "082945.882000", "082945.885000", "082945.887000", "082945.889000", "082945.892000", "082945.894000", "082945.896000", "082945.898000", "082945.901000", "083025.856000", "083025.859000", "083025.861000", "083025.863000", "083025.866000", "083025.868000", "083025.870000", "083025.872000", "083025.882000", "083025.884000", "083025.887000", "083025.889000", "083025.891000", "083025.893000", "083025.896000", "083025.898000", "083025.907000", "083025.909000", "083025.911000", "083025.914000", "083105.856000", "083105.859000", "083105.861000", "083105.863000", "083105.865000", "083105.868000", "083105.870000", "083105.872000", "083105.875000", "083105.877000", "083105.879000", "083105.882000", "083105.884000", "083105.886000", "083105.889000", "083105.891000", "083105.893000", "083105.895000", "083105.898000", "083105.900000", "083145.857000", "083145.860000", "083145.862000", "083145.864000", "083145.867000", "083145.869000", "083145.871000", "083145.873000", "083145.876000", "083145.878000", "083145.880000", "083145.883000", "083145.885000", "083145.887000", "083145.889000", "083145.892000", "083145.894000", "083145.896000", "083145.899000", "083145.901000", "083225.856000", "083225.859000", "083225.861000", "083225.864000", "083225.866000", "083225.869000", "083225.871000", "083225.873000", "083225.875000", "083225.878000", "083225.880000", "083225.882000", "083225.885000", "083225.887000", "083225.889000", "083225.891000", "083225.894000", "083225.896000", "083225.898000", "083225.901000", "083305.856000", "083305.859000", "083305.861000", "083305.863000", "083305.866000", "083305.868000", "083305.870000", "083305.873000", "083305.875000", "083305.877000", "083305.880000", "083305.882000", "083305.884000", "083305.887000", "083305.889000", "083305.891000", "083305.893000", "083305.896000", "083305.898000", "083305.900000", "083309.509000", "083309.518000"],
      "InstanceNumber": [1, 2, 3, 4, 5, 6, 7, 8, 9, 10, 11, 12, 13, 14, 15, 16, 17, 18, 19, 20, 21, 22, 23, 24, 25, 26, 27, 28, 29, 30, 31, 32, 33, 34, 35, 36, 37, 38, 39, 40, 41, 42, 43, 44, 45, 46, 47, 48, 49, 50, 51, 52, 53, 54, 55, 56, 57, 58, 59, 60, 61, 62, 63, 64, 65, 66, 67, 68, 69, 70, 71, 72, 73, 74, 75, 76, 77, 78, 79, 80, 81, 82, 83, 84, 85, 86, 87, 88, 89, 90, 91, 92, 93, 94, 95, 96, 97, 98, 99, 100, 101, 102, 103, 104, 105, 106, 107, 108, 109, 110, 111, 112, 113, 114, 115, 116, 117, 118, 119, 120, 121, 122, 123, 124, 125, 126, 127, 128, 129, 130, 131, 132, 133, 134, 135, 136, 137, 138, 139, 140, 141, 142, 143, 144, 145, 146, 147, 148, 149, 150, 151, 152, 153, 154, 155, 156, 157, 158, 159, 160, 161, 162, 163, 164, 165, 166, 167, 168, 169, 170, 171, 172, 173, 174, 175, 176, 177, 178, 179, 180, 181, 182, 183, 184, 185, 186, 187, 188, 189, 190, 191, 192, 193, 194, 195, 196, 197, 198, 199, 200],
      "LargestImagePixelValue": [2206, 2200, 2203, 2215, 2213, 2219, 2208, 2197, 2215, 2211, 2210, 2209, 2213, 2204, 2198, 2205, 2210, 2205, 2211, 2208, 2211, 2207, 2208, 2211, 2203, 2219, 2207, 2220, 2220, 2202, 2198, 2210, 2216, 2218, 2212, 2199, 2212, 2202, 2205, 2206, 2209, 2218, 2220, 2207, 2216, 2201, 2207, 2196, 2207, 2216, 2215, 2214, 2200, 2195, 2215, 2212, 2219, 2199, 2202, 2207, 2207, 2195, 2217, 2203, 2200, 2199, 2221, 2206, 2204, 2207, 2213, 2214, 2213, 2210, 2199, 2211, 2198, 2214, 2201, 2203, 2199, 2211, 2205, 2197, 2207, 2217, 2204, 2203, 2198, 2206, 2199, 2207, 2206, 2195, 2220, 2202, 2206, 2208, 2202, 2209, 2200, 2217, 2221, 2200, 2201, 2212, 2202, 2206, 2200, 2202, 2215, 2212, 2205, 2208, 2206, 2204, 2210, 2201, 2210, 2214, 2210, 2203, 2209, 2206, 2206, 2214, 2200, 2201, 2211, 2212, 2209, 2216, 2207, 2213, 2206, 2209, 2211, 2201, 2204, 2206, 2196, 2214, 2196, 2208, 2208, 2199, 2200, 2207, 2202, 2205, 2192, 2204, 2213, 2205, 2206, 2212, 2203, 2207, 2206, 2202, 2203, 2205, 2207, 2203, 2208, 2209, 2206, 2204, 2208, 2217, 2200, 2203, 2200, 2206, 2209, 2208, 2200, 2201, 2211, 2209, 2200, 2201, 2201, 2192, 2199, 2211, 2204, 2208, 2204, 2211, 2199, 2190, 2202, 2209, 2212, 2204, 2203, 2204, 2197, 2198],
      "WindowCenter": [1025.0, 1024.0, 1024.0, 1024.0, 1024.0, 1024.0, 1024.0, 1025.0, 1024.0, 1024.0, 1024.0, 1024.0, 1024.0, 1024.0, 1024.0, 1024.0, 1025.0, 1024.0, 1024.0, 1024.0, 1025.0, 1024.0, 1024.0, 1024.0, 1024.0, 1024.0, 1024.0, 1024.0, 1024.0, 1025.0, 1024.0, 1024.0, 1024.0, 1024.0, 1024.0, 1024.0, 1024.0, 1024.0, 1024.0, 1024.0, 1025.0, 1024.0, 1024.0, 1024.0, 1024.0, 1024.0, 1024.0, 1024.0, 1024.0, 1024.0, 1024.0, 1024.0, 1024.0, 1024.0, 1024.0, 1024.0, 1024.0, 1024.0, 1024.0, 1024.0, 1024.0, 1024.0, 1024.0, 1024.0, 1024.0, 1024.0, 1024.0, 1024.0, 1024.0, 1024.0, 1024.0, 1024.0, 1024.0, 1024.0, 1024.0, 1024.0, 1024.0, 1024.0, 1024.0, 1024.0, 1024.0, 1024.0, 1024.0, 1024.0, 1024.0, 1024.0, 1024.0, 1024.0, 1024.0, 1024.0, 1024.0, 1024.0, 1023.0, 1025.0, 1024.0, 1024.0, 1024.0, 1025.0, 1024.0, 1024.0, 1024.0, 1024.0, 1024.0, 1024.0, 1024.0, 1024.0, 1024.0, 1024.0, 1024.0, 1024.0, 1024.0, 1024.0, 1024.0, 1024.0, 1024.0, 1024.0, 1024.0, 1024.0, 1025.0, 1024.0, 1024.0, 1025.0, 1024.0, 1024.0, 1024.0, 1023.0, 1024.0, 1024.0, 1023.0, 1024.0, 1025.0, 1023.0, 1023.0, 1024.0, 1024.0, 1023.0, 1023.0, 1024.0, 1024.0, 1024.0, 1023.0, 1023.0, 1023.0, 1023.0, 1023.0, 1023.0, 1023.0, 1023.0, 1023.0, 1024.0, 1023.0, 1024.0, 1023.0, 1023.0, 1023.0, 1024.0, 1023.0, 1023.0, 1024.0, 1023.0, 1023.0, 1023.0, 1023.0, 1023.0, 1023.0, 1023.0, 1023.0, 1023.0, 1023.0, 1023.0, 1023.0, 1023.0, 1024.0, 1023.0, 1023.0, 1023.0, 1023.0, 1023.0, 1023.0, 1023.0, 1023.0, 1024.0, 1024.0, 1023.0, 1024.0, 1023.0, 1023.0, 1023.0, 1024.0, 1023.0, 1023.0, 1023.0, 1023.0, 1023.0, 1023.0, 1023.0, 1023.0, 1023.0, 1024.0, 1023.0],
      "WindowWidth": [2278.0, 2277.0, 2277.0, 2277.0, 2277.0, 2277.0, 2277.0, 2276.0, 2277.0, 2277.0, 2277.0, 2277.0, 2277.0, 2277.0, 2277.0, 2277.0, 2278.0, 2277.0, 2277.0, 2277.0, 2278.0, 2277.0, 2277.0, 2277.0, 2277.0, 2276.0, 2276.0, 2277.0, 2276.0, 2277.0, 2276.0, 2277.0, 2277.0, 2277.0, 2277.0, 2277.0, 2276.0, 2277.0, 2276.0, 2276.0, 2277.0, 2276.0, 2277.0, 2276.0, 2276.0, 2276.0, 2276.0, 2276.0, 2276.0, 2277.0, 2276.0, 2276.0, 2276.0, 2276.0, 2276.0, 2276.0, 2276.0, 2276.0, 2276.0, 2276.0, 2276.0, 2276.0, 2276.0, 2276.0, 2276.0, 2276.0, 2276.0, 2276.0, 2276.0, 2276.0, 2276.0, 2276.0, 2276.0, 2276.0, 2276.0, 2276.0, 2276.0, 2276.0, 2276.0, 2276.0, 2276.0, 2276.0, 2276.0, 2275.0, 2276.0, 2275.0, 2276.0, 2275.0, 2276.0, 2276.0, 2276.0, 2275.0, 2275.0, 2276.0, 2275.0, 2275.0, 2275.0, 2276.0, 2275.0, 2275.0, 2275.0, 2275.0, 2275.0, 2275.0, 2275.0, 2275.0, 2275.0, 2275.0, 2275.0, 2275.0, 2275.0, 2275.0, 2275.0, 2275.0, 2275.0, 2275.0, 2275.0, 2275.0, 2276.0, 2275.0, 2275.0, 2276.0, 2275.0, 2275.0, 2275.0, 2275.0, 2275.0, 2275.0, 2275.0, 2275.0, 2276.0, 2275.0, 2275.0, 2275.0, 2275.0, 2275.0, 2275.0, 2275.0, 2275.0, 2275.0, 2275.0, 2275.0, 2275.0, 2275.0, 2275.0, 2275.0, 2275.0, 2275.0, 2275.0, 2275.0, 2275.0, 2275.0, 2275.0, 2275.0, 2275.0, 2276.0, 2275.0, 2275.0, 2275.0, 2275.0, 2275.0, 2275.0, 2275.0, 2275.0, 2275.0, 2275.0, 2275.0, 2275.0, 2275.0, 2275.0, 2275.0, 2275.0, 2275.0, 2275.0, 2275.0, 2274.0, 2275.0, 2274.0, 2274.0, 2275.0, 2274.0, 2275.0, 2275.0, 2274.0, 2275.0, 2274.0, 2274.0, 2275.0, 2275.0, 2274.0, 2274.0, 2275.0, 2274.0, 2274.0, 2274.0, 2274.0, 2274.0, 2274.0, 2275.0, 2274.0]
    },
    "slices": {}
  }
}