{
  "AcquisitionMatrixPE": 122,
  "AcquisitionNumber": 1,
  "AcquisitionTime": "13:37:34.210000",
  "BandwidthPerPixelPhaseEncode": 28.76,
  "BaseResolution": 122,
  "BodyPartExamined": "BRAIN",
  "CoilCombinationMethod": "Adaptive Combine",
  "ConsistencyInfo": "N4_VE11C_LATEST_20160120",
  "ConversionSoftware": "dcm2niix",
  "ConversionSoftwareVersion": "v1.0.20220720",
  "DerivedVendorReportedEchoSpacing": 0.000570008,
  "DeviceSerialNumber": "66112",
  "DiffusionScheme": "Monopolar",
  "DwellTime": 2e-06,
  "EchoTime": 0.075,
  "EchoTrainLength": 61,
  "EffectiveEchoSpacing": 0.000285004,
  "FlipAngle": 90,
  "HeudiconvVersion": "0.13.1",
  "ImageOrientationPatientDICOM": [0.997183, -0.0745998, 0.00783375, 0.0686805, 0.950034, 0.304497],
  "ImageOrientationText": "Tra>Cor(17.7)>Sag(1.7)",
  "ImageType": [
    "ORIGINAL",
    "PRIMARY",
    "DIFFUSION",
    "NONE",
    "ND",
    "NORM"
],
  "ImagingFrequency": 123.252,
  "InPlanePhaseEncodingDirectionDICOM": "COL",
  "InstitutionAddress": "Maynard 3,Hanover,NH,US,03755",
  "InstitutionName": "Dartmouth College - PBS",
  "InstitutionalDepartmentName": "Department",
  "MRAcquisitionType": "2D",
  "MagneticFieldStrength": 3,
  "Manufacturer": "Siemens",
  "ManufacturersModelName": "Prisma",
  "MatrixCoilMode": "GRAPPA",
  "Modality": "MR",
  "NonlinearGradientCorrection": false,
  "ParallelReductionFactorInPlane": 2,
  "PartialFourier": 1,
  "PatientPosition": "HFS",
  "PercentPhaseFOV": 100,
  "PercentSampling": 100,
  "PhaseEncodingDirection": "j-",
  "PhaseEncodingSteps": 122,
  "PhaseResolution": 1,
  "PixelBandwidth": 2050,
  "ProcedureStepDescription": "dbic^QA",
  "ProtocolName": "dwi_acq-DTI-30-p2",
  "PulseSequenceDetails": "%SiemensSeq%\\ep2d_diff",
  "ReceiveCoilActiveElements": "HEA;HEP",
  "ReceiveCoilName": "Head_32",
  "ReconMatrixPE": 122,
  "RefLinesPE": 38,
  "RepetitionTime": 7.7,
  "SAR": 0.101324,
  "ScanOptions": "FS",
  "ScanningSequence": "EP",
  "SequenceName": "*ep_b0",
  "SequenceVariant": "SK\\SP",
  "SeriesDescription": "dwi_acq-DTI-30-p2",
  "SeriesNumber": 8,
  "ShimSetting": [4146, -7693, -7509, 273, -65, -185, -64, 68],
  "SliceThickness": 2,
  "SliceTiming": [3.82812, 0, 3.9375, 0.10938, 4.04688, 0.21875, 4.15625, 0.32812, 4.26562, 0.4375, 4.375, 0.54688, 4.5, 0.65625, 4.60938, 0.76562, 4.71875, 0.875, 4.82812, 0.98438, 4.9375, 1.09375, 5.04688, 1.20312, 5.15625, 1.3125, 5.26562, 1.42188, 5.375, 1.53125, 5.48438, 1.64062, 5.59375, 1.75, 5.70312, 1.85938, 5.8125, 1.96875, 5.92188, 2.07812, 6.03125, 2.1875, 6.14062, 2.29688, 6.25, 2.40625, 6.35938, 2.51562, 6.46875, 2.625, 6.57812, 2.73438, 6.6875, 2.84375, 6.79688, 2.95312, 6.90625, 3.0625, 7.01562, 3.17188, 7.125, 3.28125, 7.23438, 3.39062, 7.34375, 3.5, 7.45312, 3.60938, 7.5625, 3.71875],
  "SoftwareVersions": "syngo MR E11",
  "SpacingBetweenSlices": 2,
  "SpoilingState": true,
  "StationName": "AWP66112",
  "TotalReadoutTime": 0.0344855,
  "TxRefAmp": 233.526,
  "dcmmeta_affine": [
    [-1.9616711139678955, 0.13510920107364655, 0.060315608978271484, 110.05250549316406],
    [0.14675375819206238, 1.8689193725585938, 0.606201171875, -132.288818359375],
    [0.015410653315484524, -0.5990104079246521, 1.9049606323242188, -28.34358024597168],
    [0.0, 0.0, 0.0, 1.0]
],
  "dcmmeta_reorient_transform": [
    [0.0, -1.0, 0.0, 121.0],
    [1.0, 0.0, 0.0, 0.0],
    [0.0, 0.0, -1.0, 69.0],
    [0.0, 0.0, 0.0, 1.0]
],
  "dcmmeta_shape": [122, 122, 70, 31],
  "dcmmeta_slice_dim": 2,
  "dcmmeta_version": 0.6,
  "global": {
    "const": {
      "AccessionNumber": "qa",
      "AcquisitionMatrix": [122, 0, 0, 122],
      "AngioFlag": "N",
      "BitsAllocated": 16,
      "BitsStored": 12,
      "BodyPartExamined": "BRAIN",
      "Columns": 122,
      "EchoNumbers": 1,
      "EchoTime": 75.0,
      "EchoTrainLength": 61,
      "FlipAngle": 90.0,
      "HighBit": 11,
      "ImageOrientationPatient": [0.99718278057744, -0.074599829122, 0.00783374845186, 0.06868050933953, 0.95003399643636, 0.30449695113748],
      "ImageType": [
        "ORIGINAL",
        "PRIMARY",
        "DIFFUSION",
        "NONE",
        "ND",
        "NORM"
],
      "ImagedNucleus": "1H",
      "ImagingFrequency": 123.252444,
      "InPlanePhaseEncodingDirection": "COL",
      "MRAcquisitionType": "2D",
      "MagneticFieldStrength": 3.0,
      "Manufacturer": "SIEMENS",
      "ManufacturerModelName": "Prisma",
      "Modality": "MR",
      "NumberOfAverages": 1.0,
      "NumberOfPhaseEncodingSteps": 122,
      "PercentPhaseFieldOfView": 100.0,
      "PercentSampling": 100.0,
      "PerformedProcedureStepStartTime": "110746.437000",
      "PhotometricInterpretation": "MONOCHROME2",
      "PixelBandwidth": 2050.0,
      "PixelRepresentation": 0,
      "PixelSpacing": [1.9672131538391, 1.9672131538391],
      "ProtocolName": "dwi_acq-DTI-30-p2",
      "RepetitionTime": 7700.0,
      "Rows": 122,
      "SAR": 0.10132424882015,
      "SamplesPerPixel": 1,
      "ScanOptions": "FS",
      "ScanningSequence": "EP",
      "SequenceVariant": [
        "SK",
        "SP"
],
      "SeriesDescription": "dwi_acq-DTI-30-p2",
      "SeriesNumber": 8,
      "SeriesTime": "133751.225000",
      "SliceThickness": 2.0,
      "SmallestImagePixelValue": 0,
      "SoftwareVersions": "syngo MR E11",
      "SpacingBetweenSlices": 2.0,
      "SpecificCharacterSet": "ISO_IR 100",
      "StudyID": "49",
      "StudyTime": "110746.363000",
      "TransmitCoilName": "Body",
      "VariableFlipAngleFlag": "N",
      "WindowCenterWidthExplanation": "Algo1",
      "dBdt": 0.0},
    "slices": {
      "AcquisitionTime": ["133734.210000", "133730.370000", "133734.317500", "133730.480000", "133734.427500", "133730.587500", "133734.537500", "133730.697500", "133734.647500", "133730.807500", "133734.757500", "133730.917500", "133734.867500", "133731.027500", "133734.977500", "133731.137500", "133735.087500", "133731.247500", "133735.197500", "133731.357500", "133735.305000", "133731.465000", "133735.415000", "133731.575000", "133735.525000", "133731.685000", "133735.635000", "133731.795000", "133735.745000", "133731.905000", "133735.855000", "133732.015000", "133735.965000", "133732.125000", "133736.075000", "133732.235000", "133736.182500", "133732.345000", "133736.292500", "133732.452500", "133736.402500", "133732.562500", "133736.512500", "133732.672500", "133736.622500", "133732.782500", "133736.732500", "133732.892500", "133736.842500", "133733.002500", "133736.952500", "133733.112500", "133737.062500", "133733.222500", "133737.170000", "133733.330000", "133737.280000", "133733.440000", "133737.390000", "133733.550000", "133737.500000", "133733.660000", "133737.610000", "133733.770000", "133737.720000", "133733.880000", "133737.830000", "133733.990000", "133737.940000", "133734.100000", "133741.910000", "133738.070000", "133742.017500", "133738.180000", "133742.127500", "133738.287500", "133742.237500", "133738.397500", "133742.347500", "133738.507500", "133742.457500", "133738.617500", "133742.567500", "133738.727500", "133742.677500", "133738.837500", "133742.787500", "133738.947500", "133742.897500", "133739.057500", "133743.005000", "133739.165000", "133743.115000", "133739.275000", "133743.225000", "133739.385000", "133743.335000", "133739.495000", "133743.445000", "133739.605000", "133743.555000", "133739.715000", "133743.665000", "133739.825000", "133743.775000", "133739.935000", "133743.882500", "133740.045000", "133743.992500", "133740.152500", "133744.102500", "133740.262500", "133744.212500", "133740.372500", "133744.322500", "133740.482500", "133744.432500", "133740.592500", "133744.542500", "133740.702500", "133744.652500", "133740.812500", "133744.762500", "133740.922500", "133744.870000", "133741.030000", "133744.980000", "133741.140000", "133745.090000", "133741.250000", "133745.200000", "133741.360000", "133745.310000", "133741.470000", "133745.420000", "133741.580000", "133745.530000", "133741.690000", "133745.640000", "133741.800000", "133749.610000", "133745.770000", "133749.717500", "133745.880000", "133749.827500", "133745.987500", "133749.937500", "133746.097500", "133750.047500", "133746.207500", "133750.157500", "133746.317500", "133750.267500", "133746.427500", "133750.377500", "133746.537500", "133750.487500", "133746.647500", "133750.597500", "133746.757500", "133750.705000", "133746.865000", "133750.815000", "133746.975000", "133750.925000", "133747.085000", "133751.035000", "133747.195000", "133751.145000", "133747.305000", "133751.255000", "133747.415000", "133751.365000", "133747.525000", "133751.475000", "133747.635000", "133751.582500", "133747.745000", "133751.692500", "133747.852500", "133751.802500", "133747.962500", "133751.912500", "133748.072500", "133752.022500", "133748.182500", "133752.132500", "133748.292500", "133752.242500", "133748.402500", "133752.352500", "133748.512500", "133752.462500", "133748.622500", "133752.570000", "133748.730000", "133752.680000", "133748.840000", "133752.790000", "133748.950000", "133752.900000", "133749.060000", "133753.010000", "133749.170000", "133753.120000", "133749.280000", "133753.230000", "133749.390000", "133753.340000", "133749.500000", "133757.310000", "133753.470000", "133757.417500", "133753.580000", "133757.527500", "133753.687500", "133757.637500", "133753.797500", "133757.747500", "133753.907500", "133757.857500", "133754.017500", "133757.967500", "133754.127500", "133758.077500", "133754.237500", "133758.187500", "133754.347500", "133758.297500", "133754.457500", "133758.405000", "133754.565000", "133758.515000", "133754.675000", "133758.625000", "133754.785000", "133758.735000", "133754.895000", "133758.845000", "133755.005000", "133758.955000", "133755.115000", "133759.065000", "133755.225000", "133759.175000", "133755.335000", "133759.282500", "133755.445000", "133759.392500", "133755.552500", "133759.502500", "133755.662500", "133759.612500", "133755.772500", "133759.722500", "133755.882500", "133759.832500", "133755.992500", "133759.942500", "133756.102500", "133800.052500", "133756.212500", "133800.162500", "133756.322500", "133800.270000", "133756.430000", "133800.380000", "133756.540000", "133800.490000", "133756.650000", "133800.600000", "133756.760000", "133800.710000", "133756.870000", "133800.820000", "133756.980000", "133800.930000", "133757.090000", "133801.040000", "133757.200000", "133805.010000", "133801.170000", "133805.117500", "133801.280000", "133805.227500", "133801.387500", "133805.337500", "133801.497500", "133805.447500", "133801.607500", "133805.557500", "133801.717500", "133805.667500", "133801.827500", "133805.777500", "133801.937500", "133805.887500", "133802.047500", "133805.997500", "133802.157500", "133806.105000", "133802.265000", "133806.215000", "133802.375000", "133806.325000", "133802.485000", "133806.435000", "133802.595000", "133806.545000", "133802.705000", "133806.655000", "133802.815000", "133806.765000", "133802.925000", "133806.875000", "133803.035000", "133806.982500", "133803.145000", "133807.092500", "133803.252500", "133807.202500", "133803.362500", "133807.312500", "133803.472500", "133807.422500", "133803.582500", "133807.532500", "133803.692500", "133807.642500", "133803.802500", "133807.752500", "133803.912500", "133807.862500", "133804.022500", "133807.970000", "133804.130000", "133808.080000", "133804.240000", "133808.190000", "133804.350000", "133808.300000", "133804.460000", "133808.410000", "133804.570000", "133808.520000", "133804.680000", "133808.630000", "133804.790000", "133808.740000", "133804.900000", "133812.710000", "133808.870000", "133812.817500", "133808.980000", "133812.927500", "133809.087500", "133813.037500", "133809.197500", "133813.147500", "133809.307500", "133813.257500", "133809.417500", "133813.367500", "133809.527500", "133813.477500", "133809.637500", "133813.587500", "133809.747500", "133813.697500", "133809.857500", "133813.805000", "133809.965000", "133813.915000", "133810.075000", "133814.025000", "133810.185000", "133814.135000", "133810.295000", "133814.245000", "133810.405000", "133814.355000", "133810.515000", "133814.465000", "133810.625000", "133814.575000", "133810.735000", "133814.682500", "133810.845000", "133814.792500", "133810.952500", "133814.902500", "133811.062500", "133815.012500", "133811.172500", "133815.122500", "133811.282500", "133815.232500", "133811.392500", "133815.342500", "133811.502500", "133815.452500", "133811.612500", "133815.562500", "133811.722500", "133815.670000", "133811.830000", "133815.780000", "133811.940000", "133815.890000", "133812.050000", "133816.000000", "133812.160000", "133816.110000", "133812.270000", "133816.220000", "133812.380000", "133816.330000", "133812.490000", "133816.440000", "133812.600000", "133820.410000", "133816.570000", "133820.517500", "133816.680000", "133820.627500", "133816.787500", "133820.737500", "133816.897500", "133820.847500", "133817.007500", "133820.957500", "133817.117500", "133821.067500", "133817.227500", "133821.177500", "133817.337500", "133821.287500", "133817.447500", "133821.397500", "133817.557500", "133821.505000", "133817.665000", "133821.615000", "133817.775000", "133821.725000", "133817.885000", "133821.835000", "133817.995000", "133821.945000", "133818.105000", "133822.055000", "133818.215000", "133822.165000", "133818.325000", "133822.275000", "133818.435000", "133822.382500", "133818.545000", "133822.492500", "133818.652500", "133822.602500", "133818.762500", "133822.712500", "133818.872500", "133822.822500", "133818.982500", "133822.932500", "133819.092500", "133823.042500", "133819.202500", "133823.152500", "133819.312500", "133823.262500", "133819.422500", "133823.370000", "133819.530000", "133823.480000", "133819.640000", "133823.590000", "133819.750000", "133823.700000", "133819.860000", "133823.810000", "133819.970000", "133823.920000", "133820.080000", "133824.030000", "133820.190000", "133824.140000", "133820.300000", "133828.110000", "133824.270000", "133828.217500", "133824.380000", "133828.327500", "133824.487500", "133828.437500", "133824.597500", "133828.547500", "133824.707500", "133828.657500", "133824.817500", "133828.767500", "133824.927500", "133828.877500", "133825.037500", "133828.987500", "133825.147500", "133829.097500", "133825.257500", "133829.205000", "133825.365000", "133829.315000", "133825.475000", "133829.425000", "133825.585000", "133829.535000", "133825.695000", "133829.645000", "133825.805000", "133829.755000", "133825.915000", "133829.865000", "133826.025000", "133829.975000", "133826.135000", "133830.082500", "133826.245000", "133830.192500", "133826.352500", "133830.302500", "133826.462500", "133830.412500", "133826.572500", "133830.522500", "133826.682500", "133830.632500", "133826.792500", "133830.742500", "133826.902500", "133830.852500", "133827.012500", "133830.962500", "133827.122500", "133831.070000", "133827.230000", "133831.180000", "133827.340000", "133831.290000", "133827.450000", "133831.400000", "133827.560000", "133831.510000", "133827.670000", "133831.620000", "133827.780000", "133831.730000", "133827.890000", "133831.840000", "133828.000000", "133835.810000", "133831.970000", "133835.917500", "133832.080000", "133836.027500", "133832.187500", "133836.137500", "133832.297500", "133836.247500", "133832.407500", "133836.357500", "133832.517500", "133836.467500", "133832.627500", "133836.577500", "133832.737500", "133836.687500", "133832.847500", "133836.797500", "133832.957500", "133836.905000", "133833.065000", "133837.015000", "133833.175000", "133837.125000", "133833.285000", "133837.235000", "133833.395000", "133837.345000", "133833.505000", "133837.455000", "133833.615000", "133837.565000", "133833.725000", "133837.675000", "133833.835000", "133837.782500", "133833.945000", "133837.892500", "133834.052500", "133838.002500", "133834.162500", "133838.112500", "133834.272500", "133838.222500", "133834.382500", "133838.332500", "133834.492500", "133838.442500", "133834.602500", "133838.552500", "133834.712500", "133838.662500", "133834.822500", "133838.770000", "133834.930000", "133838.880000", "133835.040000", "133838.990000", "133835.150000", "133839.100000", "133835.260000", "133839.210000", "133835.370000", "133839.320000", "133835.480000", "133839.430000", "133835.590000", "133839.540000", "133835.700000", "133843.510000", "133839.670000", "133843.617500", "133839.780000", "133843.727500", "133839.887500", "133843.837500", "133839.997500", "133843.947500", "133840.107500", "133844.057500", "133840.217500", "133844.167500", "133840.327500", "133844.277500", "133840.437500", "133844.387500", "133840.547500", "133844.497500", "133840.657500", "133844.605000", "133840.765000", "133844.715000", "133840.875000", "133844.825000", "133840.985000", "133844.935000", "133841.095000", "133845.045000", "133841.205000", "133845.155000", "133841.315000", "133845.265000", "133841.425000", "133845.375000", "133841.535000", "133845.482500", "133841.645000", "133845.592500", "133841.752500", "133845.702500", "133841.862500", "133845.812500", "133841.972500", "133845.922500", "133842.082500", "133846.032500", "133842.192500", "133846.142500", "133842.302500", "133846.252500", "133842.412500", "133846.362500", "133842.522500", "133846.470000", "133842.630000", "133846.580000", "133842.740000", "133846.690000", "133842.850000", "133846.800000", "133842.960000", "133846.910000", "133843.070000", "133847.020000", "133843.180000", "133847.130000", "133843.290000", "133847.240000", "133843.400000", "133851.210000", "133847.370000", "133851.317500", "133847.480000", "133851.427500", "133847.587500", "133851.537500", "133847.697500", "133851.647500", "133847.807500", "133851.757500", "133847.917500", "133851.867500", "133848.027500", "133851.977500", "133848.137500", "133852.087500", "133848.247500", "133852.197500", "133848.357500", "133852.305000", "133848.465000", "133852.415000", "133848.575000", "133852.525000", "133848.685000", "133852.635000", "133848.795000", "133852.745000", "133848.905000", "133852.855000", "133849.015000", "133852.965000", "133849.125000", "133853.075000", "133849.235000", "133853.182500", "133849.345000", "133853.292500", "133849.452500", "133853.402500", "133849.562500", "133853.512500", "133849.672500", "133853.622500", "133849.782500", "133853.732500", "133849.892500", "133853.842500", "133850.002500", "133853.952500", "133850.112500", "133854.062500", "133850.222500", "133854.170000", "133850.330000", "133854.280000", "133850.440000", "133854.390000", "133850.550000", "133854.500000", "133850.660000", "133854.610000", "133850.770000", "133854.720000", "133850.880000", "133854.830000", "133850.990000", "133854.940000", "133851.100000", "133858.910000", "133855.070000", "133859.017500", "133855.180000", "133859.127500", "133855.287500", "133859.237500", "133855.397500", "133859.347500", "133855.507500", "133859.457500", "133855.617500", "133859.567500", "133855.727500", "133859.677500", "133855.837500", "133859.787500", "133855.947500", "133859.897500", "133856.057500", "133900.005000", "133856.165000", "133900.115000", "133856.275000", "133900.225000", "133856.385000", "133900.335000", "133856.495000", "133900.445000", "133856.605000", "133900.555000", "133856.715000", "133900.665000", "133856.825000", "133900.775000", "133856.935000", "133900.882500", "133857.045000", "133900.992500", "133857.152500", "133901.102500", "133857.262500", "133901.212500", "133857.372500", "133901.322500", "133857.482500", "133901.432500", "133857.592500", "133901.542500", "133857.702500", "133901.652500", "133857.812500", "133901.762500", "133857.922500", "133901.870000", "133858.030000", "133901.980000", "133858.140000", "133902.090000", "133858.250000", "133902.200000", "133858.360000", "133902.310000", "133858.470000", "133902.420000", "133858.580000", "133902.530000", "133858.690000", "133902.640000", "133858.800000", "133906.610000", "133902.770000", "133906.717500", "133902.880000", "133906.827500", "133902.987500", "133906.937500", "133903.097500", "133907.047500", "133903.207500", "133907.157500", "133903.317500", "133907.267500", "133903.427500", "133907.377500", "133903.537500", "133907.487500", "133903.647500", "133907.597500", "133903.757500", "133907.705000", "133903.865000", "133907.815000", "133903.975000", "133907.925000", "133904.085000", "133908.035000", "133904.195000", "133908.145000", "133904.305000", "133908.255000", "133904.415000", "133908.365000", "133904.525000", "133908.475000", "133904.635000", "133908.582500", "133904.745000", "133908.692500", "133904.852500", "133908.802500", "133904.962500", "133908.912500", "133905.072500", "133909.022500", "133905.182500", "133909.132500", "133905.292500", "133909.242500", "133905.402500", "133909.352500", "133905.512500", "133909.462500", "133905.622500", "133909.570000", "133905.730000", "133909.680000", "133905.840000", "133909.790000", "133905.950000", "133909.900000", "133906.060000", "133910.010000", "133906.170000", "133910.120000", "133906.280000", "133910.230000", "133906.390000", "133910.340000", "133906.500000", "133914.310000", "133910.470000", "133914.417500", "133910.580000", "133914.527500", "133910.687500", "133914.637500", "133910.797500", "133914.747500", "133910.907500", "133914.857500", "133911.017500", "133914.967500", "133911.127500", "133915.077500", "133911.237500", "133915.187500", "133911.347500", "133915.297500", "133911.457500", "133915.405000", "133911.565000", "133915.515000", "133911.675000", "133915.625000", "133911.785000", "133915.735000", "133911.895000", "133915.845000", "133912.005000", "133915.955000", "133912.115000", "133916.065000", "133912.225000", "133916.175000", "133912.335000", "133916.282500", "133912.445000", "133916.392500", "133912.552500", "133916.502500", "133912.662500", "133916.612500", "133912.772500", "133916.722500", "133912.882500", "133916.832500", "133912.992500", "133916.942500", "133913.102500", "133917.052500", "133913.212500", "133917.162500", "133913.322500", "133917.270000", "133913.430000", "133917.380000", "133913.540000", "133917.490000", "133913.650000", "133917.600000", "133913.760000", "133917.710000", "133913.870000", "133917.820000", "133913.980000", "133917.930000", "133914.090000", "133918.040000", "133914.200000", "133922.010000", "133918.170000", "133922.117500", "133918.280000", "133922.227500", "133918.387500", "133922.337500", "133918.497500", "133922.447500", "133918.607500", "133922.557500", "133918.717500", "133922.667500", "133918.827500", "133922.777500", "133918.937500", "133922.887500", "133919.047500", "133922.997500", "133919.157500", "133923.105000", "133919.265000", "133923.215000", "133919.375000", "133923.325000", "133919.485000", "133923.435000", "133919.595000", "133923.545000", "133919.705000", "133923.655000", "133919.815000", "133923.765000", "133919.925000", "133923.875000", "133920.035000", "133923.982500", "133920.145000", "133924.092500", "133920.252500", "133924.202500", "133920.362500", "133924.312500", "133920.472500", "133924.422500", "133920.582500", "133924.532500", "133920.692500", "133924.642500", "133920.802500", "133924.752500", "133920.912500", "133924.862500", "133921.022500", "133924.970000", "133921.130000", "133925.080000", "133921.240000", "133925.190000", "133921.350000", "133925.300000", "133921.460000", "133925.410000", "133921.570000", "133925.520000", "133921.680000", "133925.630000", "133921.790000", "133925.740000", "133921.900000", "133929.710000", "133925.870000", "133929.817500", "133925.980000", "133929.927500", "133926.087500", "133930.037500", "133926.197500", "133930.147500", "133926.307500", "133930.257500", "133926.417500", "133930.367500", "133926.527500", "133930.477500", "133926.637500", "133930.587500", "133926.747500", "133930.697500", "133926.857500", "133930.805000", "133926.965000", "133930.915000", "133927.075000", "133931.025000", "133927.185000", "133931.135000", "133927.295000", "133931.245000", "133927.405000", "133931.355000", "133927.515000", "133931.465000", "133927.625000", "133931.575000", "133927.735000", "133931.682500", "133927.845000", "133931.792500", "133927.952500", "133931.902500", "133928.062500", "133932.012500", "133928.172500", "133932.122500", "133928.282500", "133932.232500", "133928.392500", "133932.342500", "133928.502500", "133932.452500", "133928.612500", "133932.562500", "133928.722500", "133932.670000", "133928.830000", "133932.780000", "133928.940000", "133932.890000", "133929.050000", "133933.000000", "133929.160000", "133933.110000", "133929.270000", "133933.220000", "133929.380000", "133933.330000", "133929.490000", "133933.440000", "133929.600000", "133937.410000", "133933.570000", "133937.517500", "133933.680000", "133937.627500", "133933.787500", "133937.737500", "133933.897500", "133937.847500", "133934.007500", "133937.957500", "133934.117500", "133938.067500", "133934.227500", "133938.177500", "133934.337500", "133938.287500", "133934.447500", "133938.397500", "133934.557500", "133938.505000", "133934.665000", "133938.615000", "133934.775000", "133938.725000", "133934.885000", "133938.835000", "133934.995000", "133938.945000", "133935.105000", "133939.055000", "133935.215000", "133939.165000", "133935.325000", "133939.275000", "133935.435000", "133939.382500", "133935.545000", "133939.492500", "133935.652500", "133939.602500", "133935.762500", "133939.712500", "133935.872500", "133939.822500", "133935.982500", "133939.932500", "133936.092500", "133940.042500", "133936.202500", "133940.152500", "133936.312500", "133940.262500", "133936.422500", "133940.370000", "133936.530000", "133940.480000", "133936.640000", "133940.590000", "133936.750000", "133940.700000", "133936.860000", "133940.810000", "133936.970000", "133940.920000", "133937.080000", "133941.030000", "133937.190000", "133941.140000", "133937.300000", "133945.110000", "133941.270000", "133945.217500", "133941.380000", "133945.327500", "133941.487500", "133945.437500", "133941.597500", "133945.547500", "133941.707500", "133945.657500", "133941.817500", "133945.767500", "133941.927500", "133945.877500", "133942.037500", "133945.987500", "133942.147500", "133946.097500", "133942.257500", "133946.205000", "133942.365000", "133946.315000", "133942.475000", "133946.425000", "133942.585000", "133946.535000", "133942.695000", "133946.645000", "133942.805000", "133946.755000", "133942.915000", "133946.865000", "133943.025000", "133946.975000", "133943.135000", "133947.082500", "133943.245000", "133947.192500", "133943.352500", "133947.302500", "133943.462500", "133947.412500", "133943.572500", "133947.522500", "133943.682500", "133947.632500", "133943.792500", "133947.742500", "133943.902500", "133947.852500", "133944.012500", "133947.962500", "133944.122500", "133948.070000", "133944.230000", "133948.180000", "133944.340000", "133948.290000", "133944.450000", "133948.400000", "133944.560000", "133948.510000", "133944.670000", "133948.620000", "133944.780000", "133948.730000", "133944.890000", "133948.840000", "133945.000000", "133952.810000", "133948.970000", "133952.917500", "133949.080000", "133953.027500", "133949.187500", "133953.137500", "133949.297500", "133953.247500", "133949.407500", "133953.357500", "133949.517500", "133953.467500", "133949.627500", "133953.577500", "133949.737500", "133953.687500", "133949.847500", "133953.797500", "133949.957500", "133953.905000", "133950.065000", "133954.015000", "133950.175000", "133954.125000", "133950.285000", "133954.235000", "133950.395000", "133954.345000", "133950.505000", "133954.455000", "133950.615000", "133954.565000", "133950.725000", "133954.675000", "133950.835000", "133954.782500", "133950.945000", "133954.892500", "133951.052500", "133955.002500", "133951.162500", "133955.112500", "133951.272500", "133955.222500", "133951.382500", "133955.332500", "133951.492500", "133955.442500", "133951.602500", "133955.552500", "133951.712500", "133955.662500", "133951.822500", "133955.770000", "133951.930000", "133955.880000", "133952.040000", "133955.990000", "133952.150000", "133956.100000", "133952.260000", "133956.210000", "133952.370000", "133956.320000", "133952.480000", "133956.430000", "133952.590000", "133956.540000", "133952.700000", "134000.510000", "133956.670000", "134000.617500", "133956.780000", "134000.727500", "133956.887500", "134000.837500", "133956.997500", "134000.947500", "133957.107500", "134001.057500", "133957.217500", "134001.167500", "133957.327500", "134001.277500", "133957.437500", "134001.387500", "133957.547500", "134001.497500", "133957.657500", "134001.605000", "133957.765000", "134001.715000", "133957.875000", "134001.825000", "133957.985000", "134001.935000", "133958.095000", "134002.045000", "133958.205000", "134002.155000", "133958.315000", "134002.265000", "133958.425000", "134002.375000", "133958.535000", "134002.482500", "133958.645000", "134002.592500", "133958.752500", "134002.702500", "133958.862500", "134002.812500", "133958.972500", "134002.922500", "133959.082500", "134003.032500", "133959.192500", "134003.142500", "133959.302500", "134003.252500", "133959.412500", "134003.362500", "133959.522500", "134003.470000", "133959.630000", "134003.580000", "133959.740000", "134003.690000", "133959.850000", "134003.800000", "133959.960000", "134003.910000", "134000.070000", "134004.020000", "134000.180000", "134004.130000", "134000.290000", "134004.240000", "134000.400000", "134008.210000", "134004.370000", "134008.317500", "134004.480000", "134008.427500", "134004.587500", "134008.537500", "134004.697500", "134008.647500", "134004.807500", "134008.757500", "134004.917500", "134008.867500", "134005.027500", "134008.977500", "134005.137500", "134009.087500", "134005.247500", "134009.197500", "134005.357500", "134009.305000", "134005.465000", "134009.415000", "134005.575000", "134009.525000", "134005.685000", "134009.635000", "134005.795000", "134009.745000", "134005.905000", "134009.855000", "134006.015000", "134009.965000", "134006.125000", "134010.075000", "134006.235000", "13