{
  "AcquisitionMatrixPE": 122,
  "AcquisitionNumber": 1,
  "AcquisitionTime": "13:41:55.467500",
  "BandwidthPerPixelPhaseEncode": 27.785,
  "BaseResolution": 122,
  "BodyPartExamined": "BRAIN",
  "CoilCombinationMethod": "Adaptive Combine",
  "ConsistencyInfo": "N4_VE11C_LATEST_20160120",
  "ConversionSoftware": "dcm2niix",
  "ConversionSoftwareVersion": "v1.0.20220720",
  "DerivedVendorReportedEchoSpacing": 0.000590011,
  "DeviceSerialNumber": "66112",
  "DiffusionScheme": "Monopolar",
  "DwellTime": 2e-06,
  "EchoTime": 0.068,
  "EchoTrainLength": 61,
  "EffectiveEchoSpacing": 0.000295005,
  "FlipAngle": 90,
  "HeudiconvVersion": "0.13.1",
  "ImageOrientationPatientDICOM": [0.997183, -0.0745998, 0.00783375, 0.0686805, 0.950034, 0.304497],
  "ImageOrientationText": "Tra>Cor(17.7)>Sag(1.7)",
  "ImageType": [
    "ORIGINAL",
    "PRIMARY",
    "DIFFUSION",
    "NONE",
    "ND",
    "NORM"
],
  "ImagingFrequency": 123.252,
  "InPlanePhaseEncodingDirectionDICOM": "COL",
  "InstitutionAddress": "Maynard 3,Hanover,NH,US,03755",
  "InstitutionName": "Dartmouth College - PBS",
  "InstitutionalDepartmentName": "Department",
  "MRAcquisitionType": "2D",
  "MagneticFieldStrength": 3,
  "Manufacturer": "Siemens",
  "ManufacturersModelName": "Prisma",
  "Modality": "MR",
  "MultibandAccelerationFactor": 4,
  "NonlinearGradientCorrection": false,
  "ParallelReductionFactorInPlane": 2,
  "PartialFourier": 1,
  "PatientPosition": "HFS",
  "PercentPhaseFOV": 100,
  "PercentSampling": 100,
  "PhaseEncodingDirection": "j-",
  "PhaseEncodingSteps": 122,
  "PhaseResolution": 1,
  "PixelBandwidth": 2050,
  "ProcedureStepDescription": "dbic^QA",
  "ProtocolName": "dwi_acq-DTI-30-p2-s4",
  "PulseSequenceDetails": "%SiemensSeq%\\ep2d_diff",
  "ReceiveCoilActiveElements": "HEA;HEP",
  "ReceiveCoilName": "Head_32",
  "ReconMatrixPE": 122,
  "RefLinesPE": 38,
  "RepetitionTime": 3.6,
  "SAR": 0.159792,
  "ScanOptions": "FS",
  "ScanningSequence": "EP",
  "SequenceName": "*ep_b0",
  "SequenceVariant": "SK\\SP",
  "SeriesDescription": "dwi_acq-DTI-30-p2-s4",
  "SeriesNumber": 9,
  "ShimSetting": [4146, -7693, -7509, 274, -65, -188, -63, 68],
  "SliceThickness": 2,
  "SliceTiming": [2.59375, 0, 1.79688, 0.20312, 2, 0.40625, 2.1875, 0.60938, 2.39062, 1, 2.79688, 1.20312, 2.98438, 1.40625, 3.1875, 1.59375, 3.39062, 0.79688, 2.59375, 0, 1.79688, 0.20312, 2, 0.40625, 2.1875, 0.60938, 2.39062, 1, 2.79688, 1.20312, 2.98438, 1.40625, 3.1875, 1.59375, 3.39062, 0.79688, 2.59375, 0, 1.79688, 0.20312, 2, 0.40625, 2.1875, 0.60938, 2.39062, 1, 2.79688, 1.20312, 2.98438, 1.40625, 3.1875, 1.59375, 3.39062, 0.79688, 2.59375, 0, 1.79688, 0.20312, 2, 0.40625, 2.1875, 0.60938, 2.39062, 1, 2.79688, 1.20312, 2.98438, 1.40625, 3.1875, 1.59375, 3.39062, 0.79688],
  "SoftwareVersions": "syngo MR E11",
  "SpacingBetweenSlices": 2,
  "SpoilingState": true,
  "StationName": "AWP66112",
  "TotalReadoutTime": 0.0356956,
  "TxRefAmp": 233.526,
  "dcmmeta_affine": [
    [-1.9616711139678955, 0.13510920107364655, 0.06031537055969238, 109.9922103881836],
    [0.14675375819206238, 1.8689193725585938, 0.6062030792236328, -132.8951416015625],
    [0.015410653315484524, -0.5990104079246521, 1.9049606323242188, -30.2485408782959],
    [0.0, 0.0, 0.0, 1.0]
],
  "dcmmeta_reorient_transform": [
    [0.0, -1.0, 0.0, 121.0],
    [1.0, 0.0, 0.0, 0.0],
    [0.0, 0.0, -1.0, 71.0],
    [0.0, 0.0, 0.0, 1.0]
],
  "dcmmeta_shape": [122, 122, 72, 31],
  "dcmmeta_slice_dim": 2,
  "dcmmeta_version": 0.6,
  "global": {
    "const": {
      "AccessionNumber": "qa",
      "AcquisitionMatrix": [122, 0, 0, 122],
      "AngioFlag": "N",
      "BitsAllocated": 16,
      "BitsStored": 12,
      "BodyPartExamined": "BRAIN",
      "Columns": 122,
      "EchoNumbers": 1,
      "EchoTime": 68.0,
      "EchoTrainLength": 61,
      "FlipAngle": 90.0,
      "HighBit": 11,
      "ImageOrientationPatient": [0.99718278057744, -0.074599829122, 0.00783374845186, 0.06868050933953, 0.95003399643636, 0.30449695113748],
      "ImageType": [
        "ORIGINAL",
        "PRIMARY",
        "DIFFUSION",
        "NONE",
        "ND",
        "NORM"
],
      "ImagedNucleus": "1H",
      "ImagingFrequency": 123.252449,
      "InPlanePhaseEncodingDirection": "COL",
      "MRAcquisitionType": "2D",
      "MagneticFieldStrength": 3.0,
      "Manufacturer": "SIEMENS",
      "ManufacturerModelName": "Prisma",
      "Modality": "MR",
      "NumberOfAverages": 1.0,
      "NumberOfPhaseEncodingSteps": 122,
      "PercentPhaseFieldOfView": 100.0,
      "PercentSampling": 100.0,
      "PerformedProcedureStepStartTime": "110746.437000",
      "PhotometricInterpretation": "MONOCHROME2",
      "PixelBandwidth": 2050.0,
      "PixelRepresentation": 0,
      "PixelSpacing": [1.9672131538391, 1.9672131538391],
      "ProtocolName": "dwi_acq-DTI-30-p2-s4",
      "RepetitionTime": 3600.0,
      "Rows": 122,
      "SAR": 0.15979182439036,
      "SamplesPerPixel": 1,
      "ScanOptions": "FS",
      "ScanningSequence": "EP",
      "SequenceVariant": [
        "SK",
        "SP"
],
      "SeriesDescription": "dwi_acq-DTI-30-p2-s4",
      "SeriesNumber": 9,
      "SeriesTime": "134204.995000",
      "SliceThickness": 2.0,
      "SmallestImagePixelValue": 0,
      "SoftwareVersions": "syngo MR E11",
      "SpacingBetweenSlices": 2.0,
      "SpecificCharacterSet": "ISO_IR 100",
      "StudyID": "49",
      "StudyTime": "110746.363000",
      "TransmitCoilName": "Body",
      "VariableFlipAngleFlag": "N",
      "WindowCenterWidthExplanation": "Algo1",
      "dBdt": 0.0},
    "slices": {
      "AcquisitionTime": ["134155.467500", "134152.882500", "134154.672500", "134153.082500", "134154.872500", "134153.280000", "134155.070000", "134153.480000", "134155.270000", "134153.877500", "134155.667500", "134154.075000", "134155.865000", "134154.275000", "134156.065000", "134154.475000", "134156.265000", "134153.677500", "134155.467500", "134152.882500", "134154.672500", "134153.082500", "134154.872500", "134153.280000", "134155.070000", "134153.480000", "134155.270000", "134153.877500", "134155.667500", "134154.075000", "134155.865000", "134154.275000", "134156.065000", "134154.475000", "134156.265000", "134153.677500", "134155.467500", "134152.882500", "134154.672500", "134153.082500", "134154.872500", "134153.280000", "134155.070000", "134153.480000", "134155.270000", "134153.877500", "134155.667500", "134154.075000", "134155.865000", "134154.275000", "134156.065000", "134154.475000", "134156.265000", "134153.677500", "134155.467500", "134152.882500", "134154.672500", "134153.082500", "134154.872500", "134153.280000", "134155.070000", "134153.480000", "134155.270000", "134153.877500", "134155.667500", "134154.075000", "134155.865000", "134154.275000", "134156.065000", "134154.475000", "134156.265000", "134153.677500", "134159.067500", "134156.482500", "134158.272500", "134156.682500", "134158.472500", "134156.880000", "134158.670000", "134157.080000", "134158.870000", "134157.477500", "134159.267500", "134157.675000", "134159.465000", "134157.875000", "134159.665000", "134158.075000", "134159.865000", "134157.277500", "134159.067500", "134156.482500", "134158.272500", "134156.682500", "134158.472500", "134156.880000", "134158.670000", "134157.080000", "134158.870000", "134157.477500", "134159.267500", "134157.675000", "134159.465000", "134157.875000", "134159.665000", "134158.075000", "134159.865000", "134157.277500", "134159.067500", "134156.482500", "134158.272500", "134156.682500", "134158.472500", "134156.880000", "134158.670000", "134157.080000", "134158.870000", "134157.477500", "134159.267500", "134157.675000", "134159.465000", "134157.875000", "134159.665000", "134158.075000", "134159.865000", "134157.277500", "134159.067500", "134156.482500", "134158.272500", "134156.682500", "134158.472500", "134156.880000", "134158.670000", "134157.080000", "134158.870000", "134157.477500", "134159.267500", "134157.675000", "134159.465000", "134157.875000", "134159.665000", "134158.075000", "134159.865000", "134157.277500", "134202.667500", "134200.082500", "134201.872500", "134200.282500", "134202.072500", "134200.480000", "134202.270000", "134200.680000", "134202.470000", "134201.077500", "134202.867500", "134201.275000", "134203.065000", "134201.475000", "134203.265000", "134201.675000", "134203.465000", "134200.877500", "134202.667500", "134200.082500", "134201.872500", "134200.282500", "134202.072500", "134200.480000", "134202.270000", "134200.680000", "134202.470000", "134201.077500", "134202.867500", "134201.275000", "134203.065000", "134201.475000", "134203.265000", "134201.675000", "134203.465000", "134200.877500", "134202.667500", "134200.082500", "134201.872500", "134200.282500", "134202.072500", "134200.480000", "134202.270000", "134200.680000", "134202.470000", "134201.077500", "134202.867500", "134201.275000", "134203.065000", "134201.475000", "134203.265000", "134201.675000", "134203.465000", "134200.877500", "134202.667500", "134200.082500", "134201.872500", "134200.282500", "134202.072500", "134200.480000", "134202.270000", "134200.680000", "134202.470000", "134201.077500", "134202.867500", "134201.275000", "134203.065000", "134201.475000", "134203.265000", "134201.675000", "134203.465000", "134200.877500", "134206.267500", "134203.682500", "134205.472500", "134203.882500", "134205.672500", "134204.080000", "134205.870000", "134204.280000", "134206.070000", "134204.677500", "134206.467500", "134204.875000", "134206.665000", "134205.075000", "134206.865000", "134205.275000", "134207.065000", "134204.477500", "134206.267500", "134203.682500", "134205.472500", "134203.882500", "134205.672500", "134204.080000", "134205.870000", "134204.280000", "134206.070000", "134204.677500", "134206.467500", "134204.875000", "134206.665000", "134205.075000", "134206.865000", "134205.275000", "134207.065000", "134204.477500", "134206.267500", "134203.682500", "134205.472500", "134203.882500", "134205.672500", "134204.080000", "134205.870000", "134204.280000", "134206.070000", "134204.677500", "134206.467500", "134204.875000", "134206.665000", "134205.075000", "134206.865000", "134205.275000", "134207.065000", "134204.477500", "134206.267500", "134203.682500", "134205.472500", "134203.882500", "134205.672500", "134204.080000", "134205.870000", "134204.280000", "134206.070000", "134204.677500", "134206.467500", "134204.875000", "134206.665000", "134205.075000", "134206.865000", "134205.275000", "134207.065000", "134204.477500", "134209.867500", "134207.282500", "134209.072500", "134207.482500", "134209.272500", "134207.680000", "134209.470000", "134207.880000", "134209.670000", "134208.277500", "134210.067500", "134208.475000", "134210.265000", "134208.675000", "134210.465000", "134208.875000", "134210.665000", "134208.077500", "134209.867500", "134207.282500", "134209.072500", "134207.482500", "134209.272500", "134207.680000", "134209.470000", "134207.880000", "134209.670000", "134208.277500", "134210.067500", "134208.475000", "134210.265000", "134208.675000", "134210.465000", "134208.875000", "134210.665000", "134208.077500", "134209.867500", "134207.282500", "134209.072500", "134207.482500", "134209.272500", "134207.680000", "134209.470000", "134207.880000", "134209.670000", "134208.277500", "134210.067500", "134208.475000", "134210.265000", "134208.675000", "134210.465000", "134208.875000", "134210.665000", "134208.077500", "134209.867500", "134207.282500", "134209.072500", "134207.482500", "134209.272500", "134207.680000", "134209.470000", "134207.880000", "134209.670000", "134208.277500", "134210.067500", "134208.475000", "134210.265000", "134208.675000", "134210.465000", "134208.875000", "134210.665000", "134208.077500", "134213.467500", "134210.882500", "134212.672500", "134211.082500", "134212.872500", "134211.280000", "134213.070000", "134211.480000", "134213.270000", "134211.877500", "134213.667500", "134212.075000", "134213.865000", "134212.275000", "134214.065000", "134212.475000", "134214.265000", "134211.677500", "134213.467500", "134210.882500", "134212.672500", "134211.082500", "134212.872500", "134211.280000", "134213.070000", "134211.480000", "134213.270000", "134211.877500", "134213.667500", "134212.075000", "134213.865000", "134212.275000", "134214.065000", "134212.475000", "134214.265000", "134211.677500", "134213.467500", "134210.882500", "134212.672500", "134211.082500", "134212.872500", "134211.280000", "134213.070000", "134211.480000", "134213.270000", "134211.877500", "134213.667500", "134212.075000", "134213.865000", "134212.275000", "134214.065000", "134212.475000", "134214.265000", "134211.677500", "134213.467500", "134210.882500", "134212.672500", "134211.082500", "134212.872500", "134211.280000", "134213.070000", "134211.480000", "134213.270000", "134211.877500", "134213.667500", "134212.075000", "134213.865000", "134212.275000", "134214.065000", "134212.475000", "134214.265000", "134211.677500", "134217.067500", "134214.482500", "134216.272500", "134214.682500", "134216.472500", "134214.880000", "134216.670000", "134215.080000", "134216.870000", "134215.477500", "134217.267500", "134215.675000", "134217.465000", "134215.875000", "134217.665000", "134216.075000", "134217.865000", "134215.277500", "134217.067500", "134214.482500", "134216.272500", "134214.682500", "134216.472500", "134214.880000", "134216.670000", "134215.080000", "134216.870000", "134215.477500", "134217.267500", "134215.675000", "134217.465000", "134215.875000", "134217.665000", "134216.075000", "134217.865000", "134215.277500", "134217.067500", "134214.482500", "134216.272500", "134214.682500", "134216.472500", "134214.880000", "134216.670000", "134215.080000", "134216.870000", "134215.477500", "134217.267500", "134215.675000", "134217.465000", "134215.875000", "134217.665000", "134216.075000", "134217.865000", "134215.277500", "134217.067500", "134214.482500", "134216.272500", "134214.682500", "134216.472500", "134214.880000", "134216.670000", "134215.080000", "134216.870000", "134215.477500", "134217.267500", "134215.675000", "134217.465000", "134215.875000", "134217.665000", "134216.075000", "134217.865000", "134215.277500", "134220.667500", "134218.082500", "134219.872500", "134218.282500", "134220.072500", "134218.480000", "134220.270000", "134218.680000", "134220.470000", "134219.077500", "134220.867500", "134219.275000", "134221.065000", "134219.475000", "134221.265000", "134219.675000", "134221.465000", "134218.877500", "134220.667500", "134218.082500", "134219.872500", "134218.282500", "134220.072500", "134218.480000", "134220.270000", "134218.680000", "134220.470000", "134219.077500", "134220.867500", "134219.275000", "134221.065000", "134219.475000", "134221.265000", "134219.675000", "134221.465000", "134218.877500", "134220.667500", "134218.082500", "134219.872500", "134218.282500", "134220.072500", "134218.480000", "134220.270000", "134218.680000", "134220.470000", "134219.077500", "134220.867500", "134219.275000", "134221.065000", "134219.475000", "134221.265000", "134219.675000", "134221.465000", "134218.877500", "134220.667500", "134218.082500", "134219.872500", "134218.282500", "134220.072500", "134218.480000", "134220.270000", "134218.680000", "134220.470000", "134219.077500", "134220.867500", "134219.275000", "134221.065000", "134219.475000", "134221.265000", "134219.675000", "134221.465000", "134218.877500", "134224.267500", "134221.682500", "134223.472500", "134221.882500", "134223.672500", "134222.080000", "134223.870000", "134222.280000", "134224.070000", "134222.677500", "134224.467500", "134222.875000", "134224.665000", "134223.075000", "134224.865000", "134223.275000", "134225.065000", "134222.477500", "134224.267500", "134221.682500", "134223.472500", "134221.882500", "134223.672500", "134222.080000", "134223.870000", "134222.280000", "134224.070000", "134222.677500", "134224.467500", "134222.875000", "134224.665000", "134223.075000", "134224.865000", "134223.275000", "134225.065000", "134222.477500", "134224.267500", "134221.682500", "134223.472500", "134221.882500", "134223.672500", "134222.080000", "134223.870000", "134222.280000", "134224.070000", "134222.677500", "134224.467500", "134222.875000", "134224.665000", "134223.075000", "134224.865000", "134223.275000", "134225.065000", "134222.477500", "134224.267500", "134221.682500", "134223.472500", "134221.882500", "134223.672500", "134222.080000", "134223.870000", "134222.280000", "134224.070000", "134222.677500", "134224.467500", "134222.875000", "134224.665000", "134223.075000", "134224.865000", "134223.275000", "134225.065000", "134222.477500", "134227.867500", "134225.282500", "134227.072500", "134225.482500", "134227.272500", "134225.680000", "134227.470000", "134225.880000", "134227.670000", "134226.277500", "134228.067500", "134226.475000", "134228.265000", "134226.675000", "134228.465000", "134226.875000", "134228.665000", "134226.077500", "134227.867500", "134225.282500", "134227.072500", "134225.482500", "134227.272500", "134225.680000", "134227.470000", "134225.880000", "134227.670000", "134226.277500", "134228.067500", "134226.475000", "134228.265000", "134226.675000", "134228.465000", "134226.875000", "134228.665000", "134226.077500", "134227.867500", "134225.282500", "134227.072500", "134225.482500", "134227.272500", "134225.680000", "134227.470000", "134225.880000", "134227.670000", "134226.277500", "134228.067500", "134226.475000", "134228.265000", "134226.675000", "134228.465000", "134226.875000", "134228.665000", "134226.077500", "134227.867500", "134225.282500", "134227.072500", "134225.482500", "134227.272500", "134225.680000", "134227.470000", "134225.880000", "134227.670000", "134226.277500", "134228.067500", "134226.475000", "134228.265000", "134226.675000", "134228.465000", "134226.875000", "134228.665000", "134226.077500", "134231.467500", "134228.882500", "134230.672500", "134229.082500", "134230.872500", "134229.280000", "134231.070000", "134229.480000", "134231.270000", "134229.877500", "134231.667500", "134230.075000", "134231.865000", "134230.275000", "134232.065000", "134230.475000", "134232.265000", "134229.677500", "134231.467500", "134228.882500", "134230.672500", "134229.082500", "134230.872500", "134229.280000", "134231.070000", "134229.480000", "134231.270000", "134229.877500", "134231.667500", "134230.075000", "134231.865000", "134230.275000", "134232.065000", "134230.475000", "134232.265000", "134229.677500", "134231.467500", "134228.882500", "134230.672500", "134229.082500", "134230.872500", "134229.280000", "134231.070000", "134229.480000", "134231.270000", "134229.877500", "134231.667500", "134230.075000", "134231.865000", "134230.275000", "134232.065000", "134230.475000", "134232.265000", "134229.677500", "134231.467500", "134228.882500", "134230.672500", "134229.082500", "134230.872500", "134229.280000", "134231.070000", "134229.480000", "134231.270000", "134229.877500", "134231.667500", "134230.075000", "134231.865000", "134230.275000", "134232.065000", "134230.475000", "134232.265000", "134229.677500", "134235.067500", "134232.482500", "134234.272500", "134232.682500", "134234.472500", "134232.880000", "134234.670000", "134233.080000", "134234.870000", "134233.477500", "134235.267500", "134233.675000", "134235.465000", "134233.875000", "134235.665000", "134234.075000", "134235.865000", "134233.277500", "134235.067500", "134232.482500", "134234.272500", "134232.682500", "134234.472500", "134232.880000", "134234.670000", "134233.080000", "134234.870000", "134233.477500", "134235.267500", "134233.675000", "134235.465000", "134233.875000", "134235.665000", "134234.075000", "134235.865000", "134233.277500", "134235.067500", "134232.482500", "134234.272500", "134232.682500", "134234.472500", "134232.880000", "134234.670000", "134233.080000", "134234.870000", "134233.477500", "134235.267500", "134233.675000", "134235.465000", "134233.875000", "134235.665000", "134234.075000", "134235.865000", "134233.277500", "134235.067500", "134232.482500", "134234.272500", "134232.682500", "134234.472500", "134232.880000", "134234.670000", "134233.080000", "134234.870000", "134233.477500", "134235.267500", "134233.675000", "134235.465000", "134233.875000", "134235.665000", "134234.075000", "134235.865000", "134233.277500", "134238.667500", "134236.082500", "134237.872500", "134236.282500", "134238.072500", "134236.480000", "134238.270000", "134236.680000", "134238.470000", "134237.077500", "134238.867500", "134237.275000", "134239.065000", "134237.475000", "134239.265000", "134237.675000", "134239.465000", "134236.877500", "134238.667500", "134236.082500", "134237.872500", "134236.282500", "134238.072500", "134236.480000", "134238.270000", "134236.680000", "134238.470000", "134237.077500", "134238.867500", "134237.275000", "134239.065000", "134237.475000", "134239.265000", "134237.675000", "134239.465000", "134236.877500", "134238.667500", "134236.082500", "134237.872500", "134236.282500", "134238.072500", "134236.480000", "134238.270000", "134236.680000", "134238.470000", "134237.077500", "134238.867500", "134237.275000", "134239.065000", "134237.475000", "134239.265000", "134237.675000", "134239.465000", "134236.877500", "134238.667500", "134236.082500", "134237.872500", "134236.282500", "134238.072500", "134236.480000", "134238.270000", "134236.680000", "134238.470000", "134237.077500", "134238.867500", "134237.275000", "134239.065000", "134237.475000", "134239.265000", "134237.675000", "134239.465000", "134236.877500", "134242.267500", "134239.682500", "134241.472500", "134239.882500", "134241.672500", "134240.080000", "134241.870000", "134240.280000", "134242.070000", "134240.677500", "134242.467500", "134240.875000", "134242.665000", "134241.075000", "134242.865000", "134241.275000", "134243.065000", "134240.477500", "134242.267500", "134239.682500", "134241.472500", "134239.882500", "134241.672500", "134240.080000", "134241.870000", "134240.280000", "134242.070000", "134240.677500", "134242.467500", "134240.875000", "134242.665000", "134241.075000", "134242.865000", "134241.275000", "134243.065000", "134240.477500", "134242.267500", "134239.682500", "134241.472500", "134239.882500", "134241.672500", "134240.080000", "134241.870000", "134240.280000", "134242.070000", "134240.677500", "134242.467500", "134240.875000", "134242.665000", "134241.075000", "134242.865000", "134241.275000", "134243.065000", "134240.477500", "134242.267500", "134239.682500", "134241.472500", "134239.882500", "134241.672500", "134240.080000", "134241.870000", "134240.280000", "134242.070000", "134240.677500", "134242.467500", "134240.875000", "134242.665000", "134241.075000", "134242.865000", "134241.275000", "134243.065000", "134240.477500", "134245.867500", "134243.282500", "134245.072500", "134243.482500", "134245.272500", "134243.680000", "134245.470000", "134243.880000", "134245.670000", "134244.277500", "134246.067500", "134244.475000", "134246.265000", "134244.675000", "134246.465000", "134244.875000", "134246.665000", "134244.077500", "134245.867500", "134243.282500", "134245.072500", "134243.482500", "134245.272500", "134243.680000", "134245.470000", "134243.880000", "134245.670000", "134244.277500", "134246.067500", "134244.475000", "134246.265000", "134244.675000", "134246.465000", "134244.875000", "134246.665000", "134244.077500", "134245.867500", "134243.282500", "134245.072500", "134243.482500", "134245.272500", "134243.680000", "134245.470000", "134243.880000", "134245.670000", "134244.277500", "134246.067500", "134244.475000", "134246.265000", "134244.675000", "134246.465000", "134244.875000", "134246.665000", "134244.077500", "134245.867500", "134243.282500", "134245.072500", "134243.482500", "134245.272500", "134243.680000", "134245.470000", "134243.880000", "134245.670000", "134244.277500", "134246.067500", "134244.475000", "134246.265000", "134244.675000", "134246.465000", "134244.875000", "134246.665000", "134244.077500", "134249.467500", "134246.882500", "134248.672500", "134247.082500", "134248.872500", "134247.280000", "134249.070000", "134247.480000", "134249.270000", "134247.877500", "134249.667500", "134248.075000", "134249.865000", "134248.275000", "134250.065000", "134248.475000", "134250.265000", "134247.677500", "134249.467500", "134246.882500", "134248.672500", "134247.082500", "134248.872500", "134247.280000", "134249.070000", "134247.480000", "134249.270000", "134247.877500", "134249.667500", "134248.075000", "134249.865000", "134248.275000", "134250.065000", "134248.475000", "134250.265000", "134247.677500", "134249.467500", "134246.882500", "134248.672500", "134247.082500", "134248.872500", "134247.280000", "134249.070000", "134247.480000", "134249.270000", "134247.877500", "134249.667500", "134248.075000", "134249.865000", "134248.275000", "134250.065000", "134248.475000", "134250.265000", "134247.677500", "134249.467500", "134246.882500", "134248.672500", "134247.082500", "134248.872500", "134247.280000", "134249.070000", "134247.480000", "134249.270000", "134247.877500", "134249.667500", "134248.075000", "134249.865000", "134248.275000", "134250.065000", "134248.475000", "134250.265000", "134247.677500", "134253.067500", "134250.482500", "134252.272500", "134250.682500", "134252.472500", "134250.880000", "134252.670000", "134251.080000", "134252.870000", "134251.477500", "134253.267500", "134251.675000", "134253.465000", "134251.875000", "134253.665000", "134252.075000", "134253.865000", "134251.277500", "134253.067500", "134250.482500", "134252.272500", "134250.682500", "134252.472500", "134250.880000", "134252.670000", "134251.080000", "134252.870000", "134251.477500", "134253.267500", "134251.675000", "134253.465000", "134251.875000", "134253.665000", "134252.075000", "134253.865000", "134251.277500", "134253.067500", "134250.482500", "134252.272500", "134250.682500", "134252.472500", "134250.880000", "134252.670000", "134251.080000", "134252.870000", "134251.477500", "134253.267500", "134251.675000", "134253.465000", "134251.875000", "134253.665000", "134252.075000", "134253.865000", "134251.277500", "134253.067500", "134250.482500", "134252.272500", "134250.682500", "134252.472500", "134250.880000", "134252.670000", "134251.080000", "134252.870000", "134251.477500", "134253.267500", "134251.675000", "134253.465000", "134251.875000", "134253.665000", "134252.075000", "134253.865000", "134251.277500", "134256.667500", "134254.082500", "134255.872500", "134254.282500", "134256.072500", "134254.480000", "134256.270000", "134254.680000", "134256.470000", "134255.077500", "134256.867500", "134255.275000", "134257.065000", "134255.475000", "134257.265000", "134255.675000", "134257.465000", "134254.877500", "134256.667500", "134254.082500", "134255.872500", "134254.282500", "134256.072500", "134254.480000", "134256.270000", "134254.680000", "134256.470000", "134255.077500", "134256.867500", "134255.275000", "134257.065000", "134255.475000", "134257.265000", "134255.675000", "134257.465000", "134254.877500", "134256.667500", "134254.082500", "134255.872500", "134254.282500", "134256.072500", "134254.480000", "134256.270000", "134254.680000", "134256.470000", "134255.077500", "134256.867500", "134255.275000", "134257.065000", "134255.475000", "134257.265000", "134255.675000", "134257.465000", "134254.877500", "134256.667500", "134254.082500", "134255.872500", "134254.282500", "134256.072500", "134254.480000", "134256.270000", "134254.680000", "134256.470000", "134255.077500", "134256.867500", "134255.275000", "134257.065000", "134255.475000", "134257.265000", "134255.675000", "134257.465000", "134254.877500", "134300.267500", "134257.682500", "134259.472500", "134257.882500", "134259.672500", "134258.080000", "134259.870000", "134258.280000", "134300.070000", "134258.677500", "134300.467500", "134258.875000", "134300.665000", "134259.075000", "134300.865000", "134259.275000", "134301.065000", "134258.477500", "134300.267500", "134257.682500", "134259.472500", "134257.882500", "134259.672500", "134258.080000", "134259.870000", "134258.280000", "134300.070000", "134258.677500", "134300.467500", "134258.875000", "134300.665000", "134259.075000", "134300.865000", "134259.275000", "134301.065000", "134258.477500", "134300.267500", "134257.682500", "134259.472500", "134257.882500", "134259.672500", "134258.080000", "134259.870000", "134258.280000", "134300.070000", "134258.677500", "134300.467500", "134258.875000", "134300.665000", "134259.075000", "134300.865000", "134259.275000", "134301.065000", "134258.477500", "134300.267500", "134257.682500", "134259.472500", "134257.882500", "134259.672500", "134258.080000", "134259.870000", "134258.280000", "134300.070000", "134258.677500", "134300.467500", "134258.875000", "134300.665000", "134259.075000", "134300.865000", "134259.275000", "134301.065000", "134258.477500", "134303.867500", "134301.282500", "134303.072500", "134301.482500", "134303.272500", "134301.680000", "134303.470000", "134301.880000", "134303.670000", "134302.277500", "134304.067500", "134302.475000", "134304.265000", "134302.675000", "134304.465000", "134302.875000", "134304.665000", "134302.077500", "134303.867500", "134301.282500", "134303.072500", "134301.482500", "134303.272500", "134301.680000", "134303.470000", "134301.880000", "134303.670000", "134302.277500", "134304.067500", "134302.475000", "134304.265000", "134302.675000", "134304.465000", "134302.875000", "134304.665000", "134302.077500", "134303.867500", "134301.282500", "134303.072500", "134301.482500", "134303.272500", "134301.680000", "134303.470000", "134301.880000", "134303.670000", "134302.277500", "134304.067500", "134302.475000", "134304.265000", "134302.675000", "134304.465000", "134302.875000", "134304.665000", "134302.077500", "134303.867500", "134301.282500", "134303.072500", "134301.482500", "134303.272500", "134301.680000", "134303.470000", "134301.880000", "134303.670000", "134302.277500", "134304.067500", "134302.475000", "134304.265000", "134302.675000", "1343