{
  "AcquisitionMatrixPE": 80,
  "AcquisitionNumber": 1,
  "AcquisitionTime": "10:00:58.780000",
  "BandwidthPerPixelPhaseEncode": 48.077,
  "BaseResolution": 80,
  "BodyPartExamined": "BRAIN",
  "CoilCombinationMethod": "Sum of Squares",
  "ConsistencyInfo": "N4_VE11C_LATEST_20160120",
  "ConversionSoftware": "dcm2niix",
  "ConversionSoftwareVersion": "v1.0.20220720",
  "DerivedVendorReportedEchoSpacing": 0.000519999,
  "DeviceSerialNumber": "66112",
  "DwellTime": 2.7e-06,
  "EchoTime": 0.035,
  "EchoTrainLength": 39,
  "EffectiveEchoSpacing": 0.00026,
  "FlipAngle": 90,
  "HeudiconvVersion": "0.13.1",
  "ImageOrientationPatientDICOM": [0.999963, 0.00746992, 0.00417108, -0.0083775, 0.953851, 0.300162],
  "ImageOrientationText": "Tra>Cor(17.5)>Sag(0.1)",
  "ImageType": [
    "ORIGINAL",
    "PRIMARY",
    "M",
    "ND",
    "NORM",
    "MOSAIC"
],
  "ImagingFrequency": 123.252,
  "InPlanePhaseEncodingDirectionDICOM": "COL",
  "InstitutionAddress": "Maynard 3,Hanover,NH,US,03755",
  "InstitutionName": "Dartmouth College - PBS",
  "InstitutionalDepartmentName": "Department",
  "MRAcquisitionType": "2D",
  "MagneticFieldStrength": 3,
  "Manufacturer": "Siemens",
  "ManufacturersModelName": "Prisma",
  "MatrixCoilMode": "GRAPPA",
  "Modality": "MR",
  "NonlinearGradientCorrection": false,
  "ParallelReductionFactorInPlane": 2,
  "PartialFourier": 1,
  "PatientPosition": "HFS",
  "PercentPhaseFOV": 100,
  "PercentSampling": 100,
  "PhaseEncodingDirection": "j-",
  "PhaseEncodingSteps": 79,
  "PhaseResolution": 1,
  "PixelBandwidth": 2315,
  "ProcedureStepDescription": "dbic^QA",
  "ProtocolName": "func-bold_task-rest_acq-p2",
  "PulseSequenceDetails": "%SiemensSeq%\\ep2d_bold",
  "ReceiveCoilActiveElements": "HEA;HEP",
  "ReceiveCoilName": "Head_32",
  "ReconMatrixPE": 80,
  "RefLinesPE": 24,
  "RepetitionTime": 2,
  "SAR": 0.0555959,
  "ScanOptions": "FS",
  "ScanningSequence": "EP",
  "SequenceName": "*epfid2d1_80",
  "SequenceVariant": "SK",
  "SeriesDescription": "func-bold_task-rest_acq-p2",
  "SeriesNumber": 5,
  "ShimSetting": [4144, -7694, -7517, 279, -83, -162, -28, 69],
  "SliceThickness": 3.5,
  "SliceTiming": [0.99, 0, 1.0575, 0.0675, 1.1225, 0.1325, 1.1875, 0.1975, 1.255, 0.265, 1.32, 0.33, 1.385, 0.3975, 1.4525, 0.4625, 1.5175, 0.5275, 1.585, 0.595, 1.65, 0.66, 1.715, 0.7275, 1.7825, 0.7925, 1.8475, 0.8575, 1.915, 0.925],
  "SoftwareVersions": "syngo MR E11",
  "SpacingBetweenSlices": 3.99,
  "StationName": "AWP66112",
  "TaskName": "rest",
  "TotalReadoutTime": 0.02054,
  "TxRefAmp": 227.855,
  "dcmmeta_affine": [
    [-2.999890089035034, -0.02513250894844532, 0.006928236223757267, 120.7304916381836],
    [-0.022409766912460327, 2.861553907394409, 1.1977434158325195, -120.22022247314453],
    [0.0125132380053401, -0.9004871249198914, 3.8059771060943604, -15.460922241210938],
    [0.0, 0.0, 0.0, 1.0]
],
  "dcmmeta_reorient_transform": [
    [0.0, -1.0, 0.0, 79.0],
    [1.0, 0.0, 0.0, 0.0],
    [0.0, 0.0, 1.0, 0.0],
    [0.0, 0.0, 0.0, 1.0]
],
  "dcmmeta_shape": [80, 80, 30, 200],
  "dcmmeta_slice_dim": 2,
  "dcmmeta_version": 0.6,
  "global": {
    "const": {
      "AccessionNumber": "qa",
      "AcquisitionMatrix": [80, 0, 0, 80],
      "AngioFlag": "N",
      "BitsAllocated": 16,
      "BitsStored": 12,
      "BodyPartExamined": "BRAIN",
      "Columns": 480,
      "EchoNumbers": 1,
      "EchoTime": 35.0,
      "EchoTrainLength": 39,
      "FlipAngle": 90.0,
      "HighBit": 11,
      "ImageOrientationPatient": [0.99996340051031, 0.00746992211452, 0.00417107941087, -0.0083775028907, 0.95385133205587, 0.30016237902269],
      "ImagePositionPatient": [-713.69656026848, -682.63529271826, -269.19948155165],
      "ImageType": [
        "ORIGINAL",
        "PRIMARY",
        "M",
        "ND",
        "NORM",
        "MOSAIC"
],
      "ImagedNucleus": "1H",
      "ImagingFrequency": 123.252411,
      "InPlanePhaseEncodingDirection": "COL",
      "MRAcquisitionType": "2D",
      "MagneticFieldStrength": 3.0,
      "Manufacturer": "SIEMENS",
      "ManufacturerModelName": "Prisma",
      "Modality": "MR",
      "NumberOfAverages": 1.0,
      "NumberOfPhaseEncodingSteps": 79,
      "PercentPhaseFieldOfView": 100.0,
      "PercentSampling": 100.0,
      "PerformedProcedureStepStartTime": "095118.284000",
      "PhotometricInterpretation": "MONOCHROME2",
      "PixelBandwidth": 2315.0,
      "PixelRepresentation": 0,
      "PixelSpacing": [3.0, 3.0],
      "ProtocolName": "func-bold_task-rest_acq-p2",
      "RepetitionTime": 2000.0,
      "Rows": 480,
      "SAR": 0.05559594642152,
      "SamplesPerPixel": 1,
      "ScanOptions": "FS",
      "ScanningSequence": "EP",
      "SequenceName": "*epfid2d1_80",
      "SequenceVariant": "SK",
      "SeriesDescription": "func-bold_task-rest_acq-p2",
      "SeriesNumber": 5,
      "SeriesTime": "100155.266000",
      "SliceLocation": -50.626682088713,
      "SliceThickness": 3.5,
      "SmallestImagePixelValue": 0,
      "SoftwareVersions": "syngo MR E11",
      "SpacingBetweenSlices": 3.9899999306875,
      "SpecificCharacterSet": "ISO_IR 100",
      "StudyID": "80",
      "StudyTime": "095118.190000",
      "TransmitCoilName": "Body",
      "VariableFlipAngleFlag": "N",
      "WindowCenterWidthExplanation": "Algo1",
      "dBdt": 0.0},
    "slices": {}
  },
  "time": {
    "samples": {
      "AcquisitionNumber": [1, 2, 3, 4, 5, 6, 7, 8, 9, 10, 11, 12, 13, 14, 15, 16, 17, 18, 19, 20, 21, 22, 23, 24, 25, 26, 27, 28, 29, 30, 31, 32, 33, 34, 35, 36, 37, 38, 39, 40, 41, 42, 43, 44, 45, 46, 47, 48, 49, 50, 51, 52, 53, 54, 55, 56, 57, 58, 59, 60, 61, 62, 63, 64, 65, 66, 67, 68, 69, 70, 71, 72, 73, 74, 75, 76, 77, 78, 79, 80, 81, 82, 83, 84, 85, 86, 87, 88, 89, 90, 91, 92, 93, 94, 95, 96, 97, 98, 99, 100, 101, 102, 103, 104, 105, 106, 107, 108, 109, 110, 111, 112, 113, 114, 115, 116, 117, 118, 119, 120, 121, 122, 123, 124, 125, 126, 127, 128, 129, 130, 131, 132, 133, 134, 135, 136, 137, 138, 139, 140, 141, 142, 143, 144, 145, 146, 147, 148, 149, 150, 151, 152, 153, 154, 155, 156, 157, 158, 159, 160, 161, 162, 163, 164, 165, 166, 167, 168, 169, 170, 171, 172, 173, 174, 175, 176, 177, 178, 179, 180, 181, 182, 183, 184, 185, 186, 187, 188, 189, 190, 191, 192, 193, 194, 195, 196, 197, 198, 199, 200],
      "AcquisitionTime": ["100058.780000", "100100.780000", "100102.780000", "100104.780000", "100106.780000", "100108.780000", "100110.780000", "100112.780000", "100114.780000", "100116.780000", "100118.780000", "100120.780000", "100122.780000", "100124.780000", "100126.780000", "100128.780000", "100130.780000", "100132.780000", "100134.780000", "100136.780000", "100138.780000", "100140.780000", "100142.780000", "100144.780000", "100146.780000", "100148.780000", "100150.780000", "100152.780000", "100154.780000", "100156.780000", "100158.780000", "100200.780000", "100202.780000", "100204.780000", "100206.780000", "100208.780000", "100210.780000", "100212.780000", "100214.780000", "100216.780000", "100218.780000", "100220.780000", "100222.780000", "100224.780000", "100226.780000", "100228.780000", "100230.780000", "100232.780000", "100234.780000", "100236.780000", "100238.780000", "100240.780000", "100242.780000", "100244.780000", "100246.780000", "100248.780000", "100250.780000", "100252.780000", "100254.780000", "100256.780000", "100258.780000", "100300.780000", "100302.780000", "100304.780000", "100306.780000", "100308.780000", "100310.780000", "100312.780000", "100314.780000", "100316.780000", "100318.780000", "100320.780000", "100322.780000", "100324.780000", "100326.780000", "100328.780000", "100330.780000", "100332.780000", "100334.780000", "100336.780000", "100338.780000", "100340.780000", "100342.780000", "100344.780000", "100346.780000", "100348.780000", "100350.780000", "100352.780000", "100354.780000", "100356.780000", "100358.780000", "100400.780000", "100402.780000", "100404.780000", "100406.780000", "100408.780000", "100410.780000", "100412.780000", "100414.780000", "100416.780000", "100418.780000", "100420.780000", "100422.780000", "100424.780000", "100426.780000", "100428.780000", "100430.780000", "100432.780000", "100434.780000", "100436.780000", "100438.780000", "100440.780000", "100442.780000", "100444.780000", "100446.780000", "100448.780000", "100450.780000", "100452.780000", "100454.780000", "100456.780000", "100458.780000", "100500.780000", "100502.780000", "100504.780000", "100506.780000", "100508.780000", "100510.780000", "100512.780000", "100514.780000", "100516.780000", "100518.780000", "100520.780000", "100522.780000", "100524.780000", "100526.780000", "100528.780000", "100530.780000", "100532.780000", "100534.780000", "100536.780000", "100538.780000", "100540.780000", "100542.780000", "100544.780000", "100546.780000", "100548.780000", "100550.780000", "100552.780000", "100554.780000", "100556.780000", "100558.780000", "100600.780000", "100602.780000", "100604.780000", "100606.780000", "100608.780000", "100610.780000", "100612.780000", "100614.780000", "100616.780000", "100618.780000", "100620.780000", "100622.780000", "100624.780000", "100626.780000", "100628.780000", "100630.780000", "100632.780000", "100634.780000", "100636.780000", "100638.780000", "100640.780000", "100642.780000", "100644.780000", "100646.780000", "100648.780000", "100650.780000", "100652.780000", "100654.780000", "100656.780000", "100658.780000", "100700.780000", "100702.780000", "100704.780000", "100706.780000", "100708.780000", "100710.780000", "100712.780000", "100714.780000", "100716.780000", "100718.780000", "100720.780000", "100722.780000", "100724.780000", "100726.780000", "100728.780000", "100730.780000", "100732.780000", "100734.780000", "100736.780000"],
      "ContentTime": ["100155.270000", "100155.274000", "100155.277000", "100155.279000", "100155.282000", "100155.284000", "100155.287000", "100155.289000", "100155.292000", "100155.294000", "100155.297000", "100155.300000", "100155.302000", "100155.305000", "100155.307000", "100155.310000", "100155.312000", "100155.315000", "100155.317000", "100155.324000", "100155.327000", "100155.329000", "100155.332000", "100155.334000", "100155.337000", "100155.340000", "100155.342000", "100155.345000", "100235.253000", "100235.256000", "100235.259000", "100235.261000", "100235.264000", "100235.266000", "100235.269000", "100235.271000", "100235.274000", "100235.276000", "100235.279000", "100235.281000", "100235.284000", "100235.299000", "100235.301000", "100235.304000", "100235.306000", "100235.309000", "100235.312000", "100235.314000", "100315.253000", "100315.256000", "100315.258000", "100315.261000", "100315.263000", "100315.266000", "100315.268000", "100315.271000", "100315.273000", "100315.276000", "100315.279000", "100315.281000", "100315.284000", "100315.286000", "100315.289000", "100315.291000", "100315.294000", "100315.297000", "100315.299000", "100315.302000", "100355.252000", "100355.255000", "100355.257000", "100355.260000", "100355.262000", "100355.265000", "100355.267000", "100355.270000", "100355.272000", "100355.275000", "100355.278000", "100355.280000", "100355.283000", "100355.285000", "100355.288000", "100355.290000", "100355.293000", "100355.295000", "100355.298000", "100355.301000", "100435.252000", "100435.255000", "100435.257000", "100435.260000", "100435.262000", "100435.265000", "100435.267000", "100435.270000", "100435.273000", "100435.275000", "100435.278000", "100435.280000", "100435.283000", "100435.285000", "100435.288000", "100435.291000", "100435.293000", "100435.296000", "100435.298000", "100435.301000", "100515.253000", "100515.256000", "100515.258000", "100515.261000", "100515.263000", "100515.266000", "100515.269000", "100515.271000", "100515.274000", "100515.276000", "100515.279000", "100515.281000", "100515.284000", "100515.286000", "100515.289000", "100515.291000", "100515.294000", "100515.297000", "100515.299000", "100515.302000", "100555.252000", "100555.255000", "100555.257000", "100555.260000", "100555.263000", "100555.265000", "100555.268000", "100555.270000", "100555.273000", "100555.275000", "100555.278000", "100555.280000", "100555.283000", "100555.286000", "100555.288000", "100555.291000", "100555.293000", "100555.296000", "100555.298000", "100555.301000", "100635.252000", "100635.255000", "100635.257000", "100635.260000", "100635.262000", "100635.265000", "100635.267000", "100635.270000", "100635.273000", "100635.275000", "100635.278000", "100635.280000", "100635.283000", "100635.285000", "100635.288000", "100635.290000", "100635.293000", "100635.295000", "100635.298000", "100635.300000", "100715.253000", "100715.256000", "100715.258000", "100715.261000", "100715.264000", "100715.266000", "100715.269000", "100715.271000", "100715.274000", "100715.276000", "100715.279000", "100715.281000", "100715.284000", "100715.286000", "100715.289000", "100715.291000", "100715.294000", "100715.297000", "100715.299000", "100715.302000", "100737.850000", "100737.852000", "100737.855000", "100737.858000", "100737.861000", "100737.863000", "100737.866000", "100737.869000", "100737.871000", "100737.874000", "100737.876000", "100737.881000"],
      "InstanceCreationTime": ["100155.270000", "100155.274000", "100155.277000", "100155.279000", "100155.282000", "100155.284000", "100155.287000", "100155.289000", "100155.292000", "100155.294000", "100155.297000", "100155.300000", "100155.302000", "100155.305000", "100155.307000", "100155.310000", "100155.312000", "100155.315000", "100155.317000", "100155.324000", "100155.327000", "100155.329000", "100155.332000", "100155.334000", "100155.337000", "100155.340000", "100155.342000", "100155.345000", "100235.253000", "100235.256000", "100235.259000", "100235.261000", "100235.264000", "100235.266000", "100235.269000", "100235.271000", "100235.274000", "100235.276000", "100235.279000", "100235.281000", "100235.284000", "100235.299000", "100235.301000", "100235.304000", "100235.306000", "100235.309000", "100235.312000", "100235.314000", "100315.253000", "100315.256000", "100315.258000", "100315.261000", "100315.263000", "100315.266000", "100315.268000", "100315.271000", "100315.273000", "100315.276000", "100315.279000", "100315.281000", "100315.284000", "100315.286000", "100315.289000", "100315.291000", "100315.294000", "100315.297000", "100315.299000", "100315.302000", "100355.252000", "100355.255000", "100355.257000", "100355.260000", "100355.262000", "100355.265000", "100355.267000", "100355.270000", "100355.272000", "100355.275000", "100355.278000", "100355.280000", "100355.283000", "100355.285000", "100355.288000", "100355.290000", "100355.293000", "100355.295000", "100355.298000", "100355.301000", "100435.252000", "100435.255000", "100435.257000", "100435.260000", "100435.262000", "100435.265000", "100435.267000", "100435.270000", "100435.273000", "100435.275000", "100435.278000", "100435.280000", "100435.283000", "100435.285000", "100435.288000", "100435.291000", "100435.293000", "100435.296000", "100435.298000", "100435.301000", "100515.253000", "100515.256000", "100515.258000", "100515.261000", "100515.263000", "100515.266000", "100515.269000", "100515.271000", "100515.274000", "100515.276000", "100515.279000", "100515.281000", "100515.284000", "100515.286000", "100515.289000", "100515.291000", "100515.294000", "100515.297000", "100515.299000", "100515.302000", "100555.252000", "100555.255000", "100555.257000", "100555.260000", "100555.263000", "100555.265000", "100555.268000", "100555.270000", "100555.273000", "100555.275000", "100555.278000", "100555.280000", "100555.283000", "100555.286000", "100555.288000", "100555.291000", "100555.293000", "100555.296000", "100555.298000", "100555.301000", "100635.252000", "100635.255000", "100635.257000", "100635.260000", "100635.262000", "100635.265000", "100635.267000", "100635.270000", "100635.273000", "100635.275000", "100635.278000", "100635.280000", "100635.283000", "100635.285000", "100635.288000", "100635.290000", "100635.293000", "100635.295000", "100635.298000", "100635.300000", "100715.253000", "100715.256000", "100715.258000", "100715.261000", "100715.264000", "100715.266000", "100715.269000", "100715.271000", "100715.274000", "100715.276000", "100715.279000", "100715.281000", "100715.284000", "100715.286000", "100715.289000", "100715.291000", "100715.294000", "100715.297000", "100715.299000", "100715.302000", "100737.850000", "100737.852000", "100737.855000", "100737.858000", "100737.861000", "100737.863000", "100737.866000", "100737.869000", "100737.871000", "100737.874000", "100737.876000", "100737.881000"],
      "InstanceNumber": [1, 2, 3, 4, 5, 6, 7, 8, 9, 10, 11, 12, 13, 14, 15, 16, 17, 18, 19, 20, 21, 22, 23, 24, 25, 26, 27, 28, 29, 30, 31, 32, 33, 34, 35, 36, 37, 38, 39, 40, 41, 42, 43, 44, 45, 46, 47, 48, 49, 50, 51, 52, 53, 54, 55, 56, 57, 58, 59, 60, 61, 62, 63, 64, 65, 66, 67, 68, 69, 70, 71, 72, 73, 74, 75, 76, 77, 78, 79, 80, 81, 82, 83, 84, 85, 86, 87, 88, 89, 90, 91, 92, 93, 94, 95, 96, 97, 98, 99, 100, 101, 102, 103, 104, 105, 106, 107, 108, 109, 110, 111, 112, 113, 114, 115, 116, 117, 118, 119, 120, 121, 122, 123, 124, 125, 126, 127, 128, 129, 130, 131, 132, 133, 134, 135, 136, 137, 138, 139, 140, 141, 142, 143, 144, 145, 146, 147, 148, 149, 150, 151, 152, 153, 154, 155, 156, 157, 158, 159, 160, 161, 162, 163, 164, 165, 166, 167, 168, 169, 170, 171, 172, 173, 174, 175, 176, 177, 178, 179, 180, 181, 182, 183, 184, 185, 186, 187, 188, 189, 190, 191, 192, 193, 194, 195, 196, 197, 198, 199, 200],
      "LargestImagePixelValue": [2034, 2038, 2037, 2034, 2037, 2031, 2035, 2031, 2024, 2031, 2043, 2038, 2033, 2031, 2029, 2030, 2038, 2033, 2038, 2043, 2033, 2042, 2038, 2034, 2038, 2034, 2037, 2033, 2037, 2037, 2026, 2030, 2036, 2033, 2037, 2029, 2036, 2033, 2030, 2039, 2032, 2036, 2039, 2032, 2034, 2031, 2048, 2036, 2034, 2032, 2036, 2032, 2036, 2036, 2030, 2034, 2030, 2033, 2035, 2031, 2038, 2024, 2039, 2031, 2026, 2042, 2040, 2032, 2038, 2035, 2036, 2030, 2029, 2032, 2033, 2026, 2031, 2042, 2026, 2032, 2024, 2034, 2033, 2036, 2033, 2032, 2039, 2032, 2034, 2034, 2036, 2035, 2034, 2029, 2035, 2030, 2030, 2040, 2033, 2035, 2039, 2035, 2034, 2035, 2033, 2036, 2042, 2031, 2030, 2032, 2036, 2036, 2029, 2029, 2041, 2029, 2032, 2030, 2033, 2030, 2027, 2038, 2027, 2032, 2038, 2037, 2034, 2033, 2030, 2035, 2035, 2029, 2028, 2030, 2031, 2031, 2035, 2031, 2032, 2037, 2033, 2035, 2027, 2037, 2026, 2028, 2031, 2029, 2035, 2031, 2031, 2027, 2038, 2031, 2031, 2029, 2034, 2028, 2031, 2033, 2032, 2032, 2030, 2034, 2039, 2034, 2040, 2033, 2034, 2032, 2029, 2038, 2028, 2036, 2031, 2030, 2030, 2024, 2031, 2026, 2032, 2035, 2030, 2033, 2032, 2032, 2033, 2028, 2029, 2038, 2027, 2032, 2032, 2035, 2030, 2029, 2030, 2030, 2022, 2026],
      "WindowCenter": [981.0, 981.0, 983.0, 983.0, 982.0, 982.0, 982.0, 982.0, 982.0, 981.0, 981.0, 982.0, 982.0, 982.0, 982.0, 981.0, 981.0, 983.0, 982.0, 981.0, 982.0, 982.0, 983.0, 981.0, 981.0, 982.0, 982.0, 982.0, 981.0, 981.0, 981.0, 981.0, 982.0, 982.0, 982.0, 981.0, 981.0, 981.0, 982.0, 981.0, 982.0, 982.0, 981.0, 982.0, 982.0, 982.0, 981.0, 982.0, 981.0, 981.0, 982.0, 981.0, 981.0, 982.0, 981.0, 981.0, 982.0, 982.0, 981.0, 982.0, 981.0, 981.0, 981.0, 981.0, 982.0, 981.0, 981.0, 981.0, 981.0, 982.0, 981.0, 981.0, 981.0, 981.0, 981.0, 981.0, 982.0, 981.0, 981.0, 982.0, 981.0, 982.0, 981.0, 981.0, 981.0, 982.0, 981.0, 981.0, 982.0, 981.0, 981.0, 981.0, 981.0, 981.0, 981.0, 981.0, 981.0, 981.0, 981.0, 981.0, 981.0, 982.0, 980.0, 981.0, 981.0, 982.0, 981.0, 981.0, 981.0, 981.0, 981.0, 981.0, 981.0, 981.0, 981.0, 981.0, 981.0, 981.0, 981.0, 981.0, 981.0, 980.0, 981.0, 981.0, 981.0, 981.0, 981.0, 981.0, 981.0, 981.0, 981.0, 981.0, 981.0, 980.0, 980.0, 981.0, 980.0, 982.0, 981.0, 981.0, 980.0, 981.0, 980.0, 982.0, 980.0, 981.0, 980.0, 982.0, 980.0, 980.0, 981.0, 981.0, 982.0, 982.0, 981.0, 980.0, 982.0, 981.0, 981.0, 981.0, 982.0, 981.0, 980.0, 981.0, 981.0, 980.0, 980.0, 980.0, 981.0, 980.0, 981.0, 982.0, 982.0, 981.0, 980.0, 981.0, 980.0, 980.0, 980.0, 981.0, 980.0, 981.0, 980.0, 980.0, 982.0, 980.0, 980.0, 981.0, 980.0, 981.0, 981.0, 980.0, 981.0, 980.0, 980.0, 980.0, 981.0, 982.0, 981.0, 980.0],
      "WindowWidth": [2145.0, 2144.0, 2145.0, 2146.0, 2145.0, 2145.0, 2145.0, 2145.0, 2145.0, 2144.0, 2144.0, 2146.0, 2145.0, 2145.0, 2145.0, 2144.0, 2145.0, 2146.0, 2145.0, 2145.0, 2145.0, 2145.0, 2145.0, 2145.0, 2144.0, 2145.0, 2145.0, 2145.0, 2144.0, 2144.0, 2144.0, 2145.0, 2145.0, 2144.0, 2145.0, 2144.0, 2144.0, 2144.0, 2145.0, 2144.0, 2144.0, 2145.0, 2144.0, 2145.0, 2145.0, 2146.0, 2144.0, 2145.0, 2144.0, 2145.0, 2145.0, 2144.0, 2144.0, 2145.0, 2144.0, 2144.0, 2144.0, 2145.0, 2144.0, 2144.0, 2145.0, 2144.0, 2144.0, 2145.0, 2145.0, 2144.0, 2145.0, 2144.0, 2144.0, 2145.0, 2144.0, 2144.0, 2144.0, 2144.0, 2144.0, 2144.0, 2145.0, 2144.0, 2144.0, 2145.0, 2144.0, 2145.0, 2144.0, 2144.0, 2144.0, 2146.0, 2144.0, 2144.0, 2145.0, 2144.0, 2144.0, 2144.0, 2144.0, 2144.0, 2144.0, 2144.0, 2144.0, 2144.0, 2144.0, 2144.0, 2144.0, 2145.0, 2143.0, 2144.0, 2144.0, 2145.0, 2144.0, 2144.0, 2144.0, 2144.0, 2145.0, 2144.0, 2144.0, 2144.0, 2144.0, 2145.0, 2144.0, 2144.0, 2145.0, 2144.0, 2145.0, 2143.0, 2144.0, 2144.0, 2145.0, 2145.0, 2144.0, 2144.0, 2144.0, 2144.0, 2144.0, 2144.0, 2144.0, 2144.0, 2143.0, 2144.0, 2143.0, 2145.0, 2144.0, 2144.0, 2143.0, 2144.0, 2143.0, 2145.0, 2143.0, 2144.0, 2143.0, 2145.0, 2143.0, 2143.0, 2144.0, 2144.0, 2145.0, 2145.0, 2144.0, 2143.0, 2145.0, 2144.0, 2144.0, 2144.0, 2145.0, 2144.0, 2143.0, 2144.0, 2144.0, 2143.0, 2143.0, 2143.0, 2144.0, 2143.0, 2144.0, 2145.0, 2145.0, 2144.0, 2143.0, 2144.0, 2143.0, 2143.0, 2143.0, 2144.0, 2143.0, 2144.0, 2143.0, 2143.0, 2145.0, 2143.0, 2143.0, 2144.0, 2143.0, 2144.0, 2144.0, 2143.0, 2144.0, 2143.0, 2143.0, 2143.0, 2144.0, 2145.0, 2144.0, 2143.0]
    },
    "slices": {}
  }
}