{
  "AcquisitionMatrixPE": 122,
  "AcquisitionNumber": 1,
  "AcquisitionTime": "09:43:34.060000",
  "BandwidthPerPixelPhaseEncode": 28.76,
  "BaseResolution": 122,
  "BodyPartExamined": "BRAIN",
  "CoilCombinationMethod": "Adaptive Combine",
  "ConsistencyInfo": "N4_VE11C_LATEST_20160120",
  "ConversionSoftware": "dcm2niix",
  "ConversionSoftwareVersion": "v1.0.20220720",
  "DerivedVendorReportedEchoSpacing": 0.000570008,
  "DeviceSerialNumber": "66112",
  "DiffusionScheme": "Monopolar",
  "DwellTime": 2e-06,
  "EchoTime": 0.075,
  "EchoTrainLength": 61,
  "EffectiveEchoSpacing": 0.000285004,
  "FlipAngle": 90,
  "HeudiconvVersion": "0.13.1",
  "ImageOrientationPatientDICOM": [0.971916, 0.234746, 0.0165489, -0.228677, 0.925504, 0.30191],
  "ImageOrientationText": "Tra>Cor(17.3)>Sag(-3.2)",
  "ImageType": [
    "ORIGINAL",
    "PRIMARY",
    "DIFFUSION",
    "NONE",
    "ND",
    "NORM"
],
  "ImagingFrequency": 123.253,
  "InPlanePhaseEncodingDirectionDICOM": "COL",
  "InstitutionAddress": "Maynard 3,Hanover,NH,US,03755",
  "InstitutionName": "Dartmouth College - PBS",
  "InstitutionalDepartmentName": "Department",
  "MRAcquisitionType": "2D",
  "MagneticFieldStrength": 3,
  "Manufacturer": "Siemens",
  "ManufacturersModelName": "Prisma",
  "MatrixCoilMode": "GRAPPA",
  "Modality": "MR",
  "NonlinearGradientCorrection": false,
  "ParallelReductionFactorInPlane": 2,
  "PartialFourier": 1,
  "PatientPosition": "HFS",
  "PercentPhaseFOV": 100,
  "PercentSampling": 100,
  "PhaseEncodingDirection": "j-",
  "PhaseEncodingSteps": 122,
  "PhaseResolution": 1,
  "PixelBandwidth": 2050,
  "ProcedureStepDescription": "dbic^QA",
  "ProtocolName": "dwi_acq-DTI-30-p2",
  "PulseSequenceDetails": "%SiemensSeq%\\ep2d_diff",
  "ReceiveCoilActiveElements": "HEA;HEP",
  "ReceiveCoilName": "Head_32",
  "ReconMatrixPE": 122,
  "RefLinesPE": 38,
  "RepetitionTime": 7.7,
  "SAR": 0.101963,
  "ScanOptions": "FS",
  "ScanningSequence": "EP",
  "SequenceName": "*ep_b0",
  "SequenceVariant": "SK\\SP",
  "SeriesDescription": "dwi_acq-DTI-30-p2",
  "SeriesNumber": 8,
  "ShimSetting": [4156, -7682, -7516, 249, 43, -156, -13, 96],
  "SliceThickness": 2,
  "SliceTiming": [3.84375, 0, 3.95312, 0.10938, 4.0625, 0.21875, 4.17188, 0.32812, 4.28125, 0.4375, 4.39062, 0.54688, 4.5, 0.65625, 4.60938, 0.76562, 4.71875, 0.875, 4.82812, 0.99219, 4.9375, 1.10156, 5.04688, 1.21094, 5.15625, 1.32031, 5.26562, 1.42969, 5.375, 1.53906, 5.48438, 1.64844, 5.59375, 1.75781, 5.70312, 1.86719, 5.8125, 1.97656, 5.92969, 2.08594, 6.03906, 2.19531, 6.14062, 2.30469, 6.25, 2.41406, 6.36719, 2.52344, 6.47656, 2.63281, 6.58594, 2.74219, 6.69531, 2.85156, 6.80469, 2.96094, 6.91406, 3.07031, 7.02344, 3.1875, 7.13281, 3.28906, 7.24219, 3.39844, 7.35156, 3.50781, 7.46094, 3.625, 7.57031, 3.73438],
  "SoftwareVersions": "syngo MR E11",
  "SpacingBetweenSlices": 2,
  "SpoilingState": true,
  "StationName": "AWP66112",
  "TotalReadoutTime": 0.0344855,
  "TxRefAmp": 230.762,
  "dcmmeta_affine": [
    [-1.9119657278060913, -0.4498559236526489, -0.11111211776733398, 155.1815948486328],
    [-0.4617953300476074, 1.8206634521484375, 0.5944290161132812, -95.56009674072266],
    [0.03255516290664673, -0.5939207077026367, 1.9063873291015625, -39.16849136352539],
    [0.0, 0.0, 0.0, 1.0]
],
  "dcmmeta_reorient_transform": [
    [0.0, -1.0, 0.0, 121.0],
    [1.0, 0.0, 0.0, 0.0],
    [0.0, 0.0, -1.0, 69.0],
    [0.0, 0.0, 0.0, 1.0]
],
  "dcmmeta_shape": [122, 122, 70, 31],
  "dcmmeta_slice_dim": 2,
  "dcmmeta_version": 0.6,
  "global": {
    "const": {
      "AccessionNumber": "qa",
      "AcquisitionMatrix": [122, 0, 0, 122],
      "AngioFlag": "N",
      "BitsAllocated": 16,
      "BitsStored": 12,
      "BodyPartExamined": "BRAIN",
      "Columns": 122,
      "EchoNumbers": 1,
      "EchoTime": 75.0,
      "EchoTrainLength": 61,
      "FlipAngle": 90.0,
      "HighBit": 11,
      "ImageOrientationPatient": [0.9719158751812, 0.23474596130327, 0.01654887375556, -0.2286767555459, 0.92550390347881, 0.3019096986161],
      "ImageType": [
        "ORIGINAL",
        "PRIMARY",
        "DIFFUSION",
        "NONE",
        "ND",
        "NORM"
],
      "ImagedNucleus": "1H",
      "ImagingFrequency": 123.252531,
      "InPlanePhaseEncodingDirection": "COL",
      "MRAcquisitionType": "2D",
      "MagneticFieldStrength": 3.0,
      "Manufacturer": "SIEMENS",
      "ManufacturerModelName": "Prisma",
      "Modality": "MR",
      "NumberOfAverages": 1.0,
      "NumberOfPhaseEncodingSteps": 122,
      "PercentPhaseFieldOfView": 100.0,
      "PercentSampling": 100.0,
      "PerformedProcedureStepStartTime": "091823.970000",
      "PhotometricInterpretation": "MONOCHROME2",
      "PixelBandwidth": 2050.0,
      "PixelRepresentation": 0,
      "PixelSpacing": [1.9672131538391, 1.9672131538391],
      "ProtocolName": "dwi_acq-DTI-30-p2",
      "RepetitionTime": 7700.0,
      "Rows": 122,
      "SAR": 0.10196277157796,
      "SamplesPerPixel": 1,
      "ScanOptions": "FS",
      "ScanningSequence": "EP",
      "SequenceVariant": [
        "SK",
        "SP"
],
      "SeriesDescription": "dwi_acq-DTI-30-p2",
      "SeriesNumber": 8,
      "SeriesTime": "094349.921000",
      "SliceThickness": 2.0,
      "SmallestImagePixelValue": 0,
      "SoftwareVersions": "syngo MR E11",
      "SpacingBetweenSlices": 2.0,
      "SpecificCharacterSet": "ISO_IR 100",
      "StudyID": "43",
      "StudyTime": "091823.893000",
      "TransmitCoilName": "Body",
      "VariableFlipAngleFlag": "N",
      "WindowCenterWidthExplanation": "Algo1",
      "dBdt": 0.0},
    "slices": {
      "AcquisitionTime": ["094334.060000", "094330.220000", "094334.170000", "094330.330000", "094334.280000", "094330.440000", "094334.390000", "094330.550000", "094334.497500", "094330.660000", "094334.607500", "094330.767500", "094334.717500", "094330.877500", "094334.827500", "094330.987500", "094334.937500", "094331.097500", "094335.047500", "094331.207500", "094335.157500", "094331.317500", "094335.267500", "094331.427500", "094335.377500", "094331.537500", "094335.485000", "094331.645000", "094335.595000", "094331.755000", "094335.705000", "094331.865000", "094335.815000", "094331.975000", "094335.925000", "094332.085000", "094336.035000", "094332.195000", "094336.145000", "094332.305000", "094336.255000", "094332.415000", "094336.362500", "094332.525000", "094336.472500", "094332.632500", "094336.582500", "094332.742500", "094336.692500", "094332.852500", "094336.802500", "094332.962500", "094336.912500", "094333.072500", "094337.022500", "094333.182500", "094337.132500", "094333.292500", "094337.242500", "094333.402500", "094337.350000", "094333.510000", "094337.460000", "094333.620000", "094337.570000", "094333.730000", "094337.680000", "094333.840000", "094337.790000", "094333.950000", "094341.760000", "094337.920000", "094341.870000", "094338.030000", "094341.980000", "094338.140000", "094342.090000", "094338.250000", "094342.197500", "094338.360000", "094342.307500", "094338.467500", "094342.417500", "094338.577500", "094342.527500", "094338.687500", "094342.637500", "094338.797500", "094342.747500", "094338.907500", "094342.857500", "094339.017500", "094342.967500", "094339.127500", "094343.077500", "094339.237500", "094343.185000", "094339.345000", "094343.295000", "094339.455000", "094343.405000", "094339.565000", "094343.515000", "094339.675000", "094343.625000", "094339.785000", "094343.735000", "094339.895000", "094343.845000", "094340.005000", "094343.955000", "094340.115000", "094344.062500", "094340.225000", "094344.172500", "094340.332500", "094344.282500", "094340.442500", "094344.392500", "094340.552500", "094344.502500", "094340.662500", "094344.612500", "094340.772500", "094344.722500", "094340.882500", "094344.832500", "094340.992500", "094344.942500", "094341.102500", "094345.050000", "094341.210000", "094345.160000", "094341.320000", "094345.270000", "094341.430000", "094345.380000", "094341.540000", "094345.490000", "094341.650000", "094349.460000", "094345.620000", "094349.570000", "094345.730000", "094349.680000", "094345.840000", "094349.790000", "094345.950000", "094349.897500", "094346.060000", "094350.007500", "094346.167500", "094350.117500", "094346.277500", "094350.227500", "094346.387500", "094350.337500", "094346.497500", "094350.447500", "094346.607500", "094350.557500", "094346.717500", "094350.667500", "094346.827500", "094350.777500", "094346.937500", "094350.885000", "094347.045000", "094350.995000", "094347.155000", "094351.105000", "094347.265000", "094351.215000", "094347.375000", "094351.325000", "094347.485000", "094351.435000", "094347.595000", "094351.545000", "094347.705000", "094351.655000", "094347.815000", "094351.762500", "094347.925000", "094351.872500", "094348.032500", "094351.982500", "094348.142500", "094352.092500", "094348.252500", "094352.202500", "094348.362500", "094352.312500", "094348.472500", "094352.422500", "094348.582500", "094352.532500", "094348.692500", "094352.642500", "094348.802500", "094352.750000", "094348.910000", "094352.860000", "094349.020000", "094352.970000", "094349.130000", "094353.080000", "094349.240000", "094353.190000", "094349.350000", "094357.160000", "094353.320000", "094357.270000", "094353.430000", "094357.380000", "094353.540000", "094357.490000", "094353.650000", "094357.597500", "094353.760000", "094357.707500", "094353.867500", "094357.817500", "094353.977500", "094357.927500", "094354.087500", "094358.037500", "094354.197500", "094358.147500", "094354.307500", "094358.257500", "094354.417500", "094358.367500", "094354.527500", "094358.477500", "094354.637500", "094358.585000", "094354.745000", "094358.695000", "094354.855000", "094358.805000", "094354.965000", "094358.915000", "094355.075000", "094359.025000", "094355.185000", "094359.135000", "094355.295000", "094359.245000", "094355.405000", "094359.355000", "094355.515000", "094359.462500", "094355.625000", "094359.572500", "094355.732500", "094359.682500", "094355.842500", "094359.792500", "094355.952500", "094359.902500", "094356.062500", "094400.012500", "094356.172500", "094400.122500", "094356.282500", "094400.232500", "094356.392500", "094400.342500", "094356.502500", "094400.450000", "094356.610000", "094400.560000", "094356.720000", "094400.670000", "094356.830000", "094400.780000", "094356.940000", "094400.890000", "094357.050000", "094404.860000", "094401.020000", "094404.970000", "094401.130000", "094405.080000", "094401.240000", "094405.190000", "094401.350000", "094405.297500", "094401.460000", "094405.407500", "094401.567500", "094405.517500", "094401.677500", "094405.627500", "094401.787500", "094405.737500", "094401.897500", "094405.847500", "094402.007500", "094405.957500", "094402.117500", "094406.067500", "094402.227500", "094406.177500", "094402.337500", "094406.285000", "094402.445000", "094406.395000", "094402.555000", "094406.505000", "094402.665000", "094406.615000", "094402.775000", "094406.725000", "094402.885000", "094406.835000", "094402.995000", "094406.945000", "094403.105000", "094407.055000", "094403.215000", "094407.162500", "094403.325000", "094407.272500", "094403.432500", "094407.382500", "094403.542500", "094407.492500", "094403.652500", "094407.602500", "094403.762500", "094407.712500", "094403.872500", "094407.822500", "094403.982500", "094407.932500", "094404.092500", "094408.042500", "094404.202500", "094408.150000", "094404.310000", "094408.260000", "094404.420000", "094408.370000", "094404.530000", "094408.480000", "094404.640000", "094408.590000", "094404.750000", "094412.560000", "094408.720000", "094412.670000", "094408.830000", "094412.780000", "094408.940000", "094412.890000", "094409.050000", "094412.997500", "094409.160000", "094413.107500", "094409.267500", "094413.217500", "094409.377500", "094413.327500", "094409.487500", "094413.437500", "094409.597500", "094413.547500", "094409.707500", "094413.657500", "094409.817500", "094413.767500", "094409.927500", "094413.877500", "094410.037500", "094413.985000", "094410.145000", "094414.095000", "094410.255000", "094414.205000", "094410.365000", "094414.315000", "094410.475000", "094414.425000", "094410.585000", "094414.535000", "094410.695000", "094414.645000", "094410.805000", "094414.755000", "094410.915000", "094414.862500", "094411.025000", "094414.972500", "094411.132500", "094415.082500", "094411.242500", "094415.192500", "094411.352500", "094415.302500", "094411.462500", "094415.412500", "094411.572500", "094415.522500", "094411.682500", "094415.632500", "094411.792500", "094415.742500", "094411.902500", "094415.850000", "094412.010000", "094415.960000", "094412.120000", "094416.070000", "094412.230000", "094416.180000", "094412.340000", "094416.290000", "094412.450000", "094420.260000", "094416.420000", "094420.370000", "094416.530000", "094420.480000", "094416.640000", "094420.590000", "094416.750000", "094420.697500", "094416.860000", "094420.807500", "094416.967500", "094420.917500", "094417.077500", "094421.027500", "094417.187500", "094421.137500", "094417.297500", "094421.247500", "094417.407500", "094421.357500", "094417.517500", "094421.467500", "094417.627500", "094421.577500", "094417.737500", "094421.685000", "094417.845000", "094421.795000", "094417.955000", "094421.905000", "094418.065000", "094422.015000", "094418.175000", "094422.125000", "094418.285000", "094422.235000", "094418.395000", "094422.345000", "094418.505000", "094422.455000", "094418.615000", "094422.562500", "094418.725000", "094422.672500", "094418.832500", "094422.782500", "094418.942500", "094422.892500", "094419.052500", "094423.002500", "094419.162500", "094423.112500", "094419.272500", "094423.222500", "094419.382500", "094423.332500", "094419.492500", "094423.442500", "094419.602500", "094423.550000", "094419.710000", "094423.660000", "094419.820000", "094423.770000", "094419.930000", "094423.880000", "094420.040000", "094423.990000", "094420.150000", "094427.960000", "094424.120000", "094428.070000", "094424.230000", "094428.180000", "094424.340000", "094428.290000", "094424.450000", "094428.397500", "094424.560000", "094428.507500", "094424.667500", "094428.617500", "094424.777500", "094428.727500", "094424.887500", "094428.837500", "094424.997500", "094428.947500", "094425.107500", "094429.057500", "094425.217500", "094429.167500", "094425.327500", "094429.277500", "094425.437500", "094429.385000", "094425.545000", "094429.495000", "094425.655000", "094429.605000", "094425.765000", "094429.715000", "094425.875000", "094429.825000", "094425.985000", "094429.935000", "094426.095000", "094430.045000", "094426.205000", "094430.155000", "094426.315000", "094430.262500", "094426.425000", "094430.372500", "094426.532500", "094430.482500", "094426.642500", "094430.592500", "094426.752500", "094430.702500", "094426.862500", "094430.812500", "094426.972500", "094430.922500", "094427.082500", "094431.032500", "094427.192500", "094431.142500", "094427.302500", "094431.250000", "094427.410000", "094431.360000", "094427.520000", "094431.470000", "094427.630000", "094431.580000", "094427.740000", "094431.690000", "094427.850000", "094435.660000", "094431.820000", "094435.770000", "094431.930000", "094435.880000", "094432.040000", "094435.990000", "094432.150000", "094436.097500", "094432.260000", "094436.207500", "094432.367500", "094436.317500", "094432.477500", "094436.427500", "094432.587500", "094436.537500", "094432.697500", "094436.647500", "094432.807500", "094436.757500", "094432.917500", "094436.867500", "094433.027500", "094436.977500", "094433.137500", "094437.085000", "094433.245000", "094437.195000", "094433.355000", "094437.305000", "094433.465000", "094437.415000", "094433.575000", "094437.525000", "094433.685000", "094437.635000", "094433.795000", "094437.745000", "094433.905000", "094437.855000", "094434.015000", "094437.962500", "094434.125000", "094438.072500", "094434.232500", "094438.182500", "094434.342500", "094438.292500", "094434.452500", "094438.402500", "094434.562500", "094438.512500", "094434.672500", "094438.622500", "094434.782500", "094438.732500", "094434.892500", "094438.842500", "094435.002500", "094438.950000", "094435.110000", "094439.060000", "094435.220000", "094439.170000", "094435.330000", "094439.280000", "094435.440000", "094439.390000", "094435.550000", "094443.360000", "094439.520000", "094443.470000", "094439.630000", "094443.580000", "094439.740000", "094443.690000", "094439.850000", "094443.797500", "094439.960000", "094443.907500", "094440.067500", "094444.017500", "094440.177500", "094444.127500", "094440.287500", "094444.237500", "094440.397500", "094444.347500", "094440.507500", "094444.457500", "094440.617500", "094444.567500", "094440.727500", "094444.677500", "094440.837500", "094444.785000", "094440.945000", "094444.895000", "094441.055000", "094445.005000", "094441.165000", "094445.115000", "094441.275000", "094445.225000", "094441.385000", "094445.335000", "094441.495000", "094445.445000", "094441.605000", "094445.555000", "094441.715000", "094445.662500", "094441.825000", "094445.772500", "094441.932500", "094445.882500", "094442.042500", "094445.992500", "094442.152500", "094446.102500", "094442.262500", "094446.212500", "094442.372500", "094446.322500", "094442.482500", "094446.432500", "094442.592500", "094446.542500", "094442.702500", "094446.650000", "094442.810000", "094446.760000", "094442.920000", "094446.870000", "094443.030000", "094446.980000", "094443.140000", "094447.090000", "094443.250000", "094451.060000", "094447.220000", "094451.170000", "094447.330000", "094451.280000", "094447.440000", "094451.390000", "094447.550000", "094451.497500", "094447.660000", "094451.607500", "094447.767500", "094451.717500", "094447.877500", "094451.827500", "094447.987500", "094451.937500", "094448.097500", "094452.047500", "094448.207500", "094452.157500", "094448.317500", "094452.267500", "094448.427500", "094452.377500", "094448.537500", "094452.485000", "094448.645000", "094452.595000", "094448.755000", "094452.705000", "094448.865000", "094452.815000", "094448.975000", "094452.925000", "094449.085000", "094453.035000", "094449.195000", "094453.145000", "094449.305000", "094453.255000", "094449.415000", "094453.362500", "094449.525000", "094453.472500", "094449.632500", "094453.582500", "094449.742500", "094453.692500", "094449.852500", "094453.802500", "094449.962500", "094453.912500", "094450.072500", "094454.022500", "094450.182500", "094454.132500", "094450.292500", "094454.242500", "094450.402500", "094454.350000", "094450.510000", "094454.460000", "094450.620000", "094454.570000", "094450.730000", "094454.680000", "094450.840000", "094454.790000", "094450.950000", "094458.760000", "094454.920000", "094458.870000", "094455.030000", "094458.980000", "094455.140000", "094459.090000", "094455.250000", "094459.197500", "094455.360000", "094459.307500", "094455.467500", "094459.417500", "094455.577500", "094459.527500", "094455.687500", "094459.637500", "094455.797500", "094459.747500", "094455.907500", "094459.857500", "094456.017500", "094459.967500", "094456.127500", "094500.077500", "094456.237500", "094500.185000", "094456.345000", "094500.295000", "094456.455000", "094500.405000", "094456.565000", "094500.515000", "094456.675000", "094500.625000", "094456.785000", "094500.735000", "094456.895000", "094500.845000", "094457.005000", "094500.955000", "094457.115000", "094501.062500", "094457.225000", "094501.172500", "094457.332500", "094501.282500", "094457.442500", "094501.392500", "094457.552500", "094501.502500", "094457.662500", "094501.612500", "094457.772500", "094501.722500", "094457.882500", "094501.832500", "094457.992500", "094501.942500", "094458.102500", "094502.050000", "094458.210000", "094502.160000", "094458.320000", "094502.270000", "094458.430000", "094502.380000", "094458.540000", "094502.490000", "094458.650000", "094506.460000", "094502.620000", "094506.570000", "094502.730000", "094506.680000", "094502.840000", "094506.790000", "094502.950000", "094506.897500", "094503.060000", "094507.007500", "094503.167500", "094507.117500", "094503.277500", "094507.227500", "094503.387500", "094507.337500", "094503.497500", "094507.447500", "094503.607500", "094507.557500", "094503.717500", "094507.667500", "094503.827500", "094507.777500", "094503.937500", "094507.885000", "094504.045000", "094507.995000", "094504.155000", "094508.105000", "094504.265000", "094508.215000", "094504.375000", "094508.325000", "094504.485000", "094508.435000", "094504.595000", "094508.545000", "094504.705000", "094508.655000", "094504.815000", "094508.762500", "094504.925000", "094508.872500", "094505.032500", "094508.982500", "094505.142500", "094509.092500", "094505.252500", "094509.202500", "094505.362500", "094509.312500", "094505.472500", "094509.422500", "094505.582500", "094509.532500", "094505.692500", "094509.642500", "094505.802500", "094509.750000", "094505.910000", "094509.860000", "094506.020000", "094509.970000", "094506.130000", "094510.080000", "094506.240000", "094510.190000", "094506.350000", "094514.160000", "094510.320000", "094514.270000", "094510.430000", "094514.380000", "094510.540000", "094514.490000", "094510.650000", "094514.597500", "094510.760000", "094514.707500", "094510.867500", "094514.817500", "094510.977500", "094514.927500", "094511.087500", "094515.037500", "094511.197500", "094515.147500", "094511.307500", "094515.257500", "094511.417500", "094515.367500", "094511.527500", "094515.477500", "094511.637500", "094515.585000", "094511.745000", "094515.695000", "094511.855000", "094515.805000", "094511.965000", "094515.915000", "094512.075000", "094516.025000", "094512.185000", "094516.135000", "094512.295000", "094516.245000", "094512.405000", "094516.355000", "094512.515000", "094516.462500", "094512.625000", "094516.572500", "094512.732500", "094516.682500", "094512.842500", "094516.792500", "094512.952500", "094516.902500", "094513.062500", "094517.012500", "094513.172500", "094517.122500", "094513.282500", "094517.232500", "094513.392500", "094517.342500", "094513.502500", "094517.450000", "094513.610000", "094517.560000", "094513.720000", "094517.670000", "094513.830000", "094517.780000", "094513.940000", "094517.890000", "094514.050000", "094521.860000", "094518.020000", "094521.970000", "094518.130000", "094522.080000", "094518.240000", "094522.190000", "094518.350000", "094522.297500", "094518.460000", "094522.407500", "094518.567500", "094522.517500", "094518.677500", "094522.627500", "094518.787500", "094522.737500", "094518.897500", "094522.847500", "094519.007500", "094522.957500", "094519.117500", "094523.067500", "094519.227500", "094523.177500", "094519.337500", "094523.285000", "094519.445000", "094523.395000", "094519.555000", "094523.505000", "094519.665000", "094523.615000", "094519.775000", "094523.725000", "094519.885000", "094523.835000", "094519.995000", "094523.945000", "094520.105000", "094524.055000", "094520.215000", "094524.162500", "094520.325000", "094524.272500", "094520.432500", "094524.382500", "094520.542500", "094524.492500", "094520.652500", "094524.602500", "094520.762500", "094524.712500", "094520.872500", "094524.822500", "094520.982500", "094524.932500", "094521.092500", "094525.042500", "094521.202500", "094525.150000", "094521.310000", "094525.260000", "094521.420000", "094525.370000", "094521.530000", "094525.480000", "094521.640000", "094525.590000", "094521.750000", "094529.560000", "094525.720000", "094529.670000", "094525.830000", "094529.780000", "094525.940000", "094529.890000", "094526.050000", "094529.997500", "094526.160000", "094530.107500", "094526.267500", "094530.217500", "094526.377500", "094530.327500", "094526.487500", "094530.437500", "094526.597500", "094530.547500", "094526.707500", "094530.657500", "094526.817500", "094530.767500", "094526.927500", "094530.877500", "094527.037500", "094530.985000", "094527.145000", "094531.095000", "094527.255000", "094531.205000", "094527.365000", "094531.315000", "094527.475000", "094531.425000", "094527.585000", "094531.535000", "094527.695000", "094531.645000", "094527.805000", "094531.755000", "094527.915000", "094531.862500", "094528.025000", "094531.972500", "094528.132500", "094532.082500", "094528.242500", "094532.192500", "094528.352500", "094532.302500", "094528.462500", "094532.412500", "094528.572500", "094532.522500", "094528.682500", "094532.632500", "094528.792500", "094532.742500", "094528.902500", "094532.850000", "094529.010000", "094532.960000", "094529.120000", "094533.070000", "094529.230000", "094533.180000", "094529.340000", "094533.290000", "094529.450000", "094537.260000", "094533.420000", "094537.370000", "094533.530000", "094537.480000", "094533.640000", "094537.590000", "094533.750000", "094537.697500", "094533.860000", "094537.807500", "094533.967500", "094537.917500", "094534.077500", "094538.027500", "094534.187500", "094538.137500", "094534.297500", "094538.247500", "094534.407500", "094538.357500", "094534.517500", "094538.467500", "094534.627500", "094538.577500", "094534.737500", "094538.685000", "094534.845000", "094538.795000", "094534.955000", "094538.905000", "094535.065000", "094539.015000", "094535.175000", "094539.125000", "094535.285000", "094539.235000", "094535.395000", "094539.345000", "094535.505000", "094539.455000", "094535.615000", "094539.562500", "094535.725000", "094539.672500", "094535.832500", "094539.782500", "094535.942500", "094539.892500", "094536.052500", "094540.002500", "094536.162500", "094540.112500", "094536.272500", "094540.222500", "094536.382500", "094540.332500", "094536.492500", "094540.442500", "094536.602500", "094540.550000", "094536.710000", "094540.660000", "094536.820000", "094540.770000", "094536.930000", "094540.880000", "094537.040000", "094540.990000", "094537.150000", "094544.960000", "094541.120000", "094545.070000", "094541.230000", "094545.180000", "094541.340000", "094545.290000", "094541.450000", "094545.397500", "094541.560000", "094545.507500", "094541.667500", "094545.617500", "094541.777500", "094545.727500", "094541.887500", "094545.837500", "094541.997500", "094545.947500", "094542.107500", "094546.057500", "094542.217500", "094546.167500", "094542.327500", "094546.277500", "094542.437500", "094546.385000", "094542.545000", "094546.495000", "094542.655000", "094546.605000", "094542.765000", "094546.715000", "094542.875000", "094546.825000", "094542.985000", "094546.935000", "094543.095000", "094547.045000", "094543.205000", "094547.155000", "094543.315000", "094547.262500", "094543.425000", "094547.372500", "094543.532500", "094547.482500", "094543.642500", "094547.592500", "094543.752500", "094547.702500", "094543.862500", "094547.812500", "094543.972500", "094547.922500", "094544.082500", "094548.032500", "094544.192500", "094548.142500", "094544.302500", "094548.250000", "094544.410000", "094548.360000", "094544.520000", "094548.470000", "094544.630000", "094548.580000", "094544.740000", "094548.690000", "094544.850000", "094552.660000", "094548.820000", "094552.770000", "094548.930000", "094552.880000", "094549.040000", "094552.990000", "094549.150000", "094553.097500", "094549.260000", "094553.207500", "094549.367500", "094553.317500", "094549.477500", "094553.427500", "094549.587500", "094553.537500", "094549.697500", "094553.647500", "094549.807500", "094553.757500", "094549.917500", "094553.867500", "094550.027500", "094553.977500", "094550.137500", "094554.085000", "094550.245000", "094554.195000", "094550.355000", "094554.305000", "094550.465000", "094554.415000", "094550.575000", "094554.525000", "094550.685000", "094554.635000", "094550.795000", "094554.745000", "094550.905000", "094554.855000", "094551.015000", "094554.962500", "094551.125000", "094555.072500", "094551.232500", "094555.182500", "094551.342500", "094555.292500", "094551.452500", "094555.402500", "094551.562500", "094555.512500", "094551.672500", "094555.622500", "094551.782500", "094555.732500", "094551.892500", "094555.842500", "094552.002500", "094555.950000", "094552.110000", "094556.060000", "094552.220000", "094556.170000", "094552.330000", "094556.280000", "094552.440000", "094556.390000", "094552.550000", "094600.360000", "094556.520000", "094600.470000", "094556.630000", "094600.580000", "094556.740000", "094600.690000", "094556.850000", "094600.797500", "094556.960000", "094600.907500", "094557.067500", "094601.017500", "094557.177500", "094601.127500", "094557.287500", "094601.237500", "094557.397500", "094601.347500", "094557.507500", "094601.457500", "094557.617500", "094601.567500", "094557.727500", "094601.677500", "094557.837500", "094601.785000", "094557.945000", "094601.895000", "094558.055000", "094602.005000", "094558.165000", "094602.115000", "094558.275000", "094602.225000", "094558.385000", "094602.335000", "094558.495000", "094602.445000", "094558.605000", "094602.555000", "094558.715000", "094602.662500", "094558.825000", "094602.772500", "094558.932500", "094602.882500", "094559.042500", "094602.992500", "094559.152500", "094603.102500", "094559.262500", "094603.212500", "094559.372500", "094603.322500", "094559.482500", "094603.432500", "094559.592500", "094603.542500", "094559.702500", "094603.650000", "094559.810000", "094603.760000", "094559.920000", "094603.870000", "094600.030000", "094603.980000", "094600.140000", "094604.090000", "094600.250000", "094608.060000", "094604.220000", "094608.170000", "094604.330000", "094608.280000", "094604.440000", "094608.390000", "094604.550000", "094608.497500", "094604.660000", "094608.607500", "094604.767500", "094608.717500", "094604.877500", "094608.827500", "094604.987500", "094608.937500", "094605.097500", "094609.047500", "094605.207500", "094609.157500", "094605.317500", "094609.267500", "094605.427500", "094609.377500", "094605.537500", "094609.485000", "094605.645000", "094609.595000", "094605.755000", "094609.705000", "094605.865000", "094609.815000", "094605.975000", "094609.925000", "094606