{
  "AcquisitionMatrixPE": 122,
  "AcquisitionNumber": 1,
  "AcquisitionTime": "10:21:34.190000",
  "BandwidthPerPixelPhaseEncode": 28.76,
  "BaseResolution": 122,
  "BodyPartExamined": "BRAIN",
  "CoilCombinationMethod": "Adaptive Combine",
  "ConsistencyInfo": "N4_VE11C_LATEST_20160120",
  "ConversionSoftware": "dcm2niix",
  "ConversionSoftwareVersion": "v1.0.20220720",
  "DerivedVendorReportedEchoSpacing": 0.000570008,
  "DeviceSerialNumber": "66112",
  "DiffusionScheme": "Monopolar",
  "DwellTime": 2e-06,
  "EchoTime": 0.075,
  "EchoTrainLength": 61,
  "EffectiveEchoSpacing": 0.000285004,
  "FlipAngle": 90,
  "HeudiconvVersion": "0.13.1",
  "ImageOrientationPatientDICOM": [0.99994, 0.00870903, 0.00660416, -0.0102972, 0.953236, 0.302052],
  "ImageOrientationText": "Tra>Cor(17.6)>Sag(0.2)",
  "ImageType": [
    "ORIGINAL",
    "PRIMARY",
    "DIFFUSION",
    "NONE",
    "ND",
    "NORM"
],
  "ImagingFrequency": 123.252,
  "InPlanePhaseEncodingDirectionDICOM": "COL",
  "InstitutionAddress": "Maynard 3,Hanover,NH,US,03755",
  "InstitutionName": "Dartmouth College - PBS",
  "InstitutionalDepartmentName": "Department",
  "MRAcquisitionType": "2D",
  "MagneticFieldStrength": 3,
  "Manufacturer": "Siemens",
  "ManufacturersModelName": "Prisma",
  "MatrixCoilMode": "GRAPPA",
  "Modality": "MR",
  "NonlinearGradientCorrection": false,
  "ParallelReductionFactorInPlane": 2,
  "PartialFourier": 1,
  "PatientPosition": "HFS",
  "PercentPhaseFOV": 100,
  "PercentSampling": 100,
  "PhaseEncodingDirection": "j-",
  "PhaseEncodingSteps": 122,
  "PhaseResolution": 1,
  "PixelBandwidth": 2050,
  "ProcedureStepDescription": "dbic^QA",
  "ProtocolName": "dwi_acq-DTI-30-p2",
  "PulseSequenceDetails": "%SiemensSeq%\\ep2d_diff",
  "ReceiveCoilActiveElements": "HEA;HEP",
  "ReceiveCoilName": "Head_32",
  "ReconMatrixPE": 122,
  "RefLinesPE": 38,
  "RepetitionTime": 7.7,
  "SAR": 0.102011,
  "ScanOptions": "FS",
  "ScanningSequence": "EP",
  "SequenceName": "*ep_b0",
  "SequenceVariant": "SK\\SP",
  "SeriesDescription": "dwi_acq-DTI-30-p2",
  "SeriesNumber": 8,
  "ShimSetting": [4149, -7685, -7513, 273, -33, -257, -56, 86],
  "SliceThickness": 2,
  "SliceTiming": [3.83594, 0, 3.94531, 0.10938, 4.05469, 0.21875, 4.17188, 0.32812, 4.28125, 0.4375, 4.39062, 0.54688, 4.5, 0.65625, 4.60938, 0.76562, 4.71875, 0.875, 4.82812, 0.98438, 4.9375, 1.09375, 5.04688, 1.20312, 5.15625, 1.3125, 5.26562, 1.42969, 5.375, 1.53906, 5.48438, 1.64844, 5.59375, 1.75, 5.70312, 1.86719, 5.8125, 1.97656, 5.92188, 2.08594, 6.03125, 2.19531, 6.14062, 2.30469, 6.25, 2.41406, 6.36719, 2.52344, 6.46875, 2.63281, 6.57812, 2.74219, 6.6875, 2.85156, 6.80469, 2.96094, 6.91406, 3.07031, 7.02344, 3.17969, 7.13281, 3.28906, 7.24219, 3.39844, 7.35156, 3.50781, 7.46094, 3.61719, 7.57031, 3.72656],
  "SoftwareVersions": "syngo MR E11",
  "SpacingBetweenSlices": 2,
  "SpoilingState": true,
  "StationName": "AWP66112",
  "TotalReadoutTime": 0.0344855,
  "TxRefAmp": 231.664,
  "dcmmeta_affine": [
    [-1.9670956134796143, -0.02025674097239971, 0.007329583168029785, 121.74029541015625],
    [-0.01713251881301403, 1.8752177953720093, 0.6042041778564453, -122.75634002685547],
    [0.01299179159104824, -0.5942014455795288, 1.9065361022949219, -44.37366485595703],
    [0.0, 0.0, 0.0, 1.0]
],
  "dcmmeta_reorient_transform": [
    [0.0, -1.0, 0.0, 121.0],
    [1.0, 0.0, 0.0, 0.0],
    [0.0, 0.0, -1.0, 69.0],
    [0.0, 0.0, 0.0, 1.0]
],
  "dcmmeta_shape": [122, 122, 70, 31],
  "dcmmeta_slice_dim": 2,
  "dcmmeta_version": 0.6,
  "global": {
    "const": {
      "AccessionNumber": "qa",
      "AcquisitionMatrix": [122, 0, 0, 122],
      "AngioFlag": "N",
      "BitsAllocated": 16,
      "BitsStored": 12,
      "BodyPartExamined": "BRAIN",
      "Columns": 122,
      "EchoNumbers": 1,
      "EchoTime": 75.0,
      "EchoTrainLength": 61,
      "FlipAngle": 90.0,
      "HighBit": 11,
      "ImageOrientationPatient": [0.99994026714485, 0.00870902995707, 0.00660416077125, -0.0102971760581, 0.95323570623581, 0.30205240691367],
      "ImageType": [
        "ORIGINAL",
        "PRIMARY",
        "DIFFUSION",
        "NONE",
        "ND",
        "NORM"
],
      "ImagedNucleus": "1H",
      "ImagingFrequency": 123.252466,
      "InPlanePhaseEncodingDirection": "COL",
      "MRAcquisitionType": "2D",
      "MagneticFieldStrength": 3.0,
      "Manufacturer": "SIEMENS",
      "ManufacturerModelName": "Prisma",
      "Modality": "MR",
      "NumberOfAverages": 1.0,
      "NumberOfPhaseEncodingSteps": 122,
      "PercentPhaseFieldOfView": 100.0,
      "PercentSampling": 100.0,
      "PerformedProcedureStepStartTime": "100204.326000",
      "PhotometricInterpretation": "MONOCHROME2",
      "PixelBandwidth": 2050.0,
      "PixelRepresentation": 0,
      "PixelSpacing": [1.9672131538391, 1.9672131538391],
      "ProtocolName": "dwi_acq-DTI-30-p2",
      "RepetitionTime": 7700.0,
      "Rows": 122,
      "SAR": 0.10201140907952,
      "SamplesPerPixel": 1,
      "ScanOptions": "FS",
      "ScanningSequence": "EP",
      "SequenceVariant": [
        "SK",
        "SP"
],
      "SeriesDescription": "dwi_acq-DTI-30-p2",
      "SeriesNumber": 8,
      "SeriesTime": "102135.290000",
      "SliceThickness": 2.0,
      "SmallestImagePixelValue": 0,
      "SoftwareVersions": "syngo MR E11",
      "SpacingBetweenSlices": 2.0,
      "SpecificCharacterSet": "ISO_IR 100",
      "StudyID": "38",
      "StudyTime": "100204.238000",
      "TransmitCoilName": "Body",
      "VariableFlipAngleFlag": "N",
      "WindowCenterWidthExplanation": "Algo1",
      "dBdt": 0.0},
    "slices": {
      "AcquisitionTime": ["102134.190000", "102130.350000", "102134.300000", "102130.460000", "102134.410000", "102130.570000", "102134.520000", "102130.680000", "102134.630000", "102130.790000", "102134.740000", "102130.900000", "102134.850000", "102131.010000", "102134.957500", "102131.117500", "102135.067500", "102131.227500", "102135.177500", "102131.337500", "102135.287500", "102131.447500", "102135.397500", "102131.557500", "102135.507500", "102131.667500", "102135.617500", "102131.777500", "102135.727500", "102131.887500", "102135.835000", "102131.997500", "102135.945000", "102132.105000", "102136.055000", "102132.215000", "102136.165000", "102132.325000", "102136.275000", "102132.435000", "102136.385000", "102132.545000", "102136.495000", "102132.655000", "102136.605000", "102132.765000", "102136.715000", "102132.875000", "102136.822500", "102132.982500", "102136.932500", "102133.092500", "102137.042500", "102133.202500", "102137.152500", "102133.312500", "102137.262500", "102133.422500", "102137.372500", "102133.532500", "102137.482500", "102133.642500", "102137.592500", "102133.752500", "102137.700000", "102133.862500", "102137.810000", "102133.970000", "102137.920000", "102134.080000", "102141.890000", "102138.050000", "102142.000000", "102138.160000", "102142.110000", "102138.270000", "102142.220000", "102138.380000", "102142.330000", "102138.490000", "102142.440000", "102138.600000", "102142.550000", "102138.710000", "102142.657500", "102138.817500", "102142.767500", "102138.927500", "102142.877500", "102139.037500", "102142.987500", "102139.147500", "102143.097500", "102139.257500", "102143.207500", "102139.367500", "102143.317500", "102139.477500", "102143.427500", "102139.587500", "102143.535000", "102139.697500", "102143.645000", "102139.805000", "102143.755000", "102139.915000", "102143.865000", "102140.025000", "102143.975000", "102140.135000", "102144.085000", "102140.245000", "102144.195000", "102140.355000", "102144.305000", "102140.465000", "102144.415000", "102140.575000", "102144.522500", "102140.682500", "102144.632500", "102140.792500", "102144.742500", "102140.902500", "102144.852500", "102141.012500", "102144.962500", "102141.122500", "102145.072500", "102141.232500", "102145.182500", "102141.342500", "102145.292500", "102141.452500", "102145.400000", "102141.562500", "102145.510000", "102141.670000", "102145.620000", "102141.780000", "102149.590000", "102145.750000", "102149.700000", "102145.860000", "102149.810000", "102145.970000", "102149.920000", "102146.080000", "102150.030000", "102146.190000", "102150.140000", "102146.300000", "102150.250000", "102146.410000", "102150.357500", "102146.517500", "102150.467500", "102146.627500", "102150.577500", "102146.737500", "102150.687500", "102146.847500", "102150.797500", "102146.957500", "102150.907500", "102147.067500", "102151.017500", "102147.177500", "102151.127500", "102147.287500", "102151.235000", "102147.397500", "102151.345000", "102147.505000", "102151.455000", "102147.615000", "102151.565000", "102147.725000", "102151.675000", "102147.835000", "102151.785000", "102147.945000", "102151.895000", "102148.055000", "102152.005000", "102148.165000", "102152.115000", "102148.275000", "102152.222500", "102148.382500", "102152.332500", "102148.492500", "102152.442500", "102148.602500", "102152.552500", "102148.712500", "102152.662500", "102148.822500", "102152.772500", "102148.932500", "102152.882500", "102149.042500", "102152.992500", "102149.152500", "102153.100000", "102149.262500", "102153.210000", "102149.370000", "102153.320000", "102149.480000", "102157.290000", "102153.450000", "102157.400000", "102153.560000", "102157.510000", "102153.670000", "102157.620000", "102153.780000", "102157.730000", "102153.890000", "102157.840000", "102154.000000", "102157.950000", "102154.110000", "102158.057500", "102154.217500", "102158.167500", "102154.327500", "102158.277500", "102154.437500", "102158.387500", "102154.547500", "102158.497500", "102154.657500", "102158.607500", "102154.767500", "102158.717500", "102154.877500", "102158.827500", "102154.987500", "102158.935000", "102155.097500", "102159.045000", "102155.205000", "102159.155000", "102155.315000", "102159.265000", "102155.425000", "102159.375000", "102155.535000", "102159.485000", "102155.645000", "102159.595000", "102155.755000", "102159.705000", "102155.865000", "102159.815000", "102155.975000", "102159.922500", "102156.082500", "102200.032500", "102156.192500", "102200.142500", "102156.302500", "102200.252500", "102156.412500", "102200.362500", "102156.522500", "102200.472500", "102156.632500", "102200.582500", "102156.742500", "102200.692500", "102156.852500", "102200.800000", "102156.962500", "102200.910000", "102157.070000", "102201.020000", "102157.180000", "102204.990000", "102201.150000", "102205.100000", "102201.260000", "102205.210000", "102201.370000", "102205.320000", "102201.480000", "102205.430000", "102201.590000", "102205.540000", "102201.700000", "102205.650000", "102201.810000", "102205.757500", "102201.917500", "102205.867500", "102202.027500", "102205.977500", "102202.137500", "102206.087500", "102202.247500", "102206.197500", "102202.357500", "102206.307500", "102202.467500", "102206.417500", "102202.577500", "102206.527500", "102202.687500", "102206.635000", "102202.797500", "102206.745000", "102202.905000", "102206.855000", "102203.015000", "102206.965000", "102203.125000", "102207.075000", "102203.235000", "102207.185000", "102203.345000", "102207.295000", "102203.455000", "102207.405000", "102203.565000", "102207.515000", "102203.675000", "102207.622500", "102203.782500", "102207.732500", "102203.892500", "102207.842500", "102204.002500", "102207.952500", "102204.112500", "102208.062500", "102204.222500", "102208.172500", "102204.332500", "102208.282500", "102204.442500", "102208.392500", "102204.552500", "102208.500000", "102204.662500", "102208.610000", "102204.770000", "102208.720000", "102204.880000", "102212.690000", "102208.850000", "102212.800000", "102208.960000", "102212.910000", "102209.070000", "102213.020000", "102209.180000", "102213.130000", "102209.290000", "102213.240000", "102209.400000", "102213.350000", "102209.510000", "102213.457500", "102209.617500", "102213.567500", "102209.727500", "102213.677500", "102209.837500", "102213.787500", "102209.947500", "102213.897500", "102210.057500", "102214.007500", "102210.167500", "102214.117500", "102210.277500", "102214.227500", "102210.387500", "102214.335000", "102210.497500", "102214.445000", "102210.605000", "102214.555000", "102210.715000", "102214.665000", "102210.825000", "102214.775000", "102210.935000", "102214.885000", "102211.045000", "102214.995000", "102211.155000", "102215.105000", "102211.265000", "102215.215000", "102211.375000", "102215.322500", "102211.482500", "102215.432500", "102211.592500", "102215.542500", "102211.702500", "102215.652500", "102211.812500", "102215.762500", "102211.922500", "102215.872500", "102212.032500", "102215.982500", "102212.142500", "102216.092500", "102212.252500", "102216.200000", "102212.362500", "102216.310000", "102212.470000", "102216.420000", "102212.580000", "102220.390000", "102216.550000", "102220.500000", "102216.660000", "102220.610000", "102216.770000", "102220.720000", "102216.880000", "102220.830000", "102216.990000", "102220.940000", "102217.100000", "102221.050000", "102217.210000", "102221.157500", "102217.317500", "102221.267500", "102217.427500", "102221.377500", "102217.537500", "102221.487500", "102217.647500", "102221.597500", "102217.757500", "102221.707500", "102217.867500", "102221.817500", "102217.977500", "102221.927500", "102218.087500", "102222.035000", "102218.197500", "102222.145000", "102218.305000", "102222.255000", "102218.415000", "102222.365000", "102218.525000", "102222.475000", "102218.635000", "102222.585000", "102218.745000", "102222.695000", "102218.855000", "102222.805000", "102218.965000", "102222.915000", "102219.075000", "102223.022500", "102219.182500", "102223.132500", "102219.292500", "102223.242500", "102219.402500", "102223.352500", "102219.512500", "102223.462500", "102219.622500", "102223.572500", "102219.732500", "102223.682500", "102219.842500", "102223.792500", "102219.952500", "102223.900000", "102220.062500", "102224.010000", "102220.170000", "102224.120000", "102220.280000", "102228.090000", "102224.250000", "102228.200000", "102224.360000", "102228.310000", "102224.470000", "102228.420000", "102224.580000", "102228.530000", "102224.690000", "102228.640000", "102224.800000", "102228.750000", "102224.910000", "102228.857500", "102225.017500", "102228.967500", "102225.127500", "102229.077500", "102225.237500", "102229.187500", "102225.347500", "102229.297500", "102225.457500", "102229.407500", "102225.567500", "102229.517500", "102225.677500", "102229.627500", "102225.787500", "102229.735000", "102225.897500", "102229.845000", "102226.005000", "102229.955000", "102226.115000", "102230.065000", "102226.225000", "102230.175000", "102226.335000", "102230.285000", "102226.445000", "102230.395000", "102226.555000", "102230.505000", "102226.665000", "102230.615000", "102226.775000", "102230.722500", "102226.882500", "102230.832500", "102226.992500", "102230.942500", "102227.102500", "102231.052500", "102227.212500", "102231.162500", "102227.322500", "102231.272500", "102227.432500", "102231.382500", "102227.542500", "102231.492500", "102227.652500", "102231.600000", "102227.762500", "102231.710000", "102227.870000", "102231.820000", "102227.980000", "102235.790000", "102231.950000", "102235.900000", "102232.060000", "102236.010000", "102232.170000", "102236.120000", "102232.280000", "102236.230000", "102232.390000", "102236.340000", "102232.500000", "102236.450000", "102232.610000", "102236.557500", "102232.717500", "102236.667500", "102232.827500", "102236.777500", "102232.937500", "102236.887500", "102233.047500", "102236.997500", "102233.157500", "102237.107500", "102233.267500", "102237.217500", "102233.377500", "102237.327500", "102233.487500", "102237.435000", "102233.597500", "102237.545000", "102233.705000", "102237.655000", "102233.815000", "102237.765000", "102233.925000", "102237.875000", "102234.035000", "102237.985000", "102234.145000", "102238.095000", "102234.255000", "102238.205000", "102234.365000", "102238.315000", "102234.475000", "102238.422500", "102234.582500", "102238.532500", "102234.692500", "102238.642500", "102234.802500", "102238.752500", "102234.912500", "102238.862500", "102235.022500", "102238.972500", "102235.132500", "102239.082500", "102235.242500", "102239.192500", "102235.352500", "102239.300000", "102235.462500", "102239.410000", "102235.570000", "102239.520000", "102235.680000", "102243.490000", "102239.650000", "102243.600000", "102239.760000", "102243.710000", "102239.870000", "102243.820000", "102239.980000", "102243.930000", "102240.090000", "102244.040000", "102240.200000", "102244.150000", "102240.310000", "102244.257500", "102240.417500", "102244.367500", "102240.527500", "102244.477500", "102240.637500", "102244.587500", "102240.747500", "102244.697500", "102240.857500", "102244.807500", "102240.967500", "102244.917500", "102241.077500", "102245.027500", "102241.187500", "102245.135000", "102241.297500", "102245.245000", "102241.405000", "102245.355000", "102241.515000", "102245.465000", "102241.625000", "102245.575000", "102241.735000", "102245.685000", "102241.845000", "102245.795000", "102241.955000", "102245.905000", "102242.065000", "102246.015000", "102242.175000", "102246.122500", "102242.282500", "102246.232500", "102242.392500", "102246.342500", "102242.502500", "102246.452500", "102242.612500", "102246.562500", "102242.722500", "102246.672500", "102242.832500", "102246.782500", "102242.942500", "102246.892500", "102243.052500", "102247.000000", "102243.162500", "102247.110000", "102243.270000", "102247.220000", "102243.380000", "102251.190000", "102247.350000", "102251.300000", "102247.460000", "102251.410000", "102247.570000", "102251.520000", "102247.680000", "102251.630000", "102247.790000", "102251.740000", "102247.900000", "102251.850000", "102248.010000", "102251.957500", "102248.117500", "102252.067500", "102248.227500", "102252.177500", "102248.337500", "102252.287500", "102248.447500", "102252.397500", "102248.557500", "102252.507500", "102248.667500", "102252.617500", "102248.777500", "102252.727500", "102248.887500", "102252.835000", "102248.997500", "102252.945000", "102249.105000", "102253.055000", "102249.215000", "102253.165000", "102249.325000", "102253.275000", "102249.435000", "102253.385000", "102249.545000", "102253.495000", "102249.655000", "102253.605000", "102249.765000", "102253.715000", "102249.875000", "102253.822500", "102249.982500", "102253.932500", "102250.092500", "102254.042500", "102250.202500", "102254.152500", "102250.312500", "102254.262500", "102250.422500", "102254.372500", "102250.532500", "102254.482500", "102250.642500", "102254.592500", "102250.752500", "102254.700000", "102250.862500", "102254.810000", "102250.970000", "102254.920000", "102251.080000", "102258.890000", "102255.050000", "102259.000000", "102255.160000", "102259.110000", "102255.270000", "102259.220000", "102255.380000", "102259.330000", "102255.490000", "102259.440000", "102255.600000", "102259.550000", "102255.710000", "102259.657500", "102255.817500", "102259.767500", "102255.927500", "102259.877500", "102256.037500", "102259.987500", "102256.147500", "102300.097500", "102256.257500", "102300.207500", "102256.367500", "102300.317500", "102256.477500", "102300.427500", "102256.587500", "102300.535000", "102256.697500", "102300.645000", "102256.805000", "102300.755000", "102256.915000", "102300.865000", "102257.025000", "102300.975000", "102257.135000", "102301.085000", "102257.245000", "102301.195000", "102257.355000", "102301.305000", "102257.465000", "102301.415000", "102257.575000", "102301.522500", "102257.682500", "102301.632500", "102257.792500", "102301.742500", "102257.902500", "102301.852500", "102258.012500", "102301.962500", "102258.122500", "102302.072500", "102258.232500", "102302.182500", "102258.342500", "102302.292500", "102258.452500", "102302.400000", "102258.562500", "102302.510000", "102258.670000", "102302.620000", "102258.780000", "102306.590000", "102302.750000", "102306.700000", "102302.860000", "102306.810000", "102302.970000", "102306.920000", "102303.080000", "102307.030000", "102303.190000", "102307.140000", "102303.300000", "102307.250000", "102303.410000", "102307.357500", "102303.517500", "102307.467500", "102303.627500", "102307.577500", "102303.737500", "102307.687500", "102303.847500", "102307.797500", "102303.957500", "102307.907500", "102304.067500", "102308.017500", "102304.177500", "102308.127500", "102304.287500", "102308.235000", "102304.397500", "102308.345000", "102304.505000", "102308.455000", "102304.615000", "102308.565000", "102304.725000", "102308.675000", "102304.835000", "102308.785000", "102304.945000", "102308.895000", "102305.055000", "102309.005000", "102305.165000", "102309.115000", "102305.275000", "102309.222500", "102305.382500", "102309.332500", "102305.492500", "102309.442500", "102305.602500", "102309.552500", "102305.712500", "102309.662500", "102305.822500", "102309.772500", "102305.932500", "102309.882500", "102306.042500", "102309.992500", "102306.152500", "102310.100000", "102306.262500", "102310.210000", "102306.370000", "102310.320000", "102306.480000", "102314.290000", "102310.450000", "102314.400000", "102310.560000", "102314.510000", "102310.670000", "102314.620000", "102310.780000", "102314.730000", "102310.890000", "102314.840000", "102311.000000", "102314.950000", "102311.110000", "102315.057500", "102311.217500", "102315.167500", "102311.327500", "102315.277500", "102311.437500", "102315.387500", "102311.547500", "102315.497500", "102311.657500", "102315.607500", "102311.767500", "102315.717500", "102311.877500", "102315.827500", "102311.987500", "102315.935000", "102312.097500", "102316.045000", "102312.205000", "102316.155000", "102312.315000", "102316.265000", "102312.425000", "102316.375000", "102312.535000", "102316.485000", "102312.645000", "102316.595000", "102312.755000", "102316.705000", "102312.865000", "102316.815000", "102312.975000", "102316.922500", "102313.082500", "102317.032500", "102313.192500", "102317.142500", "102313.302500", "102317.252500", "102313.412500", "102317.362500", "102313.522500", "102317.472500", "102313.632500", "102317.582500", "102313.742500", "102317.692500", "102313.852500", "102317.800000", "102313.962500", "102317.910000", "102314.070000", "102318.020000", "102314.180000", "102321.990000", "102318.150000", "102322.100000", "102318.260000", "102322.210000", "102318.370000", "102322.320000", "102318.480000", "102322.430000", "102318.590000", "102322.540000", "102318.700000", "102322.650000", "102318.810000", "102322.757500", "102318.917500", "102322.867500", "102319.027500", "102322.977500", "102319.137500", "102323.087500", "102319.247500", "102323.197500", "102319.357500", "102323.307500", "102319.467500", "102323.417500", "102319.577500", "102323.527500", "102319.687500", "102323.635000", "102319.797500", "102323.745000", "102319.905000", "102323.855000", "102320.015000", "102323.965000", "102320.125000", "102324.075000", "102320.235000", "102324.185000", "102320.345000", "102324.295000", "102320.455000", "102324.405000", "102320.565000", "102324.515000", "102320.675000", "102324.622500", "102320.782500", "102324.732500", "102320.892500", "102324.842500", "102321.002500", "102324.952500", "102321.112500", "102325.062500", "102321.222500", "102325.172500", "102321.332500", "102325.282500", "102321.442500", "102325.392500", "102321.552500", "102325.500000", "102321.662500", "102325.610000", "102321.770000", "102325.720000", "102321.880000", "102329.690000", "102325.850000", "102329.800000", "102325.960000", "102329.910000", "102326.070000", "102330.020000", "102326.180000", "102330.130000", "102326.290000", "102330.240000", "102326.400000", "102330.350000", "102326.510000", "102330.457500", "102326.617500", "102330.567500", "102326.727500", "102330.677500", "102326.837500", "102330.787500", "102326.947500", "102330.897500", "102327.057500", "102331.007500", "102327.167500", "102331.117500", "102327.277500", "102331.227500", "102327.387500", "102331.335000", "102327.497500", "102331.445000", "102327.605000", "102331.555000", "102327.715000", "102331.665000", "102327.825000", "102331.775000", "102327.935000", "102331.885000", "102328.045000", "102331.995000", "102328.155000", "102332.105000", "102328.265000", "102332.215000", "102328.375000", "102332.322500", "102328.482500", "102332.432500", "102328.592500", "102332.542500", "102328.702500", "102332.652500", "102328.812500", "102332.762500", "102328.922500", "102332.872500", "102329.032500", "102332.982500", "102329.142500", "102333.092500", "102329.252500", "102333.200000", "102329.362500", "102333.310000", "102329.470000", "102333.420000", "102329.580000", "102337.390000", "102333.550000", "102337.500000", "102333.660000", "102337.610000", "102333.770000", "102337.720000", "102333.880000", "102337.830000", "102333.990000", "102337.940000", "102334.100000", "102338.050000", "102334.210000", "102338.157500", "102334.317500", "102338.267500", "102334.427500", "102338.377500", "102334.537500", "102338.487500", "102334.647500", "102338.597500", "102334.757500", "102338.707500", "102334.867500", "102338.817500", "102334.977500", "102338.927500", "102335.087500", "102339.035000", "102335.197500", "102339.145000", "102335.305000", "102339.255000", "102335.415000", "102339.365000", "102335.525000", "102339.475000", "102335.635000", "102339.585000", "102335.745000", "102339.695000", "102335.855000", "102339.805000", "102335.965000", "102339.915000", "102336.075000", "102340.022500", "102336.182500", "102340.132500", "102336.292500", "102340.242500", "102336.402500", "102340.352500", "102336.512500", "102340.462500", "102336.622500", "102340.572500", "102336.732500", "102340.682500", "102336.842500", "102340.792500", "102336.952500", "102340.900000", "102337.062500", "102341.010000", "102337.170000", "102341.120000", "102337.280000", "102345.090000", "102341.250000", "102345.200000", "102341.360000", "102345.310000", "102341.470000", "102345.420000", "102341.580000", "102345.530000", "102341.690000", "102345.640000", "102341.800000", "102345.750000", "102341.910000", "102345.857500", "102342.017500", "102345.967500", "102342.127500", "102346.077500", "102342.237500", "102346.187500", "102342.347500", "102346.297500", "102342.457500", "102346.407500", "102342.567500", "102346.517500", "102342.677500", "102346.627500", "102342.787500", "102346.735000", "102342.897500", "102346.845000", "102343.005000", "102346.955000", "102343.115000", "102347.065000", "102343.225000", "102347.175000", "102343.335000", "102347.285000", "102343.445000", "102347.395000", "102343.555000", "102347.505000", "102343.665000", "102347.615000", "102343.775000", "102347.722500", "102343.882500", "102347.832500", "102343.992500", "102347.942500", "102344.102500", "102348.052500", "102344.212500", "102348.162500", "102344.322500", "102348.272500", "102344.432500", "102348.382500", "102344.542500", "102348.492500", "102344.652500", "102348.600000", "102344.762500", "102348.710000", "102344.870000", "102348.820000", "102344.980000", "102352.790000", "102348.950000", "102352.900000", "102349.060000", "102353.010000", "102349.170000", "102353.120000", "102349.280000", "102353.230000", "102349.390000", "102353.340000", "102349.500000", "102353.450000", "102349.610000", "102353.557500", "102349.717500", "102353.667500", "102349.827500", "102353.777500", "102349.937500", "102353.887500", "102350.047500", "102353.997500", "102350.157500", "102354.107500", "102350.267500", "102354.217500", "102350.377500", "102354.327500", "102350.487500", "102354.435000", "102350.597500", "102354.545000", "102350.705000", "102354.655000", "102350.815000", "102354.765000", "102350.925000", "102354.875000", "102351.035000", "102354.985000", "102351.145000", "102355.095000", "102351.255000", "102355.205000", "102351.365000", "102355.315000", "102351.475000", "102355.422500", "102351.582500", "102355.532500", "102351.692500", "102355.642500", "102351.802500", "102355.752500", "102351.912500", "102355.862500", "102352.022500", "102355.972500", "102352.132500", "102356.082500", "102352.242500", "102356.192500", "102352.352500", "102356.300000", "102352.462500", "102356.410000", "102352.570000", "102356.520000", "102352.680000", "102400.490000", "102356.650000", "102400.600000", "102356.760000", "102400.710000", "102356.870000", "102400.820000", "102356.980000", "102400.930000", "102357.090000", "102401.040000", "102357.200000", "102401.150000", "102357.310000", "102401.257500", "102357.417500", "102401.367500", "102357.527500", "102401.477500", "102357.637500", "102401.587500", "102357.747500", "102401.697500", "102357.857500", "102401.807500", "102357.967500", "102401.917500", "102358.077500", "102402.027500", "102358.187500", "102402.135000", "102358.297500", "102402.245000", "102358.405000", "102402.355000", "102358.515000", "102402.465000", "102358.625000", "102402.575000", "102358.735000", "102402.685000", "102358.845000", "102402.795000", "102358.955000", "102402.905000", "102359.065000", "102403.015000", "102359.175000", "102403.122500", "102359.282500", "102403.232500", "102359.392500", "102403.342500", "102359.502500", "102403.452500", "102359.612500", "102403.562500", "102359.722500", "102403.672500", "102359.832500", "102403.782500", "102359.942500", "102403.892500", "102400.052500", "102404.000000", "102400.162500", "102404.110000", "102400.270000", "102404.220000", "102400.380000", "102408.190000", "102404.350000", "102408.300000", "102404.460000", "102408.410000", "102404.570000", "102408.520000", "102404.680000", "102408.630000", "102404.790000", "102408.740000", "102404.900000", "102408.850000", "102405.010000", "102408.957500", "102405.117500", "102409.067500", "102405.227500", "102409.177500", "102405.337500", "102409.287500", "102405.447500", "102409.397500", "102405.557500", "102409.507500", "102405.667500", "102409.617500", "102405.777500", "102409.727500", "102405.887500", "102409.835000", "102405.997500", "102409.945000", "102406.105000", "102410.055000"