{
  "AcquisitionMatrixPE": 122,
  "AcquisitionNumber": 1,
  "AcquisitionTime": "10:25:56.475000",
  "BandwidthPerPixelPhaseEncode": 27.785,
  "BaseResolution": 122,
  "BodyPartExamined": "BRAIN",
  "CoilCombinationMethod": "Adaptive Combine",
  "ConsistencyInfo": "N4_VE11C_LATEST_20160120",
  "ConversionSoftware": "dcm2niix",
  "ConversionSoftwareVersion": "v1.0.20220720",
  "DerivedVendorReportedEchoSpacing": 0.000590011,
  "DeviceSerialNumber": "66112",
  "DiffusionScheme": "Monopolar",
  "DwellTime": 2e-06,
  "EchoTime": 0.068,
  "EchoTrainLength": 61,
  "EffectiveEchoSpacing": 0.000295005,
  "FlipAngle": 90,
  "HeudiconvVersion": "0.13.1",
  "ImageOrientationPatientDICOM": [0.99994, 0.00870903, 0.00660416, -0.0102972, 0.953236, 0.302052],
  "ImageOrientationText": "Tra>Cor(17.6)>Sag(0.2)",
  "ImageType": [
    "ORIGINAL",
    "PRIMARY",
    "DIFFUSION",
    "NONE",
    "ND",
    "NORM"
],
  "ImagingFrequency": 123.252,
  "InPlanePhaseEncodingDirectionDICOM": "COL",
  "InstitutionAddress": "Maynard 3,Hanover,NH,US,03755",
  "InstitutionName": "Dartmouth College - PBS",
  "InstitutionalDepartmentName": "Department",
  "MRAcquisitionType": "2D",
  "MagneticFieldStrength": 3,
  "Manufacturer": "Siemens",
  "ManufacturersModelName": "Prisma",
  "Modality": "MR",
  "MultibandAccelerationFactor": 4,
  "NonlinearGradientCorrection": false,
  "ParallelReductionFactorInPlane": 2,
  "PartialFourier": 1,
  "PatientPosition": "HFS",
  "PercentPhaseFOV": 100,
  "PercentSampling": 100,
  "PhaseEncodingDirection": "j-",
  "PhaseEncodingSteps": 122,
  "PhaseResolution": 1,
  "PixelBandwidth": 2050,
  "ProcedureStepDescription": "dbic^QA",
  "ProtocolName": "dwi_acq-DTI-30-p2-s4",
  "PulseSequenceDetails": "%SiemensSeq%\\ep2d_diff",
  "ReceiveCoilActiveElements": "HEA;HEP",
  "ReceiveCoilName": "Head_32",
  "ReconMatrixPE": 122,
  "RefLinesPE": 38,
  "RepetitionTime": 3.6,
  "SAR": 0.161414,
  "ScanOptions": "FS",
  "ScanningSequence": "EP",
  "SequenceName": "*ep_b0",
  "SequenceVariant": "SK\\SP",
  "SeriesDescription": "dwi_acq-DTI-30-p2-s4",
  "SeriesNumber": 9,
  "ShimSetting": [4149, -7685, -7513, 277, -32, -260, -56, 85],
  "SliceThickness": 2,
  "SliceTiming": [2.58594, 0, 1.78906, 0.19531, 1.98438, 0.39844, 2.1875, 0.59375, 2.38281, 0.99219, 2.78125, 1.19531, 2.98438, 1.39062, 3.17969, 1.58594, 3.38281, 0.79688, 2.58594, 0, 1.78906, 0.19531, 1.98438, 0.39844, 2.1875, 0.59375, 2.38281, 0.99219, 2.78125, 1.19531, 2.98438, 1.39062, 3.17969, 1.58594, 3.38281, 0.79688, 2.58594, 0, 1.78906, 0.19531, 1.98438, 0.39844, 2.1875, 0.59375, 2.38281, 0.99219, 2.78125, 1.19531, 2.98438, 1.39062, 3.17969, 1.58594, 3.38281, 0.79688, 2.58594, 0, 1.78906, 0.19531, 1.98438, 0.39844, 2.1875, 0.59375, 2.38281, 0.99219, 2.78125, 1.19531, 2.98438, 1.39062, 3.17969, 1.58594, 3.38281, 0.79688],
  "SoftwareVersions": "syngo MR E11",
  "SpacingBetweenSlices": 2,
  "SpoilingState": true,
  "StationName": "AWP66112",
  "TotalReadoutTime": 0.0356956,
  "TxRefAmp": 231.664,
  "dcmmeta_affine": [
    [-1.9670956134796143, -0.02025674097239971, 0.007329463958740234, 121.73297882080078],
    [-0.01713251881301403, 1.8752177953720093, 0.6042041778564453, -123.36054229736328],
    [0.01299179159104824, -0.5942014455795288, 1.9065399169921875, -46.28046798706055],
    [0.0, 0.0, 0.0, 1.0]
],
  "dcmmeta_reorient_transform": [
    [0.0, -1.0, 0.0, 121.0],
    [1.0, 0.0, 0.0, 0.0],
    [0.0, 0.0, -1.0, 71.0],
    [0.0, 0.0, 0.0, 1.0]
],
  "dcmmeta_shape": [122, 122, 72, 31],
  "dcmmeta_slice_dim": 2,
  "dcmmeta_version": 0.6,
  "global": {
    "const": {
      "AccessionNumber": "qa",
      "AcquisitionMatrix": [122, 0, 0, 122],
      "AngioFlag": "N",
      "BitsAllocated": 16,
      "BitsStored": 12,
      "BodyPartExamined": "BRAIN",
      "Columns": 122,
      "EchoNumbers": 1,
      "EchoTime": 68.0,
      "EchoTrainLength": 61,
      "FlipAngle": 90.0,
      "HighBit": 11,
      "ImageOrientationPatient": [0.99994026714485, 0.00870902995707, 0.00660416077125, -0.0102971760581, 0.95323570623581, 0.30205240691367],
      "ImageType": [
        "ORIGINAL",
        "PRIMARY",
        "DIFFUSION",
        "NONE",
        "ND",
        "NORM"
],
      "ImagedNucleus": "1H",
      "ImagingFrequency": 123.252467,
      "InPlanePhaseEncodingDirection": "COL",
      "MRAcquisitionType": "2D",
      "MagneticFieldStrength": 3.0,
      "Manufacturer": "SIEMENS",
      "ManufacturerModelName": "Prisma",
      "Modality": "MR",
      "NumberOfAverages": 1.0,
      "NumberOfPhaseEncodingSteps": 122,
      "PercentPhaseFieldOfView": 100.0,
      "PercentSampling": 100.0,
      "PerformedProcedureStepStartTime": "100204.326000",
      "PhotometricInterpretation": "MONOCHROME2",
      "PixelBandwidth": 2050.0,
      "PixelRepresentation": 0,
      "PixelSpacing": [1.9672131538391, 1.9672131538391],
      "ProtocolName": "dwi_acq-DTI-30-p2-s4",
      "RepetitionTime": 3600.0,
      "Rows": 122,
      "SAR": 0.16141398783623,
      "SamplesPerPixel": 1,
      "ScanOptions": "FS",
      "ScanningSequence": "EP",
      "SequenceVariant": [
        "SK",
        "SP"
],
      "SeriesDescription": "dwi_acq-DTI-30-p2-s4",
      "SeriesNumber": 9,
      "SeriesTime": "102605.403000",
      "SliceThickness": 2.0,
      "SmallestImagePixelValue": 0,
      "SoftwareVersions": "syngo MR E11",
      "SpacingBetweenSlices": 2.0,
      "SpecificCharacterSet": "ISO_IR 100",
      "StudyID": "38",
      "StudyTime": "100204.238000",
      "TransmitCoilName": "Body",
      "VariableFlipAngleFlag": "N",
      "WindowCenterWidthExplanation": "Algo1",
      "dBdt": 0.0},
    "slices": {
      "AcquisitionTime": ["102556.475000", "102553.890000", "102555.680000", "102554.087500", "102555.877500", "102554.287500", "102556.077500", "102554.485000", "102556.275000", "102554.882500", "102556.672500", "102555.082500", "102556.872500", "102555.282500", "102557.072500", "102555.480000", "102557.270000", "102554.685000", "102556.475000", "102553.890000", "102555.680000", "102554.087500", "102555.877500", "102554.287500", "102556.077500", "102554.485000", "102556.275000", "102554.882500", "102556.672500", "102555.082500", "102556.872500", "102555.282500", "102557.072500", "102555.480000", "102557.270000", "102554.685000", "102556.475000", "102553.890000", "102555.680000", "102554.087500", "102555.877500", "102554.287500", "102556.077500", "102554.485000", "102556.275000", "102554.882500", "102556.672500", "102555.082500", "102556.872500", "102555.282500", "102557.072500", "102555.480000", "102557.270000", "102554.685000", "102556.475000", "102553.890000", "102555.680000", "102554.087500", "102555.877500", "102554.287500", "102556.077500", "102554.485000", "102556.275000", "102554.882500", "102556.672500", "102555.082500", "102556.872500", "102555.282500", "102557.072500", "102555.480000", "102557.270000", "102554.685000", "102600.075000", "102557.490000", "102559.280000", "102557.687500", "102559.477500", "102557.887500", "102559.677500", "102558.085000", "102559.875000", "102558.482500", "102600.272500", "102558.682500", "102600.472500", "102558.882500", "102600.672500", "102559.080000", "102600.870000", "102558.285000", "102600.075000", "102557.490000", "102559.280000", "102557.687500", "102559.477500", "102557.887500", "102559.677500", "102558.085000", "102559.875000", "102558.482500", "102600.272500", "102558.682500", "102600.472500", "102558.882500", "102600.672500", "102559.080000", "102600.870000", "102558.285000", "102600.075000", "102557.490000", "102559.280000", "102557.687500", "102559.477500", "102557.887500", "102559.677500", "102558.085000", "102559.875000", "102558.482500", "102600.272500", "102558.682500", "102600.472500", "102558.882500", "102600.672500", "102559.080000", "102600.870000", "102558.285000", "102600.075000", "102557.490000", "102559.280000", "102557.687500", "102559.477500", "102557.887500", "102559.677500", "102558.085000", "102559.875000", "102558.482500", "102600.272500", "102558.682500", "102600.472500", "102558.882500", "102600.672500", "102559.080000", "102600.870000", "102558.285000", "102603.675000", "102601.090000", "102602.880000", "102601.287500", "102603.077500", "102601.487500", "102603.277500", "102601.685000", "102603.475000", "102602.082500", "102603.872500", "102602.282500", "102604.072500", "102602.482500", "102604.272500", "102602.680000", "102604.470000", "102601.885000", "102603.675000", "102601.090000", "102602.880000", "102601.287500", "102603.077500", "102601.487500", "102603.277500", "102601.685000", "102603.475000", "102602.082500", "102603.872500", "102602.282500", "102604.072500", "102602.482500", "102604.272500", "102602.680000", "102604.470000", "102601.885000", "102603.675000", "102601.090000", "102602.880000", "102601.287500", "102603.077500", "102601.487500", "102603.277500", "102601.685000", "102603.475000", "102602.082500", "102603.872500", "102602.282500", "102604.072500", "102602.482500", "102604.272500", "102602.680000", "102604.470000", "102601.885000", "102603.675000", "102601.090000", "102602.880000", "102601.287500", "102603.077500", "102601.487500", "102603.277500", "102601.685000", "102603.475000", "102602.082500", "102603.872500", "102602.282500", "102604.072500", "102602.482500", "102604.272500", "102602.680000", "102604.470000", "102601.885000", "102607.275000", "102604.690000", "102606.480000", "102604.887500", "102606.677500", "102605.087500", "102606.877500", "102605.285000", "102607.075000", "102605.682500", "102607.472500", "102605.882500", "102607.672500", "102606.082500", "102607.872500", "102606.280000", "102608.070000", "102605.485000", "102607.275000", "102604.690000", "102606.480000", "102604.887500", "102606.677500", "102605.087500", "102606.877500", "102605.285000", "102607.075000", "102605.682500", "102607.472500", "102605.882500", "102607.672500", "102606.082500", "102607.872500", "102606.280000", "102608.070000", "102605.485000", "102607.275000", "102604.690000", "102606.480000", "102604.887500", "102606.677500", "102605.087500", "102606.877500", "102605.285000", "102607.075000", "102605.682500", "102607.472500", "102605.882500", "102607.672500", "102606.082500", "102607.872500", "102606.280000", "102608.070000", "102605.485000", "102607.275000", "102604.690000", "102606.480000", "102604.887500", "102606.677500", "102605.087500", "102606.877500", "102605.285000", "102607.075000", "102605.682500", "102607.472500", "102605.882500", "102607.672500", "102606.082500", "102607.872500", "102606.280000", "102608.070000", "102605.485000", "102610.875000", "102608.290000", "102610.080000", "102608.487500", "102610.277500", "102608.687500", "102610.477500", "102608.885000", "102610.675000", "102609.282500", "102611.072500", "102609.482500", "102611.272500", "102609.682500", "102611.472500", "102609.880000", "102611.670000", "102609.085000", "102610.875000", "102608.290000", "102610.080000", "102608.487500", "102610.277500", "102608.687500", "102610.477500", "102608.885000", "102610.675000", "102609.282500", "102611.072500", "102609.482500", "102611.272500", "102609.682500", "102611.472500", "102609.880000", "102611.670000", "102609.085000", "102610.875000", "102608.290000", "102610.080000", "102608.487500", "102610.277500", "102608.687500", "102610.477500", "102608.885000", "102610.675000", "102609.282500", "102611.072500", "102609.482500", "102611.272500", "102609.682500", "102611.472500", "102609.880000", "102611.670000", "102609.085000", "102610.875000", "102608.290000", "102610.080000", "102608.487500", "102610.277500", "102608.687500", "102610.477500", "102608.885000", "102610.675000", "102609.282500", "102611.072500", "102609.482500", "102611.272500", "102609.682500", "102611.472500", "102609.880000", "102611.670000", "102609.085000", "102614.475000", "102611.890000", "102613.680000", "102612.087500", "102613.877500", "102612.287500", "102614.077500", "102612.485000", "102614.275000", "102612.882500", "102614.672500", "102613.082500", "102614.872500", "102613.282500", "102615.072500", "102613.480000", "102615.270000", "102612.685000", "102614.475000", "102611.890000", "102613.680000", "102612.087500", "102613.877500", "102612.287500", "102614.077500", "102612.485000", "102614.275000", "102612.882500", "102614.672500", "102613.082500", "102614.872500", "102613.282500", "102615.072500", "102613.480000", "102615.270000", "102612.685000", "102614.475000", "102611.890000", "102613.680000", "102612.087500", "102613.877500", "102612.287500", "102614.077500", "102612.485000", "102614.275000", "102612.882500", "102614.672500", "102613.082500", "102614.872500", "102613.282500", "102615.072500", "102613.480000", "102615.270000", "102612.685000", "102614.475000", "102611.890000", "102613.680000", "102612.087500", "102613.877500", "102612.287500", "102614.077500", "102612.485000", "102614.275000", "102612.882500", "102614.672500", "102613.082500", "102614.872500", "102613.282500", "102615.072500", "102613.480000", "102615.270000", "102612.685000", "102618.075000", "102615.490000", "102617.280000", "102615.687500", "102617.477500", "102615.887500", "102617.677500", "102616.085000", "102617.875000", "102616.482500", "102618.272500", "102616.682500", "102618.472500", "102616.882500", "102618.672500", "102617.080000", "102618.870000", "102616.285000", "102618.075000", "102615.490000", "102617.280000", "102615.687500", "102617.477500", "102615.887500", "102617.677500", "102616.085000", "102617.875000", "102616.482500", "102618.272500", "102616.682500", "102618.472500", "102616.882500", "102618.672500", "102617.080000", "102618.870000", "102616.285000", "102618.075000", "102615.490000", "102617.280000", "102615.687500", "102617.477500", "102615.887500", "102617.677500", "102616.085000", "102617.875000", "102616.482500", "102618.272500", "102616.682500", "102618.472500", "102616.882500", "102618.672500", "102617.080000", "102618.870000", "102616.285000", "102618.075000", "102615.490000", "102617.280000", "102615.687500", "102617.477500", "102615.887500", "102617.677500", "102616.085000", "102617.875000", "102616.482500", "102618.272500", "102616.682500", "102618.472500", "102616.882500", "102618.672500", "102617.080000", "102618.870000", "102616.285000", "102621.675000", "102619.090000", "102620.880000", "102619.287500", "102621.077500", "102619.487500", "102621.277500", "102619.685000", "102621.475000", "102620.082500", "102621.872500", "102620.282500", "102622.072500", "102620.482500", "102622.272500", "102620.680000", "102622.470000", "102619.885000", "102621.675000", "102619.090000", "102620.880000", "102619.287500", "102621.077500", "102619.487500", "102621.277500", "102619.685000", "102621.475000", "102620.082500", "102621.872500", "102620.282500", "102622.072500", "102620.482500", "102622.272500", "102620.680000", "102622.470000", "102619.885000", "102621.675000", "102619.090000", "102620.880000", "102619.287500", "102621.077500", "102619.487500", "102621.277500", "102619.685000", "102621.475000", "102620.082500", "102621.872500", "102620.282500", "102622.072500", "102620.482500", "102622.272500", "102620.680000", "102622.470000", "102619.885000", "102621.675000", "102619.090000", "102620.880000", "102619.287500", "102621.077500", "102619.487500", "102621.277500", "102619.685000", "102621.475000", "102620.082500", "102621.872500", "102620.282500", "102622.072500", "102620.482500", "102622.272500", "102620.680000", "102622.470000", "102619.885000", "102625.275000", "102622.690000", "102624.480000", "102622.887500", "102624.677500", "102623.087500", "102624.877500", "102623.285000", "102625.075000", "102623.682500", "102625.472500", "102623.882500", "102625.672500", "102624.082500", "102625.872500", "102624.280000", "102626.070000", "102623.485000", "102625.275000", "102622.690000", "102624.480000", "102622.887500", "102624.677500", "102623.087500", "102624.877500", "102623.285000", "102625.075000", "102623.682500", "102625.472500", "102623.882500", "102625.672500", "102624.082500", "102625.872500", "102624.280000", "102626.070000", "102623.485000", "102625.275000", "102622.690000", "102624.480000", "102622.887500", "102624.677500", "102623.087500", "102624.877500", "102623.285000", "102625.075000", "102623.682500", "102625.472500", "102623.882500", "102625.672500", "102624.082500", "102625.872500", "102624.280000", "102626.070000", "102623.485000", "102625.275000", "102622.690000", "102624.480000", "102622.887500", "102624.677500", "102623.087500", "102624.877500", "102623.285000", "102625.075000", "102623.682500", "102625.472500", "102623.882500", "102625.672500", "102624.082500", "102625.872500", "102624.280000", "102626.070000", "102623.485000", "102628.875000", "102626.290000", "102628.080000", "102626.487500", "102628.277500", "102626.687500", "102628.477500", "102626.885000", "102628.675000", "102627.282500", "102629.072500", "102627.482500", "102629.272500", "102627.682500", "102629.472500", "102627.880000", "102629.670000", "102627.085000", "102628.875000", "102626.290000", "102628.080000", "102626.487500", "102628.277500", "102626.687500", "102628.477500", "102626.885000", "102628.675000", "102627.282500", "102629.072500", "102627.482500", "102629.272500", "102627.682500", "102629.472500", "102627.880000", "102629.670000", "102627.085000", "102628.875000", "102626.290000", "102628.080000", "102626.487500", "102628.277500", "102626.687500", "102628.477500", "102626.885000", "102628.675000", "102627.282500", "102629.072500", "102627.482500", "102629.272500", "102627.682500", "102629.472500", "102627.880000", "102629.670000", "102627.085000", "102628.875000", "102626.290000", "102628.080000", "102626.487500", "102628.277500", "102626.687500", "102628.477500", "102626.885000", "102628.675000", "102627.282500", "102629.072500", "102627.482500", "102629.272500", "102627.682500", "102629.472500", "102627.880000", "102629.670000", "102627.085000", "102632.475000", "102629.890000", "102631.680000", "102630.087500", "102631.877500", "102630.287500", "102632.077500", "102630.485000", "102632.275000", "102630.882500", "102632.672500", "102631.082500", "102632.872500", "102631.282500", "102633.072500", "102631.480000", "102633.270000", "102630.685000", "102632.475000", "102629.890000", "102631.680000", "102630.087500", "102631.877500", "102630.287500", "102632.077500", "102630.485000", "102632.275000", "102630.882500", "102632.672500", "102631.082500", "102632.872500", "102631.282500", "102633.072500", "102631.480000", "102633.270000", "102630.685000", "102632.475000", "102629.890000", "102631.680000", "102630.087500", "102631.877500", "102630.287500", "102632.077500", "102630.485000", "102632.275000", "102630.882500", "102632.672500", "102631.082500", "102632.872500", "102631.282500", "102633.072500", "102631.480000", "102633.270000", "102630.685000", "102632.475000", "102629.890000", "102631.680000", "102630.087500", "102631.877500", "102630.287500", "102632.077500", "102630.485000", "102632.275000", "102630.882500", "102632.672500", "102631.082500", "102632.872500", "102631.282500", "102633.072500", "102631.480000", "102633.270000", "102630.685000", "102636.075000", "102633.490000", "102635.280000", "102633.687500", "102635.477500", "102633.887500", "102635.677500", "102634.085000", "102635.875000", "102634.482500", "102636.272500", "102634.682500", "102636.472500", "102634.882500", "102636.672500", "102635.080000", "102636.870000", "102634.285000", "102636.075000", "102633.490000", "102635.280000", "102633.687500", "102635.477500", "102633.887500", "102635.677500", "102634.085000", "102635.875000", "102634.482500", "102636.272500", "102634.682500", "102636.472500", "102634.882500", "102636.672500", "102635.080000", "102636.870000", "102634.285000", "102636.075000", "102633.490000", "102635.280000", "102633.687500", "102635.477500", "102633.887500", "102635.677500", "102634.085000", "102635.875000", "102634.482500", "102636.272500", "102634.682500", "102636.472500", "102634.882500", "102636.672500", "102635.080000", "102636.870000", "102634.285000", "102636.075000", "102633.490000", "102635.280000", "102633.687500", "102635.477500", "102633.887500", "102635.677500", "102634.085000", "102635.875000", "102634.482500", "102636.272500", "102634.682500", "102636.472500", "102634.882500", "102636.672500", "102635.080000", "102636.870000", "102634.285000", "102639.675000", "102637.090000", "102638.880000", "102637.287500", "102639.077500", "102637.487500", "102639.277500", "102637.685000", "102639.475000", "102638.082500", "102639.872500", "102638.282500", "102640.072500", "102638.482500", "102640.272500", "102638.680000", "102640.470000", "102637.885000", "102639.675000", "102637.090000", "102638.880000", "102637.287500", "102639.077500", "102637.487500", "102639.277500", "102637.685000", "102639.475000", "102638.082500", "102639.872500", "102638.282500", "102640.072500", "102638.482500", "102640.272500", "102638.680000", "102640.470000", "102637.885000", "102639.675000", "102637.090000", "102638.880000", "102637.287500", "102639.077500", "102637.487500", "102639.277500", "102637.685000", "102639.475000", "102638.082500", "102639.872500", "102638.282500", "102640.072500", "102638.482500", "102640.272500", "102638.680000", "102640.470000", "102637.885000", "102639.675000", "102637.090000", "102638.880000", "102637.287500", "102639.077500", "102637.487500", "102639.277500", "102637.685000", "102639.475000", "102638.082500", "102639.872500", "102638.282500", "102640.072500", "102638.482500", "102640.272500", "102638.680000", "102640.470000", "102637.885000", "102643.275000", "102640.690000", "102642.480000", "102640.887500", "102642.677500", "102641.087500", "102642.877500", "102641.285000", "102643.075000", "102641.682500", "102643.472500", "102641.882500", "102643.672500", "102642.082500", "102643.872500", "102642.280000", "102644.070000", "102641.485000", "102643.275000", "102640.690000", "102642.480000", "102640.887500", "102642.677500", "102641.087500", "102642.877500", "102641.285000", "102643.075000", "102641.682500", "102643.472500", "102641.882500", "102643.672500", "102642.082500", "102643.872500", "102642.280000", "102644.070000", "102641.485000", "102643.275000", "102640.690000", "102642.480000", "102640.887500", "102642.677500", "102641.087500", "102642.877500", "102641.285000", "102643.075000", "102641.682500", "102643.472500", "102641.882500", "102643.672500", "102642.082500", "102643.872500", "102642.280000", "102644.070000", "102641.485000", "102643.275000", "102640.690000", "102642.480000", "102640.887500", "102642.677500", "102641.087500", "102642.877500", "102641.285000", "102643.075000", "102641.682500", "102643.472500", "102641.882500", "102643.672500", "102642.082500", "102643.872500", "102642.280000", "102644.070000", "102641.485000", "102646.875000", "102644.290000", "102646.080000", "102644.487500", "102646.277500", "102644.687500", "102646.477500", "102644.885000", "102646.675000", "102645.282500", "102647.072500", "102645.482500", "102647.272500", "102645.682500", "102647.472500", "102645.880000", "102647.670000", "102645.085000", "102646.875000", "102644.290000", "102646.080000", "102644.487500", "102646.277500", "102644.687500", "102646.477500", "102644.885000", "102646.675000", "102645.282500", "102647.072500", "102645.482500", "102647.272500", "102645.682500", "102647.472500", "102645.880000", "102647.670000", "102645.085000", "102646.875000", "102644.290000", "102646.080000", "102644.487500", "102646.277500", "102644.687500", "102646.477500", "102644.885000", "102646.675000", "102645.282500", "102647.072500", "102645.482500", "102647.272500", "102645.682500", "102647.472500", "102645.880000", "102647.670000", "102645.085000", "102646.875000", "102644.290000", "102646.080000", "102644.487500", "102646.277500", "102644.687500", "102646.477500", "102644.885000", "102646.675000", "102645.282500", "102647.072500", "102645.482500", "102647.272500", "102645.682500", "102647.472500", "102645.880000", "102647.670000", "102645.085000", "102650.475000", "102647.890000", "102649.680000", "102648.087500", "102649.877500", "102648.287500", "102650.077500", "102648.485000", "102650.275000", "102648.882500", "102650.672500", "102649.082500", "102650.872500", "102649.282500", "102651.072500", "102649.480000", "102651.270000", "102648.685000", "102650.475000", "102647.890000", "102649.680000", "102648.087500", "102649.877500", "102648.287500", "102650.077500", "102648.485000", "102650.275000", "102648.882500", "102650.672500", "102649.082500", "102650.872500", "102649.282500", "102651.072500", "102649.480000", "102651.270000", "102648.685000", "102650.475000", "102647.890000", "102649.680000", "102648.087500", "102649.877500", "102648.287500", "102650.077500", "102648.485000", "102650.275000", "102648.882500", "102650.672500", "102649.082500", "102650.872500", "102649.282500", "102651.072500", "102649.480000", "102651.270000", "102648.685000", "102650.475000", "102647.890000", "102649.680000", "102648.087500", "102649.877500", "102648.287500", "102650.077500", "102648.485000", "102650.275000", "102648.882500", "102650.672500", "102649.082500", "102650.872500", "102649.282500", "102651.072500", "102649.480000", "102651.270000", "102648.685000", "102654.075000", "102651.490000", "102653.280000", "102651.687500", "102653.477500", "102651.887500", "102653.677500", "102652.085000", "102653.875000", "102652.482500", "102654.272500", "102652.682500", "102654.472500", "102652.882500", "102654.672500", "102653.080000", "102654.870000", "102652.285000", "102654.075000", "102651.490000", "102653.280000", "102651.687500", "102653.477500", "102651.887500", "102653.677500", "102652.085000", "102653.875000", "102652.482500", "102654.272500", "102652.682500", "102654.472500", "102652.882500", "102654.672500", "102653.080000", "102654.870000", "102652.285000", "102654.075000", "102651.490000", "102653.280000", "102651.687500", "102653.477500", "102651.887500", "102653.677500", "102652.085000", "102653.875000", "102652.482500", "102654.272500", "102652.682500", "102654.472500", "102652.882500", "102654.672500", "102653.080000", "102654.870000", "102652.285000", "102654.075000", "102651.490000", "102653.280000", "102651.687500", "102653.477500", "102651.887500", "102653.677500", "102652.085000", "102653.875000", "102652.482500", "102654.272500", "102652.682500", "102654.472500", "102652.882500", "102654.672500", "102653.080000", "102654.870000", "102652.285000", "102657.675000", "102655.090000", "102656.880000", "102655.287500", "102657.077500", "102655.487500", "102657.277500", "102655.685000", "102657.475000", "102656.082500", "102657.872500", "102656.282500", "102658.072500", "102656.482500", "102658.272500", "102656.680000", "102658.470000", "102655.885000", "102657.675000", "102655.090000", "102656.880000", "102655.287500", "102657.077500", "102655.487500", "102657.277500", "102655.685000", "102657.475000", "102656.082500", "102657.872500", "102656.282500", "102658.072500", "102656.482500", "102658.272500", "102656.680000", "102658.470000", "102655.885000", "102657.675000", "102655.090000", "102656.880000", "102655.287500", "102657.077500", "102655.487500", "102657.277500", "102655.685000", "102657.475000", "102656.082500", "102657.872500", "102656.282500", "102658.072500", "102656.482500", "102658.272500", "102656.680000", "102658.470000", "102655.885000", "102657.675000", "102655.090000", "102656.880000", "102655.287500", "102657.077500", "102655.487500", "102657.277500", "102655.685000", "102657.475000", "102656.082500", "102657.872500", "102656.282500", "102658.072500", "102656.482500", "102658.272500", "102656.680000", "102658.470000", "102655.885000", "102701.275000", "102658.690000", "102700.480000", "102658.887500", "102700.677500", "102659.087500", "102700.877500", "102659.285000", "102701.075000", "102659.682500", "102701.472500", "102659.882500", "102701.672500", "102700.082500", "102701.872500", "102700.280000", "102702.070000", "102659.485000", "102701.275000", "102658.690000", "102700.480000", "102658.887500", "102700.677500", "102659.087500", "102700.877500", "102659.285000", "102701.075000", "102659.682500", "102701.472500", "102659.882500", "102701.672500", "102700.082500", "102701.872500", "102700.280000", "102702.070000", "102659.485000", "102701.275000", "102658.690000", "102700.480000", "102658.887500", "102700.677500", "102659.087500", "102700.877500", "102659.285000", "102701.075000", "102659.682500", "102701.472500", "102659.882500", "102701.672500", "102700.082500", "102701.872500", "102700.280000", "102702.070000", "102659.485000", "102701.275000", "102658.690000", "102700.480000", "102658.887500", "102700.677500", "102659.087500", "102700.877500", "102659.285000", "102701.075000", "102659.682500", "102701.472500", "102659.882500", "102701.672500", "102700.082500", "102701.872500", "102700.280000", "102702.070000", "102659.485000", "102704.875000", "102702.290000", "102704.080000", "102702.487500", "102704.277500", "102702.687500", "102704.477500", "102702.885000", "102704.675000", "102703.282500", "102705.072500", "102703.482500", "102705.272500", "102703.682500", "102705.472500", "102703.880000", "102705.670000", "102703.085000", "102704.875000", "102702.290000", "102704.080000", "102702.487500", "102704.277500", "102702.687500", "102704.477500", "102702.885000", "102704.675000", "102703.282500", "102705.072500", "102703.482500", "102705.272500", "102703.682500", "102705.472500", "102703.880000", "102705.670000", "102703.085000", "102704.875000", "102702.290000", "102704.080000", "102702.487500", "102704.277500", "102702.687500", "102704.477500", "102702.885000", "102704.675000", "102703.282500", "102705.072500", "102703.482500", "102705.272500", "102703.682500", "102705.472500", "102703.880000", "102705.670000", "102703.085000", "102704.875000", "102702.290000", "102704.080000", "102702.487500", "102704.277500", "102702.687500", "102704.477500", "102702.885000", "102704.675000", "102703.282500", "102705.072500"