{
  "AcquisitionMatrixPE": 122,
  "AcquisitionNumber": 1,
  "AcquisitionTime": "10:42:53.060000",
  "BandwidthPerPixelPhaseEncode": 28.76,
  "BaseResolution": 122,
  "BodyPartExamined": "BRAIN",
  "CoilCombinationMethod": "Adaptive Combine",
  "ConsistencyInfo": "N4_VE11C_LATEST_20160120",
  "ConversionSoftware": "dcm2niix",
  "ConversionSoftwareVersion": "v1.0.20220720",
  "DerivedVendorReportedEchoSpacing": 0.000570008,
  "DeviceSerialNumber": "66112",
  "DiffusionScheme": "Monopolar",
  "DwellTime": 2e-06,
  "EchoTime": 0.075,
  "EchoTrainLength": 61,
  "EffectiveEchoSpacing": 0.000285004,
  "FlipAngle": 90,
  "HeudiconvVersion": "0.13.1",
  "ImageOrientationPatientDICOM": [0.999971, 0.00639516, 0.00421794, -0.00733031, 0.958727, 0.284235],
  "ImageOrientationText": "Tra>Cor(16.5)>Sag(0.1)",
  "ImageType": [
    "ORIGINAL",
    "PRIMARY",
    "DIFFUSION",
    "NONE",
    "ND",
    "NORM"
],
  "ImagingFrequency": 123.252,
  "InPlanePhaseEncodingDirectionDICOM": "COL",
  "InstitutionAddress": "Maynard 3,Hanover,NH,US,03755",
  "InstitutionName": "Dartmouth College - PBS",
  "InstitutionalDepartmentName": "Department",
  "MRAcquisitionType": "2D",
  "MagneticFieldStrength": 3,
  "Manufacturer": "Siemens",
  "ManufacturersModelName": "Prisma",
  "MatrixCoilMode": "GRAPPA",
  "Modality": "MR",
  "NonlinearGradientCorrection": false,
  "ParallelReductionFactorInPlane": 2,
  "PartialFourier": 1,
  "PatientPosition": "HFS",
  "PercentPhaseFOV": 100,
  "PercentSampling": 100,
  "PhaseEncodingDirection": "j-",
  "PhaseEncodingSteps": 122,
  "PhaseResolution": 1,
  "PixelBandwidth": 2050,
  "ProcedureStepDescription": "dbic^QA",
  "ProtocolName": "dwi_acq-DTI-30-p2",
  "PulseSequenceDetails": "%SiemensSeq%\\ep2d_diff",
  "ReceiveCoilActiveElements": "HEA;HEP",
  "ReceiveCoilName": "Head_32",
  "ReconMatrixPE": 122,
  "RefLinesPE": 38,
  "RepetitionTime": 7.7,
  "SAR": 0.0868867,
  "ScanOptions": "FS",
  "ScanningSequence": "EP",
  "SequenceName": "*ep_b0",
  "SequenceVariant": "SK\\SP",
  "SeriesDescription": "dwi_acq-DTI-30-p2",
  "SeriesNumber": 16,
  "ShimSetting": [4142, -7699, -7518, 297, -88, -152, -50, 62],
  "SliceThickness": 2,
  "SliceTiming": [3.84375, 0, 3.95312, 0.10938, 4.0625, 0.21875, 4.17188, 0.32812, 4.28125, 0.4375, 4.39062, 0.55469, 4.5, 0.66406, 4.60938, 0.77344, 4.71875, 0.88281, 4.82812, 0.99219, 4.9375, 1.10156, 5.04688, 1.21094, 5.15625, 1.32031, 5.26562, 1.42969, 5.375, 1.53906, 5.49219, 1.64844, 5.60156, 1.75781, 5.70312, 1.86719, 5.8125, 1.97656, 5.92969, 2.08594, 6.03906, 2.19531, 6.14844, 2.30469, 6.25781, 2.41406, 6.36719, 2.52344, 6.47656, 2.63281, 6.58594, 2.75, 6.69531, 2.85156, 6.80469, 2.96094, 6.91406, 3.07031, 7.02344, 3.1875, 7.13281, 3.29688, 7.24219, 3.40625, 7.35156, 3.51562, 7.46094, 3.625, 7.57031, 3.73438],
  "SoftwareVersions": "syngo MR E11",
  "SpacingBetweenSlices": 2,
  "SpoilingState": true,
  "StationName": "AWP66112",
  "TotalReadoutTime": 0.0344855,
  "TxRefAmp": 224.363,
  "dcmmeta_affine": [
    [-1.9671554565429688, -0.014420286752283573, 0.004452228546142578, 121.19456481933594],
    [-0.012580648064613342, 1.8860197067260742, 0.5685138702392578, -129.563232421875],
    [0.008297578431665897, -0.5591503977775574, 1.9174880981445312, -45.09810256958008],
    [0.0, 0.0, 0.0, 1.0]
],
  "dcmmeta_reorient_transform": [
    [0.0, -1.0, 0.0, 121.0],
    [1.0, 0.0, 0.0, 0.0],
    [0.0, 0.0, -1.0, 69.0],
    [0.0, 0.0, 0.0, 1.0]
],
  "dcmmeta_shape": [122, 122, 70, 31],
  "dcmmeta_slice_dim": 2,
  "dcmmeta_version": 0.6,
  "global": {
    "const": {
      "AccessionNumber": "qa",
      "AcquisitionMatrix": [122, 0, 0, 122],
      "AngioFlag": "N",
      "BitsAllocated": 16,
      "BitsStored": 12,
      "BodyPartExamined": "BRAIN",
      "Columns": 122,
      "EchoNumbers": 1,
      "EchoTime": 75.0,
      "EchoTrainLength": 61,
      "FlipAngle": 90.0,
      "HighBit": 11,
      "ImageOrientationPatient": [0.9999706550265, 0.00639516247893, 0.00421793583977, -0.0073303120857, 0.95872668624634, 0.28423477550055],
      "ImageType": [
        "ORIGINAL",
        "PRIMARY",
        "DIFFUSION",
        "NONE",
        "ND",
        "NORM"
],
      "ImagedNucleus": "1H",
      "ImagingFrequency": 123.252354,
      "InPlanePhaseEncodingDirection": "COL",
      "MRAcquisitionType": "2D",
      "MagneticFieldStrength": 3.0,
      "Manufacturer": "SIEMENS",
      "ManufacturerModelName": "Prisma",
      "Modality": "MR",
      "NumberOfAverages": 1.0,
      "NumberOfPhaseEncodingSteps": 122,
      "PercentPhaseFieldOfView": 100.0,
      "PercentSampling": 100.0,
      "PerformedProcedureStepStartTime": "100104.609000",
      "PhotometricInterpretation": "MONOCHROME2",
      "PixelBandwidth": 2050.0,
      "PixelRepresentation": 0,
      "PixelSpacing": [1.9672131538391, 1.9672131538391],
      "ProtocolName": "dwi_acq-DTI-30-p2",
      "RepetitionTime": 7700.0,
      "Rows": 122,
      "SAR": 0.08688673919614,
      "SamplesPerPixel": 1,
      "ScanOptions": "FS",
      "ScanningSequence": "EP",
      "SequenceVariant": [
        "SK",
        "SP"
],
      "SeriesDescription": "dwi_acq-DTI-30-p2",
      "SeriesNumber": 16,
      "SeriesTime": "104307.340000",
      "SliceThickness": 2.0,
      "SmallestImagePixelValue": 0,
      "SoftwareVersions": "syngo MR E11",
      "SpacingBetweenSlices": 2.0,
      "SpecificCharacterSet": "ISO_IR 100",
      "StudyID": "56",
      "StudyTime": "100104.552000",
      "TransmitCoilName": "Body",
      "VariableFlipAngleFlag": "N",
      "WindowCenterWidthExplanation": "Algo1",
      "dBdt": 0.0},
    "slices": {
      "AcquisitionTime": ["104253.060000", "104249.220000", "104253.170000", "104249.330000", "104253.280000", "104249.440000", "104253.390000", "104249.550000", "104253.500000", "104249.660000", "104253.610000", "104249.770000", "104253.720000", "104249.880000", "104253.830000", "104249.990000", "104253.937500", "104250.100000", "104254.047500", "104250.207500", "104254.157500", "104250.317500", "104254.267500", "104250.427500", "104254.377500", "104250.537500", "104254.487500", "104250.647500", "104254.597500", "104250.757500", "104254.707500", "104250.867500", "104254.817500", "104250.977500", "104254.925000", "104251.085000", "104255.035000", "104251.195000", "104255.145000", "104251.305000", "104255.255000", "104251.415000", "104255.365000", "104251.525000", "104255.475000", "104251.635000", "104255.585000", "104251.745000", "104255.695000", "104251.855000", "104255.802500", "104251.965000", "104255.912500", "104252.072500", "104256.022500", "104252.182500", "104256.132500", "104252.292500", "104256.242500", "104252.402500", "104256.352500", "104252.512500", "104256.462500", "104252.622500", "104256.572500", "104252.732500", "104256.682500", "104252.842500", "104256.790000", "104252.950000", "104300.760000", "104256.920000", "104300.870000", "104257.030000", "104300.980000", "104257.140000", "104301.090000", "104257.250000", "104301.200000", "104257.360000", "104301.310000", "104257.470000", "104301.420000", "104257.580000", "104301.530000", "104257.690000", "104301.637500", "104257.800000", "104301.747500", "104257.907500", "104301.857500", "104258.017500", "104301.967500", "104258.127500", "104302.077500", "104258.237500", "104302.187500", "104258.347500", "104302.297500", "104258.457500", "104302.407500", "104258.567500", "104302.517500", "104258.677500", "104302.625000", "104258.785000", "104302.735000", "104258.895000", "104302.845000", "104259.005000", "104302.955000", "104259.115000", "104303.065000", "104259.225000", "104303.175000", "104259.335000", "104303.285000", "104259.445000", "104303.395000", "104259.555000", "104303.502500", "104259.665000", "104303.612500", "104259.772500", "104303.722500", "104259.882500", "104303.832500", "104259.992500", "104303.942500", "104300.102500", "104304.052500", "104300.212500", "104304.162500", "104300.322500", "104304.272500", "104300.432500", "104304.382500", "104300.542500", "104304.490000", "104300.650000", "104308.460000", "104304.620000", "104308.570000", "104304.730000", "104308.680000", "104304.840000", "104308.790000", "104304.950000", "104308.900000", "104305.060000", "104309.010000", "104305.170000", "104309.120000", "104305.280000", "104309.230000", "104305.390000", "104309.337500", "104305.500000", "104309.447500", "104305.607500", "104309.557500", "104305.717500", "104309.667500", "104305.827500", "104309.777500", "104305.937500", "104309.887500", "104306.047500", "104309.997500", "104306.157500", "104310.107500", "104306.267500", "104310.217500", "104306.377500", "104310.325000", "104306.485000", "104310.435000", "104306.595000", "104310.545000", "104306.705000", "104310.655000", "104306.815000", "104310.765000", "104306.925000", "104310.875000", "104307.035000", "104310.985000", "104307.145000", "104311.095000", "104307.255000", "104311.202500", "104307.365000", "104311.312500", "104307.472500", "104311.422500", "104307.582500", "104311.532500", "104307.692500", "104311.642500", "104307.802500", "104311.752500", "104307.912500", "104311.862500", "104308.022500", "104311.972500", "104308.132500", "104312.082500", "104308.242500", "104312.190000", "104308.350000", "104316.160000", "104312.320000", "104316.270000", "104312.430000", "104316.380000", "104312.540000", "104316.490000", "104312.650000", "104316.600000", "104312.760000", "104316.710000", "104312.870000", "104316.820000", "104312.980000", "104316.930000", "104313.090000", "104317.037500", "104313.200000", "104317.147500", "104313.307500", "104317.257500", "104313.417500", "104317.367500", "104313.527500", "104317.477500", "104313.637500", "104317.587500", "104313.747500", "104317.697500", "104313.857500", "104317.807500", "104313.967500", "104317.917500", "104314.077500", "104318.025000", "104314.185000", "104318.135000", "104314.295000", "104318.245000", "104314.405000", "104318.355000", "104314.515000", "104318.465000", "104314.625000", "104318.575000", "104314.735000", "104318.685000", "104314.845000", "104318.795000", "104314.955000", "104318.902500", "104315.065000", "104319.012500", "104315.172500", "104319.122500", "104315.282500", "104319.232500", "104315.392500", "104319.342500", "104315.502500", "104319.452500", "104315.612500", "104319.562500", "104315.722500", "104319.672500", "104315.832500", "104319.782500", "104315.942500", "104319.890000", "104316.050000", "104323.860000", "104320.020000", "104323.970000", "104320.130000", "104324.080000", "104320.240000", "104324.190000", "104320.350000", "104324.300000", "104320.460000", "104324.410000", "104320.570000", "104324.520000", "104320.680000", "104324.630000", "104320.790000", "104324.737500", "104320.900000", "104324.847500", "104321.007500", "104324.957500", "104321.117500", "104325.067500", "104321.227500", "104325.177500", "104321.337500", "104325.287500", "104321.447500", "104325.397500", "104321.557500", "104325.507500", "104321.667500", "104325.617500", "104321.777500", "104325.725000", "104321.885000", "104325.835000", "104321.995000", "104325.945000", "104322.105000", "104326.055000", "104322.215000", "104326.165000", "104322.325000", "104326.275000", "104322.435000", "104326.385000", "104322.545000", "104326.495000", "104322.655000", "104326.602500", "104322.765000", "104326.712500", "104322.872500", "104326.822500", "104322.982500", "104326.932500", "104323.092500", "104327.042500", "104323.202500", "104327.152500", "104323.312500", "104327.262500", "104323.422500", "104327.372500", "104323.532500", "104327.482500", "104323.642500", "104327.590000", "104323.750000", "104331.560000", "104327.720000", "104331.670000", "104327.830000", "104331.780000", "104327.940000", "104331.890000", "104328.050000", "104332.000000", "104328.160000", "104332.110000", "104328.270000", "104332.220000", "104328.380000", "104332.330000", "104328.490000", "104332.437500", "104328.600000", "104332.547500", "104328.707500", "104332.657500", "104328.817500", "104332.767500", "104328.927500", "104332.877500", "104329.037500", "104332.987500", "104329.147500", "104333.097500", "104329.257500", "104333.207500", "104329.367500", "104333.317500", "104329.477500", "104333.425000", "104329.585000", "104333.535000", "104329.695000", "104333.645000", "104329.805000", "104333.755000", "104329.915000", "104333.865000", "104330.025000", "104333.975000", "104330.135000", "104334.085000", "104330.245000", "104334.195000", "104330.355000", "104334.302500", "104330.465000", "104334.412500", "104330.572500", "104334.522500", "104330.682500", "104334.632500", "104330.792500", "104334.742500", "104330.902500", "104334.852500", "104331.012500", "104334.962500", "104331.122500", "104335.072500", "104331.232500", "104335.182500", "104331.342500", "104335.290000", "104331.450000", "104339.260000", "104335.420000", "104339.370000", "104335.530000", "104339.480000", "104335.640000", "104339.590000", "104335.750000", "104339.700000", "104335.860000", "104339.810000", "104335.970000", "104339.920000", "104336.080000", "104340.030000", "104336.190000", "104340.137500", "104336.300000", "104340.247500", "104336.407500", "104340.357500", "104336.517500", "104340.467500", "104336.627500", "104340.577500", "104336.737500", "104340.687500", "104336.847500", "104340.797500", "104336.957500", "104340.907500", "104337.067500", "104341.017500", "104337.177500", "104341.125000", "104337.285000", "104341.235000", "104337.395000", "104341.345000", "104337.505000", "104341.455000", "104337.615000", "104341.565000", "104337.725000", "104341.675000", "104337.835000", "104341.785000", "104337.945000", "104341.895000", "104338.055000", "104342.002500", "104338.165000", "104342.112500", "104338.272500", "104342.222500", "104338.382500", "104342.332500", "104338.492500", "104342.442500", "104338.602500", "104342.552500", "104338.712500", "104342.662500", "104338.822500", "104342.772500", "104338.932500", "104342.882500", "104339.042500", "104342.990000", "104339.150000", "104346.960000", "104343.120000", "104347.070000", "104343.230000", "104347.180000", "104343.340000", "104347.290000", "104343.450000", "104347.400000", "104343.560000", "104347.510000", "104343.670000", "104347.620000", "104343.780000", "104347.730000", "104343.890000", "104347.837500", "104344.000000", "104347.947500", "104344.107500", "104348.057500", "104344.217500", "104348.167500", "104344.327500", "104348.277500", "104344.437500", "104348.387500", "104344.547500", "104348.497500", "104344.657500", "104348.607500", "104344.767500", "104348.717500", "104344.877500", "104348.825000", "104344.985000", "104348.935000", "104345.095000", "104349.045000", "104345.205000", "104349.155000", "104345.315000", "104349.265000", "104345.425000", "104349.375000", "104345.535000", "104349.485000", "104345.645000", "104349.595000", "104345.755000", "104349.702500", "104345.865000", "104349.812500", "104345.972500", "104349.922500", "104346.082500", "104350.032500", "104346.192500", "104350.142500", "104346.302500", "104350.252500", "104346.412500", "104350.362500", "104346.522500", "104350.472500", "104346.632500", "104350.582500", "104346.742500", "104350.690000", "104346.850000", "104354.660000", "104350.820000", "104354.770000", "104350.930000", "104354.880000", "104351.040000", "104354.990000", "104351.150000", "104355.100000", "104351.260000", "104355.210000", "104351.370000", "104355.320000", "104351.480000", "104355.430000", "104351.590000", "104355.537500", "104351.700000", "104355.647500", "104351.807500", "104355.757500", "104351.917500", "104355.867500", "104352.027500", "104355.977500", "104352.137500", "104356.087500", "104352.247500", "104356.197500", "104352.357500", "104356.307500", "104352.467500", "104356.417500", "104352.577500", "104356.525000", "104352.685000", "104356.635000", "104352.795000", "104356.745000", "104352.905000", "104356.855000", "104353.015000", "104356.965000", "104353.125000", "104357.075000", "104353.235000", "104357.185000", "104353.345000", "104357.295000", "104353.455000", "104357.402500", "104353.565000", "104357.512500", "104353.672500", "104357.622500", "104353.782500", "104357.732500", "104353.892500", "104357.842500", "104354.002500", "104357.952500", "104354.112500", "104358.062500", "104354.222500", "104358.172500", "104354.332500", "104358.282500", "104354.442500", "104358.390000", "104354.550000", "104402.360000", "104358.520000", "104402.470000", "104358.630000", "104402.580000", "104358.740000", "104402.690000", "104358.850000", "104402.800000", "104358.960000", "104402.910000", "104359.070000", "104403.020000", "104359.180000", "104403.130000", "104359.290000", "104403.237500", "104359.400000", "104403.347500", "104359.507500", "104403.457500", "104359.617500", "104403.567500", "104359.727500", "104403.677500", "104359.837500", "104403.787500", "104359.947500", "104403.897500", "104400.057500", "104404.007500", "104400.167500", "104404.117500", "104400.277500", "104404.225000", "104400.385000", "104404.335000", "104400.495000", "104404.445000", "104400.605000", "104404.555000", "104400.715000", "104404.665000", "104400.825000", "104404.775000", "104400.935000", "104404.885000", "104401.045000", "104404.995000", "104401.155000", "104405.102500", "104401.265000", "104405.212500", "104401.372500", "104405.322500", "104401.482500", "104405.432500", "104401.592500", "104405.542500", "104401.702500", "104405.652500", "104401.812500", "104405.762500", "104401.922500", "104405.872500", "104402.032500", "104405.982500", "104402.142500", "104406.090000", "104402.250000", "104410.060000", "104406.220000", "104410.170000", "104406.330000", "104410.280000", "104406.440000", "104410.390000", "104406.550000", "104410.500000", "104406.660000", "104410.610000", "104406.770000", "104410.720000", "104406.880000", "104410.830000", "104406.990000", "104410.937500", "104407.100000", "104411.047500", "104407.207500", "104411.157500", "104407.317500", "104411.267500", "104407.427500", "104411.377500", "104407.537500", "104411.487500", "104407.647500", "104411.597500", "104407.757500", "104411.707500", "104407.867500", "104411.817500", "104407.977500", "104411.925000", "104408.085000", "104412.035000", "104408.195000", "104412.145000", "104408.305000", "104412.255000", "104408.415000", "104412.365000", "104408.525000", "104412.475000", "104408.635000", "104412.585000", "104408.745000", "104412.695000", "104408.855000", "104412.802500", "104408.965000", "104412.912500", "104409.072500", "104413.022500", "104409.182500", "104413.132500", "104409.292500", "104413.242500", "104409.402500", "104413.352500", "104409.512500", "104413.462500", "104409.622500", "104413.572500", "104409.732500", "104413.682500", "104409.842500", "104413.790000", "104409.950000", "104417.760000", "104413.920000", "104417.870000", "104414.030000", "104417.980000", "104414.140000", "104418.090000", "104414.250000", "104418.200000", "104414.360000", "104418.310000", "104414.470000", "104418.420000", "104414.580000", "104418.530000", "104414.690000", "104418.637500", "104414.800000", "104418.747500", "104414.907500", "104418.857500", "104415.017500", "104418.967500", "104415.127500", "104419.077500", "104415.237500", "104419.187500", "104415.347500", "104419.297500", "104415.457500", "104419.407500", "104415.567500", "104419.517500", "104415.677500", "104419.625000", "104415.785000", "104419.735000", "104415.895000", "104419.845000", "104416.005000", "104419.955000", "104416.115000", "104420.065000", "104416.225000", "104420.175000", "104416.335000", "104420.285000", "104416.445000", "104420.395000", "104416.555000", "104420.502500", "104416.665000", "104420.612500", "104416.772500", "104420.722500", "104416.882500", "104420.832500", "104416.992500", "104420.942500", "104417.102500", "104421.052500", "104417.212500", "104421.162500", "104417.322500", "104421.272500", "104417.432500", "104421.382500", "104417.542500", "104421.490000", "104417.650000", "104425.460000", "104421.620000", "104425.570000", "104421.730000", "104425.680000", "104421.840000", "104425.790000", "104421.950000", "104425.900000", "104422.060000", "104426.010000", "104422.170000", "104426.120000", "104422.280000", "104426.230000", "104422.390000", "104426.337500", "104422.500000", "104426.447500", "104422.607500", "104426.557500", "104422.717500", "104426.667500", "104422.827500", "104426.777500", "104422.937500", "104426.887500", "104423.047500", "104426.997500", "104423.157500", "104427.107500", "104423.267500", "104427.217500", "104423.377500", "104427.325000", "104423.485000", "104427.435000", "104423.595000", "104427.545000", "104423.705000", "104427.655000", "104423.815000", "104427.765000", "104423.925000", "104427.875000", "104424.035000", "104427.985000", "104424.145000", "104428.095000", "104424.255000", "104428.202500", "104424.365000", "104428.312500", "104424.472500", "104428.422500", "104424.582500", "104428.532500", "104424.692500", "104428.642500", "104424.802500", "104428.752500", "104424.912500", "104428.862500", "104425.022500", "104428.972500", "104425.132500", "104429.082500", "104425.242500", "104429.190000", "104425.350000", "104433.160000", "104429.320000", "104433.270000", "104429.430000", "104433.380000", "104429.540000", "104433.490000", "104429.650000", "104433.600000", "104429.760000", "104433.710000", "104429.870000", "104433.820000", "104429.980000", "104433.930000", "104430.090000", "104434.037500", "104430.200000", "104434.147500", "104430.307500", "104434.257500", "104430.417500", "104434.367500", "104430.527500", "104434.477500", "104430.637500", "104434.587500", "104430.747500", "104434.697500", "104430.857500", "104434.807500", "104430.967500", "104434.917500", "104431.077500", "104435.025000", "104431.185000", "104435.135000", "104431.295000", "104435.245000", "104431.405000", "104435.355000", "104431.515000", "104435.465000", "104431.625000", "104435.575000", "104431.735000", "104435.685000", "104431.845000", "104435.795000", "104431.955000", "104435.902500", "104432.065000", "104436.012500", "104432.172500", "104436.122500", "104432.282500", "104436.232500", "104432.392500", "104436.342500", "104432.502500", "104436.452500", "104432.612500", "104436.562500", "104432.722500", "104436.672500", "104432.832500", "104436.782500", "104432.942500", "104436.890000", "104433.050000", "104440.860000", "104437.020000", "104440.970000", "104437.130000", "104441.080000", "104437.240000", "104441.190000", "104437.350000", "104441.300000", "104437.460000", "104441.410000", "104437.570000", "104441.520000", "104437.680000", "104441.630000", "104437.790000", "104441.737500", "104437.900000", "104441.847500", "104438.007500", "104441.957500", "104438.117500", "104442.067500", "104438.227500", "104442.177500", "104438.337500", "104442.287500", "104438.447500", "104442.397500", "104438.557500", "104442.507500", "104438.667500", "104442.617500", "104438.777500", "104442.725000", "104438.885000", "104442.835000", "104438.995000", "104442.945000", "104439.105000", "104443.055000", "104439.215000", "104443.165000", "104439.325000", "104443.275000", "104439.435000", "104443.385000", "104439.545000", "104443.495000", "104439.655000", "104443.602500", "104439.765000", "104443.712500", "104439.872500", "104443.822500", "104439.982500", "104443.932500", "104440.092500", "104444.042500", "104440.202500", "104444.152500", "104440.312500", "104444.262500", "104440.422500", "104444.372500", "104440.532500", "104444.482500", "104440.642500", "104444.590000", "104440.750000", "104448.560000", "104444.720000", "104448.670000", "104444.830000", "104448.780000", "104444.940000", "104448.890000", "104445.050000", "104449.000000", "104445.160000", "104449.110000", "104445.270000", "104449.220000", "104445.380000", "104449.330000", "104445.490000", "104449.437500", "104445.600000", "104449.547500", "104445.707500", "104449.657500", "104445.817500", "104449.767500", "104445.927500", "104449.877500", "104446.037500", "104449.987500", "104446.147500", "104450.097500", "104446.257500", "104450.207500", "104446.367500", "104450.317500", "104446.477500", "104450.425000", "104446.585000", "104450.535000", "104446.695000", "104450.645000", "104446.805000", "104450.755000", "104446.915000", "104450.865000", "104447.025000", "104450.975000", "104447.135000", "104451.085000", "104447.245000", "104451.195000", "104447.355000", "104451.302500", "104447.465000", "104451.412500", "104447.572500", "104451.522500", "104447.682500", "104451.632500", "104447.792500", "104451.742500", "104447.902500", "104451.852500", "104448.012500", "104451.962500", "104448.122500", "104452.072500", "104448.232500", "104452.182500", "104448.342500", "104452.290000", "104448.450000", "104456.260000", "104452.420000", "104456.370000", "104452.530000", "104456.480000", "104452.640000", "104456.590000", "104452.750000", "104456.700000", "104452.860000", "104456.810000", "104452.970000", "104456.920000", "104453.080000", "104457.030000", "104453.190000", "104457.137500", "104453.300000", "104457.247500", "104453.407500", "104457.357500", "104453.517500", "104457.467500", "104453.627500", "104457.577500", "104453.737500", "104457.687500", "104453.847500", "104457.797500", "104453.957500", "104457.907500", "104454.067500", "104458.017500", "104454.177500", "104458.125000", "104454.285000", "104458.235000", "104454.395000", "104458.345000", "104454.505000", "104458.455000", "104454.615000", "104458.565000", "104454.725000", "104458.675000", "104454.835000", "104458.785000", "104454.945000", "104458.895000", "104455.055000", "104459.002500", "104455.165000", "104459.112500", "104455.272500", "104459.222500", "104455.382500", "104459.332500", "104455.492500", "104459.442500", "104455.602500", "104459.552500", "104455.712500", "104459.662500", "104455.822500", "104459.772500", "104455.932500", "104459.882500", "104456.042500", "104459.990000", "104456.150000", "104503.960000", "104500.120000", "104504.070000", "104500.230000", "104504.180000", "104500.340000", "104504.290000", "104500.450000", "104504.400000", "104500.560000", "104504.510000", "104500.670000", "104504.620000", "104500.780000", "104504.730000", "104500.890000", "104504.837500", "104501.000000", "104504.947500", "104501.107500", "104505.057500", "104501.217500", "104505.167500", "104501.327500", "104505.277500", "104501.437500", "104505.387500", "104501.547500", "104505.497500", "104501.657500", "104505.607500", "104501.767500", "104505.717500", "104501.877500", "104505.825000", "104501.985000", "104505.935000", "104502.095000", "104506.045000", "104502.205000", "104506.155000", "104502.315000", "104506.265000", "104502.425000", "104506.375000", "104502.535000", "104506.485000", "104502.645000", "104506.595000", "104502.755000", "104506.702500", "104502.865000", "104506.812500", "104502.972500", "104506.922500", "104503.082500", "104507.032500", "104503.192500", "104507.142500", "104503.302500", "104507.252500", "104503.412500", "104507.362500", "104503.522500", "104507.472500", "104503.632500", "104507.582500", "104503.742500", "104507.690000", "104503.850000", "104511.660000", "104507.820000", "104511.770000", "104507.930000", "104511.880000", "104508.040000", "104511.990000", "104508.150000", "104512.100000", "104508.260000", "104512.210000", "104508.370000", "104512.320000", "104508.480000", "104512.430000", "104508.590000", "104512.537500", "104508.700000", "104512.647500", "104508.807500", "104512.757500", "104508.917500", "104512.867500", "104509.027500", "104512.977500", "104509.137500", "104513.087500", "104509.247500", "104513.197500", "104509.357500", "104513.307500", "104509.467500", "104513.417500", "104509.577500", "104513.525000", "104509.685000", "104513.635000", "104509.795000", "104513.745000", "104509.905000", "104513.855000", "104510.015000", "104513.965000", "104510.125000", "104514.075000", "104510.235000", "104514.185000", "104510.345000", "104514.295000", "104510.455000", "104514.402500", "104510.565000", "104514.512500", "104510.672500", "104514.622500", "104510.782500", "104514.732500", "104510.892500", "104514.842500", "104511.002500", "104514.952500", "104511.112500", "104515.062500", "104511.222500", "104515.172500", "104511.332500", "104515.282500", "104511.442500", "104515.390000", "104511.550000", "104519.360000", "104515.520000", "104519.470000", "104515.630000", "104519.580000", "104515.740000", "104519.690000", "104515.850000", "104519.800000", "104515.960000", "104519.910000", "104516.070000", "104520.020000", "104516.180000", "104520.130000", "104516.290000", "104520.237500", "104516.400000", "104520.347500", "104516.507500", "104520.457500", "104516.617500", "104520.567500", "104516.727500", "104520.677500", "104516.837500", "104520.787500", "104516.947500", "104520.897500", "104517.057500", "104521.007500", "104517.167500", "104521.117500", "104517.277500", "104521.225000", "104517.385000", "104521.335000", "104517.495000", "104521.445000", "104517.605000", "104521.555000", "104517.715000", "104521.665000", "104517.825000", "104521.775000", "104517.935000", "104521.885000", "104518.045000", "104521.995000", "104518.155000", "104522.102500", "104518.265000", "104522.212500", "104518.372500", "104522.322500", "104518.482500", "104522.432500", "104518.592500", "104522.542500", "104518.702500", "104522.652500", "104518.812500", "104522.762500", "104518.922500", "104522.872500", "104519.032500", "104522.982500", "104519.142500", "104523.090000", "104519.250000", "104527.060000", "104523.220000", "104527.170000", "104523.330000", "104527.280000", "104523.440000", "104527.390000", "104523.550000", "104527.500000", "104523.660000", "104527.610000", "104523.770000", "104527.720000", "104523.880000", "104527.830000", "104523.990000", "104527.937500", "104524.100000", "104528.047500", "104524.207500", "104528.157500", "104524.317500", "104528.267500", "104524.427500", "104528.377500", "104524.537500", "104528.487500", "104524.647500", "104528.597500", "104524.757500", "104528.707500", "104524.867500", "104528.817500", "104524.977500", "104528