{
  "AcquisitionMatrixPE": 122,
  "AcquisitionNumber": 1,
  "AcquisitionTime": "10:47:14.480000",
  "BandwidthPerPixelPhaseEncode": 27.785,
  "BaseResolution": 122,
  "BodyPartExamined": "BRAIN",
  "CoilCombinationMethod": "Adaptive Combine",
  "ConsistencyInfo": "N4_VE11C_LATEST_20160120",
  "ConversionSoftware": "dcm2niix",
  "ConversionSoftwareVersion": "v1.0.20220720",
  "DerivedVendorReportedEchoSpacing": 0.000590011,
  "DeviceSerialNumber": "66112",
  "DiffusionScheme": "Monopolar",
  "DwellTime": 2e-06,
  "EchoTime": 0.068,
  "EchoTrainLength": 61,
  "EffectiveEchoSpacing": 0.000295005,
  "FlipAngle": 90,
  "HeudiconvVersion": "0.13.1",
  "ImageOrientationPatientDICOM": [0.999971, 0.00639516, 0.00421794, -0.00733031, 0.958727, 0.284235],
  "ImageOrientationText": "Tra>Cor(16.5)>Sag(0.1)",
  "ImageType": [
    "ORIGINAL",
    "PRIMARY",
    "DIFFUSION",
    "NONE",
    "ND",
    "NORM"
],
  "ImagingFrequency": 123.252,
  "InPlanePhaseEncodingDirectionDICOM": "COL",
  "InstitutionAddress": "Maynard 3,Hanover,NH,US,03755",
  "InstitutionName": "Dartmouth College - PBS",
  "InstitutionalDepartmentName": "Department",
  "MRAcquisitionType": "2D",
  "MagneticFieldStrength": 3,
  "Manufacturer": "Siemens",
  "ManufacturersModelName": "Prisma",
  "Modality": "MR",
  "MultibandAccelerationFactor": 4,
  "NonlinearGradientCorrection": false,
  "ParallelReductionFactorInPlane": 2,
  "PartialFourier": 1,
  "PatientPosition": "HFS",
  "PercentPhaseFOV": 100,
  "PercentSampling": 100,
  "PhaseEncodingDirection": "j-",
  "PhaseEncodingSteps": 122,
  "PhaseResolution": 1,
  "PixelBandwidth": 2050,
  "ProcedureStepDescription": "dbic^QA",
  "ProtocolName": "dwi_acq-DTI-30-p2-s4",
  "PulseSequenceDetails": "%SiemensSeq%\\ep2d_diff",
  "ReceiveCoilActiveElements": "HEA;HEP",
  "ReceiveCoilName": "Head_32",
  "ReconMatrixPE": 122,
  "RefLinesPE": 38,
  "RepetitionTime": 3.6,
  "SAR": 0.136684,
  "ScanOptions": "FS",
  "ScanningSequence": "EP",
  "SequenceName": "*ep_b0",
  "SequenceVariant": "SK\\SP",
  "SeriesDescription": "dwi_acq-DTI-30-p2-s4",
  "SeriesNumber": 17,
  "ShimSetting": [4142, -7700, -7518, 298, -88, -152, -50, 63],
  "SliceThickness": 2,
  "SliceTiming": [2.57812, 0, 1.78906, 0.19531, 1.98438, 0.39062, 2.1875, 0.59375, 2.38281, 0.99219, 2.78125, 1.1875, 2.97656, 1.39062, 3.17969, 1.58594, 3.375, 0.78906, 2.57812, 0, 1.78906, 0.19531, 1.98438, 0.39062, 2.1875, 0.59375, 2.38281, 0.99219, 2.78125, 1.1875, 2.97656, 1.39062, 3.17969, 1.58594, 3.375, 0.78906, 2.57812, 0, 1.78906, 0.19531, 1.98438, 0.39062, 2.1875, 0.59375, 2.38281, 0.99219, 2.78125, 1.1875, 2.97656, 1.39062, 3.17969, 1.58594, 3.375, 0.78906, 2.57812, 0, 1.78906, 0.19531, 1.98438, 0.39062, 2.1875, 0.59375, 2.38281, 0.99219, 2.78125, 1.1875, 2.97656, 1.39062, 3.17969, 1.58594, 3.375, 0.78906],
  "SoftwareVersions": "syngo MR E11",
  "SpacingBetweenSlices": 2,
  "SpoilingState": true,
  "StationName": "AWP66112",
  "TotalReadoutTime": 0.0356956,
  "TxRefAmp": 224.363,
  "dcmmeta_affine": [
    [-1.9671554565429688, -0.014420286752283573, 0.004452228546142578, 121.19010925292969],
    [-0.012580648064613342, 1.8860197067260742, 0.5685157775878906, -130.1318817138672],
    [0.008297578431665897, -0.5591503977775574, 1.9174919128417969, -47.0158576965332],
    [0.0, 0.0, 0.0, 1.0]
],
  "dcmmeta_reorient_transform": [
    [0.0, -1.0, 0.0, 121.0],
    [1.0, 0.0, 0.0, 0.0],
    [0.0, 0.0, -1.0, 71.0],
    [0.0, 0.0, 0.0, 1.0]
],
  "dcmmeta_shape": [122, 122, 72, 31],
  "dcmmeta_slice_dim": 2,
  "dcmmeta_version": 0.6,
  "global": {
    "const": {
      "AccessionNumber": "qa",
      "AcquisitionMatrix": [122, 0, 0, 122],
      "AngioFlag": "N",
      "BitsAllocated": 16,
      "BitsStored": 12,
      "BodyPartExamined": "BRAIN",
      "Columns": 122,
      "EchoNumbers": 1,
      "EchoTime": 68.0,
      "EchoTrainLength": 61,
      "FlipAngle": 90.0,
      "HighBit": 11,
      "ImageOrientationPatient": [0.9999706550265, 0.00639516247893, 0.00421793583977, -0.0073303120857, 0.95872668624634, 0.28423477550055],
      "ImageType": [
        "ORIGINAL",
        "PRIMARY",
        "DIFFUSION",
        "NONE",
        "ND",
        "NORM"
],
      "ImagedNucleus": "1H",
      "ImagingFrequency": 123.252355,
      "InPlanePhaseEncodingDirection": "COL",
      "MRAcquisitionType": "2D",
      "MagneticFieldStrength": 3.0,
      "Manufacturer": "SIEMENS",
      "ManufacturerModelName": "Prisma",
      "Modality": "MR",
      "NumberOfAverages": 1.0,
      "NumberOfPhaseEncodingSteps": 122,
      "PercentPhaseFieldOfView": 100.0,
      "PercentSampling": 100.0,
      "PerformedProcedureStepStartTime": "100104.609000",
      "PhotometricInterpretation": "MONOCHROME2",
      "PixelBandwidth": 2050.0,
      "PixelRepresentation": 0,
      "PixelSpacing": [1.9672131538391, 1.9672131538391],
      "ProtocolName": "dwi_acq-DTI-30-p2-s4",
      "RepetitionTime": 3600.0,
      "Rows": 122,
      "SAR": 0.13668422942209,
      "SamplesPerPixel": 1,
      "ScanOptions": "FS",
      "ScanningSequence": "EP",
      "SequenceVariant": [
        "SK",
        "SP"
],
      "SeriesDescription": "dwi_acq-DTI-30-p2-s4",
      "SeriesNumber": 17,
      "SeriesTime": "104723.811000",
      "SliceThickness": 2.0,
      "SmallestImagePixelValue": 0,
      "SoftwareVersions": "syngo MR E11",
      "SpacingBetweenSlices": 2.0,
      "SpecificCharacterSet": "ISO_IR 100",
      "StudyID": "56",
      "StudyTime": "100104.552000",
      "TransmitCoilName": "Body",
      "VariableFlipAngleFlag": "N",
      "WindowCenterWidthExplanation": "Algo1",
      "dBdt": 0.0},
    "slices": {
      "AcquisitionTime": ["104714.480000", "104711.895000", "104713.685000", "104712.092500", "104713.882500", "104712.292500", "104714.082500", "104712.490000", "104714.280000", "104712.887500", "104714.677500", "104713.087500", "104714.877500", "104713.287500", "104715.075000", "104713.485000", "104715.275000", "104712.690000", "104714.480000", "104711.895000", "104713.685000", "104712.092500", "104713.882500", "104712.292500", "104714.082500", "104712.490000", "104714.280000", "104712.887500", "104714.677500", "104713.087500", "104714.877500", "104713.287500", "104715.075000", "104713.485000", "104715.275000", "104712.690000", "104714.480000", "104711.895000", "104713.685000", "104712.092500", "104713.882500", "104712.292500", "104714.082500", "104712.490000", "104714.280000", "104712.887500", "104714.677500", "104713.087500", "104714.877500", "104713.287500", "104715.075000", "104713.485000", "104715.275000", "104712.690000", "104714.480000", "104711.895000", "104713.685000", "104712.092500", "104713.882500", "104712.292500", "104714.082500", "104712.490000", "104714.280000", "104712.887500", "104714.677500", "104713.087500", "104714.877500", "104713.287500", "104715.075000", "104713.485000", "104715.275000", "104712.690000", "104718.080000", "104715.495000", "104717.285000", "104715.692500", "104717.482500", "104715.892500", "104717.682500", "104716.090000", "104717.880000", "104716.487500", "104718.277500", "104716.687500", "104718.477500", "104716.887500", "104718.675000", "104717.085000", "104718.875000", "104716.290000", "104718.080000", "104715.495000", "104717.285000", "104715.692500", "104717.482500", "104715.892500", "104717.682500", "104716.090000", "104717.880000", "104716.487500", "104718.277500", "104716.687500", "104718.477500", "104716.887500", "104718.675000", "104717.085000", "104718.875000", "104716.290000", "104718.080000", "104715.495000", "104717.285000", "104715.692500", "104717.482500", "104715.892500", "104717.682500", "104716.090000", "104717.880000", "104716.487500", "104718.277500", "104716.687500", "104718.477500", "104716.887500", "104718.675000", "104717.085000", "104718.875000", "104716.290000", "104718.080000", "104715.495000", "104717.285000", "104715.692500", "104717.482500", "104715.892500", "104717.682500", "104716.090000", "104717.880000", "104716.487500", "104718.277500", "104716.687500", "104718.477500", "104716.887500", "104718.675000", "104717.085000", "104718.875000", "104716.290000", "104721.680000", "104719.095000", "104720.885000", "104719.292500", "104721.082500", "104719.492500", "104721.282500", "104719.690000", "104721.480000", "104720.087500", "104721.877500", "104720.287500", "104722.077500", "104720.487500", "104722.275000", "104720.685000", "104722.475000", "104719.890000", "104721.680000", "104719.095000", "104720.885000", "104719.292500", "104721.082500", "104719.492500", "104721.282500", "104719.690000", "104721.480000", "104720.087500", "104721.877500", "104720.287500", "104722.077500", "104720.487500", "104722.275000", "104720.685000", "104722.475000", "104719.890000", "104721.680000", "104719.095000", "104720.885000", "104719.292500", "104721.082500", "104719.492500", "104721.282500", "104719.690000", "104721.480000", "104720.087500", "104721.877500", "104720.287500", "104722.077500", "104720.487500", "104722.275000", "104720.685000", "104722.475000", "104719.890000", "104721.680000", "104719.095000", "104720.885000", "104719.292500", "104721.082500", "104719.492500", "104721.282500", "104719.690000", "104721.480000", "104720.087500", "104721.877500", "104720.287500", "104722.077500", "104720.487500", "104722.275000", "104720.685000", "104722.475000", "104719.890000", "104725.280000", "104722.695000", "104724.485000", "104722.892500", "104724.682500", "104723.092500", "104724.882500", "104723.290000", "104725.080000", "104723.687500", "104725.477500", "104723.887500", "104725.677500", "104724.087500", "104725.875000", "104724.285000", "104726.075000", "104723.490000", "104725.280000", "104722.695000", "104724.485000", "104722.892500", "104724.682500", "104723.092500", "104724.882500", "104723.290000", "104725.080000", "104723.687500", "104725.477500", "104723.887500", "104725.677500", "104724.087500", "104725.875000", "104724.285000", "104726.075000", "104723.490000", "104725.280000", "104722.695000", "104724.485000", "104722.892500", "104724.682500", "104723.092500", "104724.882500", "104723.290000", "104725.080000", "104723.687500", "104725.477500", "104723.887500", "104725.677500", "104724.087500", "104725.875000", "104724.285000", "104726.075000", "104723.490000", "104725.280000", "104722.695000", "104724.485000", "104722.892500", "104724.682500", "104723.092500", "104724.882500", "104723.290000", "104725.080000", "104723.687500", "104725.477500", "104723.887500", "104725.677500", "104724.087500", "104725.875000", "104724.285000", "104726.075000", "104723.490000", "104728.880000", "104726.295000", "104728.085000", "104726.492500", "104728.282500", "104726.692500", "104728.482500", "104726.890000", "104728.680000", "104727.287500", "104729.077500", "104727.487500", "104729.277500", "104727.687500", "104729.475000", "104727.885000", "104729.675000", "104727.090000", "104728.880000", "104726.295000", "104728.085000", "104726.492500", "104728.282500", "104726.692500", "104728.482500", "104726.890000", "104728.680000", "104727.287500", "104729.077500", "104727.487500", "104729.277500", "104727.687500", "104729.475000", "104727.885000", "104729.675000", "104727.090000", "104728.880000", "104726.295000", "104728.085000", "104726.492500", "104728.282500", "104726.692500", "104728.482500", "104726.890000", "104728.680000", "104727.287500", "104729.077500", "104727.487500", "104729.277500", "104727.687500", "104729.475000", "104727.885000", "104729.675000", "104727.090000", "104728.880000", "104726.295000", "104728.085000", "104726.492500", "104728.282500", "104726.692500", "104728.482500", "104726.890000", "104728.680000", "104727.287500", "104729.077500", "104727.487500", "104729.277500", "104727.687500", "104729.475000", "104727.885000", "104729.675000", "104727.090000", "104732.480000", "104729.895000", "104731.685000", "104730.092500", "104731.882500", "104730.292500", "104732.082500", "104730.490000", "104732.280000", "104730.887500", "104732.677500", "104731.087500", "104732.877500", "104731.287500", "104733.075000", "104731.485000", "104733.275000", "104730.690000", "104732.480000", "104729.895000", "104731.685000", "104730.092500", "104731.882500", "104730.292500", "104732.082500", "104730.490000", "104732.280000", "104730.887500", "104732.677500", "104731.087500", "104732.877500", "104731.287500", "104733.075000", "104731.485000", "104733.275000", "104730.690000", "104732.480000", "104729.895000", "104731.685000", "104730.092500", "104731.882500", "104730.292500", "104732.082500", "104730.490000", "104732.280000", "104730.887500", "104732.677500", "104731.087500", "104732.877500", "104731.287500", "104733.075000", "104731.485000", "104733.275000", "104730.690000", "104732.480000", "104729.895000", "104731.685000", "104730.092500", "104731.882500", "104730.292500", "104732.082500", "104730.490000", "104732.280000", "104730.887500", "104732.677500", "104731.087500", "104732.877500", "104731.287500", "104733.075000", "104731.485000", "104733.275000", "104730.690000", "104736.080000", "104733.495000", "104735.285000", "104733.692500", "104735.482500", "104733.892500", "104735.682500", "104734.090000", "104735.880000", "104734.487500", "104736.277500", "104734.687500", "104736.477500", "104734.887500", "104736.675000", "104735.085000", "104736.875000", "104734.290000", "104736.080000", "104733.495000", "104735.285000", "104733.692500", "104735.482500", "104733.892500", "104735.682500", "104734.090000", "104735.880000", "104734.487500", "104736.277500", "104734.687500", "104736.477500", "104734.887500", "104736.675000", "104735.085000", "104736.875000", "104734.290000", "104736.080000", "104733.495000", "104735.285000", "104733.692500", "104735.482500", "104733.892500", "104735.682500", "104734.090000", "104735.880000", "104734.487500", "104736.277500", "104734.687500", "104736.477500", "104734.887500", "104736.675000", "104735.085000", "104736.875000", "104734.290000", "104736.080000", "104733.495000", "104735.285000", "104733.692500", "104735.482500", "104733.892500", "104735.682500", "104734.090000", "104735.880000", "104734.487500", "104736.277500", "104734.687500", "104736.477500", "104734.887500", "104736.675000", "104735.085000", "104736.875000", "104734.290000", "104739.680000", "104737.095000", "104738.885000", "104737.292500", "104739.082500", "104737.492500", "104739.282500", "104737.690000", "104739.480000", "104738.087500", "104739.877500", "104738.287500", "104740.077500", "104738.487500", "104740.275000", "104738.685000", "104740.475000", "104737.890000", "104739.680000", "104737.095000", "104738.885000", "104737.292500", "104739.082500", "104737.492500", "104739.282500", "104737.690000", "104739.480000", "104738.087500", "104739.877500", "104738.287500", "104740.077500", "104738.487500", "104740.275000", "104738.685000", "104740.475000", "104737.890000", "104739.680000", "104737.095000", "104738.885000", "104737.292500", "104739.082500", "104737.492500", "104739.282500", "104737.690000", "104739.480000", "104738.087500", "104739.877500", "104738.287500", "104740.077500", "104738.487500", "104740.275000", "104738.685000", "104740.475000", "104737.890000", "104739.680000", "104737.095000", "104738.885000", "104737.292500", "104739.082500", "104737.492500", "104739.282500", "104737.690000", "104739.480000", "104738.087500", "104739.877500", "104738.287500", "104740.077500", "104738.487500", "104740.275000", "104738.685000", "104740.475000", "104737.890000", "104743.280000", "104740.695000", "104742.485000", "104740.892500", "104742.682500", "104741.092500", "104742.882500", "104741.290000", "104743.080000", "104741.687500", "104743.477500", "104741.887500", "104743.677500", "104742.087500", "104743.875000", "104742.285000", "104744.075000", "104741.490000", "104743.280000", "104740.695000", "104742.485000", "104740.892500", "104742.682500", "104741.092500", "104742.882500", "104741.290000", "104743.080000", "104741.687500", "104743.477500", "104741.887500", "104743.677500", "104742.087500", "104743.875000", "104742.285000", "104744.075000", "104741.490000", "104743.280000", "104740.695000", "104742.485000", "104740.892500", "104742.682500", "104741.092500", "104742.882500", "104741.290000", "104743.080000", "104741.687500", "104743.477500", "104741.887500", "104743.677500", "104742.087500", "104743.875000", "104742.285000", "104744.075000", "104741.490000", "104743.280000", "104740.695000", "104742.485000", "104740.892500", "104742.682500", "104741.092500", "104742.882500", "104741.290000", "104743.080000", "104741.687500", "104743.477500", "104741.887500", "104743.677500", "104742.087500", "104743.875000", "104742.285000", "104744.075000", "104741.490000", "104746.880000", "104744.295000", "104746.085000", "104744.492500", "104746.282500", "104744.692500", "104746.482500", "104744.890000", "104746.680000", "104745.287500", "104747.077500", "104745.487500", "104747.277500", "104745.687500", "104747.475000", "104745.885000", "104747.675000", "104745.090000", "104746.880000", "104744.295000", "104746.085000", "104744.492500", "104746.282500", "104744.692500", "104746.482500", "104744.890000", "104746.680000", "104745.287500", "104747.077500", "104745.487500", "104747.277500", "104745.687500", "104747.475000", "104745.885000", "104747.675000", "104745.090000", "104746.880000", "104744.295000", "104746.085000", "104744.492500", "104746.282500", "104744.692500", "104746.482500", "104744.890000", "104746.680000", "104745.287500", "104747.077500", "104745.487500", "104747.277500", "104745.687500", "104747.475000", "104745.885000", "104747.675000", "104745.090000", "104746.880000", "104744.295000", "104746.085000", "104744.492500", "104746.282500", "104744.692500", "104746.482500", "104744.890000", "104746.680000", "104745.287500", "104747.077500", "104745.487500", "104747.277500", "104745.687500", "104747.475000", "104745.885000", "104747.675000", "104745.090000", "104750.480000", "104747.895000", "104749.685000", "104748.092500", "104749.882500", "104748.292500", "104750.082500", "104748.490000", "104750.280000", "104748.887500", "104750.677500", "104749.087500", "104750.877500", "104749.287500", "104751.075000", "104749.485000", "104751.275000", "104748.690000", "104750.480000", "104747.895000", "104749.685000", "104748.092500", "104749.882500", "104748.292500", "104750.082500", "104748.490000", "104750.280000", "104748.887500", "104750.677500", "104749.087500", "104750.877500", "104749.287500", "104751.075000", "104749.485000", "104751.275000", "104748.690000", "104750.480000", "104747.895000", "104749.685000", "104748.092500", "104749.882500", "104748.292500", "104750.082500", "104748.490000", "104750.280000", "104748.887500", "104750.677500", "104749.087500", "104750.877500", "104749.287500", "104751.075000", "104749.485000", "104751.275000", "104748.690000", "104750.480000", "104747.895000", "104749.685000", "104748.092500", "104749.882500", "104748.292500", "104750.082500", "104748.490000", "104750.280000", "104748.887500", "104750.677500", "104749.087500", "104750.877500", "104749.287500", "104751.075000", "104749.485000", "104751.275000", "104748.690000", "104754.080000", "104751.495000", "104753.285000", "104751.692500", "104753.482500", "104751.892500", "104753.682500", "104752.090000", "104753.880000", "104752.487500", "104754.277500", "104752.687500", "104754.477500", "104752.887500", "104754.675000", "104753.085000", "104754.875000", "104752.290000", "104754.080000", "104751.495000", "104753.285000", "104751.692500", "104753.482500", "104751.892500", "104753.682500", "104752.090000", "104753.880000", "104752.487500", "104754.277500", "104752.687500", "104754.477500", "104752.887500", "104754.675000", "104753.085000", "104754.875000", "104752.290000", "104754.080000", "104751.495000", "104753.285000", "104751.692500", "104753.482500", "104751.892500", "104753.682500", "104752.090000", "104753.880000", "104752.487500", "104754.277500", "104752.687500", "104754.477500", "104752.887500", "104754.675000", "104753.085000", "104754.875000", "104752.290000", "104754.080000", "104751.495000", "104753.285000", "104751.692500", "104753.482500", "104751.892500", "104753.682500", "104752.090000", "104753.880000", "104752.487500", "104754.277500", "104752.687500", "104754.477500", "104752.887500", "104754.675000", "104753.085000", "104754.875000", "104752.290000", "104757.680000", "104755.095000", "104756.885000", "104755.292500", "104757.082500", "104755.492500", "104757.282500", "104755.690000", "104757.480000", "104756.087500", "104757.877500", "104756.287500", "104758.077500", "104756.487500", "104758.275000", "104756.685000", "104758.475000", "104755.890000", "104757.680000", "104755.095000", "104756.885000", "104755.292500", "104757.082500", "104755.492500", "104757.282500", "104755.690000", "104757.480000", "104756.087500", "104757.877500", "104756.287500", "104758.077500", "104756.487500", "104758.275000", "104756.685000", "104758.475000", "104755.890000", "104757.680000", "104755.095000", "104756.885000", "104755.292500", "104757.082500", "104755.492500", "104757.282500", "104755.690000", "104757.480000", "104756.087500", "104757.877500", "104756.287500", "104758.077500", "104756.487500", "104758.275000", "104756.685000", "104758.475000", "104755.890000", "104757.680000", "104755.095000", "104756.885000", "104755.292500", "104757.082500", "104755.492500", "104757.282500", "104755.690000", "104757.480000", "104756.087500", "104757.877500", "104756.287500", "104758.077500", "104756.487500", "104758.275000", "104756.685000", "104758.475000", "104755.890000", "104801.280000", "104758.695000", "104800.485000", "104758.892500", "104800.682500", "104759.092500", "104800.882500", "104759.290000", "104801.080000", "104759.687500", "104801.477500", "104759.887500", "104801.677500", "104800.087500", "104801.875000", "104800.285000", "104802.075000", "104759.490000", "104801.280000", "104758.695000", "104800.485000", "104758.892500", "104800.682500", "104759.092500", "104800.882500", "104759.290000", "104801.080000", "104759.687500", "104801.477500", "104759.887500", "104801.677500", "104800.087500", "104801.875000", "104800.285000", "104802.075000", "104759.490000", "104801.280000", "104758.695000", "104800.485000", "104758.892500", "104800.682500", "104759.092500", "104800.882500", "104759.290000", "104801.080000", "104759.687500", "104801.477500", "104759.887500", "104801.677500", "104800.087500", "104801.875000", "104800.285000", "104802.075000", "104759.490000", "104801.280000", "104758.695000", "104800.485000", "104758.892500", "104800.682500", "104759.092500", "104800.882500", "104759.290000", "104801.080000", "104759.687500", "104801.477500", "104759.887500", "104801.677500", "104800.087500", "104801.875000", "104800.285000", "104802.075000", "104759.490000", "104804.880000", "104802.295000", "104804.085000", "104802.492500", "104804.282500", "104802.692500", "104804.482500", "104802.890000", "104804.680000", "104803.287500", "104805.077500", "104803.487500", "104805.277500", "104803.687500", "104805.475000", "104803.885000", "104805.675000", "104803.090000", "104804.880000", "104802.295000", "104804.085000", "104802.492500", "104804.282500", "104802.692500", "104804.482500", "104802.890000", "104804.680000", "104803.287500", "104805.077500", "104803.487500", "104805.277500", "104803.687500", "104805.475000", "104803.885000", "104805.675000", "104803.090000", "104804.880000", "104802.295000", "104804.085000", "104802.492500", "104804.282500", "104802.692500", "104804.482500", "104802.890000", "104804.680000", "104803.287500", "104805.077500", "104803.487500", "104805.277500", "104803.687500", "104805.475000", "104803.885000", "104805.675000", "104803.090000", "104804.880000", "104802.295000", "104804.085000", "104802.492500", "104804.282500", "104802.692500", "104804.482500", "104802.890000", "104804.680000", "104803.287500", "104805.077500", "104803.487500", "104805.277500", "104803.687500", "104805.475000", "104803.885000", "104805.675000", "104803.090000", "104808.480000", "104805.895000", "104807.685000", "104806.092500", "104807.882500", "104806.292500", "104808.082500", "104806.490000", "104808.280000", "104806.887500", "104808.677500", "104807.087500", "104808.877500", "104807.287500", "104809.075000", "104807.485000", "104809.275000", "104806.690000", "104808.480000", "104805.895000", "104807.685000", "104806.092500", "104807.882500", "104806.292500", "104808.082500", "104806.490000", "104808.280000", "104806.887500", "104808.677500", "104807.087500", "104808.877500", "104807.287500", "104809.075000", "104807.485000", "104809.275000", "104806.690000", "104808.480000", "104805.895000", "104807.685000", "104806.092500", "104807.882500", "104806.292500", "104808.082500", "104806.490000", "104808.280000", "104806.887500", "104808.677500", "104807.087500", "104808.877500", "104807.287500", "104809.075000", "104807.485000", "104809.275000", "104806.690000", "104808.480000", "104805.895000", "104807.685000", "104806.092500", "104807.882500", "104806.292500", "104808.082500", "104806.490000", "104808.280000", "104806.887500", "104808.677500", "104807.087500", "104808.877500", "104807.287500", "104809.075000", "104807.485000", "104809.275000", "104806.690000", "104812.080000", "104809.495000", "104811.285000", "104809.692500", "104811.482500", "104809.892500", "104811.682500", "104810.090000", "104811.880000", "104810.487500", "104812.277500", "104810.687500", "104812.477500", "104810.887500", "104812.675000", "104811.085000", "104812.875000", "104810.290000", "104812.080000", "104809.495000", "104811.285000", "104809.692500", "104811.482500", "104809.892500", "104811.682500", "104810.090000", "104811.880000", "104810.487500", "104812.277500", "104810.687500", "104812.477500", "104810.887500", "104812.675000", "104811.085000", "104812.875000", "104810.290000", "104812.080000", "104809.495000", "104811.285000", "104809.692500", "104811.482500", "104809.892500", "104811.682500", "104810.090000", "104811.880000", "104810.487500", "104812.277500", "104810.687500", "104812.477500", "104810.887500", "104812.675000", "104811.085000", "104812.875000", "104810.290000", "104812.080000", "104809.495000", "104811.285000", "104809.692500", "104811.482500", "104809.892500", "104811.682500", "104810.090000", "104811.880000", "104810.487500", "104812.277500", "104810.687500", "104812.477500", "104810.887500", "104812.675000", "104811.085000", "104812.875000", "104810.290000", "104815.680000", "104813.095000", "104814.885000", "104813.292500", "104815.082500", "104813.492500", "104815.282500", "104813.690000", "104815.480000", "104814.087500", "104815.877500", "104814.287500", "104816.077500", "104814.487500", "104816.275000", "104814.685000", "104816.475000", "104813.890000", "104815.680000", "104813.095000", "104814.885000", "104813.292500", "104815.082500", "104813.492500", "104815.282500", "104813.690000", "104815.480000", "104814.087500", "104815.877500", "104814.287500", "104816.077500", "104814.487500", "104816.275000", "104814.685000", "104816.475000", "104813.890000", "104815.680000", "104813.095000", "104814.885000", "104813.292500", "104815.082500", "104813.492500", "104815.282500", "104813.690000", "104815.480000", "104814.087500", "104815.877500", "104814.287500", "104816.077500", "104814.487500", "104816.275000", "104814.685000", "104816.475000", "104813.890000", "104815.680000", "104813.095000", "104814.885000", "104813.292500", "104815.082500", "104813.492500", "104815.282500", "104813.690000", "104815.480000", "104814.087500", "104815.877500", "104814.287500", "104816.077500", "104814.487500", "104816.275000", "104814.685000", "104816.475000", "104813.890000", "104819.280000", "104816.695000", "104818.485000", "104816.892500", "104818.682500", "104817.092500", "104818.882500", "104817.290000", "104819.080000", "104817.687500", "104819.477500", "104817.887500", "104819.677500", "104818.087500", "104819.875000", "104818.285000", "104820.075000", "104817.490000", "104819.280000", "104816.695000", "104818.485000", "104816.892500", "104818.682500", "104817.092500", "104818.882500", "104817.290000", "104819.080000", "104817.687500", "104819.477500", "104817.887500", "104819.677500", "104818.087500", "104819.875000", "104818.285000", "104820.075000", "104817.490000", "104819.280000", "104816.695000", "104818.485000", "104816.892500", "104818.682500", "104817.092500", "104818.882500", "104817.290000", "104819.080000", "104817.687500", "104819.477500", "104817.887500", "104819.677500", "104818.087500", "104819.875000", "104818.285000", "104820.075000", "104817.490000", "104819.280000", "104816.695000", "104818.485000", "104816.892500", "104818.682500", "104817.092500", "104818.882500", "104817.290000", "104819.080000", "104817.687500", "104819.477500", "104817.887500", "104819.677500", "104818.087500", "104819.875000", "104818.285000", "104820.075000", "104817.490000", "104822.880000", "104820.295000", "104822.085000", "104820.492500", "104822.282500", "104820.692500", "104822.482500", "104820.890000", "104822.680000", "104821.287500", "104823.077500", "104821.487500", "104823.277500", "104821.687500", "104823.475000", "104821.885000", "104823.675000", "104821.090000", "104822.880000", "104820.295000", "104822.085000", "104820.492500", "104822.282500", "104820.692500", "104822.482500", "104820.890000", "104822.680000", "104821.287500", "104823.077500", "104821.487500", "104823.277500", "104821.687500", "104823.475000", "104821.885000", "104823.675000", "104821.090000", "104822.880000", "104820.295000", "104822.085000", "104820.492500", "104822.282500", "104820.692500", "104822.482500", "104820.890000", "104822.680000", "104821.287500", "104823.077500", "104821.487500", "104823.277500", "104821.687500", "104823.475000", "104821.885000", "104823.675000", "104821.090000", "104822.880000", "104820.295000", "104822.085000", "104820.492500", "104822.282500", "104820.692500", "104822.482500", "104820.890000", "104822.680000", "104821.287500", "104823.077500", "10482