{
  "AcquisitionMatrixPE": 80,
  "AcquisitionNumber": 1,
  "AcquisitionTime": "11:10:21.830000",
  "BandwidthPerPixelPhaseEncode": 48.077,
  "BaseResolution": 80,
  "BodyPartExamined": "BRAIN",
  "CoilCombinationMethod": "Sum of Squares",
  "ConsistencyInfo": "N4_VE11C_LATEST_20160120",
  "ConversionSoftware": "dcm2niix",
  "ConversionSoftwareVersion": "v1.0.20220720",
  "DerivedVendorReportedEchoSpacing": 0.000519999,
  "DeviceSerialNumber": "66112",
  "DwellTime": 2.7e-06,
  "EchoTime": 0.035,
  "EchoTrainLength": 39,
  "EffectiveEchoSpacing": 0.00026,
  "FlipAngle": 90,
  "HeudiconvVersion": "0.13.1",
  "ImageOrientationPatientDICOM": [0.999959, 0.00756125, 0.00499798, -0.00872656, 0.95217, 0.305443],
  "ImageOrientationText": "Tra>Cor(17.8)>Sag(0.1)",
  "ImageType": [
    "ORIGINAL",
    "PRIMARY",
    "M",
    "ND",
    "NORM",
    "MOSAIC"
],
  "ImagingFrequency": 123.252,
  "InPlanePhaseEncodingDirectionDICOM": "COL",
  "InstitutionAddress": "Maynard 3,Hanover,NH,US,03755",
  "InstitutionName": "Dartmouth College - PBS",
  "InstitutionalDepartmentName": "Department",
  "MRAcquisitionType": "2D",
  "MagneticFieldStrength": 3,
  "Manufacturer": "Siemens",
  "ManufacturersModelName": "Prisma",
  "MatrixCoilMode": "GRAPPA",
  "Modality": "MR",
  "NonlinearGradientCorrection": false,
  "ParallelReductionFactorInPlane": 2,
  "PartialFourier": 1,
  "PatientPosition": "HFS",
  "PercentPhaseFOV": 100,
  "PercentSampling": 100,
  "PhaseEncodingDirection": "j-",
  "PhaseEncodingSteps": 79,
  "PhaseResolution": 1,
  "PixelBandwidth": 2315,
  "ProcedureStepDescription": "dbic^QA",
  "ProtocolName": "func-bold_task-rest_acq-p2",
  "PulseSequenceDetails": "%SiemensSeq%\\ep2d_bold",
  "ReceiveCoilActiveElements": "HEA;HEP",
  "ReceiveCoilName": "Head_32",
  "ReconMatrixPE": 80,
  "RefLinesPE": 24,
  "RepetitionTime": 2,
  "SAR": 0.0473454,
  "ScanOptions": "FS",
  "ScanningSequence": "EP",
  "SequenceName": "*epfid2d1_80",
  "SequenceVariant": "SK",
  "SeriesDescription": "func-bold_task-rest_acq-p2",
  "SeriesNumber": 5,
  "ShimSetting": [4145, -7701, -7533, 258, -79, -120, -21, 102],
  "SliceThickness": 3.5,
  "SliceTiming": [0.99, 0, 1.0575, 0.0675, 1.1225, 0.1325, 1.19, 0.2, 1.255, 0.265, 1.32, 0.33, 1.3875, 0.3975, 1.4525, 0.4625, 1.52, 0.53, 1.585, 0.595, 1.65, 0.66, 1.7175, 0.7275, 1.7825, 0.7925, 1.85, 0.86, 1.915, 0.925],
  "SoftwareVersions": "syngo MR E11",
  "SpacingBetweenSlices": 3.99,
  "StationName": "AWP66112",
  "TaskName": "rest",
  "TotalReadoutTime": 0.02054,
  "TxRefAmp": 219.967,
  "dcmmeta_affine": [
    [-2.9998767375946045, -0.026179667562246323, 0.00977308675646782, 120.51021575927734],
    [-0.022683752700686455, 2.856510877609253, 1.2188422679901123, -134.10861206054688],
    [0.014993938617408276, -0.9163295030593872, 3.799266815185547, -18.344362258911133],
    [0.0, 0.0, 0.0, 1.0]
],
  "dcmmeta_reorient_transform": [
    [0.0, -1.0, 0.0, 79.0],
    [1.0, 0.0, 0.0, 0.0],
    [0.0, 0.0, 1.0, 0.0],
    [0.0, 0.0, 0.0, 1.0]
],
  "dcmmeta_shape": [80, 80, 30, 200],
  "dcmmeta_slice_dim": 2,
  "dcmmeta_version": 0.6,
  "global": {
    "const": {
      "AccessionNumber": "qa",
      "AcquisitionMatrix": [80, 0, 0, 80],
      "AngioFlag": "N",
      "BitsAllocated": 16,
      "BitsStored": 12,
      "BodyPartExamined": "BRAIN",
      "Columns": 480,
      "EchoNumbers": 1,
      "EchoTime": 35.0,
      "EchoTrainLength": 39,
      "FlipAngle": 90.0,
      "HighBit": 11,
      "ImageOrientationPatient": [0.99995892299838, 0.00756125107807, 0.00499797939626, -0.0087265559919, 0.95217031854025, 0.30544317263851],
      "ImagePositionPatient": [-713.1814453465, -667.39469437385, -276.99908622163],
      "ImageType": [
        "ORIGINAL",
        "PRIMARY",
        "M",
        "ND",
        "NORM",
        "MOSAIC"
],
      "ImagedNucleus": "1H",
      "ImagingFrequency": 123.252357,
      "InPlanePhaseEncodingDirection": "COL",
      "MRAcquisitionType": "2D",
      "MagneticFieldStrength": 3.0,
      "Manufacturer": "SIEMENS",
      "ManufacturerModelName": "Prisma",
      "Modality": "MR",
      "NumberOfAverages": 1.0,
      "NumberOfPhaseEncodingSteps": 79,
      "PercentPhaseFieldOfView": 100.0,
      "PercentSampling": 100.0,
      "PerformedProcedureStepStartTime": "110837.739000",
      "PhotometricInterpretation": "MONOCHROME2",
      "PixelBandwidth": 2315.0,
      "PixelRepresentation": 0,
      "PixelSpacing": [3.0, 3.0],
      "ProtocolName": "func-bold_task-rest_acq-p2",
      "RepetitionTime": 2000.0,
      "Rows": 480,
      "SAR": 0.04734535739387,
      "SamplesPerPixel": 1,
      "ScanOptions": "FS",
      "ScanningSequence": "EP",
      "SequenceName": "*epfid2d1_80",
      "SequenceVariant": "SK",
      "SeriesDescription": "func-bold_task-rest_acq-p2",
      "SeriesNumber": 5,
      "SeriesTime": "111111.989000",
      "SliceLocation": -58.139000586609,
      "SliceThickness": 3.5,
      "SmallestImagePixelValue": 0,
      "SoftwareVersions": "syngo MR E11",
      "SpacingBetweenSlices": 3.9900000226079,
      "SpecificCharacterSet": "ISO_IR 100",
      "StudyID": "45",
      "StudyTime": "110837.685000",
      "TransmitCoilName": "Body",
      "VariableFlipAngleFlag": "N",
      "WindowCenterWidthExplanation": "Algo1",
      "dBdt": 0.0},
    "slices": {}
  },
  "time": {
    "samples": {
      "AcquisitionNumber": [1, 2, 3, 4, 5, 6, 7, 8, 9, 10, 11, 12, 13, 14, 15, 16, 17, 18, 19, 20, 21, 22, 23, 24, 25, 26, 27, 28, 29, 30, 31, 32, 33, 34, 35, 36, 37, 38, 39, 40, 41, 42, 43, 44, 45, 46, 47, 48, 49, 50, 51, 52, 53, 54, 55, 56, 57, 58, 59, 60, 61, 62, 63, 64, 65, 66, 67, 68, 69, 70, 71, 72, 73, 74, 75, 76, 77, 78, 79, 80, 81, 82, 83, 84, 85, 86, 87, 88, 89, 90, 91, 92, 93, 94, 95, 96, 97, 98, 99, 100, 101, 102, 103, 104, 105, 106, 107, 108, 109, 110, 111, 112, 113, 114, 115, 116, 117, 118, 119, 120, 121, 122, 123, 124, 125, 126, 127, 128, 129, 130, 131, 132, 133, 134, 135, 136, 137, 138, 139, 140, 141, 142, 143, 144, 145, 146, 147, 148, 149, 150, 151, 152, 153, 154, 155, 156, 157, 158, 159, 160, 161, 162, 163, 164, 165, 166, 167, 168, 169, 170, 171, 172, 173, 174, 175, 176, 177, 178, 179, 180, 181, 182, 183, 184, 185, 186, 187, 188, 189, 190, 191, 192, 193, 194, 195, 196, 197, 198, 199, 200],
      "AcquisitionTime": ["111021.830000", "111023.830000", "111025.830000", "111027.830000", "111029.830000", "111031.830000", "111033.830000", "111035.830000", "111037.830000", "111039.830000", "111041.830000", "111043.830000", "111045.830000", "111047.830000", "111049.830000", "111051.830000", "111053.830000", "111055.830000", "111057.830000", "111059.830000", "111101.830000", "111103.830000", "111105.830000", "111107.830000", "111109.830000", "111111.830000", "111113.830000", "111115.830000", "111117.830000", "111119.830000", "111121.830000", "111123.830000", "111125.830000", "111127.830000", "111129.830000", "111131.830000", "111133.830000", "111135.830000", "111137.830000", "111139.830000", "111141.830000", "111143.830000", "111145.830000", "111147.830000", "111149.830000", "111151.830000", "111153.830000", "111155.830000", "111157.830000", "111159.830000", "111201.830000", "111203.830000", "111205.830000", "111207.830000", "111209.830000", "111211.830000", "111213.830000", "111215.830000", "111217.830000", "111219.830000", "111221.830000", "111223.830000", "111225.830000", "111227.830000", "111229.830000", "111231.830000", "111233.830000", "111235.830000", "111237.830000", "111239.830000", "111241.830000", "111243.830000", "111245.830000", "111247.830000", "111249.830000", "111251.830000", "111253.830000", "111255.830000", "111257.830000", "111259.830000", "111301.830000", "111303.830000", "111305.830000", "111307.830000", "111309.830000", "111311.830000", "111313.830000", "111315.830000", "111317.830000", "111319.830000", "111321.830000", "111323.830000", "111325.830000", "111327.830000", "111329.830000", "111331.830000", "111333.830000", "111335.830000", "111337.830000", "111339.830000", "111341.830000", "111343.830000", "111345.830000", "111347.830000", "111349.830000", "111351.830000", "111353.830000", "111355.830000", "111357.830000", "111359.830000", "111401.830000", "111403.830000", "111405.830000", "111407.830000", "111409.830000", "111411.830000", "111413.830000", "111415.830000", "111417.830000", "111419.830000", "111421.830000", "111423.830000", "111425.830000", "111427.830000", "111429.830000", "111431.830000", "111433.830000", "111435.830000", "111437.830000", "111439.830000", "111441.830000", "111443.830000", "111445.830000", "111447.830000", "111449.830000", "111451.830000", "111453.830000", "111455.830000", "111457.830000", "111459.830000", "111501.830000", "111503.830000", "111505.830000", "111507.830000", "111509.830000", "111511.830000", "111513.830000", "111515.830000", "111517.830000", "111519.830000", "111521.830000", "111523.830000", "111525.830000", "111527.830000", "111529.830000", "111531.830000", "111533.830000", "111535.830000", "111537.830000", "111539.830000", "111541.830000", "111543.830000", "111545.830000", "111547.830000", "111549.830000", "111551.830000", "111553.830000", "111555.830000", "111557.830000", "111559.830000", "111601.830000", "111603.830000", "111605.830000", "111607.830000", "111609.830000", "111611.830000", "111613.830000", "111615.830000", "111617.830000", "111619.830000", "111621.830000", "111623.830000", "111625.830000", "111627.830000", "111629.830000", "111631.830000", "111633.830000", "111635.830000", "111637.830000", "111639.830000", "111641.830000", "111643.830000", "111645.830000", "111647.830000", "111649.830000", "111651.830000", "111653.830000", "111655.830000", "111657.830000", "111659.830000"],
      "ContentTime": ["111111.992000", "111111.995000", "111111.998000", "111112.002000", "111112.004000", "111112.007000", "111112.009000", "111112.011000", "111112.014000", "111112.016000", "111112.019000", "111112.021000", "111112.024000", "111112.026000", "111112.029000", "111112.032000", "111112.034000", "111112.036000", "111112.039000", "111112.042000", "111112.044000", "111112.047000", "111112.049000", "111112.052000", "111112.054000", "111151.986000", "111151.989000", "111151.992000", "111151.994000", "111151.997000", "111152.000000", "111152.003000", "111152.005000", "111152.008000", "111152.010000", "111152.013000", "111152.015000", "111152.018000", "111152.020000", "111152.023000", "111152.025000", "111152.028000", "111152.030000", "111152.033000", "111152.035000", "111231.987000", "111231.990000", "111231.993000", "111231.995000", "111231.998000", "111232.001000", "111232.004000", "111232.006000", "111232.009000", "111232.011000", "111232.014000", "111232.016000", "111232.019000", "111232.021000", "111232.024000", "111232.026000", "111232.029000", "111232.031000", "111232.034000", "111232.036000", "111311.988000", "111311.990000", "111311.993000", "111311.995000", "111311.998000", "111312.001000", "111312.004000", "111312.006000", "111312.009000", "111312.011000", "111312.014000", "111312.016000", "111312.019000", "111312.021000", "111312.024000", "111312.026000", "111312.029000", "111312.031000", "111312.034000", "111312.036000", "111351.987000", "111351.990000", "111351.993000", "111351.995000", "111351.998000", "111352.001000", "111352.004000", "111352.006000", "111352.009000", "111352.011000", "111352.014000", "111352.016000", "111352.019000", "111352.021000", "111352.024000", "111352.026000", "111352.029000", "111352.031000", "111352.034000", "111352.036000", "111431.986000", "111431.989000", "111431.992000", "111431.994000", "111431.997000", "111432.000000", "111432.003000", "111432.005000", "111432.008000", "111432.011000", "111432.013000", "111432.016000", "111432.018000", "111432.021000", "111432.023000", "111432.026000", "111432.028000", "111432.031000", "111432.033000", "111432.036000", "111511.987000", "111511.990000", "111511.993000", "111511.995000", "111511.998000", "111512.002000", "111512.004000", "111512.007000", "111512.009000", "111512.012000", "111512.014000", "111512.017000", "111512.019000", "111512.022000", "111512.024000", "111512.027000", "111512.029000", "111512.032000", "111512.034000", "111512.037000", "111551.987000", "111551.990000", "111551.993000", "111551.995000", "111551.998000", "111552.001000", "111552.004000", "111552.006000", "111552.009000", "111552.011000", "111552.014000", "111552.017000", "111552.019000", "111552.022000", "111552.024000", "111552.027000", "111552.029000", "111552.032000", "111552.034000", "111552.037000", "111631.987000", "111631.989000", "111631.992000", "111631.995000", "111631.997000", "111632.001000", "111632.003000", "111632.006000", "111632.008000", "111632.011000", "111632.014000", "111632.016000", "111632.019000", "111632.022000", "111632.024000", "111632.027000", "111632.029000", "111632.032000", "111632.034000", "111632.037000", "111701.381000", "111701.384000", "111701.386000", "111701.389000", "111701.391000", "111701.394000", "111701.396000", "111701.399000", "111701.402000", "111701.404000", "111701.407000", "111701.410000", "111701.417000", "111701.420000", "111701.423000"],
      "InstanceCreationTime": ["111111.992000", "111111.995000", "111111.998000", "111112.002000", "111112.004000", "111112.007000", "111112.009000", "111112.011000", "111112.014000", "111112.016000", "111112.019000", "111112.021000", "111112.024000", "111112.026000", "111112.029000", "111112.032000", "111112.034000", "111112.036000", "111112.039000", "111112.042000", "111112.044000", "111112.047000", "111112.049000", "111112.052000", "111112.054000", "111151.986000", "111151.989000", "111151.992000", "111151.994000", "111151.997000", "111152.000000", "111152.003000", "111152.005000", "111152.008000", "111152.010000", "111152.013000", "111152.015000", "111152.018000", "111152.020000", "111152.023000", "111152.025000", "111152.028000", "111152.030000", "111152.033000", "111152.035000", "111231.987000", "111231.990000", "111231.993000", "111231.995000", "111231.998000", "111232.001000", "111232.004000", "111232.006000", "111232.009000", "111232.011000", "111232.014000", "111232.016000", "111232.019000", "111232.021000", "111232.024000", "111232.026000", "111232.029000", "111232.031000", "111232.034000", "111232.036000", "111311.988000", "111311.990000", "111311.993000", "111311.995000", "111311.998000", "111312.001000", "111312.004000", "111312.006000", "111312.009000", "111312.011000", "111312.014000", "111312.016000", "111312.019000", "111312.021000", "111312.024000", "111312.026000", "111312.029000", "111312.031000", "111312.034000", "111312.036000", "111351.987000", "111351.990000", "111351.993000", "111351.995000", "111351.998000", "111352.001000", "111352.004000", "111352.006000", "111352.009000", "111352.011000", "111352.014000", "111352.016000", "111352.019000", "111352.021000", "111352.024000", "111352.026000", "111352.029000", "111352.031000", "111352.034000", "111352.036000", "111431.986000", "111431.989000", "111431.992000", "111431.994000", "111431.997000", "111432.000000", "111432.003000", "111432.005000", "111432.008000", "111432.011000", "111432.013000", "111432.016000", "111432.018000", "111432.021000", "111432.023000", "111432.026000", "111432.028000", "111432.031000", "111432.033000", "111432.036000", "111511.987000", "111511.990000", "111511.993000", "111511.995000", "111511.998000", "111512.002000", "111512.004000", "111512.007000", "111512.009000", "111512.012000", "111512.014000", "111512.017000", "111512.019000", "111512.022000", "111512.024000", "111512.027000", "111512.029000", "111512.032000", "111512.034000", "111512.037000", "111551.987000", "111551.990000", "111551.993000", "111551.995000", "111551.998000", "111552.001000", "111552.004000", "111552.006000", "111552.009000", "111552.011000", "111552.014000", "111552.017000", "111552.019000", "111552.022000", "111552.024000", "111552.027000", "111552.029000", "111552.032000", "111552.034000", "111552.037000", "111631.987000", "111631.989000", "111631.992000", "111631.995000", "111631.997000", "111632.001000", "111632.003000", "111632.006000", "111632.008000", "111632.011000", "111632.014000", "111632.016000", "111632.019000", "111632.022000", "111632.024000", "111632.027000", "111632.029000", "111632.032000", "111632.034000", "111632.037000", "111701.381000", "111701.384000", "111701.386000", "111701.389000", "111701.391000", "111701.394000", "111701.396000", "111701.399000", "111701.402000", "111701.404000", "111701.407000", "111701.410000", "111701.417000", "111701.420000", "111701.423000"],
      "InstanceNumber": [1, 2, 3, 4, 5, 6, 7, 8, 9, 10, 11, 12, 13, 14, 15, 16, 17, 18, 19, 20, 21, 22, 23, 24, 25, 26, 27, 28, 29, 30, 31, 32, 33, 34, 35, 36, 37, 38, 39, 40, 41, 42, 43, 44, 45, 46, 47, 48, 49, 50, 51, 52, 53, 54, 55, 56, 57, 58, 59, 60, 61, 62, 63, 64, 65, 66, 67, 68, 69, 70, 71, 72, 73, 74, 75, 76, 77, 78, 79, 80, 81, 82, 83, 84, 85, 86, 87, 88, 89, 90, 91, 92, 93, 94, 95, 96, 97, 98, 99, 100, 101, 102, 103, 104, 105, 106, 107, 108, 109, 110, 111, 112, 113, 114, 115, 116, 117, 118, 119, 120, 121, 122, 123, 124, 125, 126, 127, 128, 129, 130, 131, 132, 133, 134, 135, 136, 137, 138, 139, 140, 141, 142, 143, 144, 145, 146, 147, 148, 149, 150, 151, 152, 153, 154, 155, 156, 157, 158, 159, 160, 161, 162, 163, 164, 165, 166, 167, 168, 169, 170, 171, 172, 173, 174, 175, 176, 177, 178, 179, 180, 181, 182, 183, 184, 185, 186, 187, 188, 189, 190, 191, 192, 193, 194, 195, 196, 197, 198, 199, 200],
      "LargestImagePixelValue": [2533, 2532, 2534, 2528, 2534, 2531, 2533, 2534, 2531, 2537, 2532, 2532, 2533, 2533, 2536, 2534, 2535, 2535, 2531, 2533, 2533, 2534, 2532, 2537, 2532, 2531, 2529, 2530, 2526, 2534, 2531, 2531, 2527, 2530, 2528, 2530, 2529, 2531, 2534, 2529, 2530, 2528, 2528, 2534, 2533, 2533, 2527, 2537, 2527, 2532, 2531, 2528, 2530, 2532, 2529, 2534, 2531, 2523, 2534, 2534, 2530, 2533, 2526, 2530, 2529, 2531, 2531, 2531, 2527, 2532, 2529, 2533, 2530, 2529, 2531, 2534, 2525, 2535, 2527, 2528, 2531, 2530, 2526, 2531, 2531, 2526, 2532, 2522, 2521, 2531, 2528, 2524, 2526, 2527, 2521, 2524, 2527, 2525, 2526, 2524, 2523, 2520, 2519, 2515, 2527, 2524, 2525, 2528, 2525, 2524, 2525, 2524, 2529, 2534, 2526, 2529, 2534, 2530, 2529, 2523, 2524, 2527, 2523, 2523, 2531, 2529, 2527, 2528, 2528, 2530, 2523, 2525, 2526, 2525, 2524, 2525, 2525, 2523, 2525, 2530, 2529, 2528, 2530, 2524, 2522, 2525, 2529, 2519, 2529, 2527, 2523, 2527, 2530, 2527, 2521, 2527, 2527, 2523, 2524, 2526, 2523, 2521, 2525, 2528, 2524, 2528, 2531, 2523, 2520, 2528, 2526, 2526, 2525, 2525, 2523, 2516, 2524, 2515, 2515, 2519, 2521, 2524, 2522, 2524, 2524, 2522, 2522, 2525, 2521, 2520, 2522, 2522, 2522, 2515, 2522, 2523, 2517, 2519, 2526, 2520],
      "WindowCenter": [1079.0, 1079.0, 1079.0, 1079.0, 1079.0, 1079.0, 1079.0, 1079.0, 1079.0, 1079.0, 1079.0, 1079.0, 1079.0, 1079.0, 1079.0, 1079.0, 1079.0, 1079.0, 1079.0, 1079.0, 1079.0, 1079.0, 1079.0, 1079.0, 1079.0, 1079.0, 1079.0, 1079.0, 1079.0, 1079.0, 1079.0, 1079.0, 1079.0, 1079.0, 1078.0, 1079.0, 1079.0, 1078.0, 1079.0, 1078.0, 1079.0, 1079.0, 1079.0, 1078.0, 1079.0, 1079.0, 1079.0, 1079.0, 1079.0, 1079.0, 1079.0, 1079.0, 1079.0, 1078.0, 1078.0, 1079.0, 1079.0, 1078.0, 1078.0, 1078.0, 1079.0, 1079.0, 1079.0, 1078.0, 1079.0, 1079.0, 1079.0, 1078.0, 1079.0, 1079.0, 1079.0, 1079.0, 1079.0, 1079.0, 1079.0, 1079.0, 1078.0, 1078.0, 1079.0, 1079.0, 1078.0, 1079.0, 1078.0, 1078.0, 1078.0, 1078.0, 1078.0, 1078.0, 1078.0, 1078.0, 1078.0, 1078.0, 1078.0, 1078.0, 1078.0, 1078.0, 1078.0, 1078.0, 1078.0, 1078.0, 1078.0, 1078.0, 1078.0, 1078.0, 1078.0, 1078.0, 1078.0, 1078.0, 1078.0, 1078.0, 1078.0, 1078.0, 1078.0, 1078.0, 1078.0, 1078.0, 1078.0, 1078.0, 1078.0, 1078.0, 1078.0, 1078.0, 1078.0, 1078.0, 1078.0, 1078.0, 1078.0, 1078.0, 1078.0, 1078.0, 1078.0, 1078.0, 1078.0, 1078.0, 1078.0, 1078.0, 1078.0, 1078.0, 1078.0, 1078.0, 1078.0, 1078.0, 1078.0, 1078.0, 1078.0, 1078.0, 1078.0, 1078.0, 1078.0, 1078.0, 1078.0, 1078.0, 1078.0, 1078.0, 1078.0, 1078.0, 1078.0, 1078.0, 1078.0, 1078.0, 1077.0, 1078.0, 1078.0, 1078.0, 1078.0, 1078.0, 1078.0, 1078.0, 1078.0, 1077.0, 1077.0, 1078.0, 1078.0, 1078.0, 1078.0, 1078.0, 1077.0, 1077.0, 1077.0, 1078.0, 1078.0, 1078.0, 1077.0, 1078.0, 1077.0, 1077.0, 1077.0, 1077.0, 1077.0, 1077.0, 1077.0, 1077.0, 1077.0, 1077.0, 1077.0, 1077.0, 1077.0, 1077.0, 1077.0, 1077.0],
      "WindowWidth": [2450.0, 2450.0, 2450.0, 2450.0, 2450.0, 2449.0, 2450.0, 2450.0, 2450.0, 2450.0, 2449.0, 2449.0, 2449.0, 2449.0, 2449.0, 2449.0, 2449.0, 2449.0, 2449.0, 2449.0, 2449.0, 2449.0, 2449.0, 2449.0, 2449.0, 2449.0, 2448.0, 2448.0, 2449.0, 2448.0, 2448.0, 2448.0, 2448.0, 2448.0, 2448.0, 2448.0, 2448.0, 2448.0, 2448.0, 2448.0, 2448.0, 2448.0, 2448.0, 2448.0, 2448.0, 2448.0, 2448.0, 2448.0, 2448.0, 2448.0, 2448.0, 2448.0, 2448.0, 2448.0, 2448.0, 2448.0, 2448.0, 2447.0, 2448.0, 2448.0, 2448.0, 2449.0, 2448.0, 2448.0, 2449.0, 2449.0, 2449.0, 2449.0, 2449.0, 2449.0, 2449.0, 2449.0, 2449.0, 2449.0, 2449.0, 2449.0, 2448.0, 2448.0, 2448.0, 2448.0, 2448.0, 2449.0, 2447.0, 2447.0, 2447.0, 2447.0, 2447.0, 2447.0, 2447.0, 2447.0, 2447.0, 2447.0, 2446.0, 2446.0, 2446.0, 2446.0, 2446.0, 2446.0, 2446.0, 2446.0, 2446.0, 2446.0, 2446.0, 2446.0, 2446.0, 2446.0, 2446.0, 2446.0, 2446.0, 2446.0, 2447.0, 2446.0, 2447.0, 2448.0, 2448.0, 2448.0, 2448.0, 2448.0, 2448.0, 2447.0, 2447.0, 2448.0, 2448.0, 2447.0, 2447.0, 2447.0, 2448.0, 2448.0, 2447.0, 2447.0, 2448.0, 2448.0, 2447.0, 2448.0, 2447.0, 2448.0, 2448.0, 2447.0, 2446.0, 2446.0, 2446.0, 2446.0, 2445.0, 2446.0, 2446.0, 2446.0, 2445.0, 2446.0, 2446.0, 2446.0, 2445.0, 2446.0, 2445.0, 2446.0, 2445.0, 2446.0, 2446.0, 2446.0, 2445.0, 2446.0, 2445.0, 2445.0, 2445.0, 2445.0, 2446.0, 2446.0, 2447.0, 2447.0, 2447.0, 2445.0, 2445.0, 2446.0, 2447.0, 2447.0, 2447.0, 2445.0, 2445.0, 2445.0, 2445.0, 2445.0, 2445.0, 2445.0, 2445.0, 2445.0, 2445.0, 2445.0, 2445.0, 2444.0, 2445.0, 2445.0, 2444.0, 2444.0, 2445.0, 2445.0, 2445.0, 2445.0, 2445.0, 2445.0, 2444.0, 2444.0]
    },
    "slices": {}
  }
}