{
  "AcquisitionMatrixPE": 80,
  "AcquisitionNumber": 1,
  "AcquisitionTime": "09:12:14.205000",
  "BandwidthPerPixelPhaseEncode": 48.077,
  "BaseResolution": 80,
  "BodyPartExamined": "BRAIN",
  "CoilCombinationMethod": "Sum of Squares",
  "ConsistencyInfo": "N4_VE11C_LATEST_20160120",
  "ConversionSoftware": "dcm2niix",
  "ConversionSoftwareVersion": "v1.0.20220720",
  "DerivedVendorReportedEchoSpacing": 0.000519999,
  "DeviceSerialNumber": "66112",
  "DwellTime": 2.7e-06,
  "EchoTime": 0.035,
  "EchoTrainLength": 39,
  "EffectiveEchoSpacing": 0.00026,
  "FlipAngle": 90,
  "HeudiconvVersion": "0.13.1",
  "ImageOrientationPatientDICOM": [0.983055, 0.183002, 0.010591, -0.177411, 0.935301, 0.306167],
  "ImageOrientationText": "Tra>Cor(17.6)>Sag(-2.6)",
  "ImageType": [
    "ORIGINAL",
    "PRIMARY",
    "M",
    "ND",
    "NORM",
    "MOSAIC"
],
  "ImagingFrequency": 123.252,
  "InPlanePhaseEncodingDirectionDICOM": "COL",
  "InstitutionAddress": "Maynard 3,Hanover,NH,US,03755",
  "InstitutionName": "Dartmouth College - PBS",
  "InstitutionalDepartmentName": "Department",
  "MRAcquisitionType": "2D",
  "MagneticFieldStrength": 3,
  "Manufacturer": "Siemens",
  "ManufacturersModelName": "Prisma",
  "MatrixCoilMode": "GRAPPA",
  "Modality": "MR",
  "NonlinearGradientCorrection": false,
  "ParallelReductionFactorInPlane": 2,
  "PartialFourier": 1,
  "PatientPosition": "HFS",
  "PercentPhaseFOV": 100,
  "PercentSampling": 100,
  "PhaseEncodingDirection": "j-",
  "PhaseEncodingSteps": 79,
  "PhaseResolution": 1,
  "PixelBandwidth": 2315,
  "ProcedureStepDescription": "dbic^QA",
  "ProtocolName": "func-bold_task-rest_acq-p2",
  "PulseSequenceDetails": "%SiemensSeq%\\ep2d_bold",
  "ReceiveCoilActiveElements": "HEA;HEP",
  "ReceiveCoilName": "Head_32",
  "ReconMatrixPE": 80,
  "RefLinesPE": 24,
  "RepetitionTime": 2,
  "SAR": 0.0555065,
  "ScanOptions": "FS",
  "ScanningSequence": "EP",
  "SequenceName": "*epfid2d1_80",
  "SequenceVariant": "SK",
  "SeriesDescription": "func-bold_task-rest_acq-p2",
  "SeriesNumber": 5,
  "ShimSetting": [4159, -7692, -7511, 272, -4, -157, -28, 137],
  "SliceThickness": 3.5,
  "SliceTiming": [0.99, 0, 1.055, 0.065, 1.1225, 0.1325, 1.1875, 0.1975, 1.2525, 0.265, 1.32, 0.33, 1.385, 0.395, 1.4525, 0.4625, 1.5175, 0.5275, 1.5825, 0.5925, 1.65, 0.66, 1.715, 0.725, 1.7825, 0.7925, 1.8475, 0.8575, 1.9125, 0.9225],
  "SoftwareVersions": "syngo MR E11",
  "SpacingBetweenSlices": 3.99,
  "StationName": "AWP66112",
  "TaskName": "rest",
  "TotalReadoutTime": 0.02054,
  "TxRefAmp": 227.881,
  "dcmmeta_affine": [
    [-2.9491662979125977, -0.5322332382202148, -0.1840324103832245, 143.92929077148438],
    [-0.5490072965621948, 2.8059020042419434, 1.2084019184112549, -96.04850769042969],
    [0.03177313879132271, -0.9184995889663696, 3.798157215118408, -23.7869930267334],
    [0.0, 0.0, 0.0, 1.0]
],
  "dcmmeta_reorient_transform": [
    [0.0, -1.0, 0.0, 79.0],
    [1.0, 0.0, 0.0, 0.0],
    [0.0, 0.0, 1.0, 0.0],
    [0.0, 0.0, 0.0, 1.0]
],
  "dcmmeta_shape": [80, 80, 30, 200],
  "dcmmeta_slice_dim": 2,
  "dcmmeta_version": 0.6,
  "global": {
    "const": {
      "AccessionNumber": "qa",
      "AcquisitionMatrix": [80, 0, 0, 80],
      "AngioFlag": "N",
      "BitsAllocated": 16,
      "BitsStored": 12,
      "BodyPartExamined": "BRAIN",
      "Columns": 480,
      "EchoNumbers": 1,
      "EchoTime": 35.0,
      "EchoTrainLength": 39,
      "FlipAngle": 90.0,
      "HighBit": 11,
      "ImageOrientationPatient": [0.98305540885454, 0.18300243952696, 0.01059104570018, -0.1774110883589, 0.93530068110278, 0.30616652602134],
      "ImagePositionPatient": [-585.26945522859, -796.59962403542, -286.40300275644],
      "ImageType": [
        "ORIGINAL",
        "PRIMARY",
        "M",
        "ND",
        "NORM",
        "MOSAIC"
],
      "ImagedNucleus": "1H",
      "ImagingFrequency": 123.252423,
      "InPlanePhaseEncodingDirection": "COL",
      "MRAcquisitionType": "2D",
      "MagneticFieldStrength": 3.0,
      "Manufacturer": "SIEMENS",
      "ManufacturerModelName": "Prisma",
      "Modality": "MR",
      "NumberOfAverages": 1.0,
      "NumberOfPhaseEncodingSteps": 79,
      "PercentPhaseFieldOfView": 100.0,
      "PercentSampling": 100.0,
      "PerformedProcedureStepStartTime": "091022.010000",
      "PhotometricInterpretation": "MONOCHROME2",
      "PixelBandwidth": 2315.0,
      "PixelRepresentation": 0,
      "PixelSpacing": [3.0, 3.0],
      "ProtocolName": "func-bold_task-rest_acq-p2",
      "RepetitionTime": 2000.0,
      "Rows": 480,
      "SAR": 0.05550650432715,
      "SamplesPerPixel": 1,
      "ScanOptions": "FS",
      "ScanningSequence": "EP",
      "SequenceName": "*epfid2d1_80",
      "SequenceVariant": "SK",
      "SeriesDescription": "func-bold_task-rest_acq-p2",
      "SeriesNumber": 5,
      "SeriesTime": "091303.194000",
      "SliceLocation": -58.370825372974,
      "SliceThickness": 3.5,
      "SmallestImagePixelValue": 0,
      "SoftwareVersions": "syngo MR E11",
      "SpacingBetweenSlices": 3.990000107767,
      "SpecificCharacterSet": "ISO_IR 100",
      "StudyID": "14",
      "StudyTime": "091021.935000",
      "TransmitCoilName": "Body",
      "VariableFlipAngleFlag": "N",
      "WindowCenterWidthExplanation": "Algo1",
      "dBdt": 0.0},
    "slices": {}
  },
  "time": {
    "samples": {
      "AcquisitionNumber": [1, 2, 3, 4, 5, 6, 7, 8, 9, 10, 11, 12, 13, 14, 15, 16, 17, 18, 19, 20, 21, 22, 23, 24, 25, 26, 27, 28, 29, 30, 31, 32, 33, 34, 35, 36, 37, 38, 39, 40, 41, 42, 43, 44, 45, 46, 47, 48, 49, 50, 51, 52, 53, 54, 55, 56, 57, 58, 59, 60, 61, 62, 63, 64, 65, 66, 67, 68, 69, 70, 71, 72, 73, 74, 75, 76, 77, 78, 79, 80, 81, 82, 83, 84, 85, 86, 87, 88, 89, 90, 91, 92, 93, 94, 95, 96, 97, 98, 99, 100, 101, 102, 103, 104, 105, 106, 107, 108, 109, 110, 111, 112, 113, 114, 115, 116, 117, 118, 119, 120, 121, 122, 123, 124, 125, 126, 127, 128, 129, 130, 131, 132, 133, 134, 135, 136, 137, 138, 139, 140, 141, 142, 143, 144, 145, 146, 147, 148, 149, 150, 151, 152, 153, 154, 155, 156, 157, 158, 159, 160, 161, 162, 163, 164, 165, 166, 167, 168, 169, 170, 171, 172, 173, 174, 175, 176, 177, 178, 179, 180, 181, 182, 183, 184, 185, 186, 187, 188, 189, 190, 191, 192, 193, 194, 195, 196, 197, 198, 199, 200],
      "AcquisitionTime": ["091214.205000", "091216.205000", "091218.205000", "091220.205000", "091222.205000", "091224.205000", "091226.205000", "091228.205000", "091230.205000", "091232.205000", "091234.205000", "091236.205000", "091238.205000", "091240.205000", "091242.205000", "091244.205000", "091246.205000", "091248.205000", "091250.205000", "091252.205000", "091254.205000", "091256.205000", "091258.205000", "091300.205000", "091302.205000", "091304.205000", "091306.205000", "091308.205000", "091310.205000", "091312.205000", "091314.205000", "091316.205000", "091318.205000", "091320.205000", "091322.205000", "091324.205000", "091326.205000", "091328.205000", "091330.205000", "091332.205000", "091334.205000", "091336.205000", "091338.205000", "091340.205000", "091342.205000", "091344.205000", "091346.205000", "091348.205000", "091350.205000", "091352.205000", "091354.205000", "091356.205000", "091358.205000", "091400.205000", "091402.205000", "091404.205000", "091406.205000", "091408.205000", "091410.205000", "091412.205000", "091414.205000", "091416.205000", "091418.205000", "091420.205000", "091422.205000", "091424.205000", "091426.205000", "091428.205000", "091430.205000", "091432.205000", "091434.205000", "091436.205000", "091438.205000", "091440.205000", "091442.205000", "091444.205000", "091446.205000", "091448.205000", "091450.205000", "091452.205000", "091454.205000", "091456.205000", "091458.205000", "091500.205000", "091502.205000", "091504.205000", "091506.205000", "091508.205000", "091510.205000", "091512.205000", "091514.205000", "091516.205000", "091518.205000", "091520.205000", "091522.205000", "091524.205000", "091526.205000", "091528.205000", "091530.205000", "091532.205000", "091534.205000", "091536.205000", "091538.205000", "091540.205000", "091542.205000", "091544.205000", "091546.205000", "091548.205000", "091550.205000", "091552.205000", "091554.205000", "091556.205000", "091558.205000", "091600.205000", "091602.205000", "091604.205000", "091606.205000", "091608.205000", "091610.205000", "091612.205000", "091614.205000", "091616.205000", "091618.205000", "091620.205000", "091622.205000", "091624.205000", "091626.205000", "091628.205000", "091630.205000", "091632.205000", "091634.205000", "091636.205000", "091638.205000", "091640.205000", "091642.205000", "091644.205000", "091646.205000", "091648.205000", "091650.205000", "091652.205000", "091654.205000", "091656.205000", "091658.205000", "091700.205000", "091702.205000", "091704.205000", "091706.205000", "091708.205000", "091710.205000", "091712.205000", "091714.205000", "091716.205000", "091718.205000", "091720.205000", "091722.205000", "091724.205000", "091726.205000", "091728.205000", "091730.205000", "091732.205000", "091734.205000", "091736.205000", "091738.205000", "091740.205000", "091742.205000", "091744.205000", "091746.205000", "091748.205000", "091750.205000", "091752.205000", "091754.205000", "091756.205000", "091758.205000", "091800.205000", "091802.205000", "091804.205000", "091806.205000", "091808.205000", "091810.205000", "091812.205000", "091814.205000", "091816.205000", "091818.205000", "091820.205000", "091822.205000", "091824.205000", "091826.205000", "091828.205000", "091830.205000", "091832.205000", "091834.205000", "091836.205000", "091838.205000", "091840.205000", "091842.205000", "091844.205000", "091846.205000", "091848.205000", "091850.205000", "091852.205000"],
      "ContentTime": ["091303.198000", "091303.201000", "091303.204000", "091303.206000", "091303.209000", "091303.212000", "091303.214000", "091303.226000", "091303.229000", "091303.231000", "091303.234000", "091303.237000", "091303.239000", "091303.242000", "091303.245000", "091303.247000", "091303.250000", "091303.253000", "091303.255000", "091303.258000", "091303.261000", "091303.263000", "091303.266000", "091303.269000", "091343.192000", "091343.195000", "091343.198000", "091343.201000", "091343.203000", "091343.206000", "091343.209000", "091343.220000", "091343.223000", "091343.226000", "091343.229000", "091343.231000", "091343.234000", "091343.237000", "091343.239000", "091343.242000", "091343.245000", "091343.248000", "091343.250000", "091343.253000", "091423.194000", "091423.196000", "091423.199000", "091423.202000", "091423.204000", "091423.207000", "091423.210000", "091423.219000", "091423.222000", "091423.224000", "091423.227000", "091423.230000", "091423.233000", "091423.235000", "091423.238000", "091423.241000", "091423.243000", "091423.246000", "091423.248000", "091423.251000", "091503.193000", "091503.195000", "091503.198000", "091503.201000", "091503.203000", "091503.206000", "091503.209000", "091503.211000", "091503.214000", "091503.216000", "091503.219000", "091503.222000", "091503.224000", "091503.227000", "091503.230000", "091503.232000", "091503.235000", "091503.238000", "091503.240000", "091503.243000", "091543.192000", "091543.200000", "091543.203000", "091543.205000", "091543.208000", "091543.211000", "091543.213000", "091543.216000", "091543.219000", "091543.221000", "091543.224000", "091543.227000", "091543.229000", "091543.232000", "091543.235000", "091543.237000", "091543.240000", "091543.243000", "091543.245000", "091543.248000", "091623.194000", "091623.196000", "091623.199000", "091623.202000", "091623.205000", "091623.207000", "091623.210000", "091623.212000", "091623.215000", "091623.218000", "091623.220000", "091623.223000", "091623.226000", "091623.228000", "091623.231000", "091623.234000", "091623.236000", "091623.239000", "091623.242000", "091623.244000", "091643.194000", "091643.196000", "091643.199000", "091643.208000", "091643.211000", "091643.214000", "091643.217000", "091643.219000", "091643.231000", "091643.233000", "091723.193000", "091723.195000", "091723.198000", "091723.201000", "091723.203000", "091723.206000", "091723.209000", "091723.211000", "091723.214000", "091723.217000", "091723.219000", "091723.222000", "091723.225000", "091723.227000", "091723.230000", "091723.232000", "091723.235000", "091723.238000", "091723.240000", "091723.243000", "091803.193000", "091803.195000", "091803.198000", "091803.206000", "091803.209000", "091803.211000", "091803.214000", "091803.217000", "091803.219000", "091803.222000", "091803.225000", "091803.227000", "091803.230000", "091803.233000", "091803.235000", "091803.238000", "091803.241000", "091803.243000", "091803.246000", "091803.249000", "091843.194000", "091843.196000", "091843.199000", "091843.202000", "091843.204000", "091843.207000", "091843.210000", "091843.212000", "091843.215000", "091843.218000", "091843.220000", "091843.223000", "091843.226000", "091843.228000", "091843.231000", "091843.234000", "091843.236000", "091843.239000", "091843.242000", "091843.244000", "091854.070000", "091854.073000", "091854.075000", "091854.078000", "091854.081000", "091854.084000"],
      "InstanceCreationTime": ["091303.198000", "091303.201000", "091303.204000", "091303.206000", "091303.209000", "091303.212000", "091303.214000", "091303.226000", "091303.229000", "091303.231000", "091303.234000", "091303.237000", "091303.239000", "091303.242000", "091303.245000", "091303.247000", "091303.250000", "091303.253000", "091303.255000", "091303.258000", "091303.261000", "091303.263000", "091303.266000", "091303.269000", "091343.192000", "091343.195000", "091343.198000", "091343.201000", "091343.203000", "091343.206000", "091343.209000", "091343.220000", "091343.223000", "091343.226000", "091343.229000", "091343.231000", "091343.234000", "091343.237000", "091343.239000", "091343.242000", "091343.245000", "091343.248000", "091343.250000", "091343.253000", "091423.194000", "091423.196000", "091423.199000", "091423.202000", "091423.204000", "091423.207000", "091423.210000", "091423.219000", "091423.222000", "091423.224000", "091423.227000", "091423.230000", "091423.233000", "091423.235000", "091423.238000", "091423.241000", "091423.243000", "091423.246000", "091423.248000", "091423.251000", "091503.193000", "091503.195000", "091503.198000", "091503.201000", "091503.203000", "091503.206000", "091503.209000", "091503.211000", "091503.214000", "091503.216000", "091503.219000", "091503.222000", "091503.224000", "091503.227000", "091503.230000", "091503.232000", "091503.235000", "091503.238000", "091503.240000", "091503.243000", "091543.192000", "091543.200000", "091543.203000", "091543.205000", "091543.208000", "091543.211000", "091543.213000", "091543.216000", "091543.219000", "091543.221000", "091543.224000", "091543.227000", "091543.229000", "091543.232000", "091543.235000", "091543.237000", "091543.240000", "091543.243000", "091543.245000", "091543.248000", "091623.194000", "091623.196000", "091623.199000", "091623.202000", "091623.205000", "091623.207000", "091623.210000", "091623.212000", "091623.215000", "091623.218000", "091623.220000", "091623.223000", "091623.226000", "091623.228000", "091623.231000", "091623.234000", "091623.236000", "091623.239000", "091623.242000", "091623.244000", "091643.194000", "091643.196000", "091643.199000", "091643.208000", "091643.211000", "091643.214000", "091643.217000", "091643.219000", "091643.231000", "091643.233000", "091723.193000", "091723.195000", "091723.198000", "091723.201000", "091723.203000", "091723.206000", "091723.209000", "091723.211000", "091723.214000", "091723.217000", "091723.219000", "091723.222000", "091723.225000", "091723.227000", "091723.230000", "091723.232000", "091723.235000", "091723.238000", "091723.240000", "091723.243000", "091803.193000", "091803.195000", "091803.198000", "091803.206000", "091803.209000", "091803.211000", "091803.214000", "091803.217000", "091803.219000", "091803.222000", "091803.225000", "091803.227000", "091803.230000", "091803.233000", "091803.235000", "091803.238000", "091803.241000", "091803.243000", "091803.246000", "091803.249000", "091843.194000", "091843.196000", "091843.199000", "091843.202000", "091843.204000", "091843.207000", "091843.210000", "091843.212000", "091843.215000", "091843.218000", "091843.220000", "091843.223000", "091843.226000", "091843.228000", "091843.231000", "091843.234000", "091843.236000", "091843.239000", "091843.242000", "091843.244000", "091854.070000", "091854.073000", "091854.075000", "091854.078000", "091854.081000", "091854.084000"],
      "InstanceNumber": [1, 2, 3, 4, 5, 6, 7, 8, 9, 10, 11, 12, 13, 14, 15, 16, 17, 18, 19, 20, 21, 22, 23, 24, 25, 26, 27, 28, 29, 30, 31, 32, 33, 34, 35, 36, 37, 38, 39, 40, 41, 42, 43, 44, 45, 46, 47, 48, 49, 50, 51, 52, 53, 54, 55, 56, 57, 58, 59, 60, 61, 62, 63, 64, 65, 66, 67, 68, 69, 70, 71, 72, 73, 74, 75, 76, 77, 78, 79, 80, 81, 82, 83, 84, 85, 86, 87, 88, 89, 90, 91, 92, 93, 94, 95, 96, 97, 98, 99, 100, 101, 102, 103, 104, 105, 106, 107, 108, 109, 110, 111, 112, 113, 114, 115, 116, 117, 118, 119, 120, 121, 122, 123, 124, 125, 126, 127, 128, 129, 130, 131, 132, 133, 134, 135, 136, 137, 138, 139, 140, 141, 142, 143, 144, 145, 146, 147, 148, 149, 150, 151, 152, 153, 154, 155, 156, 157, 158, 159, 160, 161, 162, 163, 164, 165, 166, 167, 168, 169, 170, 171, 172, 173, 174, 175, 176, 177, 178, 179, 180, 181, 182, 183, 184, 185, 186, 187, 188, 189, 190, 191, 192, 193, 194, 195, 196, 197, 198, 199, 200],
      "LargestImagePixelValue": [1968, 1964, 1970, 1970, 1964, 1969, 1971, 1965, 1958, 1960, 1963, 1968, 1971, 1966, 1969, 1963, 1965, 1975, 1975, 1965, 1968, 1972, 1960, 1968, 1969, 1966, 1964, 1970, 1966, 1963, 1967, 1968, 1965, 1959, 1959, 1970, 1971, 1965, 1968, 1969, 1969, 1971, 1959, 1968, 1963, 1971, 1963, 1968, 1966, 1963, 1971, 1974, 1962, 1968, 1964, 1972, 1973, 1976, 1969, 1964, 1960, 1968, 1964, 1960, 1965, 1968, 1969, 1977, 1967, 1969, 1970, 1967, 1969, 1969, 1969, 1971, 1966, 1970, 1973, 1973, 1970, 1971, 1975, 1992, 1979, 1980, 1972, 1971, 1984, 1978, 1968, 1969, 1982, 1981, 1986, 1983, 1982, 1982, 1977, 1984, 1977, 1976, 1978, 1983, 1972, 1975, 1979, 1986, 1987, 1982, 1980, 1985, 1985, 1976, 1983, 1982, 1976, 1984, 1993, 1979, 1983, 1983, 1988, 1983, 1984, 1992, 1990, 1990, 1988, 1985, 1987, 1986, 1983, 1980, 1982, 1983, 1989, 1984, 1977, 1983, 1985, 1980, 1986, 1981, 1986, 1980, 1974, 1978, 1975, 1972, 1966, 1971, 1968, 1972, 1968, 1976, 1980, 1991, 1981, 1982, 1983, 1988, 1986, 1982, 1990, 1983, 1983, 1984, 1980, 1984, 1981, 1985, 1990, 1983, 1995, 1979, 1989, 1979, 1986, 1979, 1986, 1977, 1984, 1980, 1990, 1985, 1981, 1988, 1988, 1981, 1984, 1977, 1984, 1985, 1979, 1985, 1984, 1983, 1978, 1981],
      "WindowCenter": [981.0, 981.0, 981.0, 982.0, 982.0, 983.0, 982.0, 981.0, 981.0, 982.0, 981.0, 982.0, 981.0, 981.0, 981.0, 981.0, 981.0, 982.0, 981.0, 981.0, 981.0, 982.0, 982.0, 981.0, 981.0, 982.0, 981.0, 982.0, 981.0, 981.0, 981.0, 981.0, 981.0, 981.0, 981.0, 982.0, 982.0, 981.0, 981.0, 981.0, 981.0, 981.0, 981.0, 981.0, 981.0, 981.0, 981.0, 981.0, 981.0, 981.0, 981.0, 981.0, 981.0, 981.0, 981.0, 981.0, 981.0, 981.0, 981.0, 981.0, 981.0, 981.0, 981.0, 980.0, 981.0, 981.0, 981.0, 981.0, 981.0, 981.0, 981.0, 981.0, 980.0, 981.0, 981.0, 981.0, 981.0, 981.0, 980.0, 981.0, 980.0, 980.0, 980.0, 980.0, 980.0, 980.0, 980.0, 980.0, 980.0, 980.0, 981.0, 980.0, 980.0, 980.0, 980.0, 980.0, 980.0, 980.0, 980.0, 980.0, 980.0, 980.0, 980.0, 980.0, 981.0, 980.0, 981.0, 980.0, 980.0, 980.0, 980.0, 980.0, 980.0, 980.0, 980.0, 980.0, 980.0, 980.0, 981.0, 980.0, 980.0, 980.0, 980.0, 980.0, 980.0, 980.0, 981.0, 980.0, 980.0, 980.0, 980.0, 980.0, 980.0, 980.0, 980.0, 980.0, 980.0, 981.0, 980.0, 980.0, 980.0, 980.0, 980.0, 980.0, 980.0, 980.0, 980.0, 980.0, 980.0, 980.0, 981.0, 980.0, 980.0, 981.0, 980.0, 980.0, 980.0, 980.0, 981.0, 980.0, 981.0, 981.0, 982.0, 980.0, 980.0, 980.0, 980.0, 981.0, 981.0, 980.0, 980.0, 981.0, 981.0, 980.0, 980.0, 980.0, 980.0, 980.0, 980.0, 980.0, 980.0, 981.0, 980.0, 980.0, 980.0, 980.0, 980.0, 980.0, 980.0, 981.0, 980.0, 980.0, 981.0, 980.0, 980.0, 980.0, 981.0, 980.0, 980.0, 980.0],
      "WindowWidth": [2147.0, 2147.0, 2147.0, 2148.0, 2148.0, 2148.0, 2148.0, 2147.0, 2147.0, 2148.0, 2147.0, 2147.0, 2147.0, 2147.0, 2147.0, 2147.0, 2147.0, 2147.0, 2147.0, 2147.0, 2147.0, 2147.0, 2147.0, 2147.0, 2147.0, 2147.0, 2147.0, 2147.0, 2147.0, 2147.0, 2147.0, 2147.0, 2147.0, 2147.0, 2146.0, 2147.0, 2147.0, 2147.0, 2147.0, 2146.0, 2146.0, 2146.0, 2146.0, 2146.0, 2146.0, 2146.0, 2146.0, 2146.0, 2146.0, 2146.0, 2146.0, 2146.0, 2146.0, 2146.0, 2147.0, 2146.0, 2147.0, 2147.0, 2146.0, 2146.0, 2146.0, 2146.0, 2146.0, 2146.0, 2146.0, 2146.0, 2146.0, 2146.0, 2146.0, 2146.0, 2146.0, 2145.0, 2146.0, 2146.0, 2146.0, 2146.0, 2146.0, 2146.0, 2146.0, 2146.0, 2145.0, 2146.0, 2145.0, 2145.0, 2145.0, 2145.0, 2145.0, 2145.0, 2145.0, 2145.0, 2146.0, 2145.0, 2145.0, 2145.0, 2145.0, 2145.0, 2145.0, 2145.0, 2145.0, 2145.0, 2145.0, 2145.0, 2145.0, 2145.0, 2145.0, 2145.0, 2145.0, 2145.0, 2144.0, 2144.0, 2144.0, 2145.0, 2145.0, 2145.0, 2145.0, 2145.0, 2144.0, 2144.0, 2145.0, 2144.0, 2144.0, 2144.0, 2144.0, 2144.0, 2144.0, 2144.0, 2145.0, 2144.0, 2144.0, 2144.0, 2144.0, 2144.0, 2144.0, 2143.0, 2144.0, 2144.0, 2144.0, 2144.0, 2144.0, 2144.0, 2144.0, 2144.0, 2143.0, 2144.0, 2143.0, 2143.0, 2143.0, 2143.0, 2143.0, 2143.0, 2144.0, 2143.0, 2143.0, 2144.0, 2143.0, 2143.0, 2143.0, 2143.0, 2144.0, 2143.0, 2144.0, 2144.0, 2144.0, 2143.0, 2142.0, 2143.0, 2143.0, 2143.0, 2143.0, 2142.0, 2143.0, 2144.0, 2144.0, 2143.0, 2142.0, 2143.0, 2143.0, 2142.0, 2142.0, 2142.0, 2142.0, 2143.0, 2143.0, 2142.0, 2142.0, 2142.0, 2142.0, 2142.0, 2142.0, 2144.0, 2142.0, 2143.0, 2143.0, 2142.0, 2142.0, 2142.0, 2143.0, 2142.0, 2142.0, 2142.0]
    },
    "slices": {}
  }
}