{
  "AcquisitionMatrixPE": 80,
  "AcquisitionNumber": 1,
  "AcquisitionTime": "09:19:9.127500",
  "BandwidthPerPixelPhaseEncode": 44.643,
  "BaseResolution": 80,
  "BodyPartExamined": "BRAIN",
  "CoilCombinationMethod": "Sum of Squares",
  "ConsistencyInfo": "N4_VE11C_LATEST_20160120",
  "ConversionSoftware": "dcm2niix",
  "ConversionSoftwareVersion": "v1.0.20220720",
  "DerivedVendorReportedEchoSpacing": 0.000559998,
  "DeviceSerialNumber": "66112",
  "DwellTime": 2.7e-06,
  "EchoTime": 0.035,
  "EchoTrainLength": 39,
  "EffectiveEchoSpacing": 0.000279999,
  "FlipAngle": 90,
  "HeudiconvVersion": "0.13.1",
  "ImageOrientationPatientDICOM": [0.983055, 0.183002, 0.010591, -0.177411, 0.935301, 0.306167],
  "ImageOrientationText": "Tra>Cor(17.6)>Sag(-2.6)",
  "ImageType": [
    "ORIGINAL",
    "PRIMARY",
    "M",
    "ND",
    "NORM",
    "MOSAIC"
],
  "ImagingFrequency": 123.252,
  "InPlanePhaseEncodingDirectionDICOM": "COL",
  "InstitutionAddress": "Maynard 3,Hanover,NH,US,03755",
  "InstitutionName": "Dartmouth College - PBS",
  "InstitutionalDepartmentName": "Department",
  "MRAcquisitionType": "2D",
  "MagneticFieldStrength": 3,
  "Manufacturer": "Siemens",
  "ManufacturersModelName": "Prisma",
  "Modality": "MR",
  "MultibandAccelerationFactor": 4,
  "NonlinearGradientCorrection": false,
  "ParallelReductionFactorInPlane": 2,
  "PartialFourier": 1,
  "PatientPosition": "HFS",
  "PercentPhaseFOV": 100,
  "PercentSampling": 100,
  "PhaseEncodingDirection": "j-",
  "PhaseEncodingSteps": 79,
  "PhaseResolution": 1,
  "PixelBandwidth": 2315,
  "ProcedureStepDescription": "dbic^QA",
  "ProtocolName": "func-bold_task-rest_acq-p2-s4-3.5mm",
  "PulseSequenceDetails": "%SiemensSeq%\\ep2d_bold",
  "ReceiveCoilActiveElements": "HEA;HEP",
  "ReceiveCoilName": "Head_32",
  "ReconMatrixPE": 80,
  "RefLinesPE": 24,
  "RepetitionTime": 2,
  "SAR": 0.0208721,
  "ScanOptions": "FS",
  "ScanningSequence": "EP",
  "SequenceName": "*epfid2d1_80",
  "SequenceVariant": "SK",
  "SeriesDescription": "func-bold_task-rest_acq-p2-s4-3.5mm",
  "SeriesNumber": 7,
  "ShimSetting": [4160, -7693, -7510, 274, -1, -159, -27, 135],
  "SliceThickness": 3.5,
  "SliceTiming": [1.485, 0, 0.99, 0.2475, 1.2375, 0.7425, 1.7325, 0.495, 1.485, 0, 0.99, 0.2475, 1.2375, 0.7425, 1.7325, 0.495, 1.485, 0, 0.99, 0.2475, 1.2375, 0.7425, 1.7325, 0.495, 1.485, 0, 0.99, 0.2475, 1.2375, 0.7425, 1.7325, 0.495],
  "SoftwareVersions": "syngo MR E11",
  "SpacingBetweenSlices": 3.99,
  "StationName": "AWP66112",
  "TaskName": "rest",
  "TotalReadoutTime": 0.0221199,
  "TxRefAmp": 227.881,
  "dcmmeta_affine": [
    [-2.9491662979125977, -0.5322332382202148, -0.1840324103832245, 144.1133270263672],
    [-0.5490072965621948, 2.8059020042419434, 1.2084019184112549, -97.25691223144531],
    [0.03177313879132271, -0.9184995889663696, 3.798157215118408, -27.58514976501465],
    [0.0, 0.0, 0.0, 1.0]
],
  "dcmmeta_reorient_transform": [
    [0.0, -1.0, 0.0, 79.0],
    [1.0, 0.0, 0.0, 0.0],
    [0.0, 0.0, 1.0, 0.0],
    [0.0, 0.0, 0.0, 1.0]
],
  "dcmmeta_shape": [80, 80, 32, 200],
  "dcmmeta_slice_dim": 2,
  "dcmmeta_version": 0.6,
  "global": {
    "const": {
      "AccessionNumber": "qa",
      "AcquisitionMatrix": [80, 0, 0, 80],
      "AngioFlag": "N",
      "BitsAllocated": 16,
      "BitsStored": 12,
      "BodyPartExamined": "BRAIN",
      "Columns": 480,
      "EchoNumbers": 1,
      "EchoTime": 35.0,
      "EchoTrainLength": 39,
      "FlipAngle": 90.0,
      "HighBit": 11,
      "ImageOrientationPatient": [0.98305540885454, 0.18300243952696, 0.01059104570018, -0.1774110883589, 0.93530068110278, 0.30616652602134],
      "ImagePositionPatient": [-585.45348766878, -795.39122235543, -290.20115949472],
      "ImageType": [
        "ORIGINAL",
        "PRIMARY",
        "M",
        "ND",
        "NORM",
        "MOSAIC"
],
      "ImagedNucleus": "1H",
      "ImagingFrequency": 123.25242,
      "InPlanePhaseEncodingDirection": "COL",
      "MRAcquisitionType": "2D",
      "MagneticFieldStrength": 3.0,
      "Manufacturer": "SIEMENS",
      "ManufacturerModelName": "Prisma",
      "Modality": "MR",
      "NumberOfAverages": 1.0,
      "NumberOfPhaseEncodingSteps": 79,
      "PercentPhaseFieldOfView": 100.0,
      "PercentSampling": 100.0,
      "PerformedProcedureStepStartTime": "091022.010000",
      "PhotometricInterpretation": "MONOCHROME2",
      "PixelBandwidth": 2315.0,
      "PixelRepresentation": 0,
      "PixelSpacing": [3.0, 3.0],
      "ProtocolName": "func-bold_task-rest_acq-p2-s4-3.5mm",
      "RepetitionTime": 2000.0,
      "Rows": 480,
      "SAR": 0.02087206149642,
      "SamplesPerPixel": 1,
      "ScanOptions": "FS",
      "ScanningSequence": "EP",
      "SequenceName": "*epfid2d1_80",
      "SequenceVariant": "SK",
      "SeriesDescription": "func-bold_task-rest_acq-p2-s4-3.5mm",
      "SeriesNumber": 7,
      "SeriesTime": "092003.265000",
      "SliceLocation": -62.360825018061,
      "SliceThickness": 3.5,
      "SmallestImagePixelValue": 0,
      "SoftwareVersions": "syngo MR E11",
      "SpacingBetweenSlices": 3.990000068511,
      "SpecificCharacterSet": "ISO_IR 100",
      "StudyID": "14",
      "StudyTime": "091021.935000",
      "TransmitCoilName": "Body",
      "VariableFlipAngleFlag": "N",
      "WindowCenter": 915.0,
      "WindowCenterWidthExplanation": "Algo1",
      "dBdt": 0.0},
    "slices": {}
  },
  "time": {
    "samples": {
      "AcquisitionNumber": [1, 2, 3, 4, 5, 6, 7, 8, 9, 10, 11, 12, 13, 14, 15, 16, 17, 18, 19, 20, 21, 22, 23, 24, 25, 26, 27, 28, 29, 30, 31, 32, 33, 34, 35, 36, 37, 38, 39, 40, 41, 42, 43, 44, 45, 46, 47, 48, 49, 50, 51, 52, 53, 54, 55, 56, 57, 58, 59, 60, 61, 62, 63, 64, 65, 66, 67, 68, 69, 70, 71, 72, 73, 74, 75, 76, 77, 78, 79, 80, 81, 82, 83, 84, 85, 86, 87, 88, 89, 90, 91, 92, 93, 94, 95, 96, 97, 98, 99, 100, 101, 102, 103, 104, 105, 106, 107, 108, 109, 110, 111, 112, 113, 114, 115, 116, 117, 118, 119, 120, 121, 122, 123, 124, 125, 126, 127, 128, 129, 130, 131, 132, 133, 134, 135, 136, 137, 138, 139, 140, 141, 142, 143, 144, 145, 146, 147, 148, 149, 150, 151, 152, 153, 154, 155, 156, 157, 158, 159, 160, 161, 162, 163, 164, 165, 166, 167, 168, 169, 170, 171, 172, 173, 174, 175, 176, 177, 178, 179, 180, 181, 182, 183, 184, 185, 186, 187, 188, 189, 190, 191, 192, 193, 194, 195, 196, 197, 198, 199, 200],
      "AcquisitionTime": ["091909.127500", "091911.127500", "091913.127500", "091915.127500", "091917.127500", "091919.127500", "091921.127500", "091923.127500", "091925.127500", "091927.127500", "091929.127500", "091931.127500", "091933.127500", "091935.127500", "091937.127500", "091939.127500", "091941.127500", "091943.127500", "091945.127500", "091947.127500", "091949.127500", "091951.127500", "091953.127500", "091955.127500", "091957.127500", "091959.127500", "092001.127500", "092003.127500", "092005.127500", "092007.127500", "092009.127500", "092011.127500", "092013.127500", "092015.127500", "092017.127500", "092019.127500", "092021.127500", "092023.127500", "092025.127500", "092027.127500", "092029.127500", "092031.127500", "092033.127500", "092035.127500", "092037.127500", "092039.127500", "092041.127500", "092043.127500", "092045.127500", "092047.127500", "092049.127500", "092051.127500", "092053.127500", "092055.127500", "092057.127500", "092059.127500", "092101.127500", "092103.127500", "092105.127500", "092107.127500", "092109.127500", "092111.127500", "092113.127500", "092115.127500", "092117.127500", "092119.127500", "092121.127500", "092123.127500", "092125.127500", "092127.127500", "092129.127500", "092131.127500", "092133.127500", "092135.127500", "092137.127500", "092139.127500", "092141.127500", "092143.127500", "092145.127500", "092147.127500", "092149.127500", "092151.127500", "092153.127500", "092155.127500", "092157.127500", "092159.127500", "092201.127500", "092203.127500", "092205.127500", "092207.127500", "092209.127500", "092211.127500", "092213.127500", "092215.127500", "092217.127500", "092219.127500", "092221.127500", "092223.127500", "092225.127500", "092227.127500", "092229.127500", "092231.127500", "092233.127500", "092235.127500", "092237.127500", "092239.127500", "092241.127500", "092243.127500", "092245.127500", "092247.127500", "092249.127500", "092251.127500", "092253.127500", "092255.127500", "092257.127500", "092259.127500", "092301.127500", "092303.127500", "092305.127500", "092307.127500", "092309.127500", "092311.127500", "092313.127500", "092315.127500", "092317.127500", "092319.127500", "092321.127500", "092323.127500", "092325.127500", "092327.127500", "092329.127500", "092331.127500", "092333.127500", "092335.127500", "092337.127500", "092339.127500", "092341.127500", "092343.127500", "092345.127500", "092347.127500", "092349.127500", "092351.127500", "092353.127500", "092355.127500", "092357.127500", "092359.127500", "092401.127500", "092403.127500", "092405.127500", "092407.127500", "092409.127500", "092411.127500", "092413.127500", "092415.127500", "092417.127500", "092419.127500", "092421.127500", "092423.127500", "092425.127500", "092427.127500", "092429.127500", "092431.127500", "092433.127500", "092435.127500", "092437.127500", "092439.127500", "092441.127500", "092443.127500", "092445.127500", "092447.127500", "092449.127500", "092451.127500", "092453.127500", "092455.127500", "092457.127500", "092459.127500", "092501.127500", "092503.127500", "092505.127500", "092507.127500", "092509.127500", "092511.127500", "092513.127500", "092515.127500", "092517.127500", "092519.127500", "092521.127500", "092523.127500", "092525.127500", "092527.127500", "092529.127500", "092531.127500", "092533.127500", "092535.127500", "092537.127500", "092539.127500", "092541.127500", "092543.127500", "092545.127500", "092547.127500"],
      "ContentTime": ["092003.268000", "092003.272000", "092003.275000", "092003.277000", "092003.280000", "092003.283000", "092003.293000", "092003.299000", "092003.302000", "092003.305000", "092003.307000", "092003.310000", "092003.312000", "092003.320000", "092003.323000", "092003.325000", "092003.328000", "092003.331000", "092003.333000", "092003.336000", "092003.339000", "092003.341000", "092003.349000", "092003.351000", "092003.354000", "092003.357000", "092003.359000", "092043.264000", "092043.267000", "092043.269000", "092043.272000", "092043.275000", "092043.277000", "092043.280000", "092043.283000", "092043.285000", "092043.288000", "092043.291000", "092043.293000", "092043.300000", "092043.303000", "092043.306000", "092043.308000", "092043.311000", "092043.314000", "092043.316000", "092043.319000", "092123.265000", "092123.268000", "092123.270000", "092123.273000", "092123.275000", "092123.287000", "092123.290000", "092123.293000", "092123.295000", "092123.298000", "092123.301000", "092123.303000", "092123.306000", "092123.309000", "092123.311000", "092123.314000", "092123.317000", "092123.319000", "092123.322000", "092123.324000", "092203.264000", "092203.267000", "092203.269000", "092203.272000", "092203.274000", "092203.277000", "092203.280000", "092203.283000", "092203.285000", "092203.288000", "092203.291000", "092203.294000", "092203.296000", "092203.299000", "092203.302000", "092203.304000", "092203.307000", "092203.310000", "092203.312000", "092203.315000", "092243.264000", "092243.267000", "092243.269000", "092243.272000", "092243.274000", "092243.277000", "092243.280000", "092243.282000", "092243.285000", "092243.288000", "092243.290000", "092243.293000", "092243.295000", "092243.298000", "092243.301000", "092243.303000", "092243.306000", "092243.309000", "092243.311000", "092243.314000", "092323.265000", "092323.276000", "092323.278000", "092323.281000", "092323.283000", "092323.286000", "092323.289000", "092323.291000", "092323.294000", "092323.297000", "092323.299000", "092323.302000", "092323.304000", "092323.307000", "092323.310000", "092323.312000", "092323.315000", "092323.318000", "092323.320000", "092323.323000", "092403.264000", "092403.267000", "092403.269000", "092403.272000", "092403.274000", "092403.277000", "092403.280000", "092403.282000", "092403.285000", "092403.288000", "092403.290000", "092403.293000", "092403.296000", "092403.298000", "092403.301000", "092403.304000", "092403.306000", "092403.309000", "092403.311000", "092403.314000", "092443.264000", "092443.267000", "092443.269000", "092443.272000", "092443.275000", "092443.277000", "092443.280000", "092443.283000", "092443.285000", "092443.288000", "092443.291000", "092443.293000", "092443.296000", "092443.298000", "092443.301000", "092443.304000", "092443.306000", "092443.309000", "092443.312000", "092443.314000", "092523.264000", "092523.267000", "092523.269000", "092523.287000", "092523.290000", "092523.293000", "092523.295000", "092523.298000", "092523.300000", "092523.303000", "092523.306000", "092523.308000", "092523.311000", "092523.314000", "092523.316000", "092523.319000", "092523.321000", "092523.324000", "092523.327000", "092523.329000", "092548.090000", "092548.093000", "092548.096000", "092548.099000", "092548.102000", "092548.104000", "092548.107000", "092548.123000", "092548.128000", "092548.131000", "092548.134000", "092548.144000", "092548.147000"],
      "InstanceCreationTime": ["092003.268000", "092003.272000", "092003.275000", "092003.277000", "092003.280000", "092003.283000", "092003.293000", "092003.299000", "092003.302000", "092003.305000", "092003.307000", "092003.310000", "092003.312000", "092003.320000", "092003.323000", "092003.325000", "092003.328000", "092003.331000", "092003.333000", "092003.336000", "092003.339000", "092003.341000", "092003.349000", "092003.351000", "092003.354000", "092003.357000", "092003.359000", "092043.264000", "092043.267000", "092043.269000", "092043.272000", "092043.275000", "092043.277000", "092043.280000", "092043.283000", "092043.285000", "092043.288000", "092043.291000", "092043.293000", "092043.300000", "092043.303000", "092043.306000", "092043.308000", "092043.311000", "092043.314000", "092043.316000", "092043.319000", "092123.265000", "092123.268000", "092123.270000", "092123.273000", "092123.275000", "092123.287000", "092123.290000", "092123.293000", "092123.295000", "092123.298000", "092123.301000", "092123.303000", "092123.306000", "092123.309000", "092123.311000", "092123.314000", "092123.317000", "092123.319000", "092123.322000", "092123.324000", "092203.264000", "092203.267000", "092203.269000", "092203.272000", "092203.274000", "092203.277000", "092203.280000", "092203.283000", "092203.285000", "092203.288000", "092203.291000", "092203.294000", "092203.296000", "092203.299000", "092203.302000", "092203.304000", "092203.307000", "092203.310000", "092203.312000", "092203.315000", "092243.264000", "092243.267000", "092243.269000", "092243.272000", "092243.274000", "092243.277000", "092243.280000", "092243.282000", "092243.285000", "092243.288000", "092243.290000", "092243.293000", "092243.295000", "092243.298000", "092243.301000", "092243.303000", "092243.306000", "092243.309000", "092243.311000", "092243.314000", "092323.265000", "092323.276000", "092323.278000", "092323.281000", "092323.283000", "092323.286000", "092323.289000", "092323.291000", "092323.294000", "092323.297000", "092323.299000", "092323.302000", "092323.304000", "092323.307000", "092323.310000", "092323.312000", "092323.315000", "092323.318000", "092323.320000", "092323.323000", "092403.264000", "092403.267000", "092403.269000", "092403.272000", "092403.274000", "092403.277000", "092403.280000", "092403.282000", "092403.285000", "092403.288000", "092403.290000", "092403.293000", "092403.296000", "092403.298000", "092403.301000", "092403.304000", "092403.306000", "092403.309000", "092403.311000", "092403.314000", "092443.264000", "092443.267000", "092443.269000", "092443.272000", "092443.275000", "092443.277000", "092443.280000", "092443.283000", "092443.285000", "092443.288000", "092443.291000", "092443.293000", "092443.296000", "092443.298000", "092443.301000", "092443.304000", "092443.306000", "092443.309000", "092443.312000", "092443.314000", "092523.264000", "092523.267000", "092523.269000", "092523.287000", "092523.290000", "092523.293000", "092523.295000", "092523.298000", "092523.300000", "092523.303000", "092523.306000", "092523.308000", "092523.311000", "092523.314000", "092523.316000", "092523.319000", "092523.321000", "092523.324000", "092523.327000", "092523.329000", "092548.090000", "092548.093000", "092548.096000", "092548.099000", "092548.102000", "092548.104000", "092548.107000", "092548.123000", "092548.128000", "092548.131000", "092548.134000", "092548.144000", "092548.147000"],
      "InstanceNumber": [1, 2, 3, 4, 5, 6, 7, 8, 9, 10, 11, 12, 13, 14, 15, 16, 17, 18, 19, 20, 21, 22, 23, 24, 25, 26, 27, 28, 29, 30, 31, 32, 33, 34, 35, 36, 37, 38, 39, 40, 41, 42, 43, 44, 45, 46, 47, 48, 49, 50, 51, 52, 53, 54, 55, 56, 57, 58, 59, 60, 61, 62, 63, 64, 65, 66, 67, 68, 69, 70, 71, 72, 73, 74, 75, 76, 77, 78, 79, 80, 81, 82, 83, 84, 85, 86, 87, 88, 89, 90, 91, 92, 93, 94, 95, 96, 97, 98, 99, 100, 101, 102, 103, 104, 105, 106, 107, 108, 109, 110, 111, 112, 113, 114, 115, 116, 117, 118, 119, 120, 121, 122, 123, 124, 125, 126, 127, 128, 129, 130, 131, 132, 133, 134, 135, 136, 137, 138, 139, 140, 141, 142, 143, 144, 145, 146, 147, 148, 149, 150, 151, 152, 153, 154, 155, 156, 157, 158, 159, 160, 161, 162, 163, 164, 165, 166, 167, 168, 169, 170, 171, 172, 173, 174, 175, 176, 177, 178, 179, 180, 181, 182, 183, 184, 185, 186, 187, 188, 189, 190, 191, 192, 193, 194, 195, 196, 197, 198, 199, 200],
      "LargestImagePixelValue": [1977, 1978, 1976, 1971, 1973, 1971, 1976, 1969, 1977, 1971, 1974, 1973, 1970, 1977, 1974, 1978, 1982, 1976, 1980, 1972, 1986, 1972, 1979, 1972, 1980, 1983, 1973, 1975, 1972, 1981, 1974, 1974, 1974, 1985, 1981, 1978, 1975, 1974, 1979, 1976, 1970, 1974, 1974, 1977, 1980, 1986, 1975, 1973, 1980, 1980, 1983, 1984, 1991, 1981, 1973, 1970, 1977, 1973, 1975, 1969, 1969, 1974, 1973, 1974, 1973, 1969, 1966, 1966, 1969, 1970, 1974, 1974, 1975, 1973, 1974, 1970, 1967, 1969, 1970, 1968, 1972, 1965, 1967, 1971, 1971, 1972, 1970, 1973, 1971, 1975, 1977, 1975, 1974, 1976, 1978, 1970, 1974, 1977, 1977, 1976, 1972, 1980, 1977, 1974, 1974, 1967, 1972, 1973, 1976, 1976, 1976, 1983, 1980, 1977, 1976, 1971, 1977, 1978, 1974, 1980, 1976, 1975, 1978, 1984, 1979, 1975, 1973, 1986, 1977, 1973, 1971, 1990, 1980, 1978, 1975, 1976, 1971, 1976, 1980, 1977, 1976, 1981, 1984, 1980, 1977, 1979, 1976, 1990, 1980, 1979, 1984, 1973, 1975, 1975, 1974, 1971, 1972, 1975, 1974, 1976, 1978, 1974, 1972, 1976, 1973, 1973, 1978, 1969, 1972, 1970, 1976, 1975, 1980, 1976, 1978, 1979, 1974, 1983, 1976, 1977, 1975, 1979, 1971, 1975, 1980, 1981, 1978, 1976, 1983, 1976, 1978, 1975, 1977, 1981, 1973, 1972, 1977, 1975, 1973, 1979],
      "WindowWidth": [2077.0, 2077.0, 2077.0, 2077.0, 2077.0, 2077.0, 2077.0, 2077.0, 2077.0, 2077.0, 2077.0, 2077.0, 2077.0, 2077.0, 2077.0, 2077.0, 2077.0, 2077.0, 2077.0, 2077.0, 2077.0, 2077.0, 2077.0, 2077.0, 2077.0, 2077.0, 2077.0, 2076.0, 2077.0, 2077.0, 2077.0, 2077.0, 2077.0, 2077.0, 2077.0, 2077.0, 2077.0, 2077.0, 2077.0, 2077.0, 2077.0, 2077.0, 2077.0, 2077.0, 2077.0, 2077.0, 2077.0, 2077.0, 2077.0, 2077.0, 2077.0, 2077.0, 2077.0, 2077.0, 2077.0, 2077.0, 2077.0, 2077.0, 2077.0, 2077.0, 2077.0, 2077.0, 2077.0, 2077.0, 2077.0, 2078.0, 2077.0, 2077.0, 2077.0, 2077.0, 2077.0, 2077.0, 2077.0, 2077.0, 2077.0, 2077.0, 2077.0, 2077.0, 2077.0, 2077.0, 2077.0, 2077.0, 2077.0, 2077.0, 2077.0, 2077.0, 2077.0, 2077.0, 2078.0, 2077.0, 2077.0, 2077.0, 2077.0, 2078.0, 2077.0, 2077.0, 2077.0, 2077.0, 2077.0, 2077.0, 2078.0, 2077.0, 2077.0, 2077.0, 2077.0, 2077.0, 2077.0, 2077.0, 2077.0, 2077.0, 2077.0, 2077.0, 2077.0, 2077.0, 2077.0, 2077.0, 2077.0, 2077.0, 2078.0, 2077.0, 2077.0, 2077.0, 2077.0, 2078.0, 2077.0, 2077.0, 2077.0, 2077.0, 2077.0, 2077.0, 2077.0, 2077.0, 2077.0, 2077.0, 2077.0, 2077.0, 2077.0, 2077.0, 2077.0, 2077.0, 2077.0, 2077.0, 2077.0, 2077.0, 2077.0, 2077.0, 2077.0, 2077.0, 2077.0, 2077.0, 2077.0, 2077.0, 2077.0, 2077.0, 2077.0, 2077.0, 2077.0, 2077.0, 2077.0, 2077.0, 2077.0, 2077.0, 2077.0, 2077.0, 2077.0, 2077.0, 2077.0, 2077.0, 2077.0, 2077.0, 2077.0, 2077.0, 2077.0, 2077.0, 2077.0, 2077.0, 2077.0, 2077.0, 2077.0, 2077.0, 2077.0, 2077.0, 2077.0, 2077.0, 2077.0, 2077.0, 2077.0, 2077.0, 2077.0, 2077.0, 2077.0, 2077.0, 2077.0, 2077.0, 2077.0, 2077.0, 2077.0, 2077.0, 2077.0, 2077.0]
    },
    "slices": {}
  }
}