{
  "AcquisitionMatrixPE": 80,
  "AcquisitionNumber": 1,
  "AcquisitionTime": "09:32:45.525000",
  "BandwidthPerPixelPhaseEncode": 25,
  "BaseResolution": 80,
  "BodyPartExamined": "BRAIN",
  "CoilCombinationMethod": "Sum of Squares",
  "ConsistencyInfo": "N4_VE11C_LATEST_20160120",
  "ConversionSoftware": "dcm2niix",
  "ConversionSoftwareVersion": "v1.0.20220720",
  "DerivedVendorReportedEchoSpacing": 0.0005,
  "DeviceSerialNumber": "66112",
  "DwellTime": 2.7e-06,
  "EchoTime": 0.03,
  "EchoTrainLength": 80,
  "EffectiveEchoSpacing": 0.0005,
  "FlipAngle": 10,
  "HeudiconvVersion": "0.13.1",
  "ImageOrientationPatientDICOM": [0.983055, 0.183002, 0.010591, -0.177411, 0.935301, 0.306167],
  "ImageOrientationText": "Tra>Cor(17.6)>Sag(-2.6)",
  "ImageType": [
    "ORIGINAL",
    "PRIMARY",
    "M",
    "ND",
    "NORM",
    "MOSAIC"
],
  "ImagingFrequency": 123.252,
  "InPlanePhaseEncodingDirectionDICOM": "COL",
  "InstitutionAddress": "Maynard 3,Hanover,NH,US,03755",
  "InstitutionName": "Dartmouth College - PBS",
  "InstitutionalDepartmentName": "Department",
  "MRAcquisitionType": "2D",
  "MagneticFieldStrength": 3,
  "Manufacturer": "Siemens",
  "ManufacturersModelName": "Prisma",
  "MatrixCoilMode": "SENSE",
  "Modality": "MR",
  "NonlinearGradientCorrection": false,
  "PartialFourier": 1,
  "PatientPosition": "HFS",
  "PercentPhaseFOV": 100,
  "PercentSampling": 100,
  "PhaseEncodingDirection": "j-",
  "PhaseEncodingSteps": 80,
  "PhaseResolution": 1,
  "PixelBandwidth": 2315,
  "ProcedureStepDescription": "dbic^QA",
  "ProtocolName": "func-bold_acq-32ch-10flip",
  "PulseSequenceDetails": "%SiemensSeq%\\ep2d_bold",
  "ReceiveCoilActiveElements": "HEA;HEP",
  "ReceiveCoilName": "Head_32",
  "ReconMatrixPE": 80,
  "RepetitionTime": 2,
  "SAR": 0.011701,
  "ScanOptions": "FS",
  "ScanningSequence": "EP",
  "SequenceName": "*epfid2d1_80",
  "SequenceVariant": "SK",
  "SeriesDescription": "func-bold_acq-32ch-10flip",
  "SeriesNumber": 10,
  "ShimSetting": [4160, -7692, -7511, 272, -3, -156, -28, 136],
  "SliceThickness": 3.5,
  "SliceTiming": [0.99, 0, 1.055, 0.0675, 1.1225, 0.1325, 1.1875, 0.1975, 1.255, 0.265, 1.32, 0.33, 1.385, 0.3975, 1.4525, 0.4625, 1.5175, 0.5275, 1.585, 0.595, 1.65, 0.66, 1.715, 0.7275, 1.7825, 0.7925, 1.8475, 0.8575, 1.915, 0.925],
  "SoftwareVersions": "syngo MR E11",
  "SpacingBetweenSlices": 3.99,
  "StationName": "AWP66112",
  "TotalReadoutTime": 0.0395,
  "TxRefAmp": 227.881,
  "dcmmeta_affine": [
    [-2.9491662979125977, -0.5322332382202148, -0.1840323954820633, 144.12681579589844],
    [-0.5490072965621948, 2.8059020042419434, 1.2084019184112549, -97.05152893066406],
    [0.03177313879132271, -0.9184995889663696, 3.798156976699829, -22.789037704467773],
    [0.0, 0.0, 0.0, 1.0]
],
  "dcmmeta_reorient_transform": [
    [0.0, -1.0, 0.0, 79.0],
    [1.0, 0.0, 0.0, 0.0],
    [0.0, 0.0, 1.0, 0.0],
    [0.0, 0.0, 0.0, 1.0]
],
  "dcmmeta_shape": [80, 80, 30, 200],
  "dcmmeta_slice_dim": 2,
  "dcmmeta_version": 0.6,
  "global": {
    "const": {
      "AccessionNumber": "qa",
      "AcquisitionMatrix": [80, 0, 0, 80],
      "AngioFlag": "N",
      "BitsAllocated": 16,
      "BitsStored": 12,
      "BodyPartExamined": "BRAIN",
      "Columns": 480,
      "EchoNumbers": 1,
      "EchoTime": 30.0,
      "EchoTrainLength": 80,
      "FlipAngle": 10.0,
      "HighBit": 11,
      "ImageOrientationPatient": [0.98305540885454, 0.18300243952696, 0.01059104570018, -0.1774110883589, 0.93530068110278, 0.30616652602134],
      "ImagePositionPatient": [-585.46698263719, -795.59660660988, -285.40504743417],
      "ImageType": [
        "ORIGINAL",
        "PRIMARY",
        "M",
        "ND",
        "NORM",
        "MOSAIC"
],
      "ImagedNucleus": "1H",
      "ImagingFrequency": 123.252416,
      "InPlanePhaseEncodingDirection": "COL",
      "MRAcquisitionType": "2D",
      "MagneticFieldStrength": 3.0,
      "Manufacturer": "SIEMENS",
      "ManufacturerModelName": "Prisma",
      "Modality": "MR",
      "NumberOfAverages": 1.0,
      "NumberOfPhaseEncodingSteps": 80,
      "PercentPhaseFieldOfView": 100.0,
      "PercentSampling": 100.0,
      "PerformedProcedureStepStartTime": "091022.010000",
      "PhotometricInterpretation": "MONOCHROME2",
      "PixelBandwidth": 2315.0,
      "PixelRepresentation": 0,
      "PixelSpacing": [3.0, 3.0],
      "ProtocolName": "func-bold_acq-32ch-10flip",
      "RepetitionTime": 2000.0,
      "Rows": 480,
      "SAR": 0.01170096640656,
      "SamplesPerPixel": 1,
      "ScanOptions": "FS",
      "ScanningSequence": "EP",
      "SequenceName": "*epfid2d1_80",
      "SequenceVariant": "SK",
      "SeriesDescription": "func-bold_acq-32ch-10flip",
      "SeriesNumber": 10,
      "SeriesTime": "093343.194000",
      "SliceLocation": -57.733734801378,
      "SliceThickness": 3.5,
      "SmallestImagePixelValue": 0,
      "SoftwareVersions": "syngo MR E11",
      "SpacingBetweenSlices": 3.9899999829058,
      "SpecificCharacterSet": "ISO_IR 100",
      "StudyID": "14",
      "StudyTime": "091021.935000",
      "TransmitCoilName": "Body",
      "VariableFlipAngleFlag": "N",
      "WindowCenterWidthExplanation": "Algo1",
      "dBdt": 0.0},
    "slices": {}
  },
  "time": {
    "samples": {
      "AcquisitionNumber": [1, 2, 3, 4, 5, 6, 7, 8, 9, 10, 11, 12, 13, 14, 15, 16, 17, 18, 19, 20, 21, 22, 23, 24, 25, 26, 27, 28, 29, 30, 31, 32, 33, 34, 35, 36, 37, 38, 39, 40, 41, 42, 43, 44, 45, 46, 47, 48, 49, 50, 51, 52, 53, 54, 55, 56, 57, 58, 59, 60, 61, 62, 63, 64, 65, 66, 67, 68, 69, 70, 71, 72, 73, 74, 75, 76, 77, 78, 79, 80, 81, 82, 83, 84, 85, 86, 87, 88, 89, 90, 91, 92, 93, 94, 95, 96, 97, 98, 99, 100, 101, 102, 103, 104, 105, 106, 107, 108, 109, 110, 111, 112, 113, 114, 115, 116, 117, 118, 119, 120, 121, 122, 123, 124, 125, 126, 127, 128, 129, 130, 131, 132, 133, 134, 135, 136, 137, 138, 139, 140, 141, 142, 143, 144, 145, 146, 147, 148, 149, 150, 151, 152, 153, 154, 155, 156, 157, 158, 159, 160, 161, 162, 163, 164, 165, 166, 167, 168, 169, 170, 171, 172, 173, 174, 175, 176, 177, 178, 179, 180, 181, 182, 183, 184, 185, 186, 187, 188, 189, 190, 191, 192, 193, 194, 195, 196, 197, 198, 199, 200],
      "AcquisitionTime": ["093245.525000", "093247.525000", "093249.525000", "093251.525000", "093253.525000", "093255.525000", "093257.525000", "093259.525000", "093301.525000", "093303.525000", "093305.525000", "093307.525000", "093309.525000", "093311.525000", "093313.525000", "093315.525000", "093317.525000", "093319.525000", "093321.525000", "093323.525000", "093325.525000", "093327.525000", "093329.525000", "093331.525000", "093333.525000", "093335.525000", "093337.525000", "093339.525000", "093341.525000", "093343.525000", "093345.525000", "093347.525000", "093349.525000", "093351.525000", "093353.525000", "093355.525000", "093357.525000", "093359.525000", "093401.525000", "093403.525000", "093405.525000", "093407.525000", "093409.525000", "093411.525000", "093413.525000", "093415.525000", "093417.525000", "093419.525000", "093421.525000", "093423.525000", "093425.525000", "093427.525000", "093429.525000", "093431.525000", "093433.525000", "093435.525000", "093437.525000", "093439.525000", "093441.525000", "093443.525000", "093445.525000", "093447.525000", "093449.525000", "093451.525000", "093453.525000", "093455.525000", "093457.525000", "093459.525000", "093501.525000", "093503.525000", "093505.525000", "093507.525000", "093509.525000", "093511.525000", "093513.525000", "093515.525000", "093517.525000", "093519.525000", "093521.525000", "093523.525000", "093525.525000", "093527.525000", "093529.525000", "093531.525000", "093533.525000", "093535.525000", "093537.525000", "093539.525000", "093541.525000", "093543.525000", "093545.525000", "093547.525000", "093549.525000", "093551.525000", "093553.525000", "093555.525000", "093557.525000", "093559.525000", "093601.525000", "093603.525000", "093605.525000", "093607.525000", "093609.525000", "093611.525000", "093613.525000", "093615.525000", "093617.525000", "093619.525000", "093621.525000", "093623.525000", "093625.525000", "093627.525000", "093629.525000", "093631.525000", "093633.525000", "093635.525000", "093637.525000", "093639.525000", "093641.525000", "093643.525000", "093645.525000", "093647.525000", "093649.525000", "093651.525000", "093653.525000", "093655.525000", "093657.525000", "093659.525000", "093701.525000", "093703.525000", "093705.525000", "093707.525000", "093709.525000", "093711.525000", "093713.525000", "093715.525000", "093717.525000", "093719.525000", "093721.525000", "093723.525000", "093725.525000", "093727.525000", "093729.525000", "093731.525000", "093733.525000", "093735.525000", "093737.525000", "093739.525000", "093741.525000", "093743.525000", "093745.525000", "093747.525000", "093749.525000", "093751.525000", "093753.525000", "093755.525000", "093757.525000", "093759.525000", "093801.525000", "093803.525000", "093805.525000", "093807.525000", "093809.525000", "093811.525000", "093813.525000", "093815.525000", "093817.525000", "093819.525000", "093821.525000", "093823.525000", "093825.525000", "093827.525000", "093829.525000", "093831.525000", "093833.525000", "093835.525000", "093837.525000", "093839.525000", "093841.525000", "093843.525000", "093845.525000", "093847.525000", "093849.525000", "093851.525000", "093853.525000", "093855.525000", "093857.525000", "093859.525000", "093901.525000", "093903.525000", "093905.525000", "093907.525000", "093909.525000", "093911.525000", "093913.525000", "093915.525000", "093917.525000", "093919.525000", "093921.525000", "093923.525000"],
      "ContentTime": ["093343.197000", "093343.201000", "093343.203000", "093343.206000", "093343.208000", "093343.211000", "093343.214000", "093343.216000", "093343.219000", "093343.221000", "093343.224000", "093343.226000", "093343.229000", "093343.231000", "093343.234000", "093343.236000", "093343.239000", "093343.241000", "093343.244000", "093343.255000", "093343.258000", "093343.260000", "093343.263000", "093343.265000", "093343.268000", "093343.270000", "093343.273000", "093343.276000", "093343.278000", "093423.192000", "093423.195000", "093423.198000", "093423.200000", "093423.203000", "093423.206000", "093423.208000", "093423.211000", "093423.213000", "093423.216000", "093423.218000", "093423.221000", "093423.223000", "093423.226000", "093423.228000", "093423.231000", "093423.234000", "093423.236000", "093423.239000", "093423.241000", "093503.193000", "093503.196000", "093503.199000", "093503.201000", "093503.204000", "093503.206000", "093503.209000", "093503.212000", "093503.214000", "093503.217000", "093503.219000", "093503.222000", "093503.224000", "093503.227000", "093503.229000", "093503.232000", "093503.235000", "093503.237000", "093503.240000", "093503.242000", "093543.192000", "093543.195000", "093543.198000", "093543.200000", "093543.203000", "093543.205000", "093543.208000", "093543.211000", "093543.213000", "093543.216000", "093543.218000", "093543.221000", "093543.223000", "093543.226000", "093543.229000", "093543.231000", "093543.234000", "093543.236000", "093543.239000", "093543.241000", "093623.192000", "093623.195000", "093623.198000", "093623.201000", "093623.203000", "093623.206000", "093623.208000", "093623.211000", "093623.214000", "093623.216000", "093623.219000", "093623.221000", "093623.224000", "093623.226000", "093623.229000", "093623.232000", "093623.234000", "093623.237000", "093623.239000", "093623.242000", "093703.193000", "093703.195000", "093703.198000", "093703.201000", "093703.203000", "093703.206000", "093703.208000", "093703.211000", "093703.213000", "093703.216000", "093703.218000", "093703.221000", "093703.224000", "093703.226000", "093703.229000", "093703.231000", "093703.234000", "093703.236000", "093703.239000", "093703.242000", "093743.192000", "093743.195000", "093743.198000", "093743.201000", "093743.203000", "093743.206000", "093743.208000", "093743.211000", "093743.224000", "093743.226000", "093743.229000", "093743.231000", "093743.234000", "093743.236000", "093743.239000", "093743.241000", "093743.244000", "093743.247000", "093743.249000", "093743.252000", "093823.192000", "093823.195000", "093823.198000", "093823.201000", "093823.203000", "093823.206000", "093823.208000", "093823.211000", "093823.213000", "093823.216000", "093823.218000", "093823.221000", "093823.223000", "093823.226000", "093823.229000", "093823.231000", "093823.234000", "093823.236000", "093823.239000", "093823.241000", "093903.192000", "093903.195000", "093903.198000", "093903.200000", "093903.203000", "093903.205000", "093903.208000", "093903.211000", "093903.213000", "093903.216000", "093903.218000", "093903.221000", "093903.223000", "093903.226000", "093903.228000", "093903.231000", "093903.234000", "093903.236000", "093903.239000", "093903.241000", "093924.847000", "093924.850000", "093924.853000", "093924.855000", "093924.858000", "093924.861000", "093924.863000", "093924.866000", "093924.868000", "093924.871000", "093924.874000"],
      "InstanceCreationTime": ["093343.197000", "093343.201000", "093343.203000", "093343.206000", "093343.208000", "093343.211000", "093343.214000", "093343.216000", "093343.219000", "093343.221000", "093343.224000", "093343.226000", "093343.229000", "093343.231000", "093343.234000", "093343.236000", "093343.239000", "093343.241000", "093343.244000", "093343.255000", "093343.258000", "093343.260000", "093343.263000", "093343.265000", "093343.268000", "093343.270000", "093343.273000", "093343.276000", "093343.278000", "093423.192000", "093423.195000", "093423.198000", "093423.200000", "093423.203000", "093423.206000", "093423.208000", "093423.211000", "093423.213000", "093423.216000", "093423.218000", "093423.221000", "093423.223000", "093423.226000", "093423.228000", "093423.231000", "093423.234000", "093423.236000", "093423.239000", "093423.241000", "093503.193000", "093503.196000", "093503.199000", "093503.201000", "093503.204000", "093503.206000", "093503.209000", "093503.212000", "093503.214000", "093503.217000", "093503.219000", "093503.222000", "093503.224000", "093503.227000", "093503.229000", "093503.232000", "093503.235000", "093503.237000", "093503.240000", "093503.242000", "093543.192000", "093543.195000", "093543.198000", "093543.200000", "093543.203000", "093543.205000", "093543.208000", "093543.211000", "093543.213000", "093543.216000", "093543.218000", "093543.221000", "093543.223000", "093543.226000", "093543.229000", "093543.231000", "093543.234000", "093543.236000", "093543.239000", "093543.241000", "093623.192000", "093623.195000", "093623.198000", "093623.201000", "093623.203000", "093623.206000", "093623.208000", "093623.211000", "093623.214000", "093623.216000", "093623.219000", "093623.221000", "093623.224000", "093623.226000", "093623.229000", "093623.232000", "093623.234000", "093623.237000", "093623.239000", "093623.242000", "093703.193000", "093703.195000", "093703.198000", "093703.201000", "093703.203000", "093703.206000", "093703.208000", "093703.211000", "093703.213000", "093703.216000", "093703.218000", "093703.221000", "093703.224000", "093703.226000", "093703.229000", "093703.231000", "093703.234000", "093703.236000", "093703.239000", "093703.242000", "093743.192000", "093743.195000", "093743.198000", "093743.201000", "093743.203000", "093743.206000", "093743.208000", "093743.211000", "093743.224000", "093743.226000", "093743.229000", "093743.231000", "093743.234000", "093743.236000", "093743.239000", "093743.241000", "093743.244000", "093743.247000", "093743.249000", "093743.252000", "093823.192000", "093823.195000", "093823.198000", "093823.201000", "093823.203000", "093823.206000", "093823.208000", "093823.211000", "093823.213000", "093823.216000", "093823.218000", "093823.221000", "093823.223000", "093823.226000", "093823.229000", "093823.231000", "093823.234000", "093823.236000", "093823.239000", "093823.241000", "093903.192000", "093903.195000", "093903.198000", "093903.200000", "093903.203000", "093903.205000", "093903.208000", "093903.211000", "093903.213000", "093903.216000", "093903.218000", "093903.221000", "093903.223000", "093903.226000", "093903.228000", "093903.231000", "093903.234000", "093903.236000", "093903.239000", "093903.241000", "093924.847000", "093924.850000", "093924.853000", "093924.855000", "093924.858000", "093924.861000", "093924.863000", "093924.866000", "093924.868000", "093924.871000", "093924.874000"],
      "InstanceNumber": [1, 2, 3, 4, 5, 6, 7, 8, 9, 10, 11, 12, 13, 14, 15, 16, 17, 18, 19, 20, 21, 22, 23, 24, 25, 26, 27, 28, 29, 30, 31, 32, 33, 34, 35, 36, 37, 38, 39, 40, 41, 42, 43, 44, 45, 46, 47, 48, 49, 50, 51, 52, 53, 54, 55, 56, 57, 58, 59, 60, 61, 62, 63, 64, 65, 66, 67, 68, 69, 70, 71, 72, 73, 74, 75, 76, 77, 78, 79, 80, 81, 82, 83, 84, 85, 86, 87, 88, 89, 90, 91, 92, 93, 94, 95, 96, 97, 98, 99, 100, 101, 102, 103, 104, 105, 106, 107, 108, 109, 110, 111, 112, 113, 114, 115, 116, 117, 118, 119, 120, 121, 122, 123, 124, 125, 126, 127, 128, 129, 130, 131, 132, 133, 134, 135, 136, 137, 138, 139, 140, 141, 142, 143, 144, 145, 146, 147, 148, 149, 150, 151, 152, 153, 154, 155, 156, 157, 158, 159, 160, 161, 162, 163, 164, 165, 166, 167, 168, 169, 170, 171, 172, 173, 174, 175, 176, 177, 178, 179, 180, 181, 182, 183, 184, 185, 186, 187, 188, 189, 190, 191, 192, 193, 194, 195, 196, 197, 198, 199, 200],
      "LargestImagePixelValue": [330, 332, 331, 330, 330, 330, 330, 330, 331, 332, 331, 332, 330, 333, 333, 329, 331, 332, 332, 329, 329, 331, 330, 330, 331, 330, 331, 332, 334, 331, 332, 330, 331, 330, 331, 331, 332, 332, 331, 332, 332, 331, 332, 332, 330, 331, 332, 333, 332, 331, 333, 332, 331, 333, 331, 330, 331, 330, 330, 331, 332, 332, 330, 332, 332, 331, 332, 330, 332, 331, 330, 331, 332, 329, 330, 330, 333, 330, 334, 331, 331, 332, 330, 331, 331, 331, 331, 329, 332, 332, 330, 332, 331, 329, 330, 330, 331, 331, 331, 329, 331, 331, 330, 331, 331, 330, 329, 329, 331, 334, 332, 332, 332, 331, 331, 330, 330, 330, 330, 331, 332, 330, 330, 329, 331, 331, 329, 330, 331, 332, 331, 332, 331, 332, 331, 330, 330, 330, 332, 330, 332, 331, 331, 332, 330, 331, 331, 331, 331, 332, 331, 330, 332, 331, 332, 332, 332, 334, 332, 330, 331, 331, 332, 330, 331, 332, 332, 331, 333, 332, 331, 334, 331, 331, 332, 332, 330, 330, 333, 331, 330, 331, 332, 331, 332, 332, 333, 331, 332, 330, 333, 332, 332, 332, 335, 331, 332, 330, 329, 330],
      "WindowCenter": [276.0, 275.0, 275.0, 275.0, 275.0, 275.0, 275.0, 275.0, 275.0, 275.0, 275.0, 275.0, 275.0, 275.0, 275.0, 275.0, 275.0, 276.0, 275.0, 275.0, 275.0, 274.0, 275.0, 275.0, 275.0, 275.0, 275.0, 275.0, 275.0, 275.0, 275.0, 275.0, 275.0, 274.0, 275.0, 275.0, 275.0, 274.0, 275.0, 274.0, 274.0, 274.0, 275.0, 275.0, 275.0, 275.0, 274.0, 275.0, 274.0, 275.0, 275.0, 275.0, 275.0, 275.0, 275.0, 275.0, 274.0, 274.0, 274.0, 274.0, 274.0, 275.0, 274.0, 275.0, 274.0, 274.0, 275.0, 274.0, 275.0, 275.0, 274.0, 275.0, 275.0, 274.0, 275.0, 274.0, 275.0, 274.0, 275.0, 274.0, 274.0, 275.0, 275.0, 275.0, 274.0, 274.0, 274.0, 274.0, 274.0, 274.0, 275.0, 274.0, 274.0, 273.0, 274.0, 274.0, 274.0, 274.0, 274.0, 274.0, 275.0, 275.0, 274.0, 274.0, 275.0, 274.0, 274.0, 274.0, 274.0, 274.0, 274.0, 274.0, 275.0, 274.0, 274.0, 274.0, 274.0, 275.0, 275.0, 275.0, 274.0, 274.0, 274.0, 274.0, 275.0, 274.0, 274.0, 274.0, 275.0, 274.0, 274.0, 275.0, 274.0, 274.0, 274.0, 274.0, 275.0, 275.0, 274.0, 274.0, 274.0, 274.0, 275.0, 274.0, 274.0, 275.0, 274.0, 274.0, 274.0, 275.0, 275.0, 274.0, 274.0, 274.0, 274.0, 274.0, 274.0, 274.0, 274.0, 274.0, 274.0, 274.0, 274.0, 274.0, 274.0, 274.0, 274.0, 274.0, 274.0, 274.0, 274.0, 274.0, 274.0, 274.0, 274.0, 274.0, 274.0, 274.0, 274.0, 274.0, 274.0, 274.0, 274.0, 274.0, 274.0, 274.0, 274.0, 274.0, 274.0, 274.0, 274.0, 274.0, 274.0, 274.0, 275.0, 274.0, 274.0, 274.0, 274.0, 274.0],
      "WindowWidth": [603.0, 603.0, 603.0, 603.0, 603.0, 603.0, 603.0, 602.0, 603.0, 603.0, 603.0, 603.0, 603.0, 603.0, 603.0, 602.0, 603.0, 603.0, 603.0, 602.0, 602.0, 602.0, 603.0, 602.0, 602.0, 603.0, 602.0, 602.0, 603.0, 603.0, 602.0, 603.0, 602.0, 602.0, 603.0, 603.0, 603.0, 602.0, 603.0, 602.0, 602.0, 602.0, 603.0, 603.0, 602.0, 602.0, 602.0, 603.0, 602.0, 602.0, 602.0, 602.0, 603.0, 602.0, 602.0, 603.0, 601.0, 602.0, 602.0, 602.0, 602.0, 602.0, 602.0, 602.0, 602.0, 602.0, 603.0, 602.0, 602.0, 602.0, 602.0, 602.0, 602.0, 601.0, 602.0, 602.0, 602.0, 601.0, 602.0, 602.0, 602.0, 602.0, 602.0, 602.0, 602.0, 602.0, 602.0, 601.0, 602.0, 602.0, 603.0, 602.0, 602.0, 601.0, 601.0, 602.0, 602.0, 601.0, 602.0, 601.0, 602.0, 602.0, 601.0, 602.0, 602.0, 602.0, 601.0, 601.0, 601.0, 602.0, 602.0, 602.0, 602.0, 602.0, 602.0, 602.0, 602.0, 602.0, 602.0, 602.0, 601.0, 601.0, 601.0, 601.0, 602.0, 602.0, 601.0, 602.0, 602.0, 601.0, 602.0, 602.0, 602.0, 602.0, 601.0, 602.0, 602.0, 602.0, 602.0, 601.0, 602.0, 601.0, 602.0, 601.0, 601.0, 602.0, 602.0, 601.0, 601.0, 602.0, 602.0, 601.0, 601.0, 601.0, 602.0, 602.0, 601.0, 601.0, 601.0, 602.0, 602.0, 601.0, 601.0, 602.0, 602.0, 601.0, 602.0, 601.0, 602.0, 602.0, 602.0, 601.0, 601.0, 601.0, 601.0, 602.0, 601.0, 601.0, 601.0, 601.0, 601.0, 601.0, 601.0, 601.0, 601.0, 601.0, 601.0, 601.0, 601.0, 602.0, 601.0, 602.0, 601.0, 601.0, 602.0, 601.0, 601.0, 601.0, 601.0, 601.0]
    },
    "slices": {}
  }
}