{
  "AcquisitionMatrixPE": 80,
  "AcquisitionNumber": 1,
  "AcquisitionTime": "09:25:58.505000",
  "BandwidthPerPixelPhaseEncode": 25,
  "BaseResolution": 80,
  "BodyPartExamined": "BRAIN",
  "CoilCombinationMethod": "Sum of Squares",
  "ConsistencyInfo": "N4_VE11C_LATEST_20160120",
  "ConversionSoftware": "dcm2niix",
  "ConversionSoftwareVersion": "v1.0.20220720",
  "DerivedVendorReportedEchoSpacing": 0.0005,
  "DeviceSerialNumber": "66112",
  "DwellTime": 2.7e-06,
  "EchoTime": 0.03,
  "EchoTrainLength": 80,
  "EffectiveEchoSpacing": 0.0005,
  "FlipAngle": 77,
  "HeudiconvVersion": "0.13.1",
  "ImageOrientationPatientDICOM": [0.983055, 0.183002, 0.010591, -0.177411, 0.935301, 0.306167],
  "ImageOrientationText": "Tra>Cor(17.6)>Sag(-2.6)",
  "ImageType": [
    "ORIGINAL",
    "PRIMARY",
    "M",
    "ND",
    "NORM",
    "MOSAIC"
],
  "ImagingFrequency": 123.252,
  "InPlanePhaseEncodingDirectionDICOM": "COL",
  "InstitutionAddress": "Maynard 3,Hanover,NH,US,03755",
  "InstitutionName": "Dartmouth College - PBS",
  "InstitutionalDepartmentName": "Department",
  "MRAcquisitionType": "2D",
  "MagneticFieldStrength": 3,
  "Manufacturer": "Siemens",
  "ManufacturersModelName": "Prisma",
  "MatrixCoilMode": "SENSE",
  "Modality": "MR",
  "NonlinearGradientCorrection": false,
  "PartialFourier": 1,
  "PatientPosition": "HFS",
  "PercentPhaseFOV": 100,
  "PercentSampling": 100,
  "PhaseEncodingDirection": "j-",
  "PhaseEncodingSteps": 80,
  "PhaseResolution": 1,
  "PixelBandwidth": 2315,
  "ProcedureStepDescription": "dbic^QA",
  "ProtocolName": "func-bold_acq-32ch-77flip",
  "PulseSequenceDetails": "%SiemensSeq%\\ep2d_bold",
  "ReceiveCoilActiveElements": "HEA;HEP",
  "ReceiveCoilName": "Head_32",
  "ReconMatrixPE": 80,
  "RepetitionTime": 2,
  "SAR": 0.0436198,
  "ScanOptions": "FS",
  "ScanningSequence": "EP",
  "SequenceName": "*epfid2d1_80",
  "SequenceVariant": "SK",
  "SeriesDescription": "func-bold_acq-32ch-77flip",
  "SeriesNumber": 8,
  "ShimSetting": [4160, -7692, -7511, 272, -3, -156, -28, 136],
  "SliceThickness": 3.5,
  "SliceTiming": [0.99, 0, 1.055, 0.0675, 1.1225, 0.1325, 1.1875, 0.1975, 1.255, 0.265, 1.32, 0.33, 1.385, 0.3975, 1.4525, 0.4625, 1.5175, 0.5275, 1.585, 0.595, 1.65, 0.66, 1.715, 0.725, 1.7825, 0.7925, 1.8475, 0.8575, 1.915, 0.925],
  "SoftwareVersions": "syngo MR E11",
  "SpacingBetweenSlices": 3.99,
  "StationName": "AWP66112",
  "TotalReadoutTime": 0.0395,
  "TxRefAmp": 227.881,
  "dcmmeta_affine": [
    [-2.9491662979125977, -0.5322332382202148, -0.1840323954820633, 144.12681579589844],
    [-0.5490072965621948, 2.8059020042419434, 1.2084019184112549, -97.05152893066406],
    [0.03177313879132271, -0.9184995889663696, 3.798156976699829, -22.789037704467773],
    [0.0, 0.0, 0.0, 1.0]
],
  "dcmmeta_reorient_transform": [
    [0.0, -1.0, 0.0, 79.0],
    [1.0, 0.0, 0.0, 0.0],
    [0.0, 0.0, 1.0, 0.0],
    [0.0, 0.0, 0.0, 1.0]
],
  "dcmmeta_shape": [80, 80, 30, 200],
  "dcmmeta_slice_dim": 2,
  "dcmmeta_version": 0.6,
  "global": {
    "const": {
      "AccessionNumber": "qa",
      "AcquisitionMatrix": [80, 0, 0, 80],
      "AngioFlag": "N",
      "BitsAllocated": 16,
      "BitsStored": 12,
      "BodyPartExamined": "BRAIN",
      "Columns": 480,
      "EchoNumbers": 1,
      "EchoTime": 30.0,
      "EchoTrainLength": 80,
      "FlipAngle": 77.0,
      "HighBit": 11,
      "ImageOrientationPatient": [0.98305540885454, 0.18300243952696, 0.01059104570018, -0.1774110883589, 0.93530068110278, 0.30616652602134],
      "ImagePositionPatient": [-585.46698263719, -795.59660660988, -285.40504743417],
      "ImageType": [
        "ORIGINAL",
        "PRIMARY",
        "M",
        "ND",
        "NORM",
        "MOSAIC"
],
      "ImagedNucleus": "1H",
      "ImagingFrequency": 123.252416,
      "InPlanePhaseEncodingDirection": "COL",
      "MRAcquisitionType": "2D",
      "MagneticFieldStrength": 3.0,
      "Manufacturer": "SIEMENS",
      "ManufacturerModelName": "Prisma",
      "Modality": "MR",
      "NumberOfAverages": 1.0,
      "NumberOfPhaseEncodingSteps": 80,
      "PercentPhaseFieldOfView": 100.0,
      "PercentSampling": 100.0,
      "PerformedProcedureStepStartTime": "091022.010000",
      "PhotometricInterpretation": "MONOCHROME2",
      "PixelBandwidth": 2315.0,
      "PixelRepresentation": 0,
      "PixelSpacing": [3.0, 3.0],
      "ProtocolName": "func-bold_acq-32ch-77flip",
      "RepetitionTime": 2000.0,
      "Rows": 480,
      "SAR": 0.04361978026594,
      "SamplesPerPixel": 1,
      "ScanOptions": "FS",
      "ScanningSequence": "EP",
      "SequenceName": "*epfid2d1_80",
      "SequenceVariant": "SK",
      "SeriesDescription": "func-bold_acq-32ch-77flip",
      "SeriesNumber": 8,
      "SeriesTime": "092643.335000",
      "SliceLocation": -57.733734801378,
      "SliceThickness": 3.5,
      "SmallestImagePixelValue": 0,
      "SoftwareVersions": "syngo MR E11",
      "SpacingBetweenSlices": 3.9899999829058,
      "SpecificCharacterSet": "ISO_IR 100",
      "StudyID": "14",
      "StudyTime": "091021.935000",
      "TransmitCoilName": "Body",
      "VariableFlipAngleFlag": "N",
      "WindowCenterWidthExplanation": "Algo1",
      "dBdt": 0.0},
    "slices": {}
  },
  "time": {
    "samples": {
      "AcquisitionNumber": [1, 2, 3, 4, 5, 6, 7, 8, 9, 10, 11, 12, 13, 14, 15, 16, 17, 18, 19, 20, 21, 22, 23, 24, 25, 26, 27, 28, 29, 30, 31, 32, 33, 34, 35, 36, 37, 38, 39, 40, 41, 42, 43, 44, 45, 46, 47, 48, 49, 50, 51, 52, 53, 54, 55, 56, 57, 58, 59, 60, 61, 62, 63, 64, 65, 66, 67, 68, 69, 70, 71, 72, 73, 74, 75, 76, 77, 78, 79, 80, 81, 82, 83, 84, 85, 86, 87, 88, 89, 90, 91, 92, 93, 94, 95, 96, 97, 98, 99, 100, 101, 102, 103, 104, 105, 106, 107, 108, 109, 110, 111, 112, 113, 114, 115, 116, 117, 118, 119, 120, 121, 122, 123, 124, 125, 126, 127, 128, 129, 130, 131, 132, 133, 134, 135, 136, 137, 138, 139, 140, 141, 142, 143, 144, 145, 146, 147, 148, 149, 150, 151, 152, 153, 154, 155, 156, 157, 158, 159, 160, 161, 162, 163, 164, 165, 166, 167, 168, 169, 170, 171, 172, 173, 174, 175, 176, 177, 178, 179, 180, 181, 182, 183, 184, 185, 186, 187, 188, 189, 190, 191, 192, 193, 194, 195, 196, 197, 198, 199, 200],
      "AcquisitionTime": ["092558.505000", "092600.505000", "092602.505000", "092604.505000", "092606.505000", "092608.505000", "092610.505000", "092612.505000", "092614.505000", "092616.505000", "092618.505000", "092620.505000", "092622.505000", "092624.505000", "092626.505000", "092628.505000", "092630.505000", "092632.505000", "092634.505000", "092636.505000", "092638.505000", "092640.505000", "092642.505000", "092644.505000", "092646.505000", "092648.505000", "092650.505000", "092652.505000", "092654.505000", "092656.505000", "092658.505000", "092700.505000", "092702.505000", "092704.505000", "092706.505000", "092708.505000", "092710.505000", "092712.505000", "092714.505000", "092716.505000", "092718.505000", "092720.505000", "092722.505000", "092724.505000", "092726.505000", "092728.505000", "092730.505000", "092732.505000", "092734.505000", "092736.505000", "092738.505000", "092740.505000", "092742.505000", "092744.505000", "092746.505000", "092748.505000", "092750.505000", "092752.505000", "092754.505000", "092756.505000", "092758.505000", "092800.505000", "092802.505000", "092804.505000", "092806.505000", "092808.505000", "092810.505000", "092812.505000", "092814.505000", "092816.505000", "092818.505000", "092820.505000", "092822.505000", "092824.505000", "092826.505000", "092828.505000", "092830.505000", "092832.505000", "092834.505000", "092836.505000", "092838.505000", "092840.505000", "092842.505000", "092844.505000", "092846.505000", "092848.505000", "092850.505000", "092852.505000", "092854.505000", "092856.505000", "092858.505000", "092900.505000", "092902.505000", "092904.505000", "092906.505000", "092908.505000", "092910.505000", "092912.505000", "092914.505000", "092916.505000", "092918.505000", "092920.505000", "092922.505000", "092924.505000", "092926.505000", "092928.505000", "092930.505000", "092932.505000", "092934.505000", "092936.505000", "092938.505000", "092940.505000", "092942.505000", "092944.505000", "092946.505000", "092948.505000", "092950.505000", "092952.505000", "092954.505000", "092956.505000", "092958.505000", "093000.505000", "093002.505000", "093004.505000", "093006.505000", "093008.505000", "093010.505000", "093012.505000", "093014.505000", "093016.505000", "093018.505000", "093020.505000", "093022.505000", "093024.505000", "093026.505000", "093028.505000", "093030.505000", "093032.505000", "093034.505000", "093036.505000", "093038.505000", "093040.505000", "093042.505000", "093044.505000", "093046.505000", "093048.505000", "093050.505000", "093052.505000", "093054.505000", "093056.505000", "093058.505000", "093100.505000", "093102.505000", "093104.505000", "093106.505000", "093108.505000", "093110.505000", "093112.505000", "093114.505000", "093116.505000", "093118.505000", "093120.505000", "093122.505000", "093124.505000", "093126.505000", "093128.505000", "093130.505000", "093132.505000", "093134.505000", "093136.505000", "093138.505000", "093140.505000", "093142.505000", "093144.505000", "093146.505000", "093148.505000", "093150.505000", "093152.505000", "093154.505000", "093156.505000", "093158.505000", "093200.505000", "093202.505000", "093204.505000", "093206.505000", "093208.505000", "093210.505000", "093212.505000", "093214.505000", "093216.505000", "093218.505000", "093220.505000", "093222.505000", "093224.505000", "093226.505000", "093228.505000", "093230.505000", "093232.505000", "093234.505000", "093236.505000"],
      "ContentTime": ["092643.338000", "092643.342000", "092643.349000", "092643.351000", "092643.354000", "092643.357000", "092643.359000", "092643.362000", "092643.364000", "092643.367000", "092643.370000", "092643.372000", "092643.375000", "092643.377000", "092643.380000", "092643.383000", "092643.385000", "092643.397000", "092643.400000", "092643.402000", "092643.405000", "092643.408000", "092703.334000", "092703.336000", "092703.339000", "092703.342000", "092703.344000", "092703.352000", "092703.354000", "092703.357000", "092703.359000", "092703.362000", "092743.334000", "092743.336000", "092743.339000", "092743.342000", "092743.344000", "092743.347000", "092743.358000", "092743.361000", "092743.363000", "092743.366000", "092743.369000", "092743.371000", "092743.374000", "092743.376000", "092743.379000", "092743.382000", "092743.384000", "092743.387000", "092743.389000", "092743.392000", "092823.334000", "092823.337000", "092823.340000", "092823.343000", "092823.345000", "092823.348000", "092823.350000", "092823.353000", "092823.356000", "092823.358000", "092823.361000", "092823.363000", "092823.366000", "092823.369000", "092823.371000", "092823.374000", "092823.376000", "092823.379000", "092823.382000", "092823.384000", "092903.333000", "092903.336000", "092903.339000", "092903.342000", "092903.344000", "092903.347000", "092903.349000", "092903.352000", "092903.355000", "092903.357000", "092903.360000", "092903.363000", "092903.365000", "092903.368000", "092903.370000", "092903.373000", "092903.376000", "092903.378000", "092903.381000", "092903.383000", "092943.333000", "092943.336000", "092943.339000", "092943.342000", "092943.344000", "092943.347000", "092943.349000", "092943.363000", "092943.365000", "092943.368000", "092943.370000", "092943.373000", "092943.376000", "092943.378000", "092943.381000", "092943.383000", "092943.386000", "092943.388000", "092943.391000", "092943.394000", "093023.334000", "093023.337000", "093023.340000", "093023.343000", "093023.345000", "093023.348000", "093023.350000", "093023.353000", "093023.356000", "093023.358000", "093023.361000", "093023.363000", "093023.366000", "093023.369000", "093023.371000", "093023.374000", "093023.376000", "093023.379000", "093023.381000", "093023.384000", "093103.333000", "093103.336000", "093103.339000", "093103.342000", "093103.344000", "093103.347000", "093103.349000", "093103.352000", "093103.355000", "093103.357000", "093103.360000", "093103.363000", "093103.365000", "093103.368000", "093103.370000", "093103.373000", "093103.376000", "093103.378000", "093103.381000", "093103.383000", "093143.334000", "093143.336000", "093143.339000", "093143.342000", "093143.344000", "093143.347000", "093143.349000", "093143.352000", "093143.355000", "093143.357000", "093143.360000", "093143.363000", "093143.365000", "093143.368000", "093143.370000", "093143.373000", "093143.376000", "093143.378000", "093143.381000", "093143.383000", "093223.334000", "093223.336000", "093223.339000", "093223.342000", "093223.344000", "093223.347000", "093223.350000", "093223.352000", "093223.355000", "093223.357000", "093223.360000", "093223.363000", "093223.365000", "093223.368000", "093223.370000", "093223.373000", "093223.376000", "093223.378000", "093223.381000", "093223.384000", "093238.420000", "093238.423000", "093238.426000", "093238.428000", "093238.431000", "093238.434000", "093238.436000", "093238.439000"],
      "InstanceCreationTime": ["092643.338000", "092643.342000", "092643.349000", "092643.351000", "092643.354000", "092643.357000", "092643.359000", "092643.362000", "092643.364000", "092643.367000", "092643.370000", "092643.372000", "092643.375000", "092643.377000", "092643.380000", "092643.383000", "092643.385000", "092643.397000", "092643.400000", "092643.402000", "092643.405000", "092643.408000", "092703.334000", "092703.336000", "092703.339000", "092703.342000", "092703.344000", "092703.352000", "092703.354000", "092703.357000", "092703.359000", "092703.362000", "092743.334000", "092743.336000", "092743.339000", "092743.342000", "092743.344000", "092743.347000", "092743.358000", "092743.361000", "092743.363000", "092743.366000", "092743.369000", "092743.371000", "092743.374000", "092743.376000", "092743.379000", "092743.382000", "092743.384000", "092743.387000", "092743.389000", "092743.392000", "092823.334000", "092823.337000", "092823.340000", "092823.343000", "092823.345000", "092823.348000", "092823.350000", "092823.353000", "092823.356000", "092823.358000", "092823.361000", "092823.363000", "092823.366000", "092823.369000", "092823.371000", "092823.374000", "092823.376000", "092823.379000", "092823.382000", "092823.384000", "092903.333000", "092903.336000", "092903.339000", "092903.342000", "092903.344000", "092903.347000", "092903.349000", "092903.352000", "092903.355000", "092903.357000", "092903.360000", "092903.363000", "092903.365000", "092903.368000", "092903.370000", "092903.373000", "092903.376000", "092903.378000", "092903.381000", "092903.383000", "092943.333000", "092943.336000", "092943.339000", "092943.342000", "092943.344000", "092943.347000", "092943.349000", "092943.363000", "092943.365000", "092943.368000", "092943.370000", "092943.373000", "092943.376000", "092943.378000", "092943.381000", "092943.383000", "092943.386000", "092943.388000", "092943.391000", "092943.394000", "093023.334000", "093023.337000", "093023.340000", "093023.343000", "093023.345000", "093023.348000", "093023.350000", "093023.353000", "093023.356000", "093023.358000", "093023.361000", "093023.363000", "093023.366000", "093023.369000", "093023.371000", "093023.374000", "093023.376000", "093023.379000", "093023.381000", "093023.384000", "093103.333000", "093103.336000", "093103.339000", "093103.342000", "093103.344000", "093103.347000", "093103.349000", "093103.352000", "093103.355000", "093103.357000", "093103.360000", "093103.363000", "093103.365000", "093103.368000", "093103.370000", "093103.373000", "093103.376000", "093103.378000", "093103.381000", "093103.383000", "093143.334000", "093143.336000", "093143.339000", "093143.342000", "093143.344000", "093143.347000", "093143.349000", "093143.352000", "093143.355000", "093143.357000", "093143.360000", "093143.363000", "093143.365000", "093143.368000", "093143.370000", "093143.373000", "093143.376000", "093143.378000", "093143.381000", "093143.383000", "093223.334000", "093223.336000", "093223.339000", "093223.342000", "093223.344000", "093223.347000", "093223.350000", "093223.352000", "093223.355000", "093223.357000", "093223.360000", "093223.363000", "093223.365000", "093223.368000", "093223.370000", "093223.373000", "093223.376000", "093223.378000", "093223.381000", "093223.384000", "093238.420000", "093238.423000", "093238.426000", "093238.428000", "093238.431000", "093238.434000", "093238.436000", "093238.439000"],
      "InstanceNumber": [1, 2, 3, 4, 5, 6, 7, 8, 9, 10, 11, 12, 13, 14, 15, 16, 17, 18, 19, 20, 21, 22, 23, 24, 25, 26, 27, 28, 29, 30, 31, 32, 33, 34, 35, 36, 37, 38, 39, 40, 41, 42, 43, 44, 45, 46, 47, 48, 49, 50, 51, 52, 53, 54, 55, 56, 57, 58, 59, 60, 61, 62, 63, 64, 65, 66, 67, 68, 69, 70, 71, 72, 73, 74, 75, 76, 77, 78, 79, 80, 81, 82, 83, 84, 85, 86, 87, 88, 89, 90, 91, 92, 93, 94, 95, 96, 97, 98, 99, 100, 101, 102, 103, 104, 105, 106, 107, 108, 109, 110, 111, 112, 113, 114, 115, 116, 117, 118, 119, 120, 121, 122, 123, 124, 125, 126, 127, 128, 129, 130, 131, 132, 133, 134, 135, 136, 137, 138, 139, 140, 141, 142, 143, 144, 145, 146, 147, 148, 149, 150, 151, 152, 153, 154, 155, 156, 157, 158, 159, 160, 161, 162, 163, 164, 165, 166, 167, 168, 169, 170, 171, 172, 173, 174, 175, 176, 177, 178, 179, 180, 181, 182, 183, 184, 185, 186, 187, 188, 189, 190, 191, 192, 193, 194, 195, 196, 197, 198, 199, 200],
      "LargestImagePixelValue": [1950, 1949, 1951, 1953, 1951, 1953, 1948, 1950, 1947, 1947, 1952, 1953, 1946, 1947, 1950, 1952, 1946, 1950, 1951, 1950, 1956, 1952, 1946, 1950, 1952, 1953, 1951, 1952, 1951, 1949, 1949, 1950, 1954, 1951, 1948, 1948, 1950, 1948, 1945, 1949, 1956, 1944, 1950, 1955, 1937, 1949, 1957, 1945, 1948, 1953, 1956, 1950, 1949, 1949, 1947, 1951, 1948, 1946, 1949, 1951, 1943, 1946, 1958, 1948, 1950, 1947, 1950, 1943, 1947, 1949, 1947, 1942, 1948, 1953, 1944, 1945, 1947, 1952, 1942, 1945, 1946, 1950, 1946, 1942, 1942, 1952, 1951, 1944, 1938, 1948, 1951, 1952, 1942, 1939, 1950, 1946, 1947, 1941, 1942, 1948, 1950, 1941, 1947, 1946, 1944, 1945, 1941, 1938, 1943, 1941, 1938, 1944, 1946, 1944, 1948, 1943, 1943, 1944, 1942, 1946, 1942, 1942, 1938, 1950, 1935, 1935, 1933, 1945, 1946, 1939, 1938, 1936, 1940, 1943, 1952, 1951, 1933, 1937, 1941, 1947, 1946, 1941, 1939, 1942, 1942, 1941, 1946, 1952, 1947, 1938, 1938, 1938, 1940, 1942, 1946, 1941, 1945, 1949, 1950, 1947, 1941, 1946, 1949, 1953, 1946, 1938, 1946, 1947, 1940, 1944, 1948, 1939, 1944, 1942, 1949, 1946, 1940, 1943, 1945, 1941, 1941, 1941, 1946, 1948, 1950, 1942, 1938, 1943, 1947, 1951, 1955, 1947, 1945, 1948, 1952, 1947, 1948, 1947, 1951, 1951],
      "WindowCenter": [970.0, 969.0, 969.0, 969.0, 970.0, 969.0, 969.0, 970.0, 969.0, 969.0, 968.0, 970.0, 971.0, 969.0, 969.0, 969.0, 970.0, 969.0, 970.0, 969.0, 969.0, 970.0, 970.0, 969.0, 969.0, 969.0, 969.0, 970.0, 969.0, 970.0, 970.0, 970.0, 969.0, 970.0, 970.0, 970.0, 969.0, 969.0, 971.0, 968.0, 970.0, 968.0, 968.0, 971.0, 970.0, 969.0, 970.0, 969.0, 971.0, 969.0, 970.0, 969.0, 970.0, 968.0, 969.0, 969.0, 968.0, 969.0, 969.0, 970.0, 970.0, 970.0, 969.0, 970.0, 970.0, 969.0, 968.0, 969.0, 970.0, 970.0, 970.0, 969.0, 970.0, 968.0, 970.0, 970.0, 970.0, 969.0, 969.0, 969.0, 968.0, 969.0, 970.0, 970.0, 969.0, 969.0, 970.0, 969.0, 968.0, 969.0, 968.0, 969.0, 969.0, 969.0, 969.0, 968.0, 968.0, 968.0, 969.0, 969.0, 969.0, 969.0, 968.0, 968.0, 969.0, 970.0, 968.0, 969.0, 969.0, 970.0, 968.0, 968.0, 969.0, 969.0, 969.0, 968.0, 969.0, 968.0, 968.0, 968.0, 969.0, 968.0, 969.0, 969.0, 968.0, 969.0, 968.0, 968.0, 968.0, 969.0, 969.0, 968.0, 969.0, 969.0, 968.0, 969.0, 968.0, 968.0, 969.0, 968.0, 969.0, 968.0, 969.0, 967.0, 968.0, 968.0, 969.0, 969.0, 968.0, 968.0, 969.0, 969.0, 968.0, 969.0, 968.0, 967.0, 967.0, 969.0, 967.0, 969.0, 968.0, 968.0, 968.0, 968.0, 969.0, 968.0, 968.0, 968.0, 968.0, 970.0, 969.0, 969.0, 969.0, 969.0, 968.0, 968.0, 968.0, 970.0, 968.0, 969.0, 969.0, 967.0, 969.0, 969.0, 968.0, 967.0, 968.0, 969.0, 968.0, 968.0, 968.0, 968.0, 967.0, 969.0, 969.0, 969.0, 968.0, 969.0, 968.0, 969.0],
      "WindowWidth": [2120.0, 2119.0, 2118.0, 2119.0, 2120.0, 2118.0, 2120.0, 2120.0, 2119.0, 2120.0, 2118.0, 2120.0, 2120.0, 2119.0, 2120.0, 2120.0, 2120.0, 2120.0, 2120.0, 2120.0, 2120.0, 2120.0, 2120.0, 2120.0, 2120.0, 2119.0, 2120.0, 2120.0, 2120.0, 2120.0, 2120.0, 2120.0, 2120.0, 2120.0, 2120.0, 2120.0, 2119.0, 2119.0, 2121.0, 2118.0, 2120.0, 2119.0, 2118.0, 2121.0, 2120.0, 2119.0, 2119.0, 2119.0, 2120.0, 2119.0, 2119.0, 2119.0, 2120.0, 2119.0, 2119.0, 2119.0, 2118.0, 2119.0, 2119.0, 2119.0, 2119.0, 2119.0, 2119.0, 2119.0, 2119.0, 2118.0, 2118.0, 2118.0, 2119.0, 2119.0, 2119.0, 2118.0, 2119.0, 2118.0, 2119.0, 2119.0, 2119.0, 2118.0, 2118.0, 2118.0, 2118.0, 2119.0, 2119.0, 2119.0, 2118.0, 2118.0, 2119.0, 2119.0, 2118.0, 2119.0, 2118.0, 2118.0, 2118.0, 2119.0, 2119.0, 2117.0, 2117.0, 2118.0, 2119.0, 2118.0, 2119.0, 2118.0, 2117.0, 2117.0, 2119.0, 2119.0, 2117.0, 2119.0, 2118.0, 2120.0, 2118.0, 2118.0, 2119.0, 2119.0, 2119.0, 2118.0, 2119.0, 2118.0, 2118.0, 2118.0, 2119.0, 2117.0, 2119.0, 2118.0, 2117.0, 2119.0, 2118.0, 2118.0, 2118.0, 2119.0, 2119.0, 2118.0, 2119.0, 2119.0, 2118.0, 2118.0, 2118.0, 2118.0, 2118.0, 2118.0, 2119.0, 2117.0, 2118.0, 2116.0, 2117.0, 2117.0, 2118.0, 2118.0, 2117.0, 2118.0, 2118.0, 2118.0, 2117.0, 2118.0, 2117.0, 2117.0, 2117.0, 2118.0, 2117.0, 2118.0, 2117.0, 2118.0, 2117.0, 2118.0, 2119.0, 2118.0, 2118.0, 2117.0, 2117.0, 2119.0, 2118.0, 2118.0, 2118.0, 2118.0, 2118.0, 2117.0, 2118.0, 2119.0, 2118.0, 2118.0, 2118.0, 2116.0, 2118.0, 2118.0, 2117.0, 2116.0, 2117.0, 2118.0, 2117.0, 2118.0, 2118.0, 2118.0, 2117.0, 2118.0, 2118.0, 2118.0, 2117.0, 2118.0, 2117.0, 2118.0]
    },
    "slices": {}
  }
}