{
  "AcquisitionMatrixPE": 122,
  "AcquisitionNumber": 1,
  "AcquisitionTime": "10:17:45.012500",
  "BandwidthPerPixelPhaseEncode": 28.76,
  "BaseResolution": 122,
  "BodyPartExamined": "BRAIN",
  "CoilCombinationMethod": "Adaptive Combine",
  "ConsistencyInfo": "N4_VE11C_LATEST_20160120",
  "ConversionSoftware": "dcm2niix",
  "ConversionSoftwareVersion": "v1.0.20220720",
  "DerivedVendorReportedEchoSpacing": 0.000570008,
  "DeviceSerialNumber": "66112",
  "DiffusionScheme": "Monopolar",
  "DwellTime": 2e-06,
  "EchoTime": 0.075,
  "EchoTrainLength": 61,
  "EffectiveEchoSpacing": 0.000285004,
  "FlipAngle": 90,
  "HeudiconvVersion": "0.13.1",
  "ImageOrientationPatientDICOM": [0.984718, 0.173878, 0.00989372, -0.168498, 0.936803, 0.30661],
  "ImageOrientationText": "Tra>Cor(17.7)>Sag(-2.5)",
  "ImageType": [
    "ORIGINAL",
    "PRIMARY",
    "DIFFUSION",
    "NONE",
    "ND",
    "NORM"
],
  "ImagingFrequency": 123.252,
  "InPlanePhaseEncodingDirectionDICOM": "COL",
  "InstitutionAddress": "Maynard 3,Hanover,NH,US,03755",
  "InstitutionName": "Dartmouth College - PBS",
  "InstitutionalDepartmentName": "Department",
  "MRAcquisitionType": "2D",
  "MagneticFieldStrength": 3,
  "Manufacturer": "Siemens",
  "ManufacturersModelName": "Prisma",
  "MatrixCoilMode": "GRAPPA",
  "Modality": "MR",
  "NonlinearGradientCorrection": false,
  "ParallelReductionFactorInPlane": 2,
  "PartialFourier": 1,
  "PatientPosition": "HFS",
  "PercentPhaseFOV": 100,
  "PercentSampling": 100,
  "PhaseEncodingDirection": "j-",
  "PhaseEncodingSteps": 122,
  "PhaseResolution": 1,
  "PixelBandwidth": 2050,
  "ProcedureStepDescription": "dbic^QA",
  "ProtocolName": "dwi_acq-DTI-30-p2",
  "PulseSequenceDetails": "%SiemensSeq%\\ep2d_diff",
  "ReceiveCoilActiveElements": "HEA;HEP",
  "ReceiveCoilName": "Head_32",
  "ReconMatrixPE": 122,
  "RefLinesPE": 38,
  "RepetitionTime": 7.7,
  "SAR": 0.102019,
  "ScanOptions": "FS",
  "ScanningSequence": "EP",
  "SequenceName": "*ep_b0",
  "SequenceVariant": "SK\\SP",
  "SeriesDescription": "dwi_acq-DTI-30-p2",
  "SeriesNumber": 12,
  "ShimSetting": [4148, -7716, -7511, 250, -68, -111, 8, 55],
  "SliceThickness": 2,
  "SliceTiming": [3.84375, 0, 3.95312, 0.10938, 4.0625, 0.21875, 4.17188, 0.32812, 4.28125, 0.4375, 4.39062, 0.54688, 4.5, 0.65625, 4.60938, 0.76562, 4.71875, 0.875, 4.82812, 0.98438, 4.9375, 1.10156, 5.04688, 1.21094, 5.15625, 1.32031, 5.26562, 1.42188, 5.375, 1.53906, 5.48438, 1.64844, 5.59375, 1.75781, 5.70312, 1.86719, 5.8125, 1.97656, 5.92188, 2.08594, 6.03906, 2.19531, 6.14062, 2.30469, 6.25, 2.41406, 6.35938, 2.52344, 6.47656, 2.63281, 6.58594, 2.74219, 6.69531, 2.85156, 6.80469, 2.96094, 6.91406, 3.07031, 7.02344, 3.17969, 7.13281, 3.28906, 7.24219, 3.39844, 7.35156, 3.50781, 7.46094, 3.61719, 7.57031, 3.73438],
  "SoftwareVersions": "syngo MR E11",
  "SpacingBetweenSlices": 2,
  "SpoilingState": true,
  "StationName": "AWP66112",
  "TotalReadoutTime": 0.0344855,
  "TxRefAmp": 224.186,
  "dcmmeta_affine": [
    [-1.9371492862701416, -0.3314710855484009, -0.0880882740020752, 141.90072631835938],
    [-0.3420548141002655, 1.8428902626037598, 0.6071815490722656, -95.43124389648438],
    [0.01946304924786091, -0.6031665802001953, 1.903564453125, -29.835729598999023],
    [0.0, 0.0, 0.0, 1.0]
],
  "dcmmeta_reorient_transform": [
    [0.0, -1.0, 0.0, 121.0],
    [1.0, 0.0, 0.0, 0.0],
    [0.0, 0.0, -1.0, 69.0],
    [0.0, 0.0, 0.0, 1.0]
],
  "dcmmeta_shape": [122, 122, 70, 31],
  "dcmmeta_slice_dim": 2,
  "dcmmeta_version": 0.6,
  "global": {
    "const": {
      "AccessionNumber": "qa",
      "AcquisitionMatrix": [122, 0, 0, 122],
      "AngioFlag": "N",
      "BitsAllocated": 16,
      "BitsStored": 12,
      "BodyPartExamined": "BRAIN",
      "Columns": 122,
      "EchoNumbers": 1,
      "EchoTime": 75.0,
      "EchoTrainLength": 61,
      "FlipAngle": 90.0,
      "HighBit": 11,
      "ImageOrientationPatient": [0.98471752511168, 0.17387785974071, 0.00989371668895, -0.1684977936297, 0.93680254269831, 0.30660966967122],
      "ImageType": [
        "ORIGINAL",
        "PRIMARY",
        "DIFFUSION",
        "NONE",
        "ND",
        "NORM"
],
      "ImagedNucleus": "1H",
      "ImagingFrequency": 123.252348,
      "InPlanePhaseEncodingDirection": "COL",
      "MRAcquisitionType": "2D",
      "MagneticFieldStrength": 3.0,
      "Manufacturer": "SIEMENS",
      "ManufacturerModelName": "Prisma",
      "Modality": "MR",
      "NumberOfAverages": 1.0,
      "NumberOfPhaseEncodingSteps": 122,
      "PercentPhaseFieldOfView": 100.0,
      "PercentSampling": 100.0,
      "PerformedProcedureStepStartTime": "094613.221000",
      "PhotometricInterpretation": "MONOCHROME2",
      "PixelBandwidth": 2050.0,
      "PixelRepresentation": 0,
      "PixelSpacing": [1.9672131538391, 1.9672131538391],
      "ProtocolName": "dwi_acq-DTI-30-p2",
      "RepetitionTime": 7700.0,
      "Rows": 122,
      "SAR": 0.10201912673251,
      "SamplesPerPixel": 1,
      "ScanOptions": "FS",
      "ScanningSequence": "EP",
      "SequenceVariant": [
        "SK",
        "SP"
],
      "SeriesDescription": "dwi_acq-DTI-30-p2",
      "SeriesNumber": 12,
      "SeriesTime": "101802.315000",
      "SliceThickness": 2.0,
      "SmallestImagePixelValue": 0,
      "SoftwareVersions": "syngo MR E11",
      "SpacingBetweenSlices": 2.0,
      "SpecificCharacterSet": "ISO_IR 100",
      "StudyID": "61",
      "StudyTime": "094613.188000",
      "TransmitCoilName": "Body",
      "VariableFlipAngleFlag": "N",
      "WindowCenterWidthExplanation": "Algo1",
      "dBdt": 0.0},
    "slices": {
      "AcquisitionTime": ["101745.012500", "101741.172500", "101745.122500", "101741.282500", "101745.232500", "101741.392500", "101745.342500", "101741.502500", "101745.450000", "101741.610000", "101745.560000", "101741.720000", "101745.670000", "101741.830000", "101745.780000", "101741.940000", "101745.890000", "101742.050000", "101746.000000", "101742.160000", "101746.110000", "101742.270000", "101746.220000", "101742.380000", "101746.327500", "101742.490000", "101746.437500", "101742.597500", "101746.547500", "101742.707500", "101746.657500", "101742.817500", "101746.767500", "101742.927500", "101746.877500", "101743.037500", "101746.987500", "101743.147500", "101747.097500", "101743.257500", "101747.207500", "101743.367500", "101747.315000", "101743.475000", "101747.425000", "101743.585000", "101747.535000", "101743.695000", "101747.645000", "101743.805000", "101747.755000", "101743.915000", "101747.865000", "101744.025000", "101747.975000", "101744.135000", "101748.085000", "101744.245000", "101748.192500", "101744.355000", "101748.302500", "101744.462500", "101748.412500", "101744.572500", "101748.522500", "101744.682500", "101748.632500", "101744.792500", "101748.742500", "101744.902500", "101752.712500", "101748.872500", "101752.822500", "101748.982500", "101752.932500", "101749.092500", "101753.042500", "101749.202500", "101753.150000", "101749.310000", "101753.260000", "101749.420000", "101753.370000", "101749.530000", "101753.480000", "101749.640000", "101753.590000", "101749.750000", "101753.700000", "101749.860000", "101753.810000", "101749.970000", "101753.920000", "101750.080000", "101754.027500", "101750.190000", "101754.137500", "101750.297500", "101754.247500", "101750.407500", "101754.357500", "101750.517500", "101754.467500", "101750.627500", "101754.577500", "101750.737500", "101754.687500", "101750.847500", "101754.797500", "101750.957500", "101754.907500", "101751.067500", "101755.015000", "101751.175000", "101755.125000", "101751.285000", "101755.235000", "101751.395000", "101755.345000", "101751.505000", "101755.455000", "101751.615000", "101755.565000", "101751.725000", "101755.675000", "101751.835000", "101755.785000", "101751.945000", "101755.892500", "101752.055000", "101756.002500", "101752.162500", "101756.112500", "101752.272500", "101756.222500", "101752.382500", "101756.332500", "101752.492500", "101756.442500", "101752.602500", "101800.412500", "101756.572500", "101800.522500", "101756.682500", "101800.632500", "101756.792500", "101800.742500", "101756.902500", "101800.850000", "101757.010000", "101800.960000", "101757.120000", "101801.070000", "101757.230000", "101801.180000", "101757.340000", "101801.290000", "101757.450000", "101801.400000", "101757.560000", "101801.510000", "101757.670000", "101801.620000", "101757.780000", "101801.727500", "101757.890000", "101801.837500", "101757.997500", "101801.947500", "101758.107500", "101802.057500", "101758.217500", "101802.167500", "101758.327500", "101802.277500", "101758.437500", "101802.387500", "101758.547500", "101802.497500", "101758.657500", "101802.607500", "101758.767500", "101802.715000", "101758.875000", "101802.825000", "101758.985000", "101802.935000", "101759.095000", "101803.045000", "101759.205000", "101803.155000", "101759.315000", "101803.265000", "101759.425000", "101803.375000", "101759.535000", "101803.485000", "101759.645000", "101803.592500", "101759.755000", "101803.702500", "101759.862500", "101803.812500", "101759.972500", "101803.922500", "101800.082500", "101804.032500", "101800.192500", "101804.142500", "101800.302500", "101808.112500", "101804.272500", "101808.222500", "101804.382500", "101808.332500", "101804.492500", "101808.442500", "101804.602500", "101808.550000", "101804.710000", "101808.660000", "101804.820000", "101808.770000", "101804.930000", "101808.880000", "101805.040000", "101808.990000", "101805.150000", "101809.100000", "101805.260000", "101809.210000", "101805.370000", "101809.320000", "101805.480000", "101809.427500", "101805.590000", "101809.537500", "101805.697500", "101809.647500", "101805.807500", "101809.757500", "101805.917500", "101809.867500", "101806.027500", "101809.977500", "101806.137500", "101810.087500", "101806.247500", "101810.197500", "101806.357500", "101810.307500", "101806.467500", "101810.415000", "101806.575000", "101810.525000", "101806.685000", "101810.635000", "101806.795000", "101810.745000", "101806.905000", "101810.855000", "101807.015000", "101810.965000", "101807.125000", "101811.075000", "101807.235000", "101811.185000", "101807.345000", "101811.292500", "101807.455000", "101811.402500", "101807.562500", "101811.512500", "101807.672500", "101811.622500", "101807.782500", "101811.732500", "101807.892500", "101811.842500", "101808.002500", "101815.812500", "101811.972500", "101815.922500", "101812.082500", "101816.032500", "101812.192500", "101816.142500", "101812.302500", "101816.250000", "101812.410000", "101816.360000", "101812.520000", "101816.470000", "101812.630000", "101816.580000", "101812.740000", "101816.690000", "101812.850000", "101816.800000", "101812.960000", "101816.910000", "101813.070000", "101817.020000", "101813.180000", "101817.127500", "101813.290000", "101817.237500", "101813.397500", "101817.347500", "101813.507500", "101817.457500", "101813.617500", "101817.567500", "101813.727500", "101817.677500", "101813.837500", "101817.787500", "101813.947500", "101817.897500", "101814.057500", "101818.007500", "101814.167500", "101818.115000", "101814.275000", "101818.225000", "101814.385000", "101818.335000", "101814.495000", "101818.445000", "101814.605000", "101818.555000", "101814.715000", "101818.665000", "101814.825000", "101818.775000", "101814.935000", "101818.885000", "101815.045000", "101818.992500", "101815.155000", "101819.102500", "101815.262500", "101819.212500", "101815.372500", "101819.322500", "101815.482500", "101819.432500", "101815.592500", "101819.542500", "101815.702500", "101823.512500", "101819.672500", "101823.622500", "101819.782500", "101823.732500", "101819.892500", "101823.842500", "101820.002500", "101823.950000", "101820.110000", "101824.060000", "101820.220000", "101824.170000", "101820.330000", "101824.280000", "101820.440000", "101824.390000", "101820.550000", "101824.500000", "101820.660000", "101824.610000", "101820.770000", "101824.720000", "101820.880000", "101824.827500", "101820.990000", "101824.937500", "101821.097500", "101825.047500", "101821.207500", "101825.157500", "101821.317500", "101825.267500", "101821.427500", "101825.377500", "101821.537500", "101825.487500", "101821.647500", "101825.597500", "101821.757500", "101825.707500", "101821.867500", "101825.815000", "101821.975000", "101825.925000", "101822.085000", "101826.035000", "101822.195000", "101826.145000", "101822.305000", "101826.255000", "101822.415000", "101826.365000", "101822.525000", "101826.475000", "101822.635000", "101826.585000", "101822.745000", "101826.692500", "101822.855000", "101826.802500", "101822.962500", "101826.912500", "101823.072500", "101827.022500", "101823.182500", "101827.132500", "101823.292500", "101827.242500", "101823.402500", "101831.212500", "101827.372500", "101831.322500", "101827.482500", "101831.432500", "101827.592500", "101831.542500", "101827.702500", "101831.650000", "101827.810000", "101831.760000", "101827.920000", "101831.870000", "101828.030000", "101831.980000", "101828.140000", "101832.090000", "101828.250000", "101832.200000", "101828.360000", "101832.310000", "101828.470000", "101832.420000", "101828.580000", "101832.527500", "101828.690000", "101832.637500", "101828.797500", "101832.747500", "101828.907500", "101832.857500", "101829.017500", "101832.967500", "101829.127500", "101833.077500", "101829.237500", "101833.187500", "101829.347500", "101833.297500", "101829.457500", "101833.407500", "101829.567500", "101833.515000", "101829.675000", "101833.625000", "101829.785000", "101833.735000", "101829.895000", "101833.845000", "101830.005000", "101833.955000", "101830.115000", "101834.065000", "101830.225000", "101834.175000", "101830.335000", "101834.285000", "101830.445000", "101834.392500", "101830.555000", "101834.502500", "101830.662500", "101834.612500", "101830.772500", "101834.722500", "101830.882500", "101834.832500", "101830.992500", "101834.942500", "101831.102500", "101838.912500", "101835.072500", "101839.022500", "101835.182500", "101839.132500", "101835.292500", "101839.242500", "101835.402500", "101839.350000", "101835.510000", "101839.460000", "101835.620000", "101839.570000", "101835.730000", "101839.680000", "101835.840000", "101839.790000", "101835.950000", "101839.900000", "101836.060000", "101840.010000", "101836.170000", "101840.120000", "101836.280000", "101840.227500", "101836.390000", "101840.337500", "101836.497500", "101840.447500", "101836.607500", "101840.557500", "101836.717500", "101840.667500", "101836.827500", "101840.777500", "101836.937500", "101840.887500", "101837.047500", "101840.997500", "101837.157500", "101841.107500", "101837.267500", "101841.215000", "101837.375000", "101841.325000", "101837.485000", "101841.435000", "101837.595000", "101841.545000", "101837.705000", "101841.655000", "101837.815000", "101841.765000", "101837.925000", "101841.875000", "101838.035000", "101841.985000", "101838.145000", "101842.092500", "101838.255000", "101842.202500", "101838.362500", "101842.312500", "101838.472500", "101842.422500", "101838.582500", "101842.532500", "101838.692500", "101842.642500", "101838.802500", "101846.612500", "101842.772500", "101846.722500", "101842.882500", "101846.832500", "101842.992500", "101846.942500", "101843.102500", "101847.050000", "101843.210000", "101847.160000", "101843.320000", "101847.270000", "101843.430000", "101847.380000", "101843.540000", "101847.490000", "101843.650000", "101847.600000", "101843.760000", "101847.710000", "101843.870000", "101847.820000", "101843.980000", "101847.927500", "101844.090000", "101848.037500", "101844.197500", "101848.147500", "101844.307500", "101848.257500", "101844.417500", "101848.367500", "101844.527500", "101848.477500", "101844.637500", "101848.587500", "101844.747500", "101848.697500", "101844.857500", "101848.807500", "101844.967500", "101848.915000", "101845.075000", "101849.025000", "101845.185000", "101849.135000", "101845.295000", "101849.245000", "101845.405000", "101849.355000", "101845.515000", "101849.465000", "101845.625000", "101849.575000", "101845.735000", "101849.685000", "101845.845000", "101849.792500", "101845.955000", "101849.902500", "101846.062500", "101850.012500", "101846.172500", "101850.122500", "101846.282500", "101850.232500", "101846.392500", "101850.342500", "101846.502500", "101854.312500", "101850.472500", "101854.422500", "101850.582500", "101854.532500", "101850.692500", "101854.642500", "101850.802500", "101854.750000", "101850.910000", "101854.860000", "101851.020000", "101854.970000", "101851.130000", "101855.080000", "101851.240000", "101855.190000", "101851.350000", "101855.300000", "101851.460000", "101855.410000", "101851.570000", "101855.520000", "101851.680000", "101855.627500", "101851.790000", "101855.737500", "101851.897500", "101855.847500", "101852.007500", "101855.957500", "101852.117500", "101856.067500", "101852.227500", "101856.177500", "101852.337500", "101856.287500", "101852.447500", "101856.397500", "101852.557500", "101856.507500", "101852.667500", "101856.615000", "101852.775000", "101856.725000", "101852.885000", "101856.835000", "101852.995000", "101856.945000", "101853.105000", "101857.055000", "101853.215000", "101857.165000", "101853.325000", "101857.275000", "101853.435000", "101857.385000", "101853.545000", "101857.492500", "101853.655000", "101857.602500", "101853.762500", "101857.712500", "101853.872500", "101857.822500", "101853.982500", "101857.932500", "101854.092500", "101858.042500", "101854.202500", "101902.012500", "101858.172500", "101902.122500", "101858.282500", "101902.232500", "101858.392500", "101902.342500", "101858.502500", "101902.450000", "101858.610000", "101902.560000", "101858.720000", "101902.670000", "101858.830000", "101902.780000", "101858.940000", "101902.890000", "101859.050000", "101903.000000", "101859.160000", "101903.110000", "101859.270000", "101903.220000", "101859.380000", "101903.327500", "101859.490000", "101903.437500", "101859.597500", "101903.547500", "101859.707500", "101903.657500", "101859.817500", "101903.767500", "101859.927500", "101903.877500", "101900.037500", "101903.987500", "101900.147500", "101904.097500", "101900.257500", "101904.207500", "101900.367500", "101904.315000", "101900.475000", "101904.425000", "101900.585000", "101904.535000", "101900.695000", "101904.645000", "101900.805000", "101904.755000", "101900.915000", "101904.865000", "101901.025000", "101904.975000", "101901.135000", "101905.085000", "101901.245000", "101905.192500", "101901.355000", "101905.302500", "101901.462500", "101905.412500", "101901.572500", "101905.522500", "101901.682500", "101905.632500", "101901.792500", "101905.742500", "101901.902500", "101909.712500", "101905.872500", "101909.822500", "101905.982500", "101909.932500", "101906.092500", "101910.042500", "101906.202500", "101910.150000", "101906.310000", "101910.260000", "101906.420000", "101910.370000", "101906.530000", "101910.480000", "101906.640000", "101910.590000", "101906.750000", "101910.700000", "101906.860000", "101910.810000", "101906.970000", "101910.920000", "101907.080000", "101911.027500", "101907.190000", "101911.137500", "101907.297500", "101911.247500", "101907.407500", "101911.357500", "101907.517500", "101911.467500", "101907.627500", "101911.577500", "101907.737500", "101911.687500", "101907.847500", "101911.797500", "101907.957500", "101911.907500", "101908.067500", "101912.015000", "101908.175000", "101912.125000", "101908.285000", "101912.235000", "101908.395000", "101912.345000", "101908.505000", "101912.455000", "101908.615000", "101912.565000", "101908.725000", "101912.675000", "101908.835000", "101912.785000", "101908.945000", "101912.892500", "101909.055000", "101913.002500", "101909.162500", "101913.112500", "101909.272500", "101913.222500", "101909.382500", "101913.332500", "101909.492500", "101913.442500", "101909.602500", "101917.412500", "101913.572500", "101917.522500", "101913.682500", "101917.632500", "101913.792500", "101917.742500", "101913.902500", "101917.850000", "101914.010000", "101917.960000", "101914.120000", "101918.070000", "101914.230000", "101918.180000", "101914.340000", "101918.290000", "101914.450000", "101918.400000", "101914.560000", "101918.510000", "101914.670000", "101918.620000", "101914.780000", "101918.727500", "101914.890000", "101918.837500", "101914.997500", "101918.947500", "101915.107500", "101919.057500", "101915.217500", "101919.167500", "101915.327500", "101919.277500", "101915.437500", "101919.387500", "101915.547500", "101919.497500", "101915.657500", "101919.607500", "101915.767500", "101919.715000", "101915.875000", "101919.825000", "101915.985000", "101919.935000", "101916.095000", "101920.045000", "101916.205000", "101920.155000", "101916.315000", "101920.265000", "101916.425000", "101920.375000", "101916.535000", "101920.485000", "101916.645000", "101920.592500", "101916.755000", "101920.702500", "101916.862500", "101920.812500", "101916.972500", "101920.922500", "101917.082500", "101921.032500", "101917.192500", "101921.142500", "101917.302500", "101925.112500", "101921.272500", "101925.222500", "101921.382500", "101925.332500", "101921.492500", "101925.442500", "101921.602500", "101925.550000", "101921.710000", "101925.660000", "101921.820000", "101925.770000", "101921.930000", "101925.880000", "101922.040000", "101925.990000", "101922.150000", "101926.100000", "101922.260000", "101926.210000", "101922.370000", "101926.320000", "101922.480000", "101926.427500", "101922.590000", "101926.537500", "101922.697500", "101926.647500", "101922.807500", "101926.757500", "101922.917500", "101926.867500", "101923.027500", "101926.977500", "101923.137500", "101927.087500", "101923.247500", "101927.197500", "101923.357500", "101927.307500", "101923.467500", "101927.415000", "101923.575000", "101927.525000", "101923.685000", "101927.635000", "101923.795000", "101927.745000", "101923.905000", "101927.855000", "101924.015000", "101927.965000", "101924.125000", "101928.075000", "101924.235000", "101928.185000", "101924.345000", "101928.292500", "101924.455000", "101928.402500", "101924.562500", "101928.512500", "101924.672500", "101928.622500", "101924.782500", "101928.732500", "101924.892500", "101928.842500", "101925.002500", "101932.812500", "101928.972500", "101932.922500", "101929.082500", "101933.032500", "101929.192500", "101933.142500", "101929.302500", "101933.250000", "101929.410000", "101933.360000", "101929.520000", "101933.470000", "101929.630000", "101933.580000", "101929.740000", "101933.690000", "101929.850000", "101933.800000", "101929.960000", "101933.910000", "101930.070000", "101934.020000", "101930.180000", "101934.127500", "101930.290000", "101934.237500", "101930.397500", "101934.347500", "101930.507500", "101934.457500", "101930.617500", "101934.567500", "101930.727500", "101934.677500", "101930.837500", "101934.787500", "101930.947500", "101934.897500", "101931.057500", "101935.007500", "101931.167500", "101935.115000", "101931.275000", "101935.225000", "101931.385000", "101935.335000", "101931.495000", "101935.445000", "101931.605000", "101935.555000", "101931.715000", "101935.665000", "101931.825000", "101935.775000", "101931.935000", "101935.885000", "101932.045000", "101935.992500", "101932.155000", "101936.102500", "101932.262500", "101936.212500", "101932.372500", "101936.322500", "101932.482500", "101936.432500", "101932.592500", "101936.542500", "101932.702500", "101940.512500", "101936.672500", "101940.622500", "101936.782500", "101940.732500", "101936.892500", "101940.842500", "101937.002500", "101940.950000", "101937.110000", "101941.060000", "101937.220000", "101941.170000", "101937.330000", "101941.280000", "101937.440000", "101941.390000", "101937.550000", "101941.500000", "101937.660000", "101941.610000", "101937.770000", "101941.720000", "101937.880000", "101941.827500", "101937.990000", "101941.937500", "101938.097500", "101942.047500", "101938.207500", "101942.157500", "101938.317500", "101942.267500", "101938.427500", "101942.377500", "101938.537500", "101942.487500", "101938.647500", "101942.597500", "101938.757500", "101942.707500", "101938.867500", "101942.815000", "101938.975000", "101942.925000", "101939.085000", "101943.035000", "101939.195000", "101943.145000", "101939.305000", "101943.255000", "101939.415000", "101943.365000", "101939.525000", "101943.475000", "101939.635000", "101943.585000", "101939.745000", "101943.692500", "101939.855000", "101943.802500", "101939.962500", "101943.912500", "101940.072500", "101944.022500", "101940.182500", "101944.132500", "101940.292500", "101944.242500", "101940.402500", "101948.212500", "101944.372500", "101948.322500", "101944.482500", "101948.432500", "101944.592500", "101948.542500", "101944.702500", "101948.650000", "101944.810000", "101948.760000", "101944.920000", "101948.870000", "101945.030000", "101948.980000", "101945.140000", "101949.090000", "101945.250000", "101949.200000", "101945.360000", "101949.310000", "101945.470000", "101949.420000", "101945.580000", "101949.527500", "101945.690000", "101949.637500", "101945.797500", "101949.747500", "101945.907500", "101949.857500", "101946.017500", "101949.967500", "101946.127500", "101950.077500", "101946.237500", "101950.187500", "101946.347500", "101950.297500", "101946.457500", "101950.407500", "101946.567500", "101950.515000", "101946.675000", "101950.625000", "101946.785000", "101950.735000", "101946.895000", "101950.845000", "101947.005000", "101950.955000", "101947.115000", "101951.065000", "101947.225000", "101951.175000", "101947.335000", "101951.285000", "101947.445000", "101951.392500", "101947.555000", "101951.502500", "101947.662500", "101951.612500", "101947.772500", "101951.722500", "101947.882500", "101951.832500", "101947.992500", "101951.942500", "101948.102500", "101955.912500", "101952.072500", "101956.022500", "101952.182500", "101956.132500", "101952.292500", "101956.242500", "101952.402500", "101956.350000", "101952.510000", "101956.460000", "101952.620000", "101956.570000", "101952.730000", "101956.680000", "101952.840000", "101956.790000", "101952.950000", "101956.900000", "101953.060000", "101957.010000", "101953.170000", "101957.120000", "101953.280000", "101957.227500", "101953.390000", "101957.337500", "101953.497500", "101957.447500", "101953.607500", "101957.557500", "101953.717500", "101957.667500", "101953.827500", "101957.777500", "101953.937500", "101957.887500", "101954.047500", "101957.997500", "101954.157500", "101958.107500", "101954.267500", "101958.215000", "101954.375000", "101958.325000", "101954.485000", "101958.435000", "101954.595000", "101958.545000", "101954.705000", "101958.655000", "101954.815000", "101958.765000", "101954.925000", "101958.875000", "101955.035000", "101958.985000", "101955.145000", "101959.092500", "101955.255000", "101959.202500", "101955.362500", "101959.312500", "101955.472500", "101959.422500", "101955.582500", "101959.532500", "101955.692500", "101959.642500", "101955.802500", "102003.612500", "101959.772500", "102003.722500", "101959.882500", "102003.832500", "101959.992500", "102003.942500", "102000.102500", "102004.050000", "102000.210000", "102004.160000", "102000.320000", "102004.270000", "102000.430000", "102004.380000", "102000.540000", "102004.490000", "102000.650000", "102004.600000", "102000.760000", "102004.710000", "102000.870000", "102004.820000", "102000.980000", "102004.927500", "102001.090000", "102005.037500", "102001.197500", "102005.147500", "102001.307500", "102005.257500", "102001.417500", "102005.367500", "102001.527500", "102005.477500", "102001.637500", "102005.587500", "102001.747500", "102005.697500", "102001.857500", "102005.807500", "102001.967500", "102005.915000", "102002.075000", "102006.025000", "102002.185000", "102006.135000", "102002.295000", "102006.245000", "102002.405000", "102006.355000", "102002.515000", "102006.465000", "102002.625000", "102006.575000", "102002.735000", "102006.685000", "102002.845000", "102006.792500", "102002.955000", "102006.902500", "102003.062500", "102007.012500", "102003.172500", "102007.122500", "102003.282500", "102007.232500", "102003.392500", "102007.342500", "102003.502500", "102011.312500", "102007.472500", "102011.422500", "102007.582500", "102011.532500", "102007.692500", "102011.642500", "102007.802500", "102011.750000", "102007.910000", "102011.860000", "102008.020000", "102011.970000", "102008.130000", "102012.080000", "102008.240000", "102012.190000", "102008.350000", "102012.300000", "102008.460000", "102012.410000", "102008.570000", "102012.520000", "102008.680000", "102012.627500", "102008.790000", "102012.737500", "102008.897500", "102012.847500", "102009.007500", "102012.957500", "102009.117500", "102013.067500", "102009.227500", "102013.177500", "102009.337500", "102013.287500", "102009.447500", "102013.397500", "102009.557500", "102013.507500", "102009.667500", "102013.615000", "102009.775000", "102013.725000", "102009.885000", "102013.835000", "102009.995000", "102013.945000", "102010.105000", "102014.055000", "102010.215000", "102014.165000", "102010.325000", "102014.275000", "102010.435000", "102014.385000", "102010.545000", "102014.492500", "102010.655000", "102014.602500", "102010.762500", "102014.712500", "102010.872500", "102014.822500", "102010.982500", "102014.932500", "102011.092500", "102015.042500", "102011.202500", "102019.012500", "102015.172500", "102019.122500", "102015.282500", "102019.232500", "102015.392500", "102019.342500", "102015.502500", "102019.450000", "102015.610000", "102019.560000", "102015.720000", "102019.670000", "102015.830000", "102019.780000", "102015.940000", "102019.890000", "102016.050000", "102020.000000", "102016.160000", "102020.110000", "102016.270000", "102020.220000", "102016.380000", "102020.327500", "102016.490000", "102020.437500", "102016.597500", "102020.547500", "102016.707500", "102020.657500", "102016.817500", "102020.767500", "102016.927500", "102020.877500", "10