{
  "AcquisitionMatrixPE": 80,
  "AcquisitionNumber": 1,
  "AcquisitionTime": "10:11:0.157500",
  "BandwidthPerPixelPhaseEncode": 44.643,
  "BaseResolution": 80,
  "BodyPartExamined": "BRAIN",
  "CoilCombinationMethod": "Sum of Squares",
  "ConsistencyInfo": "N4_VE11C_LATEST_20160120",
  "ConversionSoftware": "dcm2niix",
  "ConversionSoftwareVersion": "v1.0.20220720",
  "DerivedVendorReportedEchoSpacing": 0.000559998,
  "DeviceSerialNumber": "66112",
  "DwellTime": 2.7e-06,
  "EchoTime": 0.035,
  "EchoTrainLength": 39,
  "EffectiveEchoSpacing": 0.000279999,
  "FlipAngle": 90,
  "HeudiconvVersion": "0.13.1",
  "ImageOrientationPatientDICOM": [0.986525, 0.16333, 0.00957343, -0.158546, 0.939905, 0.302395],
  "ImageOrientationText": "Tra>Cor(17.5)>Sag(-2.3)",
  "ImageType": [
    "ORIGINAL",
    "PRIMARY",
    "M",
    "ND",
    "NORM",
    "MOSAIC"
],
  "ImagingFrequency": 123.252,
  "InPlanePhaseEncodingDirectionDICOM": "COL",
  "InstitutionAddress": "Maynard 3,Hanover,NH,US,03755",
  "InstitutionName": "Dartmouth College - PBS",
  "InstitutionalDepartmentName": "Department",
  "MRAcquisitionType": "2D",
  "MagneticFieldStrength": 3,
  "Manufacturer": "Siemens",
  "ManufacturersModelName": "Prisma",
  "Modality": "MR",
  "MultibandAccelerationFactor": 4,
  "NonlinearGradientCorrection": false,
  "ParallelReductionFactorInPlane": 2,
  "PartialFourier": 1,
  "PatientPosition": "HFS",
  "PercentPhaseFOV": 100,
  "PercentSampling": 100,
  "PhaseEncodingDirection": "j-",
  "PhaseEncodingSteps": 79,
  "PhaseResolution": 1,
  "PixelBandwidth": 2315,
  "ProcedureStepDescription": "dbic^QA",
  "ProtocolName": "func-bold_task-rest_acq-p2-s4-3.5mm",
  "PulseSequenceDetails": "%SiemensSeq%\\ep2d_bold",
  "ReceiveCoilActiveElements": "HEA;HEP",
  "ReceiveCoilName": "Head_32",
  "ReconMatrixPE": 80,
  "RefLinesPE": 24,
  "RepetitionTime": 2,
  "SAR": 0.0209275,
  "ScanOptions": "FS",
  "ScanningSequence": "EP",
  "SequenceName": "*epfid2d1_80",
  "SequenceVariant": "SK",
  "SeriesDescription": "func-bold_task-rest_acq-p2-s4-3.5mm",
  "SeriesNumber": 7,
  "ShimSetting": [4145, -7706, -7517, 284, -91, -81, 8, 50],
  "SliceThickness": 3.5,
  "SliceTiming": [1.485, 0, 0.99, 0.2475, 1.2375, 0.7425, 1.7325, 0.495, 1.485, 0, 0.99, 0.2475, 1.2375, 0.7425, 1.7325, 0.495, 1.485, 0, 0.99, 0.2475, 1.2375, 0.7425, 1.7325, 0.495, 1.485, 0, 0.99, 0.2475, 1.2375, 0.7425, 1.7325, 0.495],
  "SoftwareVersions": "syngo MR E11",
  "SpacingBetweenSlices": 3.99,
  "StationName": "AWP66112",
  "TaskName": "rest",
  "TotalReadoutTime": 0.0221199,
  "TxRefAmp": 222.185,
  "dcmmeta_affine": [
    [-2.9595754146575928, -0.4756368100643158, -0.16116400063037872, 141.60382080078125],
    [-0.48998889327049255, 2.819713592529297, 1.1963545083999634, -97.61299133300781],
    [0.028720282018184662, -0.907185435295105, 3.803007125854492, -29.086225509643555],
    [0.0, 0.0, 0.0, 1.0]
],
  "dcmmeta_reorient_transform": [
    [0.0, -1.0, 0.0, 79.0],
    [1.0, 0.0, 0.0, 0.0],
    [0.0, 0.0, 1.0, 0.0],
    [0.0, 0.0, 0.0, 1.0]
],
  "dcmmeta_shape": [80, 80, 32, 200],
  "dcmmeta_slice_dim": 2,
  "dcmmeta_version": 0.6,
  "global": {
    "const": {
      "AccessionNumber": "qa",
      "AcquisitionMatrix": [80, 0, 0, 80],
      "AngioFlag": "N",
      "BitsAllocated": 16,
      "BitsStored": 12,
      "BodyPartExamined": "BRAIN",
      "Columns": 480,
      "EchoNumbers": 1,
      "EchoTime": 35.0,
      "EchoTrainLength": 39,
      "FlipAngle": 90.0,
      "HighBit": 11,
      "ImageOrientationPatient": [0.98652510400858, 0.16332963189227, 0.00957342711897, -0.1585455997463, 0.93990450299287, 0.30239513563353],
      "ImagePositionPatient": [-600.81622018447, -787.08485467849, -287.93501120841],
      "ImageType": [
        "ORIGINAL",
        "PRIMARY",
        "M",
        "ND",
        "NORM",
        "MOSAIC"
],
      "ImagedNucleus": "1H",
      "ImagingFrequency": 123.252347,
      "InPlanePhaseEncodingDirection": "COL",
      "MRAcquisitionType": "2D",
      "MagneticFieldStrength": 3.0,
      "Manufacturer": "SIEMENS",
      "ManufacturerModelName": "Prisma",
      "Modality": "MR",
      "NumberOfAverages": 1.0,
      "NumberOfPhaseEncodingSteps": 79,
      "PercentPhaseFieldOfView": 100.0,
      "PercentSampling": 100.0,
      "PerformedProcedureStepStartTime": "100200.682000",
      "PhotometricInterpretation": "MONOCHROME2",
      "PixelBandwidth": 2315.0,
      "PixelRepresentation": 0,
      "PixelSpacing": [3.0, 3.0],
      "ProtocolName": "func-bold_task-rest_acq-p2-s4-3.5mm",
      "RepetitionTime": 2000.0,
      "Rows": 480,
      "SAR": 0.02092753656221,
      "SamplesPerPixel": 1,
      "ScanOptions": "FS",
      "ScanningSequence": "EP",
      "SequenceName": "*epfid2d1_80",
      "SequenceVariant": "SK",
      "SeriesDescription": "func-bold_task-rest_acq-p2-s4-3.5mm",
      "SeriesNumber": 7,
      "SeriesTime": "101158.291000",
      "SliceLocation": -62.710852912396,
      "SliceThickness": 3.5,
      "SmallestImagePixelValue": 0,
      "SoftwareVersions": "syngo MR E11",
      "SpacingBetweenSlices": 3.9900000661395,
      "SpecificCharacterSet": "ISO_IR 100",
      "StudyID": "20",
      "StudyTime": "100200.638000",
      "TransmitCoilName": "Body",
      "VariableFlipAngleFlag": "N",
      "WindowCenterWidthExplanation": "Algo1",
      "dBdt": 0.0},
    "slices": {}
  },
  "time": {
    "samples": {
      "AcquisitionNumber": [1, 2, 3, 4, 5, 6, 7, 8, 9, 10, 11, 12, 13, 14, 15, 16, 17, 18, 19, 20, 21, 22, 23, 24, 25, 26, 27, 28, 29, 30, 31, 32, 33, 34, 35, 36, 37, 38, 39, 40, 41, 42, 43, 44, 45, 46, 47, 48, 49, 50, 51, 52, 53, 54, 55, 56, 57, 58, 59, 60, 61, 62, 63, 64, 65, 66, 67, 68, 69, 70, 71, 72, 73, 74, 75, 76, 77, 78, 79, 80, 81, 82, 83, 84, 85, 86, 87, 88, 89, 90, 91, 92, 93, 94, 95, 96, 97, 98, 99, 100, 101, 102, 103, 104, 105, 106, 107, 108, 109, 110, 111, 112, 113, 114, 115, 116, 117, 118, 119, 120, 121, 122, 123, 124, 125, 126, 127, 128, 129, 130, 131, 132, 133, 134, 135, 136, 137, 138, 139, 140, 141, 142, 143, 144, 145, 146, 147, 148, 149, 150, 151, 152, 153, 154, 155, 156, 157, 158, 159, 160, 161, 162, 163, 164, 165, 166, 167, 168, 169, 170, 171, 172, 173, 174, 175, 176, 177, 178, 179, 180, 181, 182, 183, 184, 185, 186, 187, 188, 189, 190, 191, 192, 193, 194, 195, 196, 197, 198, 199, 200],
      "AcquisitionTime": ["101100.157500", "101102.157500", "101104.157500", "101106.157500", "101108.157500", "101110.157500", "101112.157500", "101114.157500", "101116.157500", "101118.157500", "101120.157500", "101122.157500", "101124.157500", "101126.157500", "101128.157500", "101130.157500", "101132.157500", "101134.157500", "101136.157500", "101138.157500", "101140.157500", "101142.157500", "101144.157500", "101146.157500", "101148.157500", "101150.157500", "101152.157500", "101154.157500", "101156.157500", "101158.157500", "101200.157500", "101202.157500", "101204.157500", "101206.157500", "101208.157500", "101210.157500", "101212.157500", "101214.157500", "101216.157500", "101218.157500", "101220.157500", "101222.157500", "101224.157500", "101226.157500", "101228.157500", "101230.157500", "101232.157500", "101234.157500", "101236.157500", "101238.157500", "101240.157500", "101242.157500", "101244.157500", "101246.157500", "101248.157500", "101250.157500", "101252.157500", "101254.157500", "101256.157500", "101258.157500", "101300.157500", "101302.157500", "101304.157500", "101306.157500", "101308.157500", "101310.157500", "101312.157500", "101314.157500", "101316.157500", "101318.157500", "101320.157500", "101322.157500", "101324.157500", "101326.157500", "101328.157500", "101330.157500", "101332.157500", "101334.157500", "101336.157500", "101338.157500", "101340.157500", "101342.157500", "101344.157500", "101346.157500", "101348.157500", "101350.157500", "101352.157500", "101354.157500", "101356.157500", "101358.157500", "101400.157500", "101402.157500", "101404.157500", "101406.157500", "101408.157500", "101410.157500", "101412.157500", "101414.157500", "101416.157500", "101418.157500", "101420.157500", "101422.157500", "101424.157500", "101426.157500", "101428.157500", "101430.157500", "101432.157500", "101434.157500", "101436.157500", "101438.157500", "101440.157500", "101442.157500", "101444.157500", "101446.157500", "101448.157500", "101450.157500", "101452.157500", "101454.157500", "101456.157500", "101458.157500", "101500.157500", "101502.157500", "101504.157500", "101506.157500", "101508.157500", "101510.157500", "101512.157500", "101514.157500", "101516.157500", "101518.157500", "101520.157500", "101522.157500", "101524.157500", "101526.157500", "101528.157500", "101530.157500", "101532.157500", "101534.157500", "101536.157500", "101538.157500", "101540.157500", "101542.157500", "101544.157500", "101546.157500", "101548.157500", "101550.157500", "101552.157500", "101554.157500", "101556.157500", "101558.157500", "101600.157500", "101602.157500", "101604.157500", "101606.157500", "101608.157500", "101610.157500", "101612.157500", "101614.157500", "101616.157500", "101618.157500", "101620.157500", "101622.157500", "101624.157500", "101626.157500", "101628.157500", "101630.157500", "101632.157500", "101634.157500", "101636.157500", "101638.157500", "101640.157500", "101642.157500", "101644.157500", "101646.157500", "101648.157500", "101650.157500", "101652.157500", "101654.157500", "101656.157500", "101658.157500", "101700.157500", "101702.157500", "101704.157500", "101706.157500", "101708.157500", "101710.157500", "101712.157500", "101714.157500", "101716.157500", "101718.157500", "101720.157500", "101722.157500", "101724.157500", "101726.157500", "101728.157500", "101730.157500", "101732.157500", "101734.157500", "101736.157500", "101738.157500"],
      "ContentTime": ["101158.294000", "101158.298000", "101158.309000", "101158.311000", "101158.314000", "101158.316000", "101158.319000", "101158.322000", "101158.324000", "101158.327000", "101158.329000", "101158.332000", "101158.334000", "101158.337000", "101158.339000", "101158.342000", "101158.345000", "101158.347000", "101158.350000", "101158.352000", "101158.355000", "101158.357000", "101158.360000", "101158.362000", "101158.365000", "101158.368000", "101158.370000", "101158.380000", "101158.383000", "101238.288000", "101238.291000", "101238.294000", "101238.296000", "101238.299000", "101238.312000", "101238.314000", "101238.317000", "101238.319000", "101238.322000", "101238.325000", "101238.327000", "101238.330000", "101238.332000", "101238.335000", "101238.337000", "101238.340000", "101238.343000", "101238.345000", "101238.348000", "101318.289000", "101318.292000", "101318.295000", "101318.297000", "101318.300000", "101318.303000", "101318.305000", "101318.308000", "101318.310000", "101318.313000", "101318.315000", "101318.318000", "101318.320000", "101318.323000", "101318.325000", "101318.328000", "101318.331000", "101318.333000", "101318.336000", "101318.338000", "101338.290000", "101338.292000", "101338.295000", "101338.298000", "101338.300000", "101338.303000", "101338.306000", "101338.308000", "101338.311000", "101338.313000", "101418.289000", "101418.305000", "101418.307000", "101418.310000", "101418.312000", "101418.315000", "101418.318000", "101418.320000", "101418.323000", "101418.326000", "101418.328000", "101418.331000", "101418.333000", "101418.336000", "101418.339000", "101418.341000", "101418.344000", "101418.346000", "101418.349000", "101418.351000", "101458.288000", "101458.291000", "101458.294000", "101458.297000", "101458.299000", "101458.302000", "101458.304000", "101458.307000", "101458.310000", "101458.312000", "101458.315000", "101458.317000", "101458.320000", "101458.323000", "101458.325000", "101458.328000", "101458.330000", "101458.333000", "101458.336000", "101458.338000", "101538.289000", "101538.292000", "101538.295000", "101538.298000", "101538.300000", "101538.303000", "101538.306000", "101538.308000", "101538.311000", "101538.320000", "101538.322000", "101538.325000", "101538.327000", "101538.330000", "101538.332000", "101538.335000", "101538.338000", "101538.340000", "101538.343000", "101538.345000", "101618.290000", "101618.293000", "101618.295000", "101618.298000", "101618.300000", "101618.303000", "101618.306000", "101618.308000", "101618.311000", "101618.314000", "101618.316000", "101618.319000", "101618.321000", "101618.324000", "101618.327000", "101618.329000", "101618.332000", "101618.334000", "101618.337000", "101618.340000", "101658.289000", "101658.292000", "101658.295000", "101658.298000", "101658.300000", "101658.303000", "101658.305000", "101658.308000", "101658.311000", "101658.313000", "101658.316000", "101658.319000", "101658.321000", "101658.324000", "101658.326000", "101658.329000", "101658.332000", "101658.334000", "101658.337000", "101658.339000", "101738.288000", "101738.292000", "101738.294000", "101738.297000", "101738.299000", "101738.302000", "101738.305000", "101738.307000", "101738.310000", "101738.313000", "101738.315000", "101738.318000", "101738.320000", "101738.323000", "101738.326000", "101738.328000", "101738.331000", "101738.333000", "101738.336000", "101738.339000", "101739.515000"],
      "InstanceCreationTime": ["101158.294000", "101158.298000", "101158.309000", "101158.311000", "101158.314000", "101158.316000", "101158.319000", "101158.322000", "101158.324000", "101158.327000", "101158.329000", "101158.332000", "101158.334000", "101158.337000", "101158.339000", "101158.342000", "101158.345000", "101158.347000", "101158.350000", "101158.352000", "101158.355000", "101158.357000", "101158.360000", "101158.362000", "101158.365000", "101158.368000", "101158.370000", "101158.380000", "101158.383000", "101238.288000", "101238.291000", "101238.294000", "101238.296000", "101238.299000", "101238.312000", "101238.314000", "101238.317000", "101238.319000", "101238.322000", "101238.325000", "101238.327000", "101238.330000", "101238.332000", "101238.335000", "101238.337000", "101238.340000", "101238.343000", "101238.345000", "101238.348000", "101318.289000", "101318.292000", "101318.295000", "101318.297000", "101318.300000", "101318.303000", "101318.305000", "101318.308000", "101318.310000", "101318.313000", "101318.315000", "101318.318000", "101318.320000", "101318.323000", "101318.325000", "101318.328000", "101318.331000", "101318.333000", "101318.336000", "101318.338000", "101338.290000", "101338.292000", "101338.295000", "101338.298000", "101338.300000", "101338.303000", "101338.306000", "101338.308000", "101338.311000", "101338.313000", "101418.289000", "101418.305000", "101418.307000", "101418.310000", "101418.312000", "101418.315000", "101418.318000", "101418.320000", "101418.323000", "101418.326000", "101418.328000", "101418.331000", "101418.333000", "101418.336000", "101418.339000", "101418.341000", "101418.344000", "101418.346000", "101418.349000", "101418.351000", "101458.288000", "101458.291000", "101458.294000", "101458.297000", "101458.299000", "101458.302000", "101458.304000", "101458.307000", "101458.310000", "101458.312000", "101458.315000", "101458.317000", "101458.320000", "101458.323000", "101458.325000", "101458.328000", "101458.330000", "101458.333000", "101458.336000", "101458.338000", "101538.289000", "101538.292000", "101538.295000", "101538.298000", "101538.300000", "101538.303000", "101538.306000", "101538.308000", "101538.311000", "101538.320000", "101538.322000", "101538.325000", "101538.327000", "101538.330000", "101538.332000", "101538.335000", "101538.338000", "101538.340000", "101538.343000", "101538.345000", "101618.290000", "101618.293000", "101618.295000", "101618.298000", "101618.300000", "101618.303000", "101618.306000", "101618.308000", "101618.311000", "101618.314000", "101618.316000", "101618.319000", "101618.321000", "101618.324000", "101618.327000", "101618.329000", "101618.332000", "101618.334000", "101618.337000", "101618.340000", "101658.289000", "101658.292000", "101658.295000", "101658.298000", "101658.300000", "101658.303000", "101658.305000", "101658.308000", "101658.311000", "101658.313000", "101658.316000", "101658.319000", "101658.321000", "101658.324000", "101658.326000", "101658.329000", "101658.332000", "101658.334000", "101658.337000", "101658.339000", "101738.288000", "101738.292000", "101738.294000", "101738.297000", "101738.299000", "101738.302000", "101738.305000", "101738.307000", "101738.310000", "101738.313000", "101738.315000", "101738.318000", "101738.320000", "101738.323000", "101738.326000", "101738.328000", "101738.331000", "101738.333000", "101738.336000", "101738.339000", "101739.515000"],
      "InstanceNumber": [1, 2, 3, 4, 5, 6, 7, 8, 9, 10, 11, 12, 13, 14, 15, 16, 17, 18, 19, 20, 21, 22, 23, 24, 25, 26, 27, 28, 29, 30, 31, 32, 33, 34, 35, 36, 37, 38, 39, 40, 41, 42, 43, 44, 45, 46, 47, 48, 49, 50, 51, 52, 53, 54, 55, 56, 57, 58, 59, 60, 61, 62, 63, 64, 65, 66, 67, 68, 69, 70, 71, 72, 73, 74, 75, 76, 77, 78, 79, 80, 81, 82, 83, 84, 85, 86, 87, 88, 89, 90, 91, 92, 93, 94, 95, 96, 97, 98, 99, 100, 101, 102, 103, 104, 105, 106, 107, 108, 109, 110, 111, 112, 113, 114, 115, 116, 117, 118, 119, 120, 121, 122, 123, 124, 125, 126, 127, 128, 129, 130, 131, 132, 133, 134, 135, 136, 137, 138, 139, 140, 141, 142, 143, 144, 145, 146, 147, 148, 149, 150, 151, 152, 153, 154, 155, 156, 157, 158, 159, 160, 161, 162, 163, 164, 165, 166, 167, 168, 169, 170, 171, 172, 173, 174, 175, 176, 177, 178, 179, 180, 181, 182, 183, 184, 185, 186, 187, 188, 189, 190, 191, 192, 193, 194, 195, 196, 197, 198, 199, 200],
      "LargestImagePixelValue": [1920, 1922, 1920, 1914, 1919, 1919, 1916, 1919, 1917, 1917, 1917, 1916, 1920, 1917, 1917, 1922, 1920, 1915, 1923, 1923, 1917, 1914, 1922, 1923, 1920, 1917, 1923, 1919, 1917, 1916, 1917, 1921, 1917, 1917, 1922, 1923, 1917, 1922, 1918, 1923, 1916, 1918, 1918, 1918, 1917, 1921, 1921, 1916, 1918, 1922, 1916, 1919, 1916, 1914, 1922, 1921, 1913, 1914, 1924, 1924, 1919, 1920, 1923, 1917, 1917, 1923, 1918, 1921, 1916, 1917, 1922, 1922, 1917, 1920, 1920, 1920, 1921, 1917, 1921, 1917, 1921, 1922, 1920, 1922, 1916, 1919, 1919, 1918, 1920, 1920, 1919, 1914, 1920, 1919, 1916, 1915, 1917, 1920, 1917, 1915, 1915, 1916, 1914, 1924, 1922, 1920, 1920, 1916, 1918, 1920, 1921, 1917, 1922, 1919, 1921, 1918, 1916, 1919, 1921, 1919, 1922, 1918, 1922, 1918, 1921, 1921, 1918, 1920, 1918, 1915, 1917, 1916, 1922, 1911, 1917, 1918, 1920, 1918, 1913, 1917, 1919, 1921, 1918, 1917, 1918, 1920, 1916, 1923, 1912, 1919, 1920, 1919, 1919, 1920, 1920, 1920, 1917, 1917, 1917, 1916, 1919, 1921, 1924, 1922, 1923, 1915, 1916, 1921, 1918, 1920, 1916, 1917, 1923, 1921, 1920, 1919, 1916, 1916, 1913, 1919, 1922, 1914, 1923, 1923, 1919, 1923, 1916, 1917, 1915, 1920, 1915, 1917, 1919, 1922, 1918, 1922, 1914, 1916, 1913, 1916],
      "WindowCenter": [915.0, 915.0, 915.0, 915.0, 915.0, 915.0, 915.0, 915.0, 915.0, 915.0, 915.0, 915.0, 915.0, 915.0, 915.0, 915.0, 915.0, 915.0, 915.0, 915.0, 915.0, 915.0, 915.0, 915.0, 915.0, 915.0, 915.0, 915.0, 915.0, 915.0, 915.0, 915.0, 915.0, 915.0, 915.0, 915.0, 915.0, 915.0, 915.0, 915.0, 915.0, 915.0, 915.0, 915.0, 915.0, 915.0, 915.0, 915.0, 915.0, 915.0, 915.0, 915.0, 914.0, 914.0, 914.0, 914.0, 914.0, 914.0, 914.0, 915.0, 915.0, 915.0, 915.0, 915.0, 915.0, 915.0, 915.0, 915.0, 915.0, 915.0, 915.0, 915.0, 915.0, 915.0, 915.0, 915.0, 915.0, 915.0, 915.0, 915.0, 915.0, 915.0, 914.0, 914.0, 914.0, 914.0, 915.0, 915.0, 915.0, 915.0, 915.0, 915.0, 914.0, 915.0, 915.0, 915.0, 915.0, 915.0, 915.0, 915.0, 915.0, 915.0, 915.0, 915.0, 915.0, 915.0, 915.0, 915.0, 915.0, 915.0, 915.0, 915.0, 915.0, 915.0, 915.0, 915.0, 915.0, 915.0, 915.0, 915.0, 915.0, 915.0, 915.0, 915.0, 915.0, 915.0, 915.0, 915.0, 915.0, 915.0, 915.0, 915.0, 915.0, 915.0, 915.0, 915.0, 915.0, 915.0, 915.0, 915.0, 914.0, 914.0, 914.0, 915.0, 914.0, 914.0, 914.0, 914.0, 914.0, 914.0, 915.0, 914.0, 914.0, 914.0, 914.0, 914.0, 914.0, 914.0, 914.0, 914.0, 914.0, 914.0, 914.0, 914.0, 915.0, 914.0, 914.0, 914.0, 914.0, 914.0, 914.0, 914.0, 914.0, 914.0, 914.0, 915.0, 914.0, 914.0, 914.0, 914.0, 914.0, 914.0, 914.0, 914.0, 914.0, 914.0, 914.0, 914.0, 914.0, 914.0, 914.0, 914.0, 914.0, 914.0, 914.0, 914.0, 914.0, 914.0, 915.0, 914.0],
      "WindowWidth": [2078.0, 2079.0, 2079.0, 2079.0, 2079.0, 2079.0, 2079.0, 2079.0, 2079.0, 2079.0, 2079.0, 2080.0, 2079.0, 2079.0, 2079.0, 2079.0, 2079.0, 2079.0, 2080.0, 2079.0, 2079.0, 2079.0, 2079.0, 2079.0, 2079.0, 2079.0, 2079.0, 2079.0, 2079.0, 2078.0, 2079.0, 2079.0, 2079.0, 2079.0, 2079.0, 2079.0, 2079.0, 2079.0, 2079.0, 2079.0, 2079.0, 2079.0, 2079.0, 2079.0, 2079.0, 2079.0, 2079.0, 2079.0, 2078.0, 2079.0, 2079.0, 2079.0, 2078.0, 2077.0, 2077.0, 2077.0, 2077.0, 2078.0, 2078.0, 2079.0, 2080.0, 2079.0, 2079.0, 2079.0, 2079.0, 2079.0, 2079.0, 2079.0, 2079.0, 2079.0, 2079.0, 2079.0, 2080.0, 2079.0, 2079.0, 2079.0, 2079.0, 2079.0, 2079.0, 2080.0, 2079.0, 2080.0, 2077.0, 2077.0, 2077.0, 2077.0, 2078.0, 2079.0, 2080.0, 2080.0, 2079.0, 2079.0, 2077.0, 2078.0, 2079.0, 2080.0, 2080.0, 2079.0, 2080.0, 2078.0, 2079.0, 2079.0, 2079.0, 2079.0, 2079.0, 2080.0, 2079.0, 2079.0, 2080.0, 2079.0, 2079.0, 2079.0, 2079.0, 2079.0, 2079.0, 2079.0, 2079.0, 2079.0, 2079.0, 2081.0, 2080.0, 2079.0, 2079.0, 2079.0, 2079.0, 2079.0, 2079.0, 2079.0, 2079.0, 2079.0, 2079.0, 2079.0, 2079.0, 2079.0, 2079.0, 2079.0, 2079.0, 2080.0, 2078.0, 2078.0, 2078.0, 2078.0, 2078.0, 2078.0, 2078.0, 2077.0, 2077.0, 2077.0, 2077.0, 2077.0, 2077.0, 2077.0, 2077.0, 2077.0, 2077.0, 2077.0, 2077.0, 2077.0, 2077.0, 2078.0, 2078.0, 2077.0, 2077.0, 2077.0, 2078.0, 2077.0, 2077.0, 2077.0, 2077.0, 2077.0, 2078.0, 2077.0, 2077.0, 2077.0, 2077.0, 2078.0, 2077.0, 2077.0, 2077.0, 2077.0, 2077.0, 2077.0, 2077.0, 2077.0, 2077.0, 2077.0, 2077.0, 2077.0, 2077.0, 2077.0, 2077.0, 2077.0, 2077.0, 2077.0, 2077.0, 2077.0, 2077.0, 2077.0, 2078.0, 2077.0]
    },
    "slices": {}
  }
}