{
  "AcquisitionMatrixPE": 80,
  "AcquisitionNumber": 1,
  "AcquisitionTime": "09:28:57.605000",
  "BandwidthPerPixelPhaseEncode": 25,
  "BaseResolution": 80,
  "BodyPartExamined": "BRAIN",
  "CoilCombinationMethod": "Sum of Squares",
  "ConsistencyInfo": "N4_VE11C_LATEST_20160120",
  "ConversionSoftware": "dcm2niix",
  "ConversionSoftwareVersion": "v1.0.20220720",
  "DerivedVendorReportedEchoSpacing": 0.0005,
  "DeviceSerialNumber": "66112",
  "DwellTime": 2.7e-06,
  "EchoTime": 0.03,
  "EchoTrainLength": 80,
  "EffectiveEchoSpacing": 0.0005,
  "FlipAngle": 77,
  "HeudiconvVersion": "0.13.1",
  "ImageOrientationPatientDICOM": [0.986798, 0.161746, 0.00823043, -0.155587, 0.932665, 0.325466],
  "ImageOrientationText": "Tra>Cor(18.8)>Sag(-2.6)",
  "ImageType": [
    "ORIGINAL",
    "PRIMARY",
    "M",
    "ND",
    "NORM",
    "MOSAIC"
],
  "ImagingFrequency": 123.252,
  "InPlanePhaseEncodingDirectionDICOM": "COL",
  "InstitutionAddress": "Maynard 3,Hanover,NH,US,03755",
  "InstitutionName": "Dartmouth College - PBS",
  "InstitutionalDepartmentName": "Department",
  "MRAcquisitionType": "2D",
  "MagneticFieldStrength": 3,
  "Manufacturer": "Siemens",
  "ManufacturersModelName": "Prisma",
  "MatrixCoilMode": "SENSE",
  "Modality": "MR",
  "NonlinearGradientCorrection": false,
  "PartialFourier": 1,
  "PatientPosition": "HFS",
  "PercentPhaseFOV": 100,
  "PercentSampling": 100,
  "PhaseEncodingDirection": "j-",
  "PhaseEncodingSteps": 80,
  "PhaseResolution": 1,
  "PixelBandwidth": 2315,
  "ProcedureStepDescription": "dbic^QA",
  "ProtocolName": "func-bold_fa-77",
  "PulseSequenceDetails": "%SiemensSeq%\\ep2d_bold",
  "ReceiveCoilActiveElements": "HC1-7;NC1,2",
  "ReceiveCoilName": "HeadNeck_64",
  "ReconMatrixPE": 80,
  "RepetitionTime": 2,
  "SAR": 0.0321841,
  "ScanOptions": "FS",
  "ScanningSequence": "EP",
  "SequenceName": "*epfid2d1_80",
  "SequenceVariant": "SK",
  "SeriesDescription": "func-bold_fa-77",
  "SeriesNumber": 7,
  "ShimSetting": [4141, -7709, -7515, 134, -76, -214, -46, 73],
  "SliceThickness": 3.5,
  "SliceTiming": [0.99, 0, 1.0575, 0.0675, 1.1225, 0.1325, 1.1875, 0.1975, 1.255, 0.265, 1.32, 0.33, 1.3875, 0.3975, 1.4525, 0.4625, 1.5175, 0.5275, 1.585, 0.595, 1.65, 0.66, 1.7175, 0.7275, 1.7825, 0.7925, 1.8475, 0.8575, 1.915, 0.925],
  "SoftwareVersions": "syngo MR E11",
  "SpacingBetweenSlices": 3.99,
  "StationName": "AWP66112",
  "TotalReadoutTime": 0.0395,
  "TxRefAmp": 213.46,
  "dcmmeta_affine": [
    [-2.9603943824768066, -0.46676191687583923, -0.17941589653491974, 139.08253479003906],
    [-0.48523685336112976, 2.7979962825775146, 1.2865729331970215, -89.3740234375],
    [0.02469128929078579, -0.9763966202735901, 3.7726171016693115, -11.619272232055664],
    [0.0, 0.0, 0.0, 1.0]
],
  "dcmmeta_reorient_transform": [
    [0.0, -1.0, 0.0, 79.0],
    [1.0, 0.0, 0.0, 0.0],
    [0.0, 0.0, 1.0, 0.0],
    [0.0, 0.0, 0.0, 1.0]
],
  "dcmmeta_shape": [80, 80, 30, 200],
  "dcmmeta_slice_dim": 2,
  "dcmmeta_version": 0.6,
  "global": {
    "const": {
      "AccessionNumber": "qa64",
      "AcquisitionMatrix": [80, 0, 0, 80],
      "AngioFlag": "N",
      "BitsAllocated": 16,
      "BitsStored": 12,
      "BodyPartExamined": "BRAIN",
      "Columns": 480,
      "EchoNumbers": 1,
      "EchoTime": 30.0,
      "EchoTrainLength": 80,
      "FlipAngle": 77.0,
      "HighBit": 11,
      "ImageOrientationPatient": [0.98679816253595, 0.16174562264813, 0.00823042950546, -0.155587307022, 0.93266540979605, 0.3254655485049],
      "ImagePositionPatient": [-600.93485012301, -788.31429925867, -288.97219425535],
      "ImageType": [
        "ORIGINAL",
        "PRIMARY",
        "M",
        "ND",
        "NORM",
        "MOSAIC"
],
      "ImagedNucleus": "1H",
      "ImagingFrequency": 123.252377,
      "InPlanePhaseEncodingDirection": "COL",
      "MRAcquisitionType": "2D",
      "MagneticFieldStrength": 3.0,
      "Manufacturer": "SIEMENS",
      "ManufacturerModelName": "Prisma",
      "Modality": "MR",
      "NumberOfAverages": 1.0,
      "NumberOfPhaseEncodingSteps": 80,
      "PercentPhaseFieldOfView": 100.0,
      "PercentSampling": 100.0,
      "PerformedProcedureStepStartTime": "091438.254000",
      "PhotometricInterpretation": "MONOCHROME2",
      "PixelBandwidth": 2315.0,
      "PixelRepresentation": 0,
      "PixelSpacing": [3.0, 3.0],
      "ProtocolName": "func-bold_fa-77",
      "RepetitionTime": 2000.0,
      "Rows": 480,
      "SAR": 0.03218411917463,
      "SamplesPerPixel": 1,
      "ScanOptions": "FS",
      "ScanningSequence": "EP",
      "SequenceName": "*epfid2d1_80",
      "SequenceVariant": "SK",
      "SeriesDescription": "func-bold_fa-77",
      "SeriesNumber": 7,
      "SeriesTime": "092940.134000",
      "SliceLocation": -46.058867416386,
      "SliceThickness": 3.5,
      "SmallestImagePixelValue": 0,
      "SoftwareVersions": "syngo MR E11",
      "SpacingBetweenSlices": 3.9899999567675,
      "SpecificCharacterSet": "ISO_IR 100",
      "StudyID": "3",
      "StudyTime": "091438.201000",
      "TransmitCoilName": "Body",
      "VariableFlipAngleFlag": "N",
      "WindowCenterWidthExplanation": "Algo1",
      "dBdt": 0.0},
    "slices": {}
  },
  "time": {
    "samples": {
      "AcquisitionNumber": [1, 2, 3, 4, 5, 6, 7, 8, 9, 10, 11, 12, 13, 14, 15, 16, 17, 18, 19, 20, 21, 22, 23, 24, 25, 26, 27, 28, 29, 30, 31, 32, 33, 34, 35, 36, 37, 38, 39, 40, 41, 42, 43, 44, 45, 46, 47, 48, 49, 50, 51, 52, 53, 54, 55, 56, 57, 58, 59, 60, 61, 62, 63, 64, 65, 66, 67, 68, 69, 70, 71, 72, 73, 74, 75, 76, 77, 78, 79, 80, 81, 82, 83, 84, 85, 86, 87, 88, 89, 90, 91, 92, 93, 94, 95, 96, 97, 98, 99, 100, 101, 102, 103, 104, 105, 106, 107, 108, 109, 110, 111, 112, 113, 114, 115, 116, 117, 118, 119, 120, 121, 122, 123, 124, 125, 126, 127, 128, 129, 130, 131, 132, 133, 134, 135, 136, 137, 138, 139, 140, 141, 142, 143, 144, 145, 146, 147, 148, 149, 150, 151, 152, 153, 154, 155, 156, 157, 158, 159, 160, 161, 162, 163, 164, 165, 166, 167, 168, 169, 170, 171, 172, 173, 174, 175, 176, 177, 178, 179, 180, 181, 182, 183, 184, 185, 186, 187, 188, 189, 190, 191, 192, 193, 194, 195, 196, 197, 198, 199, 200],
      "AcquisitionTime": ["092857.605000", "092859.605000", "092901.605000", "092903.605000", "092905.605000", "092907.605000", "092909.605000", "092911.605000", "092913.605000", "092915.605000", "092917.605000", "092919.605000", "092921.605000", "092923.605000", "092925.605000", "092927.605000", "092929.605000", "092931.605000", "092933.605000", "092935.605000", "092937.605000", "092939.605000", "092941.605000", "092943.605000", "092945.605000", "092947.605000", "092949.605000", "092951.605000", "092953.605000", "092955.605000", "092957.605000", "092959.605000", "093001.605000", "093003.605000", "093005.605000", "093007.605000", "093009.605000", "093011.605000", "093013.605000", "093015.605000", "093017.605000", "093019.605000", "093021.605000", "093023.605000", "093025.605000", "093027.605000", "093029.605000", "093031.605000", "093033.605000", "093035.605000", "093037.605000", "093039.605000", "093041.605000", "093043.605000", "093045.605000", "093047.605000", "093049.605000", "093051.605000", "093053.605000", "093055.605000", "093057.605000", "093059.605000", "093101.605000", "093103.605000", "093105.605000", "093107.605000", "093109.605000", "093111.605000", "093113.605000", "093115.605000", "093117.605000", "093119.605000", "093121.605000", "093123.605000", "093125.605000", "093127.605000", "093129.605000", "093131.605000", "093133.605000", "093135.605000", "093137.605000", "093139.605000", "093141.605000", "093143.605000", "093145.605000", "093147.605000", "093149.605000", "093151.605000", "093153.605000", "093155.605000", "093157.605000", "093159.605000", "093201.605000", "093203.605000", "093205.605000", "093207.605000", "093209.605000", "093211.605000", "093213.605000", "093215.605000", "093217.605000", "093219.605000", "093221.605000", "093223.605000", "093225.605000", "093227.605000", "093229.605000", "093231.605000", "093233.605000", "093235.605000", "093237.605000", "093239.605000", "093241.605000", "093243.605000", "093245.605000", "093247.605000", "093249.605000", "093251.605000", "093253.605000", "093255.605000", "093257.605000", "093259.605000", "093301.605000", "093303.605000", "093305.605000", "093307.605000", "093309.605000", "093311.605000", "093313.605000", "093315.605000", "093317.605000", "093319.605000", "093321.605000", "093323.605000", "093325.605000", "093327.605000", "093329.605000", "093331.605000", "093333.605000", "093335.605000", "093337.605000", "093339.605000", "093341.605000", "093343.605000", "093345.605000", "093347.605000", "093349.605000", "093351.605000", "093353.605000", "093355.605000", "093357.605000", "093359.605000", "093401.605000", "093403.605000", "093405.605000", "093407.605000", "093409.605000", "093411.605000", "093413.605000", "093415.605000", "093417.605000", "093419.605000", "093421.605000", "093423.605000", "093425.605000", "093427.605000", "093429.605000", "093431.605000", "093433.605000", "093435.605000", "093437.605000", "093439.605000", "093441.605000", "093443.605000", "093445.605000", "093447.605000", "093449.605000", "093451.605000", "093453.605000", "093455.605000", "093457.605000", "093459.605000", "093501.605000", "093503.605000", "093505.605000", "093507.605000", "093509.605000", "093511.605000", "093513.605000", "093515.605000", "093517.605000", "093519.605000", "093521.605000", "093523.605000", "093525.605000", "093527.605000", "093529.605000", "093531.605000", "093533.605000", "093535.605000"],
      "ContentTime": ["092940.138000", "092940.141000", "092940.144000", "092940.157000", "092940.159000", "092940.162000", "092940.165000", "092940.167000", "092940.170000", "092940.173000", "092940.175000", "092940.178000", "092940.180000", "092940.183000", "092940.185000", "092940.188000", "092940.190000", "092940.193000", "092940.196000", "092940.198000", "092940.203000", "093020.132000", "093020.135000", "093020.138000", "093020.140000", "093020.143000", "093020.146000", "093020.148000", "093020.151000", "093020.153000", "093020.156000", "093020.158000", "093020.162000", "093020.172000", "093020.175000", "093020.177000", "093020.180000", "093020.182000", "093020.185000", "093020.187000", "093020.190000", "093100.132000", "093100.135000", "093100.138000", "093100.141000", "093100.143000", "093100.146000", "093100.148000", "093100.151000", "093100.153000", "093100.156000", "093100.159000", "093100.161000", "093100.164000", "093100.166000", "093100.169000", "093100.171000", "093100.174000", "093100.177000", "093100.179000", "093100.182000", "093140.131000", "093140.134000", "093140.137000", "093140.140000", "093140.142000", "093140.145000", "093140.147000", "093140.150000", "093140.152000", "093140.155000", "093140.158000", "093140.160000", "093140.163000", "093140.165000", "093140.168000", "093140.170000", "093140.173000", "093140.184000", "093140.187000", "093140.189000", "093220.132000", "093220.135000", "093220.138000", "093220.141000", "093220.143000", "093220.146000", "093220.148000", "093220.151000", "093220.153000", "093220.156000", "093220.160000", "093220.162000", "093220.165000", "093220.167000", "093220.170000", "093220.172000", "093220.175000", "093220.177000", "093220.180000", "093220.182000", "093300.133000", "093300.136000", "093300.138000", "093300.141000", "093300.143000", "093300.146000", "093300.148000", "093300.151000", "093300.153000", "093300.156000", "093300.159000", "093300.161000", "093300.164000", "093300.166000", "093300.169000", "093300.171000", "093300.174000", "093300.177000", "093300.179000", "093300.182000", "093340.132000", "093340.135000", "093340.137000", "093340.140000", "093340.142000", "093340.145000", "093340.147000", "093340.150000", "093340.152000", "093340.155000", "093340.158000", "093340.160000", "093340.163000", "093340.166000", "093340.168000", "093340.171000", "093340.173000", "093340.176000", "093340.178000", "093340.181000", "093420.132000", "093420.135000", "093420.138000", "093420.141000", "093420.143000", "093420.146000", "093420.148000", "093420.151000", "093420.153000", "093420.157000", "093420.160000", "093420.162000", "093420.165000", "093420.168000", "093420.170000", "093420.173000", "093420.175000", "093420.178000", "093420.180000", "093420.183000", "093500.133000", "093500.136000", "093500.138000", "093500.141000", "093500.143000", "093500.146000", "093500.148000", "093500.151000", "093500.153000", "093500.156000", "093500.159000", "093500.161000", "093500.164000", "093500.167000", "093500.169000", "093500.172000", "093500.174000", "093500.177000", "093500.179000", "093500.182000", "093537.588000", "093537.592000", "093537.594000", "093537.597000", "093537.599000", "093537.602000", "093537.604000", "093537.607000", "093537.609000", "093537.612000", "093537.615000", "093537.617000", "093537.628000", "093537.632000", "093537.635000", "093537.640000", "093537.644000", "093537.647000", "093537.651000"],
      "InstanceCreationTime": ["092940.138000", "092940.141000", "092940.144000", "092940.157000", "092940.159000", "092940.162000", "092940.165000", "092940.167000", "092940.170000", "092940.173000", "092940.175000", "092940.178000", "092940.180000", "092940.183000", "092940.185000", "092940.188000", "092940.190000", "092940.193000", "092940.196000", "092940.198000", "092940.203000", "093020.132000", "093020.135000", "093020.138000", "093020.140000", "093020.143000", "093020.146000", "093020.148000", "093020.151000", "093020.153000", "093020.156000", "093020.158000", "093020.162000", "093020.172000", "093020.175000", "093020.177000", "093020.180000", "093020.182000", "093020.185000", "093020.187000", "093020.190000", "093100.132000", "093100.135000", "093100.138000", "093100.141000", "093100.143000", "093100.146000", "093100.148000", "093100.151000", "093100.153000", "093100.156000", "093100.159000", "093100.161000", "093100.164000", "093100.166000", "093100.169000", "093100.171000", "093100.174000", "093100.177000", "093100.179000", "093100.182000", "093140.131000", "093140.134000", "093140.137000", "093140.140000", "093140.142000", "093140.145000", "093140.147000", "093140.150000", "093140.152000", "093140.155000", "093140.158000", "093140.160000", "093140.163000", "093140.165000", "093140.168000", "093140.170000", "093140.173000", "093140.184000", "093140.187000", "093140.189000", "093220.132000", "093220.135000", "093220.138000", "093220.141000", "093220.143000", "093220.146000", "093220.148000", "093220.151000", "093220.153000", "093220.156000", "093220.160000", "093220.162000", "093220.165000", "093220.167000", "093220.170000", "093220.172000", "093220.175000", "093220.177000", "093220.180000", "093220.182000", "093300.133000", "093300.136000", "093300.138000", "093300.141000", "093300.143000", "093300.146000", "093300.148000", "093300.151000", "093300.153000", "093300.156000", "093300.159000", "093300.161000", "093300.164000", "093300.166000", "093300.169000", "093300.171000", "093300.174000", "093300.177000", "093300.179000", "093300.182000", "093340.132000", "093340.135000", "093340.137000", "093340.140000", "093340.142000", "093340.145000", "093340.147000", "093340.150000", "093340.152000", "093340.155000", "093340.158000", "093340.160000", "093340.163000", "093340.166000", "093340.168000", "093340.171000", "093340.173000", "093340.176000", "093340.178000", "093340.181000", "093420.132000", "093420.135000", "093420.138000", "093420.141000", "093420.143000", "093420.146000", "093420.148000", "093420.151000", "093420.153000", "093420.157000", "093420.160000", "093420.162000", "093420.165000", "093420.168000", "093420.170000", "093420.173000", "093420.175000", "093420.178000", "093420.180000", "093420.183000", "093500.133000", "093500.136000", "093500.138000", "093500.141000", "093500.143000", "093500.146000", "093500.148000", "093500.151000", "093500.153000", "093500.156000", "093500.159000", "093500.161000", "093500.164000", "093500.167000", "093500.169000", "093500.172000", "093500.174000", "093500.177000", "093500.179000", "093500.182000", "093537.588000", "093537.592000", "093537.594000", "093537.597000", "093537.599000", "093537.602000", "093537.604000", "093537.607000", "093537.609000", "093537.612000", "093537.615000", "093537.617000", "093537.628000", "093537.632000", "093537.635000", "093537.640000", "093537.644000", "093537.647000", "093537.651000"],
      "InstanceNumber": [1, 2, 3, 4, 5, 6, 7, 8, 9, 10, 11, 12, 13, 14, 15, 16, 17, 18, 19, 20, 21, 22, 23, 24, 25, 26, 27, 28, 29, 30, 31, 32, 33, 34, 35, 36, 37, 38, 39, 40, 41, 42, 43, 44, 45, 46, 47, 48, 49, 50, 51, 52, 53, 54, 55, 56, 57, 58, 59, 60, 61, 62, 63, 64, 65, 66, 67, 68, 69, 70, 71, 72, 73, 74, 75, 76, 77, 78, 79, 80, 81, 82, 83, 84, 85, 86, 87, 88, 89, 90, 91, 92, 93, 94, 95, 96, 97, 98, 99, 100, 101, 102, 103, 104, 105, 106, 107, 108, 109, 110, 111, 112, 113, 114, 115, 116, 117, 118, 119, 120, 121, 122, 123, 124, 125, 126, 127, 128, 129, 130, 131, 132, 133, 134, 135, 136, 137, 138, 139, 140, 141, 142, 143, 144, 145, 146, 147, 148, 149, 150, 151, 152, 153, 154, 155, 156, 157, 158, 159, 160, 161, 162, 163, 164, 165, 166, 167, 168, 169, 170, 171, 172, 173, 174, 175, 176, 177, 178, 179, 180, 181, 182, 183, 184, 185, 186, 187, 188, 189, 190, 191, 192, 193, 194, 195, 196, 197, 198, 199, 200],
      "LargestImagePixelValue": [3646, 3646, 3641, 3640, 3641, 3643, 3647, 3639, 3642, 3640, 3642, 3642, 3645, 3642, 3642, 3641, 3644, 3640, 3643, 3643, 3643, 3644, 3646, 3643, 3648, 3643, 3647, 3644, 3644, 3643, 3645, 3642, 3645, 3642, 3647, 3638, 3642, 3642, 3643, 3641, 3642, 3640, 3640, 3642, 3640, 3640, 3640, 3638, 3642, 3641, 3642, 3640, 3642, 3646, 3646, 3644, 3646, 3646, 3640, 3641, 3641, 3644, 3643, 3642, 3637, 3640, 3637, 3647, 3638, 3641, 3640, 3641, 3645, 3642, 3641, 3640, 3642, 3641, 3642, 3638, 3641, 3639, 3637, 3642, 3644, 3635, 3643, 3637, 3642, 3639, 3639, 3634, 3633, 3637, 3640, 3634, 3640, 3638, 3636, 3638, 3635, 3641, 3637, 3640, 3641, 3636, 3639, 3636, 3639, 3643, 3636, 3637, 3641, 3638, 3637, 3639, 3639, 3638, 3635, 3638, 3637, 3637, 3635, 3640, 3636, 3638, 3642, 3636, 3639, 3635, 3640, 3635, 3638, 3639, 3637, 3633, 3638, 3632, 3631, 3640, 3629, 3633, 3630, 3634, 3638, 3640, 3635, 3637, 3636, 3638, 3636, 3636, 3631, 3632, 3634, 3636, 3634, 3636, 3637, 3633, 3631, 3631, 3627, 3633, 3635, 3632, 3634, 3634, 3631, 3630, 3631, 3637, 3634, 3634, 3631, 3635, 3637, 3631, 3633, 3629, 3633, 3631, 3636, 3628, 3630, 3632, 3629, 3628, 3631, 3632, 3626, 3633, 3633, 3633, 3630, 3627, 3629, 3629, 3630, 3627],
      "WindowCenter": [1309.0, 1309.0, 1308.0, 1308.0, 1309.0, 1308.0, 1309.0, 1309.0, 1308.0, 1309.0, 1308.0, 1308.0, 1309.0, 1308.0, 1308.0, 1308.0, 1308.0, 1308.0, 1308.0, 1308.0, 1308.0, 1308.0, 1308.0, 1308.0, 1309.0, 1308.0, 1308.0, 1308.0, 1307.0, 1307.0, 1308.0, 1308.0, 1308.0, 1308.0, 1308.0, 1308.0, 1308.0, 1307.0, 1308.0, 1308.0, 1308.0, 1308.0, 1307.0, 1308.0, 1308.0, 1307.0, 1307.0, 1307.0, 1308.0, 1308.0, 1308.0, 1308.0, 1307.0, 1307.0, 1308.0, 1308.0, 1308.0, 1308.0, 1308.0, 1307.0, 1308.0, 1307.0, 1308.0, 1308.0, 1307.0, 1308.0, 1308.0, 1308.0, 1308.0, 1308.0, 1308.0, 1308.0, 1307.0, 1307.0, 1307.0, 1307.0, 1307.0, 1308.0, 1307.0, 1307.0, 1307.0, 1306.0, 1307.0, 1307.0, 1307.0, 1307.0, 1307.0, 1307.0, 1307.0, 1307.0, 1307.0, 1307.0, 1307.0, 1306.0, 1307.0, 1307.0, 1306.0, 1307.0, 1306.0, 1307.0, 1307.0, 1306.0, 1307.0, 1307.0, 1307.0, 1306.0, 1306.0, 1307.0, 1306.0, 1306.0, 1306.0, 1306.0, 1307.0, 1306.0, 1306.0, 1306.0, 1306.0, 1307.0, 1306.0, 1306.0, 1306.0, 1306.0, 1306.0, 1306.0, 1306.0, 1306.0, 1306.0, 1306.0, 1306.0, 1306.0, 1306.0, 1306.0, 1306.0, 1306.0, 1306.0, 1306.0, 1306.0, 1306.0, 1306.0, 1306.0, 1306.0, 1306.0, 1306.0, 1306.0, 1306.0, 1306.0, 1306.0, 1305.0, 1305.0, 1306.0, 1306.0, 1305.0, 1306.0, 1305.0, 1305.0, 1305.0, 1305.0, 1305.0, 1306.0, 1305.0, 1306.0, 1306.0, 1305.0, 1306.0, 1305.0, 1305.0, 1305.0, 1305.0, 1306.0, 1305.0, 1305.0, 1305.0, 1305.0, 1305.0, 1305.0, 1305.0, 1305.0, 1305.0, 1305.0, 1305.0, 1305.0, 1305.0, 1305.0, 1305.0, 1305.0, 1305.0, 1305.0, 1305.0, 1305.0, 1305.0, 1305.0, 1305.0, 1305.0, 1304.0, 1305.0, 1305.0, 1305.0, 1305.0, 1305.0, 1305.0],
      "WindowWidth": [3157.0, 3157.0, 3157.0, 3157.0, 3158.0, 3157.0, 3157.0, 3157.0, 3157.0, 3157.0, 3157.0, 3157.0, 3157.0, 3157.0, 3157.0, 3157.0, 3157.0, 3157.0, 3157.0, 3157.0, 3157.0, 3157.0, 3157.0, 3157.0, 3156.0, 3157.0, 3156.0, 3157.0, 3156.0, 3156.0, 3156.0, 3156.0, 3156.0, 3156.0, 3156.0, 3156.0, 3156.0, 3156.0, 3156.0, 3156.0, 3156.0, 3156.0, 3156.0, 3156.0, 3156.0, 3156.0, 3156.0, 3156.0, 3156.0, 3156.0, 3156.0, 3156.0, 3156.0, 3156.0, 3156.0, 3156.0, 3156.0, 3156.0, 3156.0, 3156.0, 3156.0, 3156.0, 3156.0, 3156.0, 3156.0, 3156.0, 3156.0, 3156.0, 3156.0, 3156.0, 3156.0, 3156.0, 3156.0, 3156.0, 3156.0, 3156.0, 3156.0, 3155.0, 3156.0, 3156.0, 3155.0, 3155.0, 3155.0, 3155.0, 3155.0, 3155.0, 3155.0, 3155.0, 3155.0, 3155.0, 3155.0, 3155.0, 3155.0, 3155.0, 3155.0, 3155.0, 3155.0, 3155.0, 3155.0, 3155.0, 3155.0, 3155.0, 3155.0, 3155.0, 3155.0, 3155.0, 3155.0, 3155.0, 3155.0, 3155.0, 3155.0, 3155.0, 3154.0, 3154.0, 3155.0, 3155.0, 3155.0, 3154.0, 3154.0, 3154.0, 3155.0, 3155.0, 3154.0, 3154.0, 3154.0, 3154.0, 3155.0, 3155.0, 3155.0, 3155.0, 3154.0, 3154.0, 3154.0, 3154.0, 3154.0, 3154.0, 3154.0, 3154.0, 3154.0, 3154.0, 3154.0, 3153.0, 3154.0, 3154.0, 3154.0, 3154.0, 3154.0, 3154.0, 3154.0, 3154.0, 3154.0, 3154.0, 3154.0, 3154.0, 3154.0, 3154.0, 3154.0, 3154.0, 3153.0, 3154.0, 3153.0, 3153.0, 3154.0, 3154.0, 3154.0, 3154.0, 3154.0, 3154.0, 3153.0, 3153.0, 3153.0, 3153.0, 3153.0, 3153.0, 3153.0, 3153.0, 3153.0, 3153.0, 3153.0, 3153.0, 3153.0, 3153.0, 3153.0, 3153.0, 3153.0, 3153.0, 3153.0, 3153.0, 3153.0, 3153.0, 3153.0, 3153.0, 3153.0, 3153.0, 3153.0, 3153.0, 3153.0, 3153.0, 3153.0, 3153.0]
    },
    "slices": {}
  }
}