{
  "AcquisitionMatrixPE": 80,
  "AcquisitionNumber": 1,
  "AcquisitionTime": "09:22:6.200000",
  "BandwidthPerPixelPhaseEncode": 48.077,
  "BaseResolution": 80,
  "BodyPartExamined": "BRAIN",
  "CoilCombinationMethod": "Sum of Squares",
  "ConsistencyInfo": "N4_VE11C_LATEST_20160120",
  "ConversionSoftware": "dcm2niix",
  "ConversionSoftwareVersion": "v1.0.20220720",
  "DerivedVendorReportedEchoSpacing": 0.000519999,
  "DeviceSerialNumber": "66112",
  "DwellTime": 2.7e-06,
  "EchoTime": 0.035,
  "EchoTrainLength": 39,
  "EffectiveEchoSpacing": 0.00026,
  "FlipAngle": 90,
  "HeudiconvVersion": "0.13.1",
  "ImageOrientationPatientDICOM": [0.986825, 0.161583, 0.00817362, -0.155415, 0.932694, 0.325467],
  "ImageOrientationText": "Tra>Cor(18.8)>Sag(-2.6)",
  "ImageType": [
    "ORIGINAL",
    "PRIMARY",
    "M",
    "ND",
    "NORM",
    "MOSAIC"
],
  "ImagingFrequency": 123.252,
  "InPlanePhaseEncodingDirectionDICOM": "COL",
  "InstitutionAddress": "Maynard 3,Hanover,NH,US,03755",
  "InstitutionName": "Dartmouth College - PBS",
  "InstitutionalDepartmentName": "Department",
  "MRAcquisitionType": "2D",
  "MagneticFieldStrength": 3,
  "Manufacturer": "Siemens",
  "ManufacturersModelName": "Prisma",
  "MatrixCoilMode": "GRAPPA",
  "Modality": "MR",
  "NonlinearGradientCorrection": false,
  "ParallelReductionFactorInPlane": 2,
  "PartialFourier": 1,
  "PatientPosition": "HFS",
  "PercentPhaseFOV": 100,
  "PercentSampling": 100,
  "PhaseEncodingDirection": "j-",
  "PhaseEncodingSteps": 79,
  "PhaseResolution": 1,
  "PixelBandwidth": 2315,
  "ProcedureStepDescription": "dbic^QA",
  "ProtocolName": "func-bold_task-rest_acq-p2",
  "PulseSequenceDetails": "%SiemensSeq%\\ep2d_bold",
  "ReceiveCoilActiveElements": "HC1-7;NC1,2",
  "ReceiveCoilName": "HeadNeck_64",
  "ReconMatrixPE": 80,
  "RefLinesPE": 24,
  "RepetitionTime": 2,
  "SAR": 0.0409545,
  "ScanOptions": "FS",
  "ScanningSequence": "EP",
  "SequenceName": "*epfid2d1_80",
  "SequenceVariant": "SK",
  "SeriesDescription": "func-bold_task-rest_acq-p2",
  "SeriesNumber": 5,
  "ShimSetting": [4141, -7709, -7515, 133, -76, -212, -46, 73],
  "SliceThickness": 3.5,
  "SliceTiming": [0.99, 0, 1.055, 0.065, 1.12, 0.1325, 1.1875, 0.1975, 1.2525, 0.2625, 1.32, 0.33, 1.385, 0.395, 1.45, 0.46, 1.5175, 0.5275, 1.5825, 0.5925, 1.65, 0.66, 1.715, 0.725, 1.78, 0.79, 1.8475, 0.8575, 1.9125, 0.9225],
  "SoftwareVersions": "syngo MR E11",
  "SpacingBetweenSlices": 3.99,
  "StationName": "AWP66112",
  "TaskName": "rest",
  "TotalReadoutTime": 0.02054,
  "TxRefAmp": 213.46,
  "dcmmeta_affine": [
    [-2.9604759216308594, -0.46624529361724854, -0.17941592633724213, 141.31639099121094],
    [-0.48474860191345215, 2.7980809211730957, 1.286572813987732, -91.28953552246094],
    [0.024520868435502052, -0.9764009118080139, 3.7726171016693115, -12.21127700805664],
    [0.0, 0.0, 0.0, 1.0]
],
  "dcmmeta_reorient_transform": [
    [0.0, -1.0, 0.0, 79.0],
    [1.0, 0.0, 0.0, 0.0],
    [0.0, 0.0, 1.0, 0.0],
    [0.0, 0.0, 0.0, 1.0]
],
  "dcmmeta_shape": [80, 80, 30, 200],
  "dcmmeta_slice_dim": 2,
  "dcmmeta_version": 0.6,
  "global": {
    "const": {
      "AccessionNumber": "qa64",
      "AcquisitionMatrix": [80, 0, 0, 80],
      "AngioFlag": "N",
      "BitsAllocated": 16,
      "BitsStored": 12,
      "BodyPartExamined": "BRAIN",
      "Columns": 480,
      "EchoNumbers": 1,
      "EchoTime": 35.0,
      "EchoTrainLength": 39,
      "FlipAngle": 90.0,
      "HighBit": 11,
      "ImageOrientationPatient": [0.98682529847897, 0.16158286470911, 0.00817362308268, -0.1554150997565, 0.93269362530509, 0.3254669692656],
      "ImagePositionPatient": [-603.32912634433, -786.32474591832, -289.531304158],
      "ImageType": [
        "ORIGINAL",
        "PRIMARY",
        "M",
        "ND",
        "NORM",
        "MOSAIC"
],
      "ImagedNucleus": "1H",
      "ImagingFrequency": 123.252377,
      "InPlanePhaseEncodingDirection": "COL",
      "MRAcquisitionType": "2D",
      "MagneticFieldStrength": 3.0,
      "Manufacturer": "SIEMENS",
      "ManufacturerModelName": "Prisma",
      "Modality": "MR",
      "NumberOfAverages": 1.0,
      "NumberOfPhaseEncodingSteps": 79,
      "PercentPhaseFieldOfView": 100.0,
      "PercentSampling": 100.0,
      "PerformedProcedureStepStartTime": "091438.254000",
      "PhotometricInterpretation": "MONOCHROME2",
      "PixelBandwidth": 2315.0,
      "PixelRepresentation": 0,
      "PixelSpacing": [3.0, 3.0],
      "ProtocolName": "func-bold_task-rest_acq-p2",
      "RepetitionTime": 2000.0,
      "Rows": 480,
      "SAR": 0.04095453994614,
      "SamplesPerPixel": 1,
      "ScanOptions": "FS",
      "ScanningSequence": "EP",
      "SequenceName": "*epfid2d1_80",
      "SequenceVariant": "SK",
      "SeriesDescription": "func-bold_task-rest_acq-p2",
      "SeriesNumber": 5,
      "SeriesTime": "092300.064000",
      "SliceLocation": -47.336723615531,
      "SliceThickness": 3.5,
      "SmallestImagePixelValue": 0,
      "SoftwareVersions": "syngo MR E11",
      "SpacingBetweenSlices": 3.989999932724,
      "SpecificCharacterSet": "ISO_IR 100",
      "StudyID": "3",
      "StudyTime": "091438.201000",
      "TransmitCoilName": "Body",
      "VariableFlipAngleFlag": "N",
      "WindowCenterWidthExplanation": "Algo1",
      "dBdt": 0.0},
    "slices": {}
  },
  "time": {
    "samples": {
      "AcquisitionNumber": [1, 2, 3, 4, 5, 6, 7, 8, 9, 10, 11, 12, 13, 14, 15, 16, 17, 18, 19, 20, 21, 22, 23, 24, 25, 26, 27, 28, 29, 30, 31, 32, 33, 34, 35, 36, 37, 38, 39, 40, 41, 42, 43, 44, 45, 46, 47, 48, 49, 50, 51, 52, 53, 54, 55, 56, 57, 58, 59, 60, 61, 62, 63, 64, 65, 66, 67, 68, 69, 70, 71, 72, 73, 74, 75, 76, 77, 78, 79, 80, 81, 82, 83, 84, 85, 86, 87, 88, 89, 90, 91, 92, 93, 94, 95, 96, 97, 98, 99, 100, 101, 102, 103, 104, 105, 106, 107, 108, 109, 110, 111, 112, 113, 114, 115, 116, 117, 118, 119, 120, 121, 122, 123, 124, 125, 126, 127, 128, 129, 130, 131, 132, 133, 134, 135, 136, 137, 138, 139, 140, 141, 142, 143, 144, 145, 146, 147, 148, 149, 150, 151, 152, 153, 154, 155, 156, 157, 158, 159, 160, 161, 162, 163, 164, 165, 166, 167, 168, 169, 170, 171, 172, 173, 174, 175, 176, 177, 178, 179, 180, 181, 182, 183, 184, 185, 186, 187, 188, 189, 190, 191, 192, 193, 194, 195, 196, 197, 198, 199, 200],
      "AcquisitionTime": ["092206.200000", "092208.200000", "092210.200000", "092212.200000", "092214.200000", "092216.200000", "092218.200000", "092220.200000", "092222.200000", "092224.200000", "092226.200000", "092228.200000", "092230.200000", "092232.200000", "092234.200000", "092236.200000", "092238.200000", "092240.200000", "092242.200000", "092244.200000", "092246.200000", "092248.200000", "092250.200000", "092252.200000", "092254.200000", "092256.200000", "092258.200000", "092300.200000", "092302.200000", "092304.200000", "092306.200000", "092308.200000", "092310.200000", "092312.200000", "092314.200000", "092316.200000", "092318.200000", "092320.200000", "092322.200000", "092324.200000", "092326.200000", "092328.200000", "092330.200000", "092332.200000", "092334.200000", "092336.200000", "092338.200000", "092340.200000", "092342.200000", "092344.200000", "092346.200000", "092348.200000", "092350.200000", "092352.200000", "092354.200000", "092356.200000", "092358.200000", "092400.200000", "092402.200000", "092404.200000", "092406.200000", "092408.200000", "092410.200000", "092412.200000", "092414.200000", "092416.200000", "092418.200000", "092420.200000", "092422.200000", "092424.200000", "092426.200000", "092428.200000", "092430.200000", "092432.200000", "092434.200000", "092436.200000", "092438.200000", "092440.200000", "092442.200000", "092444.200000", "092446.200000", "092448.200000", "092450.200000", "092452.200000", "092454.200000", "092456.200000", "092458.200000", "092500.200000", "092502.200000", "092504.200000", "092506.200000", "092508.200000", "092510.200000", "092512.200000", "092514.200000", "092516.200000", "092518.200000", "092520.200000", "092522.200000", "092524.200000", "092526.200000", "092528.200000", "092530.200000", "092532.200000", "092534.200000", "092536.200000", "092538.200000", "092540.200000", "092542.200000", "092544.200000", "092546.200000", "092548.200000", "092550.200000", "092552.200000", "092554.200000", "092556.200000", "092558.200000", "092600.200000", "092602.200000", "092604.200000", "092606.200000", "092608.200000", "092610.200000", "092612.200000", "092614.200000", "092616.200000", "092618.200000", "092620.200000", "092622.200000", "092624.200000", "092626.200000", "092628.200000", "092630.200000", "092632.200000", "092634.200000", "092636.200000", "092638.200000", "092640.200000", "092642.200000", "092644.200000", "092646.200000", "092648.200000", "092650.200000", "092652.200000", "092654.200000", "092656.200000", "092658.200000", "092700.200000", "092702.200000", "092704.200000", "092706.200000", "092708.200000", "092710.200000", "092712.200000", "092714.200000", "092716.200000", "092718.200000", "092720.200000", "092722.200000", "092724.200000", "092726.200000", "092728.200000", "092730.200000", "092732.200000", "092734.200000", "092736.200000", "092738.200000", "092740.200000", "092742.200000", "092744.200000", "092746.200000", "092748.200000", "092750.200000", "092752.200000", "092754.200000", "092756.200000", "092758.200000", "092800.200000", "092802.200000", "092804.200000", "092806.200000", "092808.200000", "092810.200000", "092812.200000", "092814.200000", "092816.200000", "092818.200000", "092820.200000", "092822.200000", "092824.200000", "092826.200000", "092828.200000", "092830.200000", "092832.200000", "092834.200000", "092836.200000", "092838.200000", "092840.200000", "092842.200000", "092844.200000"],
      "ContentTime": ["092300.068000", "092300.071000", "092300.074000", "092300.076000", "092300.079000", "092300.081000", "092300.084000", "092300.086000", "092300.090000", "092300.093000", "092300.096000", "092300.098000", "092300.101000", "092300.103000", "092300.106000", "092300.109000", "092300.118000", "092300.121000", "092300.125000", "092300.127000", "092300.130000", "092300.133000", "092300.135000", "092300.138000", "092300.141000", "092300.143000", "092340.062000", "092340.065000", "092340.068000", "092340.071000", "092340.073000", "092340.076000", "092340.078000", "092340.081000", "092340.084000", "092340.088000", "092340.091000", "092340.094000", "092340.096000", "092340.099000", "092340.101000", "092340.104000", "092340.107000", "092340.109000", "092340.118000", "092340.121000", "092420.062000", "092420.064000", "092420.067000", "092420.070000", "092420.072000", "092420.075000", "092420.078000", "092420.080000", "092420.083000", "092420.087000", "092420.090000", "092420.092000", "092420.095000", "092420.098000", "092420.100000", "092420.103000", "092420.106000", "092420.108000", "092420.111000", "092420.113000", "092500.061000", "092500.064000", "092500.067000", "092500.070000", "092500.072000", "092500.075000", "092500.077000", "092500.080000", "092500.082000", "092500.086000", "092500.089000", "092500.091000", "092500.094000", "092500.096000", "092500.099000", "092500.102000", "092500.104000", "092500.107000", "092500.110000", "092500.113000", "092540.062000", "092540.065000", "092540.068000", "092540.071000", "092540.073000", "092540.076000", "092540.078000", "092540.081000", "092540.086000", "092540.089000", "092540.091000", "092540.094000", "092540.097000", "092540.099000", "092540.102000", "092540.104000", "092540.107000", "092540.110000", "092540.112000", "092540.115000", "092620.062000", "092620.065000", "092620.068000", "092620.071000", "092620.073000", "092620.076000", "092620.079000", "092620.082000", "092620.086000", "092620.088000", "092620.091000", "092620.093000", "092620.096000", "092620.099000", "092620.101000", "092620.104000", "092620.107000", "092620.109000", "092620.112000", "092620.114000", "092700.062000", "092700.064000", "092700.067000", "092700.070000", "092700.072000", "092700.075000", "092700.078000", "092700.081000", "092700.084000", "092700.086000", "092700.089000", "092700.092000", "092700.094000", "092700.097000", "092700.099000", "092700.102000", "092700.105000", "092700.108000", "092700.111000", "092700.114000", "092740.062000", "092740.065000", "092740.068000", "092740.071000", "092740.073000", "092740.076000", "092740.079000", "092740.082000", "092740.085000", "092740.087000", "092740.090000", "092740.092000", "092740.095000", "092740.097000", "092740.100000", "092740.103000", "092740.106000", "092740.109000", "092740.112000", "092740.115000", "092820.062000", "092820.065000", "092820.068000", "092820.071000", "092820.073000", "092820.076000", "092820.080000", "092820.083000", "092820.085000", "092820.088000", "092820.091000", "092820.093000", "092820.096000", "092820.098000", "092820.101000", "092820.104000", "092820.106000", "092820.109000", "092820.112000", "092820.115000", "092840.063000", "092840.065000", "092840.068000", "092840.071000", "092840.073000", "092840.076000", "092840.079000", "092840.082000", "092840.085000", "092840.087000", "092846.309000", "092846.312000", "092846.314000", "092846.317000"],
      "InstanceCreationTime": ["092300.068000", "092300.071000", "092300.074000", "092300.076000", "092300.079000", "092300.081000", "092300.084000", "092300.086000", "092300.090000", "092300.093000", "092300.096000", "092300.098000", "092300.101000", "092300.103000", "092300.106000", "092300.109000", "092300.118000", "092300.121000", "092300.125000", "092300.127000", "092300.130000", "092300.133000", "092300.135000", "092300.138000", "092300.141000", "092300.143000", "092340.062000", "092340.065000", "092340.068000", "092340.071000", "092340.073000", "092340.076000", "092340.078000", "092340.081000", "092340.084000", "092340.088000", "092340.091000", "092340.094000", "092340.096000", "092340.099000", "092340.101000", "092340.104000", "092340.107000", "092340.109000", "092340.118000", "092340.121000", "092420.062000", "092420.064000", "092420.067000", "092420.070000", "092420.072000", "092420.075000", "092420.078000", "092420.080000", "092420.083000", "092420.087000", "092420.090000", "092420.092000", "092420.095000", "092420.098000", "092420.100000", "092420.103000", "092420.106000", "092420.108000", "092420.111000", "092420.113000", "092500.061000", "092500.064000", "092500.067000", "092500.070000", "092500.072000", "092500.075000", "092500.077000", "092500.080000", "092500.082000", "092500.086000", "092500.089000", "092500.091000", "092500.094000", "092500.096000", "092500.099000", "092500.102000", "092500.104000", "092500.107000", "092500.110000", "092500.113000", "092540.062000", "092540.065000", "092540.068000", "092540.071000", "092540.073000", "092540.076000", "092540.078000", "092540.081000", "092540.086000", "092540.089000", "092540.091000", "092540.094000", "092540.097000", "092540.099000", "092540.102000", "092540.104000", "092540.107000", "092540.110000", "092540.112000", "092540.115000", "092620.062000", "092620.065000", "092620.068000", "092620.071000", "092620.073000", "092620.076000", "092620.079000", "092620.082000", "092620.086000", "092620.088000", "092620.091000", "092620.093000", "092620.096000", "092620.099000", "092620.101000", "092620.104000", "092620.107000", "092620.109000", "092620.112000", "092620.114000", "092700.062000", "092700.064000", "092700.067000", "092700.070000", "092700.072000", "092700.075000", "092700.078000", "092700.081000", "092700.084000", "092700.086000", "092700.089000", "092700.092000", "092700.094000", "092700.097000", "092700.099000", "092700.102000", "092700.105000", "092700.108000", "092700.111000", "092700.114000", "092740.062000", "092740.065000", "092740.068000", "092740.071000", "092740.073000", "092740.076000", "092740.079000", "092740.082000", "092740.085000", "092740.087000", "092740.090000", "092740.092000", "092740.095000", "092740.097000", "092740.100000", "092740.103000", "092740.106000", "092740.109000", "092740.112000", "092740.115000", "092820.062000", "092820.065000", "092820.068000", "092820.071000", "092820.073000", "092820.076000", "092820.080000", "092820.083000", "092820.085000", "092820.088000", "092820.091000", "092820.093000", "092820.096000", "092820.098000", "092820.101000", "092820.104000", "092820.106000", "092820.109000", "092820.112000", "092820.115000", "092840.063000", "092840.065000", "092840.068000", "092840.071000", "092840.073000", "092840.076000", "092840.079000", "092840.082000", "092840.085000", "092840.087000", "092846.309000", "092846.312000", "092846.314000", "092846.317000"],
      "InstanceNumber": [1, 2, 3, 4, 5, 6, 7, 8, 9, 10, 11, 12, 13, 14, 15, 16, 17, 18, 19, 20, 21, 22, 23, 24, 25, 26, 27, 28, 29, 30, 31, 32, 33, 34, 35, 36, 37, 38, 39, 40, 41, 42, 43, 44, 45, 46, 47, 48, 49, 50, 51, 52, 53, 54, 55, 56, 57, 58, 59, 60, 61, 62, 63, 64, 65, 66, 67, 68, 69, 70, 71, 72, 73, 74, 75, 76, 77, 78, 79, 80, 81, 82, 83, 84, 85, 86, 87, 88, 89, 90, 91, 92, 93, 94, 95, 96, 97, 98, 99, 100, 101, 102, 103, 104, 105, 106, 107, 108, 109, 110, 111, 112, 113, 114, 115, 116, 117, 118, 119, 120, 121, 122, 123, 124, 125, 126, 127, 128, 129, 130, 131, 132, 133, 134, 135, 136, 137, 138, 139, 140, 141, 142, 143, 144, 145, 146, 147, 148, 149, 150, 151, 152, 153, 154, 155, 156, 157, 158, 159, 160, 161, 162, 163, 164, 165, 166, 167, 168, 169, 170, 171, 172, 173, 174, 175, 176, 177, 178, 179, 180, 181, 182, 183, 184, 185, 186, 187, 188, 189, 190, 191, 192, 193, 194, 195, 196, 197, 198, 199, 200],
      "LargestImagePixelValue": [3708, 3713, 3701, 3703, 3710, 3705, 3695, 3704, 3705, 3709, 3695, 3717, 3712, 3700, 3704, 3708, 3711, 3703, 3705, 3702, 3714, 3709, 3711, 3701, 3709, 3702, 3712, 3715, 3705, 3704, 3714, 3701, 3697, 3717, 3704, 3701, 3712, 3706, 3697, 3714, 3702, 3697, 3708, 3698, 3702, 3703, 3703, 3715, 3699, 3707, 3706, 3702, 3703, 3709, 3708, 3697, 3701, 3707, 3699, 3707, 3707, 3707, 3712, 3690, 3710, 3702, 3693, 3696, 3706, 3691, 3707, 3693, 3696, 3700, 3700, 3707, 3699, 3687, 3705, 3697, 3700, 3696, 3701, 3691, 3702, 3699, 3707, 3695, 3703, 3702, 3702, 3715, 3699, 3694, 3702, 3710, 3697, 3707, 3702, 3703, 3699, 3694, 3713, 3707, 3703, 3697, 3693, 3711, 3700, 3694, 3693, 3699, 3701, 3704, 3705, 3699, 3696, 3701, 3695, 3694, 3690, 3710, 3714, 3710, 3696, 3697, 3701, 3701, 3705, 3702, 3695, 3696, 3706, 3698, 3699, 3694, 3710, 3709, 3693, 3699, 3697, 3709, 3706, 3696, 3707, 3706, 3708, 3710, 3705, 3697, 3714, 3688, 3698, 3684, 3701, 3691, 3693, 3703, 3694, 3698, 3700, 3695, 3698, 3693, 3702, 3702, 3700, 3697, 3703, 3704, 3703, 3705, 3696, 3698, 3696, 3686, 3695, 3694, 3700, 3698, 3691, 3702, 3693, 3704, 3689, 3682, 3699, 3687, 3687, 3707, 3710, 3709, 3684, 3686, 3693, 3686, 3706, 3702, 3692, 3686],
      "WindowCenter": [1371.0, 1370.0, 1370.0, 1369.0, 1369.0, 1369.0, 1369.0, 1369.0, 1369.0, 1369.0, 1369.0, 1369.0, 1369.0, 1369.0, 1370.0, 1369.0, 1369.0, 1369.0, 1369.0, 1369.0, 1369.0, 1370.0, 1369.0, 1370.0, 1370.0, 1369.0, 1369.0, 1369.0, 1369.0, 1369.0, 1369.0, 1369.0, 1369.0, 1369.0, 1368.0, 1368.0, 1369.0, 1369.0, 1369.0, 1369.0, 1369.0, 1369.0, 1369.0, 1369.0, 1369.0, 1369.0, 1369.0, 1368.0, 1369.0, 1369.0, 1369.0, 1368.0, 1367.0, 1369.0, 1368.0, 1368.0, 1368.0, 1367.0, 1368.0, 1368.0, 1368.0, 1368.0, 1368.0, 1368.0, 1368.0, 1368.0, 1367.0, 1368.0, 1368.0, 1368.0, 1367.0, 1368.0, 1368.0, 1368.0, 1368.0, 1368.0, 1367.0, 1368.0, 1368.0, 1368.0, 1367.0, 1368.0, 1368.0, 1367.0, 1367.0, 1367.0, 1367.0, 1368.0, 1367.0, 1368.0, 1367.0, 1367.0, 1368.0, 1367.0, 1367.0, 1367.0, 1367.0, 1367.0, 1367.0, 1367.0, 1367.0, 1367.0, 1367.0, 1367.0, 1367.0, 1367.0, 1367.0, 1367.0, 1367.0, 1367.0, 1367.0, 1367.0, 1367.0, 1367.0, 1367.0, 1367.0, 1367.0, 1366.0, 1367.0, 1367.0, 1367.0, 1366.0, 1366.0, 1366.0, 1367.0, 1367.0, 1366.0, 1367.0, 1367.0, 1366.0, 1367.0, 1367.0, 1366.0, 1366.0, 1366.0, 1366.0, 1367.0, 1366.0, 1367.0, 1366.0, 1366.0, 1366.0, 1366.0, 1367.0, 1366.0, 1366.0, 1366.0, 1366.0, 1366.0, 1367.0, 1366.0, 1367.0, 1367.0, 1367.0, 1367.0, 1367.0, 1366.0, 1367.0, 1367.0, 1367.0, 1367.0, 1366.0, 1366.0, 1366.0, 1367.0, 1366.0, 1366.0, 1366.0, 1366.0, 1366.0, 1366.0, 1366.0, 1365.0, 1366.0, 1366.0, 1366.0, 1366.0, 1366.0, 1366.0, 1366.0, 1366.0, 1366.0, 1366.0, 1366.0, 1366.0, 1366.0, 1366.0, 1366.0, 1366.0, 1366.0, 1366.0, 1366.0, 1366.0, 1366.0, 1365.0, 1365.0, 1366.0, 1366.0, 1366.0, 1365.0],
      "WindowWidth": [3205.0, 3203.0, 3203.0, 3203.0, 3203.0, 3203.0, 3203.0, 3203.0, 3203.0, 3203.0, 3203.0, 3203.0, 3203.0, 3203.0, 3202.0, 3203.0, 3203.0, 3203.0, 3203.0, 3203.0, 3203.0, 3203.0, 3203.0, 3203.0, 3203.0, 3203.0, 3203.0, 3203.0, 3204.0, 3203.0, 3203.0, 3203.0, 3203.0, 3203.0, 3203.0, 3203.0, 3203.0, 3203.0, 3203.0, 3203.0, 3203.0, 3203.0, 3203.0, 3203.0, 3203.0, 3203.0, 3203.0, 3203.0, 3203.0, 3203.0, 3203.0, 3203.0, 3203.0, 3203.0, 3203.0, 3203.0, 3203.0, 3203.0, 3203.0, 3202.0, 3203.0, 3202.0, 3202.0, 3202.0, 3202.0, 3202.0, 3203.0, 3202.0, 3202.0, 3202.0, 3202.0, 3202.0, 3202.0, 3202.0, 3202.0, 3202.0, 3202.0, 3202.0, 3202.0, 3202.0, 3202.0, 3202.0, 3202.0, 3202.0, 3202.0, 3202.0, 3202.0, 3202.0, 3202.0, 3202.0, 3202.0, 3202.0, 3202.0, 3202.0, 3202.0, 3202.0, 3202.0, 3202.0, 3202.0, 3202.0, 3201.0, 3202.0, 3202.0, 3202.0, 3202.0, 3202.0, 3202.0, 3202.0, 3202.0, 3202.0, 3201.0, 3202.0, 3202.0, 3202.0, 3201.0, 3202.0, 3201.0, 3202.0, 3201.0, 3201.0, 3201.0, 3202.0, 3202.0, 3202.0, 3201.0, 3201.0, 3201.0, 3201.0, 3201.0, 3201.0, 3201.0, 3201.0, 3201.0, 3201.0, 3202.0, 3202.0, 3201.0, 3201.0, 3201.0, 3201.0, 3201.0, 3201.0, 3201.0, 3201.0, 3201.0, 3201.0, 3201.0, 3201.0, 3201.0, 3201.0, 3201.0, 3201.0, 3201.0, 3201.0, 3201.0, 3201.0, 3201.0, 3201.0, 3201.0, 3201.0, 3201.0, 3201.0, 3201.0, 3201.0, 3201.0, 3201.0, 3201.0, 3201.0, 3201.0, 3201.0, 3201.0, 3201.0, 3201.0, 3201.0, 3201.0, 3201.0, 3201.0, 3201.0, 3201.0, 3201.0, 3200.0, 3201.0, 3201.0, 3201.0, 3200.0, 3201.0, 3200.0, 3201.0, 3200.0, 3201.0, 3201.0, 3201.0, 3200.0, 3201.0, 3201.0, 3201.0, 3200.0, 3200.0, 3200.0, 3200.0]
    },
    "slices": {}
  }
}